# participant_id: P9
# gesture: hard
# trial_number: 2
# stream_name: Myo_EMG
# stream_type: emg
# timestamp: 20260420_155536
# samples: 5684
# duration_sec: 30.451
# nominal_sample_rate: 200.0
# effective_sample_rate: 186.63
#
timestamp,emg_1,emg_2,emg_3,emg_4,emg_5,emg_6,emg_7,emg_8
1305228.744552,123.000000,-52.000000,-6.000000,-7.000000,-18.000000,-21.000000,127.000000,94.000000
1305228.744563,-108.000000,51.000000,-27.000000,-52.000000,-7.000000,11.000000,-83.000000,-75.000000
1305228.744984,-61.000000,-128.000000,-45.000000,-5.000000,23.000000,-31.000000,-119.000000,-71.000000
1305228.744991,-128.000000,-90.000000,-36.000000,-67.000000,7.000000,10.000000,-37.000000,-62.000000
1305228.746316,127.000000,127.000000,20.000000,-4.000000,-65.000000,-70.000000,58.000000,76.000000
1305228.746325,-69.000000,-99.000000,-76.000000,49.000000,106.000000,32.000000,-14.000000,-31.000000
1305228.746956,18.000000,54.000000,27.000000,58.000000,43.000000,59.000000,127.000000,52.000000
1305228.746965,-55.000000,120.000000,-82.000000,-46.000000,-28.000000,-24.000000,1.000000,-28.000000
1305228.748572,-88.000000,-36.000000,16.000000,82.000000,89.000000,-100.000000,-128.000000,-100.000000
1305228.748581,127.000000,41.000000,8.000000,-11.000000,-3.000000,127.000000,43.000000,90.000000
1305228.760853,-86.000000,127.000000,102.000000,35.000000,-53.000000,-82.000000,45.000000,-8.000000
1305228.760863,-42.000000,13.000000,-66.000000,-81.000000,-128.000000,-111.000000,-51.000000,3.000000
1305228.767150,-15.000000,-88.000000,-18.000000,24.000000,127.000000,127.000000,120.000000,62.000000
1305228.767162,-71.000000,-128.000000,-92.000000,45.000000,56.000000,-86.000000,-68.000000,-71.000000
1305228.804666,127.000000,-47.000000,127.000000,53.000000,-1.000000,60.000000,127.000000,127.000000
1305228.804695,-29.000000,13.000000,-71.000000,96.000000,109.000000,4.000000,-82.000000,-17.000000
1305228.812053,-85.000000,127.000000,76.000000,113.000000,76.000000,-4.000000,71.000000,13.000000
1305228.812064,127.000000,-128.000000,-60.000000,7.000000,34.000000,58.000000,83.000000,28.000000
1305228.850195,-121.000000,-50.000000,-6.000000,25.000000,84.000000,-7.000000,-128.000000,-84.000000
1305228.850225,127.000000,127.000000,68.000000,16.000000,-13.000000,53.000000,25.000000,75.000000
1305228.864946,-56.000000,74.000000,-36.000000,11.000000,30.000000,-7.000000,-128.000000,-59.000000
1305228.864970,-57.000000,-128.000000,-36.000000,36.000000,22.000000,45.000000,-59.000000,-33.000000
1305228.879786,74.000000,47.000000,-46.000000,-45.000000,-45.000000,16.000000,13.000000,72.000000
1305228.879828,-30.000000,127.000000,1.000000,53.000000,49.000000,6.000000,-51.000000,-37.000000
1305228.887132,-115.000000,127.000000,-23.000000,-128.000000,-128.000000,4.000000,-12.000000,-36.000000
1305228.887143,127.000000,127.000000,52.000000,42.000000,27.000000,20.000000,88.000000,108.000000
1305228.888162,127.000000,-128.000000,-128.000000,-69.000000,-112.000000,-106.000000,127.000000,74.000000
1305228.888172,-35.000000,127.000000,72.000000,8.000000,-10.000000,112.000000,126.000000,46.000000
1305228.890048,-64.000000,-122.000000,-128.000000,-28.000000,-42.000000,-32.000000,21.000000,-61.000000
1305228.890064,127.000000,127.000000,98.000000,2.000000,43.000000,2.000000,-21.000000,125.000000
1305228.890638,-128.000000,-122.000000,-44.000000,0.000000,38.000000,10.000000,-54.000000,-10.000000
1305228.890649,127.000000,44.000000,0.000000,8.000000,7.000000,-23.000000,66.000000,70.000000
1305228.910676,-29.000000,-126.000000,53.000000,-12.000000,-19.000000,40.000000,-58.000000,-12.000000
1305228.910699,-128.000000,127.000000,-128.000000,51.000000,43.000000,19.000000,-128.000000,-116.000000
1305228.911158,70.000000,-128.000000,-128.000000,-120.000000,13.000000,-2.000000,-20.000000,-14.000000
1305228.911175,1.000000,-40.000000,127.000000,83.000000,127.000000,80.000000,3.000000,22.000000
1305228.917944,-84.000000,26.000000,85.000000,62.000000,48.000000,12.000000,-52.000000,-40.000000
1305228.917954,60.000000,-128.000000,-58.000000,-48.000000,-26.000000,16.000000,-128.000000,-32.000000
1305228.925062,40.000000,127.000000,127.000000,16.000000,32.000000,33.000000,120.000000,32.000000
1305228.925080,-59.000000,-3.000000,19.000000,73.000000,44.000000,15.000000,43.000000,42.000000
1305228.970123,34.000000,-48.000000,6.000000,-88.000000,-63.000000,-51.000000,-111.000000,-12.000000
1305228.970152,-90.000000,-37.000000,-48.000000,33.000000,26.000000,-34.000000,3.000000,-54.000000
1305228.984933,127.000000,127.000000,127.000000,64.000000,-3.000000,42.000000,127.000000,103.000000
1305228.984962,72.000000,127.000000,127.000000,53.000000,115.000000,82.000000,-35.000000,14.000000
1305228.992841,-128.000000,-79.000000,-43.000000,26.000000,68.000000,96.000000,88.000000,-10.000000
1305228.992861,-3.000000,-102.000000,22.000000,-40.000000,-84.000000,-48.000000,-54.000000,17.000000
1305228.993375,77.000000,127.000000,20.000000,7.000000,28.000000,-11.000000,-13.000000,36.000000
1305228.993390,-15.000000,-14.000000,34.000000,-6.000000,0.000000,-59.000000,-108.000000,-53.000000
1305228.994715,-128.000000,79.000000,-33.000000,37.000000,105.000000,127.000000,-107.000000,-35.000000
1305228.994742,127.000000,42.000000,77.000000,-21.000000,-128.000000,14.000000,127.000000,127.000000
1305228.995586,67.000000,7.000000,127.000000,75.000000,55.000000,-27.000000,-100.000000,16.000000
1305228.995613,-15.000000,-76.000000,-97.000000,44.000000,32.000000,4.000000,100.000000,5.000000
1305229.000490,-18.000000,127.000000,127.000000,102.000000,119.000000,80.000000,61.000000,11.000000
1305229.000518,-20.000000,-128.000000,-21.000000,64.000000,61.000000,0.000000,-41.000000,-6.000000
1305229.007307,-128.000000,-50.000000,74.000000,66.000000,54.000000,-105.000000,-128.000000,-99.000000
1305229.007317,127.000000,-128.000000,116.000000,20.000000,89.000000,29.000000,59.000000,127.000000
1305229.022961,-128.000000,40.000000,41.000000,9.000000,16.000000,-48.000000,-38.000000,-86.000000
1305229.022972,-15.000000,58.000000,-29.000000,15.000000,93.000000,70.000000,-41.000000,-23.000000
1305229.030161,-89.000000,-85.000000,10.000000,32.000000,-19.000000,-6.000000,-22.000000,-66.000000
1305229.030187,-52.000000,85.000000,-128.000000,-51.000000,-18.000000,63.000000,117.000000,44.000000
1305229.038016,46.000000,-128.000000,-80.000000,101.000000,104.000000,-70.000000,-52.000000,-18.000000
1305229.038027,-48.000000,127.000000,-128.000000,31.000000,28.000000,34.000000,39.000000,-63.000000
1305229.044971,10.000000,127.000000,-127.000000,-3.000000,72.000000,-84.000000,-55.000000,-40.000000
1305229.045000,-10.000000,-31.000000,98.000000,-19.000000,-88.000000,0.000000,113.000000,25.000000
1305229.082560,-97.000000,-82.000000,3.000000,34.000000,-56.000000,-76.000000,-119.000000,-35.000000
1305229.082571,-27.000000,54.000000,-101.000000,-95.000000,-67.000000,34.000000,-29.000000,-3.000000
1305229.089870,4.000000,-120.000000,-6.000000,33.000000,34.000000,39.000000,47.000000,17.000000
1305229.089881,-20.000000,-61.000000,127.000000,79.000000,90.000000,127.000000,-128.000000,-31.000000
1305229.112238,2.000000,-102.000000,-128.000000,-116.000000,-115.000000,-105.000000,54.000000,-8.000000
1305229.112269,127.000000,-56.000000,115.000000,99.000000,41.000000,4.000000,127.000000,127.000000
1305229.120122,-120.000000,-128.000000,-31.000000,-13.000000,-21.000000,15.000000,39.000000,15.000000
1305229.120142,-128.000000,-75.000000,8.000000,104.000000,80.000000,-82.000000,-35.000000,-109.000000
1305229.142249,127.000000,127.000000,-28.000000,-15.000000,-2.000000,58.000000,16.000000,127.000000
1305229.142259,-128.000000,-128.000000,0.000000,37.000000,40.000000,-29.000000,-112.000000,-80.000000
1305229.149783,-42.000000,-78.000000,-43.000000,-35.000000,-54.000000,-41.000000,-128.000000,-12.000000
1305229.149798,66.000000,127.000000,74.000000,-57.000000,-25.000000,127.000000,127.000000,102.000000
1305229.187705,-34.000000,35.000000,1.000000,81.000000,127.000000,-128.000000,-128.000000,-66.000000
1305229.187738,127.000000,-128.000000,72.000000,-25.000000,-128.000000,-68.000000,116.000000,24.000000
1305229.194987,-125.000000,34.000000,-40.000000,-30.000000,-15.000000,2.000000,-119.000000,-51.000000
1305229.195031,-58.000000,-19.000000,26.000000,-24.000000,-128.000000,-110.000000,21.000000,16.000000
1305229.209854,127.000000,91.000000,56.000000,-128.000000,-128.000000,60.000000,-8.000000,60.000000
1305229.209872,-128.000000,30.000000,-70.000000,-14.000000,-52.000000,78.000000,127.000000,-4.000000
1305229.225267,73.000000,45.000000,54.000000,-43.000000,-73.000000,-23.000000,-45.000000,24.000000
1305229.225317,30.000000,-68.000000,32.000000,-38.000000,127.000000,71.000000,-14.000000,3.000000
1305229.226525,127.000000,-26.000000,127.000000,81.000000,19.000000,-31.000000,43.000000,38.000000
1305229.226535,105.000000,9.000000,-95.000000,18.000000,114.000000,31.000000,48.000000,63.000000
1305229.227755,75.000000,-21.000000,-48.000000,-30.000000,-89.000000,-14.000000,-31.000000,56.000000
1305229.227768,28.000000,-100.000000,-96.000000,-26.000000,-37.000000,34.000000,75.000000,36.000000
1305229.228660,-128.000000,-128.000000,-128.000000,-6.000000,43.000000,-44.000000,-128.000000,-90.000000
1305229.228669,54.000000,127.000000,49.000000,-52.000000,-123.000000,70.000000,51.000000,-8.000000
1305229.247908,112.000000,10.000000,127.000000,30.000000,94.000000,10.000000,-19.000000,58.000000
1305229.247937,127.000000,-128.000000,3.000000,-90.000000,-59.000000,127.000000,127.000000,127.000000
1305229.248448,-120.000000,127.000000,26.000000,63.000000,58.000000,90.000000,-52.000000,-21.000000
1305229.248457,-83.000000,-110.000000,-38.000000,40.000000,57.000000,-53.000000,-86.000000,-87.000000
1305229.269597,-82.000000,127.000000,127.000000,127.000000,103.000000,-21.000000,-114.000000,-17.000000
1305229.269610,11.000000,-128.000000,-128.000000,-59.000000,-36.000000,-76.000000,-16.000000,13.000000
1305229.270285,-13.000000,-13.000000,-61.000000,62.000000,76.000000,-12.000000,45.000000,-15.000000
1305229.270306,66.000000,-114.000000,33.000000,-84.000000,-128.000000,-32.000000,75.000000,10.000000
1305229.278249,-128.000000,-128.000000,-82.000000,37.000000,49.000000,-70.000000,-128.000000,-88.000000
1305229.278313,127.000000,127.000000,127.000000,97.000000,55.000000,62.000000,127.000000,89.000000
1305229.300016,-128.000000,-128.000000,-110.000000,-117.000000,-20.000000,56.000000,15.000000,-14.000000
1305229.300048,10.000000,117.000000,-55.000000,-42.000000,-83.000000,-64.000000,-66.000000,8.000000
1305229.344635,-82.000000,56.000000,21.000000,82.000000,37.000000,19.000000,13.000000,-7.000000
1305229.344650,-29.000000,-9.000000,13.000000,0.000000,-1.000000,-14.000000,-44.000000,-45.000000
1305229.345065,-24.000000,-103.000000,-51.000000,-35.000000,-20.000000,-50.000000,59.000000,-13.000000
1305229.345074,-101.000000,-128.000000,-19.000000,62.000000,107.000000,5.000000,-108.000000,-44.000000
1305229.346318,127.000000,127.000000,84.000000,6.000000,29.000000,78.000000,53.000000,82.000000
1305229.346326,-50.000000,-92.000000,-47.000000,-56.000000,-51.000000,14.000000,12.000000,7.000000
1305229.346940,-128.000000,-106.000000,42.000000,38.000000,-39.000000,-58.000000,-51.000000,-128.000000
1305229.346960,127.000000,127.000000,57.000000,-61.000000,-2.000000,-53.000000,97.000000,60.000000
1305229.348540,-113.000000,-26.000000,-115.000000,26.000000,7.000000,-48.000000,-79.000000,-58.000000
1305229.348550,-75.000000,-52.000000,1.000000,38.000000,59.000000,-17.000000,-20.000000,-34.000000
1305229.359732,-128.000000,-9.000000,127.000000,7.000000,-19.000000,-29.000000,-72.000000,-63.000000
1305229.359743,127.000000,9.000000,-21.000000,16.000000,39.000000,0.000000,-56.000000,48.000000
1305229.360982,-128.000000,-128.000000,-104.000000,-72.000000,-16.000000,47.000000,34.000000,-55.000000
1305229.361015,127.000000,127.000000,91.000000,-32.000000,-72.000000,12.000000,83.000000,127.000000
1305229.367148,-128.000000,6.000000,39.000000,4.000000,19.000000,-24.000000,7.000000,-17.000000
1305229.367167,127.000000,8.000000,104.000000,52.000000,25.000000,68.000000,47.000000,26.000000
1305229.382957,-37.000000,81.000000,-106.000000,-38.000000,6.000000,45.000000,-83.000000,-6.000000
1305229.382975,75.000000,16.000000,-18.000000,17.000000,28.000000,-38.000000,47.000000,-5.000000
1305229.390038,11.000000,-11.000000,-38.000000,-45.000000,-29.000000,-35.000000,5.000000,36.000000
1305229.390049,-128.000000,-4.000000,106.000000,127.000000,122.000000,12.000000,-8.000000,-59.000000
1305229.442513,127.000000,127.000000,-52.000000,-99.000000,-76.000000,27.000000,67.000000,25.000000
1305229.442532,-68.000000,-107.000000,-105.000000,-61.000000,-100.000000,-107.000000,-95.000000,-57.000000
1305229.465124,-74.000000,22.000000,61.000000,67.000000,111.000000,-33.000000,-128.000000,-80.000000
1305229.465170,127.000000,58.000000,123.000000,-26.000000,-52.000000,127.000000,127.000000,127.000000
1305229.472336,127.000000,-13.000000,0.000000,20.000000,39.000000,28.000000,-128.000000,85.000000
1305229.472382,39.000000,49.000000,-91.000000,9.000000,45.000000,67.000000,-52.000000,13.000000
1305229.479839,-128.000000,-128.000000,68.000000,22.000000,-52.000000,-41.000000,-128.000000,-107.000000
1305229.479930,56.000000,127.000000,91.000000,-128.000000,-128.000000,101.000000,127.000000,127.000000
1305229.480648,-23.000000,99.000000,-26.000000,19.000000,59.000000,76.000000,-19.000000,-106.000000
1305229.480660,127.000000,-68.000000,41.000000,40.000000,34.000000,6.000000,62.000000,52.000000
1305229.482131,-34.000000,-105.000000,27.000000,15.000000,36.000000,57.000000,16.000000,41.000000
1305229.482140,-43.000000,-22.000000,112.000000,127.000000,113.000000,12.000000,12.000000,10.000000
1305229.483577,56.000000,6.000000,24.000000,62.000000,127.000000,13.000000,62.000000,36.000000
1305229.483618,-51.000000,127.000000,127.000000,5.000000,-36.000000,120.000000,123.000000,55.000000
1305229.487301,11.000000,-128.000000,-128.000000,11.000000,15.000000,-71.000000,-110.000000,-44.000000
1305229.487323,-128.000000,127.000000,127.000000,-98.000000,-128.000000,-29.000000,-2.000000,-68.000000
1305229.502382,127.000000,127.000000,-3.000000,-18.000000,-3.000000,-24.000000,72.000000,127.000000
1305229.502406,-128.000000,-128.000000,-54.000000,95.000000,40.000000,-88.000000,-16.000000,-99.000000
1305229.524941,57.000000,127.000000,-48.000000,-111.000000,-128.000000,-59.000000,-56.000000,-60.000000
1305229.524957,38.000000,2.000000,22.000000,4.000000,-1.000000,33.000000,64.000000,69.000000
1305229.554922,-128.000000,-96.000000,-36.000000,20.000000,-3.000000,-60.000000,-8.000000,-31.000000
1305229.554934,-63.000000,37.000000,-67.000000,10.000000,50.000000,13.000000,-30.000000,1.000000
1305229.562608,53.000000,-28.000000,63.000000,-17.000000,-54.000000,-80.000000,-43.000000,-68.000000
1305229.562622,127.000000,33.000000,-52.000000,-6.000000,46.000000,95.000000,127.000000,127.000000
1305229.584408,127.000000,-128.000000,53.000000,20.000000,20.000000,29.000000,-2.000000,94.000000
1305229.584423,-40.000000,13.000000,1.000000,34.000000,59.000000,30.000000,63.000000,-25.000000
1305229.585024,-88.000000,-128.000000,-34.000000,50.000000,-1.000000,69.000000,-50.000000,-25.000000
1305229.585033,26.000000,-12.000000,-47.000000,-44.000000,-128.000000,-99.000000,9.000000,-11.000000
1305229.586334,127.000000,-35.000000,48.000000,27.000000,-24.000000,79.000000,92.000000,108.000000
1305229.586344,-11.000000,79.000000,111.000000,-128.000000,-128.000000,19.000000,80.000000,-39.000000
1305229.586956,-128.000000,-128.000000,-128.000000,34.000000,64.000000,-49.000000,-48.000000,-93.000000
1305229.586965,127.000000,127.000000,31.000000,-54.000000,-10.000000,-14.000000,-23.000000,52.000000
1305229.592301,-128.000000,-71.000000,-53.000000,-15.000000,1.000000,-66.000000,-95.000000,-72.000000
1305229.592319,-53.000000,-128.000000,-128.000000,-72.000000,-55.000000,-93.000000,-39.000000,-37.000000
1305229.600496,24.000000,0.000000,127.000000,30.000000,15.000000,45.000000,114.000000,95.000000
1305229.600542,26.000000,-7.000000,-118.000000,59.000000,77.000000,27.000000,63.000000,29.000000
1305229.621983,39.000000,127.000000,70.000000,87.000000,115.000000,-17.000000,7.000000,14.000000
1305229.621997,-29.000000,-128.000000,21.000000,65.000000,66.000000,24.000000,-76.000000,-57.000000
1305229.623727,-51.000000,127.000000,127.000000,-24.000000,-45.000000,28.000000,85.000000,57.000000
1305229.623744,114.000000,39.000000,29.000000,-39.000000,0.000000,8.000000,-13.000000,-8.000000
1305229.637212,-117.000000,-128.000000,32.000000,94.000000,65.000000,-18.000000,-9.000000,17.000000
1305229.637222,127.000000,72.000000,62.000000,-109.000000,-128.000000,8.000000,106.000000,127.000000
1305229.674747,-128.000000,-128.000000,-66.000000,-128.000000,-111.000000,13.000000,-58.000000,-29.000000
1305229.674758,127.000000,127.000000,-47.000000,-15.000000,31.000000,13.000000,75.000000,67.000000
1305229.682677,41.000000,-20.000000,10.000000,116.000000,117.000000,-96.000000,-56.000000,-71.000000
1305229.682708,-95.000000,115.000000,104.000000,-128.000000,-128.000000,-1.000000,-3.000000,-18.000000
1305229.704938,-128.000000,63.000000,-128.000000,27.000000,-45.000000,-128.000000,-128.000000,-106.000000
1305229.704954,127.000000,-33.000000,14.000000,30.000000,26.000000,127.000000,127.000000,127.000000
1305229.705502,118.000000,111.000000,-121.000000,57.000000,125.000000,18.000000,-70.000000,6.000000
1305229.705520,-96.000000,-52.000000,8.000000,8.000000,14.000000,-89.000000,-128.000000,-87.000000
1305229.707229,-128.000000,-61.000000,-70.000000,-26.000000,-49.000000,47.000000,127.000000,-29.000000
1305229.707249,51.000000,12.000000,47.000000,29.000000,62.000000,2.000000,9.000000,0.000000
1305229.707689,-11.000000,-59.000000,63.000000,33.000000,3.000000,-93.000000,-6.000000,-89.000000
1305229.707702,22.000000,-52.000000,-77.000000,19.000000,59.000000,22.000000,96.000000,123.000000
1305229.712321,-37.000000,-128.000000,98.000000,-10.000000,17.000000,23.000000,-93.000000,-93.000000
1305229.712334,-128.000000,18.000000,127.000000,-58.000000,-94.000000,101.000000,127.000000,17.000000
1305229.720263,127.000000,127.000000,-128.000000,-46.000000,-2.000000,-104.000000,-128.000000,32.000000
1305229.720272,-128.000000,-51.000000,19.000000,-27.000000,-21.000000,-16.000000,84.000000,-35.000000
1305229.742183,-89.000000,-36.000000,17.000000,48.000000,53.000000,17.000000,-23.000000,-35.000000
1305229.742206,-3.000000,14.000000,-24.000000,-6.000000,19.000000,-63.000000,-99.000000,-28.000000
1305229.743545,-123.000000,-128.000000,-128.000000,73.000000,90.000000,-14.000000,15.000000,-67.000000
1305229.743566,127.000000,127.000000,60.000000,11.000000,19.000000,95.000000,127.000000,127.000000
1305229.757369,127.000000,127.000000,-20.000000,6.000000,8.000000,-72.000000,-50.000000,-37.000000
1305229.757389,-128.000000,-27.000000,73.000000,48.000000,1.000000,41.000000,-8.000000,-88.000000
1305229.779628,70.000000,4.000000,-128.000000,-128.000000,-128.000000,-128.000000,-60.000000,-83.000000
1305229.779637,-128.000000,-128.000000,-54.000000,99.000000,52.000000,34.000000,31.000000,-33.000000
1305229.787221,-128.000000,19.000000,34.000000,-14.000000,-114.000000,20.000000,-3.000000,-56.000000
1305229.787244,127.000000,78.000000,-128.000000,-109.000000,-114.000000,-55.000000,36.000000,118.000000
1305229.802173,32.000000,127.000000,127.000000,31.000000,26.000000,24.000000,-28.000000,2.000000
1305229.802182,-128.000000,-114.000000,-9.000000,38.000000,33.000000,16.000000,54.000000,-7.000000
1305229.817371,96.000000,127.000000,-128.000000,-128.000000,-66.000000,-1.000000,-106.000000,-50.000000
1305229.817382,-39.000000,-128.000000,-128.000000,-29.000000,-52.000000,-15.000000,31.000000,-54.000000
1305229.839698,37.000000,-48.000000,-39.000000,23.000000,-29.000000,-13.000000,-20.000000,1.000000
1305229.839709,-74.000000,71.000000,-95.000000,-55.000000,19.000000,14.000000,-77.000000,-40.000000
1305229.854807,127.000000,-21.000000,127.000000,72.000000,86.000000,94.000000,127.000000,114.000000
1305229.854818,-79.000000,127.000000,-99.000000,-5.000000,17.000000,49.000000,-96.000000,-54.000000
1305229.855898,-11.000000,-128.000000,-28.000000,-26.000000,-15.000000,-63.000000,-48.000000,-13.000000
1305229.855906,-45.000000,-51.000000,127.000000,80.000000,80.000000,-13.000000,-121.000000,-101.000000
1305229.856426,-80.000000,-128.000000,-91.000000,-36.000000,-32.000000,-39.000000,45.000000,7.000000
1305229.856437,23.000000,76.000000,89.000000,48.000000,67.000000,-46.000000,-44.000000,-49.000000
1305229.857635,-128.000000,10.000000,113.000000,114.000000,67.000000,-2.000000,-94.000000,-104.000000
1305229.857643,127.000000,-89.000000,-106.000000,-128.000000,-128.000000,-16.000000,-17.000000,32.000000
1305229.862390,-45.000000,54.000000,127.000000,30.000000,34.000000,24.000000,-33.000000,-20.000000
1305229.862401,8.000000,-98.000000,109.000000,-44.000000,-72.000000,1.000000,-44.000000,14.000000
1305229.899912,18.000000,127.000000,127.000000,-30.000000,53.000000,43.000000,73.000000,42.000000
1305229.899921,-53.000000,127.000000,-7.000000,-10.000000,36.000000,30.000000,90.000000,1.000000
1305229.929650,-63.000000,-24.000000,5.000000,32.000000,64.000000,-18.000000,-118.000000,-89.000000
1305229.929672,-43.000000,22.000000,-69.000000,29.000000,85.000000,-24.000000,-62.000000,-52.000000
1305229.937010,-102.000000,127.000000,127.000000,29.000000,-4.000000,127.000000,127.000000,37.000000
1305229.937018,127.000000,-45.000000,9.000000,-57.000000,-2.000000,18.000000,8.000000,127.000000
1305229.945084,-77.000000,-36.000000,23.000000,11.000000,7.000000,-5.000000,-69.000000,-66.000000
1305229.945095,-128.000000,7.000000,2.000000,34.000000,43.000000,13.000000,-68.000000,-36.000000
1305229.945712,63.000000,127.000000,52.000000,86.000000,91.000000,-19.000000,48.000000,72.000000
1305229.945719,59.000000,127.000000,107.000000,33.000000,66.000000,54.000000,63.000000,39.000000
1305229.959544,-102.000000,28.000000,-22.000000,8.000000,42.000000,11.000000,-112.000000,-83.000000
1305229.959555,95.000000,31.000000,-19.000000,-28.000000,-51.000000,-41.000000,72.000000,31.000000
1305229.960915,-114.000000,-101.000000,-16.000000,-28.000000,-46.000000,-27.000000,16.000000,-22.000000
1305229.960925,21.000000,-11.000000,-3.000000,2.000000,-14.000000,-34.000000,82.000000,40.000000
1305229.974523,-27.000000,-128.000000,-128.000000,-82.000000,9.000000,84.000000,-6.000000,-18.000000
1305229.974534,-44.000000,127.000000,105.000000,28.000000,-29.000000,-34.000000,30.000000,-8.000000
1305229.981919,127.000000,127.000000,75.000000,38.000000,15.000000,2.000000,0.000000,62.000000
1305229.981929,127.000000,121.000000,127.000000,-38.000000,-11.000000,93.000000,83.000000,103.000000
1305229.997385,-47.000000,-91.000000,-59.000000,35.000000,18.000000,-16.000000,8.000000,16.000000
1305229.997396,75.000000,-12.000000,-5.000000,39.000000,-1.000000,-63.000000,-42.000000,-29.000000
1305230.027172,-9.000000,-30.000000,127.000000,38.000000,73.000000,45.000000,-111.000000,-18.000000
1305230.027190,115.000000,-54.000000,-17.000000,-62.000000,-79.000000,-10.000000,127.000000,100.000000
1305230.034543,-14.000000,20.000000,39.000000,49.000000,50.000000,-22.000000,79.000000,8.000000
1305230.034553,-104.000000,-128.000000,-128.000000,18.000000,25.000000,-22.000000,-21.000000,-65.000000
1305230.057140,-16.000000,-19.000000,-128.000000,-83.000000,-40.000000,4.000000,-67.000000,-44.000000
1305230.057152,-128.000000,86.000000,62.000000,53.000000,96.000000,81.000000,-28.000000,-50.000000
1305230.057670,127.000000,127.000000,-34.000000,54.000000,90.000000,-30.000000,87.000000,127.000000
1305230.057680,-128.000000,-128.000000,13.000000,-128.000000,-128.000000,-12.000000,-53.000000,-47.000000
1305230.058950,-5.000000,52.000000,-12.000000,86.000000,86.000000,42.000000,-104.000000,-47.000000
1305230.058973,24.000000,89.000000,31.000000,-128.000000,-128.000000,20.000000,127.000000,51.000000
1305230.059691,-128.000000,-15.000000,-9.000000,61.000000,32.000000,16.000000,-21.000000,-44.000000
1305230.059719,-128.000000,-123.000000,-35.000000,-118.000000,-20.000000,-44.000000,-45.000000,-91.000000
1305230.061020,31.000000,-128.000000,-15.000000,104.000000,22.000000,-44.000000,-91.000000,-36.000000
1305230.061029,-13.000000,98.000000,42.000000,62.000000,87.000000,15.000000,45.000000,16.000000
1305230.079598,65.000000,-25.000000,-60.000000,-120.000000,-82.000000,69.000000,126.000000,55.000000
1305230.079627,61.000000,94.000000,127.000000,49.000000,38.000000,7.000000,-2.000000,26.000000
1305230.094821,-22.000000,-88.000000,-68.000000,11.000000,48.000000,17.000000,-19.000000,-4.000000
1305230.094832,-42.000000,31.000000,126.000000,10.000000,13.000000,4.000000,-23.000000,-54.000000
1305230.102184,127.000000,-52.000000,-11.000000,23.000000,23.000000,42.000000,26.000000,55.000000
1305230.102194,-115.000000,-38.000000,-104.000000,8.000000,44.000000,-28.000000,-4.000000,-63.000000
1305230.132212,-122.000000,-54.000000,34.000000,-128.000000,-122.000000,-5.000000,-21.000000,-36.000000
1305230.132222,60.000000,-128.000000,-128.000000,-99.000000,-128.000000,-94.000000,21.000000,46.000000
1305230.139848,87.000000,127.000000,61.000000,118.000000,127.000000,-12.000000,-11.000000,-21.000000
1305230.139859,-77.000000,-128.000000,38.000000,-6.000000,-15.000000,43.000000,-44.000000,-32.000000
1305230.154730,127.000000,99.000000,27.000000,36.000000,38.000000,80.000000,67.000000,100.000000
1305230.154756,-75.000000,-128.000000,-87.000000,-14.000000,2.000000,-88.000000,-68.000000,-28.000000
1305230.177204,-7.000000,110.000000,77.000000,97.000000,49.000000,-36.000000,-77.000000,-43.000000
1305230.177227,-71.000000,47.000000,70.000000,-76.000000,-128.000000,80.000000,100.000000,28.000000
1305230.178167,85.000000,-92.000000,-90.000000,-22.000000,9.000000,2.000000,-1.000000,-33.000000
1305230.178176,1.000000,26.000000,4.000000,-16.000000,31.000000,-7.000000,-15.000000,-15.000000
1305230.178919,-19.000000,-128.000000,-110.000000,120.000000,127.000000,-11.000000,-40.000000,-38.000000
1305230.178934,-68.000000,127.000000,107.000000,52.000000,14.000000,66.000000,72.000000,65.000000
1305230.180040,-65.000000,-72.000000,-128.000000,21.000000,60.000000,-34.000000,-80.000000,-49.000000
1305230.180048,108.000000,-17.000000,107.000000,-12.000000,-56.000000,32.000000,81.000000,78.000000
1305230.180934,-128.000000,15.000000,74.000000,52.000000,52.000000,-22.000000,-128.000000,-55.000000
1305230.180943,-74.000000,-52.000000,-8.000000,11.000000,1.000000,48.000000,127.000000,36.000000
1305230.192203,-45.000000,49.000000,74.000000,34.000000,25.000000,5.000000,-37.000000,-56.000000
1305230.192213,-60.000000,-106.000000,-17.000000,-17.000000,-36.000000,-43.000000,-56.000000,-23.000000
1305230.200430,-128.000000,114.000000,-9.000000,-128.000000,-128.000000,57.000000,69.000000,57.000000
1305230.200445,127.000000,127.000000,71.000000,35.000000,8.000000,31.000000,65.000000,102.000000
1305230.237534,-26.000000,26.000000,-128.000000,2.000000,52.000000,12.000000,26.000000,5.000000
1305230.237566,-38.000000,-21.000000,97.000000,5.000000,-19.000000,15.000000,45.000000,1.000000
1305230.259724,-77.000000,-88.000000,-40.000000,37.000000,107.000000,-46.000000,-128.000000,-113.000000
1305230.259734,127.000000,-57.000000,37.000000,-46.000000,-66.000000,21.000000,127.000000,127.000000
1305230.274689,-90.000000,68.000000,53.000000,50.000000,29.000000,33.000000,19.000000,-32.000000
1305230.274699,26.000000,-128.000000,-64.000000,24.000000,-17.000000,-74.000000,-128.000000,-60.000000
1305230.297401,11.000000,-54.000000,-116.000000,-33.000000,-48.000000,-10.000000,19.000000,6.000000
1305230.297419,-73.000000,25.000000,-8.000000,-3.000000,42.000000,-48.000000,-99.000000,-72.000000
1305230.297871,71.000000,-27.000000,-32.000000,3.000000,34.000000,17.000000,23.000000,50.000000
1305230.297887,-46.000000,-73.000000,18.000000,-50.000000,-87.000000,4.000000,69.000000,15.000000
1305230.299023,127.000000,-128.000000,-74.000000,-19.000000,-42.000000,-2.000000,72.000000,63.000000
1305230.299031,-128.000000,-55.000000,-9.000000,28.000000,38.000000,-36.000000,-114.000000,-125.000000
1305230.304736,-18.000000,127.000000,77.000000,34.000000,13.000000,-4.000000,75.000000,-3.000000
1305230.304768,59.000000,-23.000000,-128.000000,72.000000,70.000000,-65.000000,-101.000000,-45.000000
1305230.311976,-128.000000,-25.000000,89.000000,5.000000,-33.000000,9.000000,7.000000,12.000000
1305230.311986,127.000000,94.000000,-14.000000,-16.000000,29.000000,27.000000,57.000000,78.000000
1305230.312772,-88.000000,9.000000,26.000000,-66.000000,-104.000000,-17.000000,-5.000000,-25.000000
1305230.312781,71.000000,63.000000,64.000000,42.000000,24.000000,-24.000000,-28.000000,-26.000000
1305230.320258,-84.000000,-117.000000,22.000000,0.000000,-29.000000,25.000000,34.000000,19.000000
1305230.320276,-59.000000,-28.000000,-39.000000,61.000000,119.000000,-15.000000,-10.000000,3.000000
1305230.334706,-52.000000,-61.000000,127.000000,-100.000000,-128.000000,-3.000000,51.000000,25.000000
1305230.334717,48.000000,73.000000,-52.000000,21.000000,76.000000,6.000000,-42.000000,-21.000000
1305230.349692,-128.000000,-128.000000,-42.000000,-20.000000,-3.000000,-9.000000,47.000000,-100.000000
1305230.349703,127.000000,127.000000,87.000000,-66.000000,-83.000000,-69.000000,-62.000000,4.000000
1305230.357068,-128.000000,-128.000000,-21.000000,64.000000,95.000000,-13.000000,20.000000,-60.000000
1305230.357078,89.000000,-9.000000,42.000000,24.000000,22.000000,27.000000,1.000000,44.000000
1305230.409729,-77.000000,109.000000,-4.000000,40.000000,5.000000,-1.000000,-69.000000,-37.000000
1305230.409742,-23.000000,-115.000000,-83.000000,7.000000,39.000000,23.000000,55.000000,-8.000000
1305230.417273,81.000000,-128.000000,-128.000000,26.000000,25.000000,-4.000000,80.000000,71.000000
1305230.417284,-128.000000,-26.000000,-44.000000,49.000000,21.000000,-53.000000,-27.000000,-16.000000
1305230.432547,127.000000,96.000000,26.000000,-11.000000,-10.000000,25.000000,-20.000000,127.000000
1305230.432558,-128.000000,-128.000000,-27.000000,4.000000,13.000000,18.000000,127.000000,-65.000000
1305230.462138,32.000000,127.000000,93.000000,40.000000,58.000000,30.000000,-48.000000,-27.000000
1305230.462148,-102.000000,-20.000000,27.000000,12.000000,-9.000000,-18.000000,-65.000000,-46.000000
1305230.477620,26.000000,-86.000000,-85.000000,69.000000,89.000000,-26.000000,13.000000,44.000000
1305230.477642,44.000000,127.000000,7.000000,-46.000000,-46.000000,35.000000,-32.000000,4.000000
1305230.484697,127.000000,124.000000,-101.000000,-37.000000,-62.000000,-28.000000,71.000000,127.000000
1305230.484710,-128.000000,-80.000000,8.000000,6.000000,16.000000,-51.000000,-96.000000,-52.000000
1305230.492273,-91.000000,-26.000000,-8.000000,-4.000000,-58.000000,-26.000000,-23.000000,-42.000000
1305230.492289,56.000000,-18.000000,-73.000000,23.000000,67.000000,19.000000,40.000000,51.000000
1305230.507160,-128.000000,-128.000000,-128.000000,12.000000,65.000000,45.000000,127.000000,49.000000
1305230.507189,127.000000,115.000000,121.000000,-33.000000,-8.000000,28.000000,7.000000,85.000000
1305230.529723,2.000000,-65.000000,-68.000000,18.000000,-4.000000,-49.000000,-31.000000,-50.000000
1305230.529740,127.000000,-57.000000,10.000000,0.000000,-25.000000,2.000000,20.000000,53.000000
1305230.530178,-128.000000,-84.000000,-39.000000,-3.000000,36.000000,-25.000000,-26.000000,-15.000000
1305230.530196,-128.000000,125.000000,70.000000,34.000000,34.000000,90.000000,127.000000,-12.000000
1305230.531194,4.000000,-67.000000,-39.000000,10.000000,4.000000,-24.000000,41.000000,-5.000000
1305230.531202,-70.000000,-45.000000,39.000000,35.000000,42.000000,61.000000,112.000000,82.000000
1305230.532625,127.000000,-59.000000,-128.000000,14.000000,-14.000000,10.000000,104.000000,127.000000
1305230.532639,-40.000000,-5.000000,62.000000,-3.000000,-31.000000,-19.000000,-41.000000,-47.000000
1305230.533545,37.000000,-128.000000,25.000000,-23.000000,-5.000000,-18.000000,-38.000000,-32.000000
1305230.533589,-128.000000,-46.000000,-33.000000,49.000000,74.000000,-58.000000,-29.000000,-99.000000
1305230.544712,120.000000,114.000000,-19.000000,6.000000,-9.000000,51.000000,107.000000,111.000000
1305230.544732,-7.000000,-50.000000,-16.000000,1.000000,-14.000000,23.000000,1.000000,-10.000000
1305230.552156,-84.000000,-113.000000,-40.000000,51.000000,45.000000,-46.000000,-2.000000,-30.000000
1305230.552173,-102.000000,23.000000,55.000000,-42.000000,-61.000000,41.000000,15.000000,9.000000
1305230.574937,127.000000,127.000000,-4.000000,-15.000000,-11.000000,-25.000000,10.000000,67.000000
1305230.574953,3.000000,-64.000000,-43.000000,36.000000,79.000000,45.000000,14.000000,-12.000000
1305230.575668,36.000000,-71.000000,34.000000,81.000000,74.000000,-26.000000,-21.000000,-3.000000
1305230.575677,14.000000,-17.000000,-40.000000,48.000000,93.000000,30.000000,-19.000000,-41.000000
1305230.582145,-40.000000,68.000000,127.000000,-23.000000,-35.000000,-41.000000,25.000000,28.000000
1305230.582155,-76.000000,61.000000,-107.000000,-10.000000,24.000000,7.000000,-4.000000,-85.000000
1305230.589559,-12.000000,88.000000,45.000000,80.000000,99.000000,63.000000,-14.000000,4.000000
1305230.589569,127.000000,-90.000000,-49.000000,9.000000,43.000000,-38.000000,6.000000,46.000000
1305230.612171,23.000000,-25.000000,-121.000000,-114.000000,-110.000000,73.000000,35.000000,24.000000
1305230.612181,-46.000000,127.000000,127.000000,90.000000,127.000000,127.000000,123.000000,50.000000
1305230.619570,-24.000000,-103.000000,-128.000000,-85.000000,-92.000000,2.000000,34.000000,27.000000
1305230.619581,127.000000,119.000000,52.000000,63.000000,24.000000,16.000000,12.000000,65.000000
1305230.634975,127.000000,21.000000,119.000000,-107.000000,-128.000000,-1.000000,56.000000,25.000000
1305230.634985,-82.000000,-45.000000,-84.000000,0.000000,66.000000,9.000000,-46.000000,-30.000000
1305230.635622,-68.000000,-53.000000,26.000000,4.000000,-31.000000,-54.000000,-53.000000,-14.000000
1305230.635636,127.000000,-128.000000,-44.000000,56.000000,127.000000,127.000000,127.000000,111.000000
1305230.642009,19.000000,127.000000,111.000000,76.000000,27.000000,68.000000,92.000000,-31.000000
1305230.642019,-13.000000,33.000000,-110.000000,-54.000000,-93.000000,-39.000000,31.000000,16.000000
1305230.649836,127.000000,-54.000000,74.000000,-2.000000,-36.000000,-38.000000,-8.000000,63.000000
1305230.649846,-118.000000,-36.000000,-106.000000,-17.000000,8.000000,-39.000000,-4.000000,-32.000000
1305230.672090,0.000000,14.000000,-70.000000,-38.000000,-62.000000,-41.000000,-107.000000,-65.000000
1305230.672101,-34.000000,-128.000000,-99.000000,14.000000,52.000000,-32.000000,-55.000000,-38.000000
1305230.672737,-28.000000,118.000000,56.000000,16.000000,27.000000,0.000000,-31.000000,-28.000000
1305230.672747,6.000000,-21.000000,53.000000,-39.000000,20.000000,44.000000,-35.000000,-9.000000
1305230.687888,-75.000000,-3.000000,-19.000000,53.000000,-21.000000,-16.000000,88.000000,-16.000000
1305230.687899,-42.000000,-128.000000,11.000000,9.000000,77.000000,24.000000,-97.000000,-62.000000
1305230.694672,-24.000000,127.000000,79.000000,3.000000,-42.000000,49.000000,82.000000,53.000000
1305230.694704,26.000000,40.000000,-11.000000,-29.000000,-31.000000,-3.000000,50.000000,-21.000000
1305230.709686,26.000000,-72.000000,-101.000000,-15.000000,22.000000,-39.000000,-108.000000,-66.000000
1305230.709696,-44.000000,-97.000000,-26.000000,-63.000000,-128.000000,-31.000000,52.000000,31.000000
1305230.732365,-71.000000,16.000000,70.000000,28.000000,49.000000,-16.000000,-44.000000,-28.000000
1305230.732379,-34.000000,41.000000,44.000000,-11.000000,-36.000000,-18.000000,-128.000000,-20.000000
1305230.754775,47.000000,-29.000000,3.000000,-25.000000,-69.000000,19.000000,117.000000,13.000000
1305230.754785,-128.000000,87.000000,-101.000000,-88.000000,-128.000000,-70.000000,-128.000000,-128.000000
1305230.762382,90.000000,68.000000,42.000000,6.000000,40.000000,-50.000000,-80.000000,51.000000
1305230.762394,56.000000,41.000000,-128.000000,-12.000000,-89.000000,-8.000000,87.000000,8.000000
1305230.770386,-117.000000,-94.000000,44.000000,124.000000,109.000000,-53.000000,-94.000000,-103.000000
1305230.770407,-34.000000,56.000000,-33.000000,4.000000,41.000000,35.000000,8.000000,17.000000
1305230.771100,-32.000000,53.000000,113.000000,12.000000,-16.000000,-77.000000,-87.000000,-4.000000
1305230.771121,87.000000,4.000000,34.000000,-30.000000,-66.000000,15.000000,60.000000,21.000000
1305230.772454,-115.000000,-128.000000,-119.000000,-64.000000,-58.000000,-34.000000,-27.000000,-48.000000
1305230.772462,-128.000000,-128.000000,127.000000,126.000000,127.000000,-7.000000,40.000000,-99.000000
1305230.776994,2.000000,95.000000,-128.000000,-106.000000,-86.000000,-68.000000,-128.000000,-51.000000
1305230.777004,-45.000000,127.000000,127.000000,6.000000,-86.000000,-41.000000,34.000000,13.000000
1305230.792073,-69.000000,-16.000000,-14.000000,21.000000,18.000000,-52.000000,-52.000000,-48.000000
1305230.792091,-57.000000,-69.000000,-93.000000,-83.000000,-83.000000,-18.000000,-76.000000,-16.000000
1305230.792788,-99.000000,98.000000,127.000000,-80.000000,-104.000000,57.000000,127.000000,48.000000
1305230.792797,77.000000,42.000000,-27.000000,-9.000000,33.000000,-71.000000,-54.000000,-37.000000
1305230.808063,127.000000,-27.000000,-10.000000,34.000000,21.000000,105.000000,127.000000,127.000000
1305230.808102,37.000000,40.000000,87.000000,24.000000,31.000000,41.000000,-70.000000,62.000000
1305230.814663,-17.000000,39.000000,90.000000,23.000000,21.000000,-32.000000,-79.000000,-33.000000
1305230.814679,-128.000000,-45.000000,59.000000,53.000000,55.000000,-21.000000,-23.000000,17.000000
1305230.852340,127.000000,127.000000,-6.000000,-15.000000,127.000000,127.000000,77.000000,92.000000
1305230.852350,-118.000000,-128.000000,-60.000000,8.000000,94.000000,36.000000,-45.000000,-45.000000
1305230.867377,-25.000000,5.000000,3.000000,45.000000,32.000000,-41.000000,14.000000,44.000000
1305230.867407,-89.000000,-28.000000,96.000000,-92.000000,-99.000000,17.000000,-32.000000,-17.000000
1305230.868116,127.000000,6.000000,-6.000000,29.000000,39.000000,46.000000,102.000000,116.000000
1305230.868143,-94.000000,-128.000000,-29.000000,25.000000,20.000000,-1.000000,-81.000000,-35.000000
1305230.869770,33.000000,127.000000,65.000000,-24.000000,-12.000000,27.000000,-14.000000,6.000000
1305230.869792,-119.000000,-109.000000,29.000000,-96.000000,-128.000000,44.000000,127.000000,122.000000
1305230.871053,47.000000,127.000000,8.000000,30.000000,125.000000,13.000000,-11.000000,-43.000000
1305230.871075,127.000000,39.000000,22.000000,11.000000,-72.000000,67.000000,97.000000,101.000000
1305230.874526,9.000000,20.000000,-79.000000,-75.000000,-90.000000,-66.000000,31.000000,-6.000000
1305230.874554,-128.000000,-128.000000,-54.000000,2.000000,8.000000,-60.000000,-128.000000,-74.000000
1305230.889574,-128.000000,48.000000,127.000000,-77.000000,-127.000000,52.000000,-128.000000,-93.000000
1305230.889593,127.000000,127.000000,-12.000000,20.000000,52.000000,114.000000,127.000000,127.000000
1305230.890226,-53.000000,-128.000000,-34.000000,19.000000,34.000000,-8.000000,-15.000000,-9.000000
1305230.890243,-76.000000,-66.000000,-23.000000,62.000000,127.000000,27.000000,-128.000000,-90.000000
1305230.912426,107.000000,93.000000,127.000000,6.000000,-34.000000,65.000000,127.000000,127.000000
1305230.912435,0.000000,8.000000,48.000000,-2.000000,21.000000,12.000000,17.000000,15.000000
1305230.913506,-28.000000,-76.000000,-117.000000,49.000000,65.000000,-54.000000,-28.000000,-37.000000
1305230.913524,2.000000,127.000000,92.000000,-128.000000,-128.000000,4.000000,8.000000,42.000000
1305230.934965,-128.000000,-3.000000,-36.000000,75.000000,127.000000,-6.000000,-100.000000,-28.000000
1305230.934978,127.000000,127.000000,87.000000,-17.000000,6.000000,96.000000,127.000000,55.000000
1305230.949958,-41.000000,-76.000000,-97.000000,17.000000,14.000000,-25.000000,61.000000,-5.000000
1305230.949970,-55.000000,56.000000,26.000000,21.000000,127.000000,127.000000,32.000000,3.000000
1305230.979708,-98.000000,127.000000,93.000000,-34.000000,-58.000000,47.000000,11.000000,-42.000000
1305230.979722,-33.000000,-128.000000,-128.000000,-73.000000,-7.000000,17.000000,-3.000000,7.000000
1305230.987366,76.000000,127.000000,127.000000,42.000000,48.000000,-2.000000,58.000000,55.000000
1305230.987376,-67.000000,-54.000000,-70.000000,-24.000000,35.000000,-24.000000,-58.000000,-35.000000
1305231.009992,-97.000000,35.000000,95.000000,1.000000,-61.000000,49.000000,-45.000000,-16.000000
1305231.010001,118.000000,-63.000000,-10.000000,5.000000,-108.000000,-22.000000,127.000000,126.000000
1305231.010556,27.000000,127.000000,127.000000,22.000000,-18.000000,8.000000,52.000000,26.000000
1305231.010565,-47.000000,-78.000000,-76.000000,23.000000,114.000000,-93.000000,-128.000000,-53.000000
1305231.012118,-29.000000,68.000000,68.000000,-46.000000,-39.000000,-29.000000,-95.000000,-30.000000
1305231.012128,-32.000000,-128.000000,-128.000000,-22.000000,30.000000,-15.000000,-102.000000,-33.000000
1305231.013566,38.000000,84.000000,24.000000,60.000000,31.000000,2.000000,-28.000000,-11.000000
1305231.013583,-17.000000,-52.000000,-40.000000,-64.000000,-53.000000,41.000000,82.000000,21.000000
1305231.025293,127.000000,127.000000,86.000000,4.000000,16.000000,-7.000000,-41.000000,-16.000000
1305231.025312,-22.000000,-76.000000,-53.000000,-76.000000,-21.000000,25.000000,71.000000,50.000000
1305231.031993,18.000000,-39.000000,59.000000,93.000000,127.000000,-39.000000,43.000000,40.000000
1305231.032031,-128.000000,-64.000000,48.000000,-55.000000,-128.000000,-42.000000,-42.000000,-14.000000
1305231.047361,127.000000,127.000000,-31.000000,-60.000000,-25.000000,38.000000,8.000000,48.000000
1305231.047371,-61.000000,-120.000000,-55.000000,-6.000000,-62.000000,-61.000000,22.000000,-50.000000
1305231.062301,-73.000000,-13.000000,-12.000000,30.000000,27.000000,-33.000000,-71.000000,-34.000000
1305231.062312,-27.000000,-17.000000,-46.000000,-93.000000,-51.000000,24.000000,42.000000,15.000000
1305231.092326,-48.000000,-34.000000,-5.000000,38.000000,2.000000,-96.000000,-56.000000,-2.000000
1305231.092342,-32.000000,-12.000000,13.000000,-21.000000,-81.000000,-96.000000,-1.000000,-105.000000
1305231.107174,26.000000,-43.000000,-128.000000,-35.000000,57.000000,109.000000,59.000000,9.000000
1305231.107196,1.000000,-22.000000,120.000000,29.000000,56.000000,46.000000,69.000000,83.000000
1305231.145191,-42.000000,13.000000,-128.000000,12.000000,-42.000000,-15.000000,-9.000000,-4.000000
1305231.145206,97.000000,26.000000,-12.000000,83.000000,0.000000,-43.000000,-86.000000,13.000000
1305231.145703,-43.000000,-46.000000,79.000000,-67.000000,24.000000,22.000000,-114.000000,-68.000000
1305231.145721,-54.000000,127.000000,-80.000000,23.000000,-35.000000,-32.000000,-60.000000,6.000000
1305231.146954,127.000000,12.000000,-21.000000,5.000000,-51.000000,91.000000,-13.000000,-18.000000
1305231.146963,-75.000000,-112.000000,52.000000,-9.000000,58.000000,50.000000,127.000000,-31.000000
1305231.147575,6.000000,127.000000,72.000000,-89.000000,51.000000,43.000000,76.000000,-40.000000
1305231.147584,-65.000000,-62.000000,-28.000000,127.000000,64.000000,-97.000000,-128.000000,-32.000000
1305231.148622,-11.000000,127.000000,97.000000,-8.000000,-3.000000,70.000000,92.000000,-33.000000
1305231.148630,36.000000,-128.000000,-110.000000,-46.000000,70.000000,-77.000000,-126.000000,-56.000000
1305231.152076,-68.000000,-52.000000,-56.000000,-40.000000,36.000000,-1.000000,-87.000000,-96.000000
1305231.152105,-5.000000,18.000000,113.000000,127.000000,-42.000000,21.000000,76.000000,44.000000
1305231.167851,-65.000000,-47.000000,-27.000000,-38.000000,18.000000,1.000000,-75.000000,-36.000000
1305231.167864,16.000000,101.000000,127.000000,111.000000,55.000000,21.000000,23.000000,41.000000
1305231.174561,127.000000,-23.000000,-77.000000,-18.000000,71.000000,-9.000000,41.000000,31.000000
1305231.174571,-41.000000,-37.000000,107.000000,40.000000,-44.000000,-14.000000,27.000000,5.000000
1305231.190041,-17.000000,-118.000000,-65.000000,1.000000,81.000000,-13.000000,-32.000000,-12.000000
1305231.190060,110.000000,112.000000,71.000000,13.000000,-95.000000,72.000000,77.000000,37.000000
1305231.197016,-128.000000,34.000000,-29.000000,66.000000,106.000000,-27.000000,41.000000,-8.000000
1305231.197041,127.000000,-80.000000,-38.000000,-94.000000,-97.000000,27.000000,37.000000,68.000000
1305231.219758,43.000000,-112.000000,2.000000,73.000000,127.000000,34.000000,-12.000000,-8.000000
1305231.219768,101.000000,21.000000,127.000000,-79.000000,-85.000000,59.000000,78.000000,53.000000
1305231.227410,-91.000000,-69.000000,-51.000000,-57.000000,17.000000,-38.000000,65.000000,15.000000
1305231.227555,5.000000,-110.000000,-32.000000,88.000000,96.000000,9.000000,-16.000000,-68.000000
1305231.228647,22.000000,40.000000,65.000000,75.000000,95.000000,127.000000,25.000000,55.000000
1305231.228658,-3.000000,57.000000,27.000000,15.000000,19.000000,16.000000,-11.000000,-13.000000
1305231.242138,-58.000000,-5.000000,20.000000,-109.000000,-128.000000,-60.000000,-35.000000,0.000000
1305231.242149,127.000000,-5.000000,-31.000000,-41.000000,30.000000,79.000000,127.000000,10.000000
1305231.250221,-128.000000,-69.000000,-14.000000,82.000000,22.000000,-55.000000,-85.000000,-62.000000
1305231.250237,127.000000,108.000000,49.000000,-12.000000,-31.000000,41.000000,109.000000,127.000000
1305231.264836,-128.000000,-44.000000,-118.000000,30.000000,127.000000,68.000000,-115.000000,-108.000000
1305231.264849,89.000000,-50.000000,-15.000000,-32.000000,-118.000000,-69.000000,29.000000,-10.000000
1305231.265991,-98.000000,-31.000000,-14.000000,17.000000,26.000000,-16.000000,18.000000,-46.000000
1305231.266000,-83.000000,-14.000000,-45.000000,24.000000,7.000000,-44.000000,7.000000,-31.000000
1305231.287465,31.000000,-3.000000,37.000000,11.000000,-52.000000,4.000000,-36.000000,127.000000
1305231.287502,-80.000000,-56.000000,52.000000,-18.000000,26.000000,56.000000,81.000000,-128.000000
1305231.309774,127.000000,55.000000,-128.000000,-86.000000,-19.000000,-34.000000,-98.000000,4.000000
1305231.309784,-34.000000,71.000000,125.000000,51.000000,75.000000,4.000000,66.000000,-6.000000
1305231.317119,-30.000000,-4.000000,-26.000000,43.000000,-18.000000,-17.000000,-46.000000,24.000000
1305231.317129,108.000000,12.000000,-14.000000,6.000000,47.000000,-5.000000,-5.000000,34.000000
1305231.332431,-15.000000,-28.000000,-83.000000,-57.000000,-17.000000,-24.000000,-128.000000,-47.000000
1305231.332442,-6.000000,-22.000000,108.000000,8.000000,-29.000000,-1.000000,43.000000,-29.000000
1305231.347709,61.000000,49.000000,-20.000000,-1.000000,16.000000,-11.000000,-5.000000,53.000000
1305231.347738,15.000000,-7.000000,127.000000,81.000000,57.000000,78.000000,127.000000,37.000000
1305231.370073,14.000000,-4.000000,-123.000000,10.000000,63.000000,-5.000000,-84.000000,16.000000
1305231.370099,-94.000000,-128.000000,-97.000000,-50.000000,-117.000000,-45.000000,10.000000,9.000000
1305231.377276,20.000000,127.000000,127.000000,38.000000,1.000000,7.000000,-88.000000,-26.000000
1305231.377306,127.000000,25.000000,64.000000,93.000000,127.000000,57.000000,36.000000,41.000000
1305231.385578,-12.000000,-108.000000,-128.000000,-79.000000,-128.000000,-55.000000,-71.000000,-22.000000
1305231.385601,51.000000,-16.000000,31.000000,8.000000,5.000000,2.000000,38.000000,82.000000
1305231.385994,-66.000000,-58.000000,-62.000000,-84.000000,-65.000000,13.000000,-76.000000,-21.000000
1305231.386030,83.000000,42.000000,77.000000,95.000000,54.000000,27.000000,77.000000,46.000000
1305231.386595,-4.000000,-2.000000,-19.000000,-12.000000,6.000000,-48.000000,-68.000000,16.000000
1305231.386605,27.000000,-13.000000,-24.000000,-52.000000,-105.000000,23.000000,-38.000000,44.000000
1305231.387316,-8.000000,-23.000000,33.000000,78.000000,41.000000,0.000000,-24.000000,-3.000000
1305231.387352,-81.000000,-27.000000,-12.000000,23.000000,23.000000,-30.000000,-35.000000,-59.000000
1305231.388146,127.000000,45.000000,38.000000,-3.000000,22.000000,67.000000,56.000000,82.000000
1305231.388162,127.000000,127.000000,56.000000,22.000000,90.000000,1.000000,-21.000000,-1.000000
1305231.407149,-115.000000,-44.000000,60.000000,-128.000000,-128.000000,39.000000,66.000000,-5.000000
1305231.407159,127.000000,70.000000,125.000000,48.000000,42.000000,26.000000,95.000000,66.000000
1305231.422266,-128.000000,-119.000000,-65.000000,30.000000,105.000000,12.000000,61.000000,-28.000000
1305231.422295,-5.000000,79.000000,-32.000000,-32.000000,-36.000000,-39.000000,-56.000000,-13.000000
1305231.429966,-64.000000,-108.000000,-23.000000,21.000000,111.000000,-10.000000,-128.000000,-81.000000
1305231.429985,-128.000000,29.000000,28.000000,3.000000,-14.000000,-33.000000,-92.000000,-58.000000
1305231.467570,-4.000000,-30.000000,42.000000,19.000000,2.000000,70.000000,71.000000,23.000000
1305231.467579,127.000000,127.000000,33.000000,-9.000000,19.000000,73.000000,127.000000,127.000000
1305231.482145,-128.000000,-128.000000,-62.000000,44.000000,-47.000000,-90.000000,13.000000,-2.000000
1305231.482156,-128.000000,-24.000000,86.000000,47.000000,31.000000,-16.000000,-128.000000,-110.000000
1305231.483200,127.000000,-19.000000,-66.000000,-90.000000,-92.000000,21.000000,127.000000,68.000000
1305231.483214,-108.000000,-45.000000,-31.000000,-31.000000,-25.000000,-20.000000,85.000000,-33.000000
1305231.483900,-26.000000,-56.000000,5.000000,7.000000,-8.000000,-25.000000,-3.000000,23.000000
1305231.483911,-24.000000,-4.000000,-76.000000,6.000000,84.000000,26.000000,-68.000000,97.000000
1305231.485067,-59.000000,-59.000000,-62.000000,127.000000,127.000000,-53.000000,21.000000,6.000000
1305231.485076,67.000000,-2.000000,-47.000000,-78.000000,-71.000000,-29.000000,-90.000000,-62.000000
1305231.485921,-105.000000,-86.000000,5.000000,66.000000,55.000000,-53.000000,-128.000000,-69.000000
1305231.485930,127.000000,127.000000,110.000000,-15.000000,-52.000000,63.000000,127.000000,127.000000
1305231.504752,-16.000000,-48.000000,-128.000000,-53.000000,-12.000000,-1.000000,24.000000,-3.000000
1305231.504762,-14.000000,11.000000,-23.000000,34.000000,5.000000,-33.000000,-31.000000,-25.000000
1305231.506134,14.000000,-11.000000,92.000000,-24.000000,-61.000000,-6.000000,-22.000000,18.000000
1305231.506145,4.000000,127.000000,46.000000,-5.000000,17.000000,3.000000,-19.000000,-16.000000
1305231.519629,-15.000000,-32.000000,26.000000,30.000000,10.000000,-21.000000,-14.000000,5.000000
1305231.519639,-55.000000,56.000000,-19.000000,-38.000000,-13.000000,11.000000,-58.000000,-47.000000
1305231.527159,105.000000,26.000000,56.000000,7.000000,-4.000000,11.000000,93.000000,55.000000
1305231.527177,-128.000000,-128.000000,-112.000000,-97.000000,-128.000000,-128.000000,-128.000000,-91.000000
1305231.534587,14.000000,102.000000,46.000000,37.000000,121.000000,61.000000,127.000000,76.000000
1305231.534599,127.000000,-3.000000,17.000000,30.000000,-49.000000,-128.000000,-128.000000,-59.000000
1305231.579773,29.000000,127.000000,38.000000,-41.000000,5.000000,127.000000,127.000000,62.000000
1305231.579788,-128.000000,-128.000000,78.000000,-89.000000,-51.000000,25.000000,127.000000,2.000000
1305231.587188,127.000000,115.000000,65.000000,48.000000,50.000000,-34.000000,63.000000,127.000000
1305231.587198,-19.000000,-34.000000,-128.000000,67.000000,-30.000000,24.000000,59.000000,26.000000
1305231.602653,84.000000,-16.000000,75.000000,21.000000,26.000000,-1.000000,9.000000,63.000000
1305231.602666,-95.000000,-60.000000,-31.000000,-37.000000,-7.000000,-44.000000,-37.000000,-43.000000
1305231.603281,-8.000000,-108.000000,-109.000000,21.000000,41.000000,-46.000000,-58.000000,-40.000000
1305231.603292,-42.000000,-19.000000,73.000000,-19.000000,-27.000000,-17.000000,-8.000000,-21.000000
1305231.604764,-22.000000,68.000000,-8.000000,9.000000,43.000000,-12.000000,-16.000000,-5.000000
1305231.604781,85.000000,-122.000000,-78.000000,-128.000000,-128.000000,-1.000000,31.000000,12.000000
1305231.605956,14.000000,85.000000,42.000000,-46.000000,9.000000,-2.000000,34.000000,-11.000000
1305231.605965,-39.000000,10.000000,89.000000,127.000000,68.000000,41.000000,127.000000,2.000000
1305231.606742,-1.000000,18.000000,99.000000,28.000000,8.000000,-13.000000,16.000000,32.000000
1305231.606750,-66.000000,-46.000000,-128.000000,-91.000000,-64.000000,-24.000000,-32.000000,-18.000000
1305231.624468,55.000000,33.000000,18.000000,-42.000000,-52.000000,41.000000,35.000000,20.000000
1305231.624481,16.000000,-20.000000,82.000000,-28.000000,107.000000,125.000000,14.000000,7.000000
1305231.625863,-67.000000,-44.000000,88.000000,37.000000,-61.000000,-39.000000,66.000000,36.000000
1305231.625894,127.000000,-110.000000,-55.000000,-100.000000,-66.000000,-59.000000,-63.000000,-2.000000
1305231.639594,-57.000000,5.000000,-5.000000,17.000000,31.000000,-52.000000,-128.000000,-46.000000
1305231.639606,-44.000000,-128.000000,-75.000000,-68.000000,-39.000000,32.000000,115.000000,3.000000
1305231.647469,-41.000000,42.000000,51.000000,2.000000,-26.000000,40.000000,75.000000,-15.000000
1305231.647482,-128.000000,-48.000000,46.000000,25.000000,29.000000,12.000000,10.000000,-16.000000
1305231.654808,127.000000,-7.000000,-99.000000,-128.000000,-128.000000,-32.000000,127.000000,127.000000
1305231.654821,-75.000000,-60.000000,-29.000000,78.000000,69.000000,-25.000000,-22.000000,-18.000000
1305231.684767,-28.000000,127.000000,-26.000000,-36.000000,13.000000,-15.000000,-72.000000,-32.000000
1305231.684786,-33.000000,-56.000000,-34.000000,72.000000,53.000000,25.000000,8.000000,-8.000000
1305231.692424,32.000000,-28.000000,27.000000,-9.000000,45.000000,-18.000000,-21.000000,9.000000
1305231.692434,18.000000,64.000000,22.000000,12.000000,-41.000000,67.000000,9.000000,18.000000
1305231.707366,-128.000000,-13.000000,-6.000000,58.000000,74.000000,-6.000000,96.000000,0.000000
1305231.707376,127.000000,-8.000000,-14.000000,-61.000000,-91.000000,22.000000,51.000000,74.000000
1305231.722109,-24.000000,22.000000,-128.000000,-128.000000,-128.000000,-98.000000,-41.000000,-24.000000
1305231.722131,99.000000,127.000000,117.000000,97.000000,111.000000,61.000000,-13.000000,3.000000
1305231.752264,-64.000000,-128.000000,-86.000000,-123.000000,-25.000000,1.000000,-38.000000,-17.000000
1305231.752273,32.000000,-83.000000,77.000000,85.000000,-17.000000,17.000000,0.000000,58.000000
1305231.759606,14.000000,127.000000,79.000000,12.000000,-38.000000,-90.000000,5.000000,-33.000000
1305231.759616,17.000000,110.000000,23.000000,-44.000000,-44.000000,0.000000,110.000000,73.000000
1305231.782384,-69.000000,-91.000000,41.000000,100.000000,-55.000000,-128.000000,-85.000000,-113.000000
1305231.782395,-37.000000,70.000000,-94.000000,-128.000000,-128.000000,31.000000,33.000000,60.000000
1305231.797263,-128.000000,-93.000000,28.000000,65.000000,103.000000,101.000000,99.000000,28.000000
1305231.797274,127.000000,-90.000000,-125.000000,-48.000000,-47.000000,-29.000000,35.000000,105.000000
1305231.804606,31.000000,127.000000,-22.000000,-10.000000,-8.000000,-29.000000,-52.000000,-24.000000
1305231.804630,-76.000000,-17.000000,84.000000,49.000000,68.000000,21.000000,10.000000,-30.000000
1305231.819639,-68.000000,86.000000,13.000000,-19.000000,-21.000000,-107.000000,-128.000000,-64.000000
1305231.819655,24.000000,-55.000000,-62.000000,-46.000000,-106.000000,17.000000,104.000000,-4.000000
1305231.843233,49.000000,34.000000,-38.000000,51.000000,38.000000,-2.000000,48.000000,23.000000
1305231.843240,0.000000,6.000000,-70.000000,-42.000000,6.000000,12.000000,-70.000000,-45.000000
1305231.844966,-21.000000,-30.000000,-45.000000,-79.000000,-48.000000,-29.000000,25.000000,75.000000
1305231.844980,-50.000000,-18.000000,-7.000000,62.000000,21.000000,-31.000000,-7.000000,-55.000000
1305231.845458,-128.000000,-55.000000,-92.000000,-65.000000,-41.000000,24.000000,-89.000000,-74.000000
1305231.845540,122.000000,127.000000,127.000000,51.000000,31.000000,38.000000,90.000000,105.000000
1305231.857687,127.000000,127.000000,-40.000000,9.000000,-6.000000,31.000000,28.000000,70.000000
1305231.857715,-50.000000,-124.000000,-27.000000,-54.000000,-35.000000,-19.000000,27.000000,-5.000000
1305231.864544,-123.000000,-63.000000,-47.000000,29.000000,44.000000,-34.000000,-71.000000,-42.000000
1305231.864554,53.000000,127.000000,127.000000,-49.000000,-106.000000,1.000000,-93.000000,11.000000
1305231.887393,57.000000,41.000000,-91.000000,-37.000000,16.000000,-56.000000,-128.000000,-34.000000
1305231.887412,-22.000000,-93.000000,-128.000000,-30.000000,-11.000000,-26.000000,97.000000,-12.000000
1305231.917244,-89.000000,-18.000000,53.000000,14.000000,-32.000000,-41.000000,-26.000000,-49.000000
1305231.917255,-22.000000,22.000000,-11.000000,-46.000000,41.000000,44.000000,-89.000000,-57.000000
1305231.939663,127.000000,18.000000,-66.000000,67.000000,47.000000,47.000000,99.000000,87.000000
1305231.939674,-51.000000,-53.000000,86.000000,119.000000,127.000000,-20.000000,-114.000000,-63.000000
1305231.962054,-57.000000,50.000000,-17.000000,-40.000000,7.000000,32.000000,-12.000000,38.000000
1305231.962064,56.000000,-20.000000,110.000000,37.000000,65.000000,79.000000,83.000000,-4.000000
1305231.963322,-65.000000,-35.000000,-124.000000,-24.000000,33.000000,-31.000000,-32.000000,-29.000000
1305231.963350,27.000000,23.000000,-3.000000,72.000000,29.000000,40.000000,21.000000,20.000000
1305231.963881,-37.000000,-44.000000,-110.000000,-6.000000,-6.000000,-12.000000,6.000000,-11.000000
1305231.963891,1.000000,-43.000000,-27.000000,-17.000000,-7.000000,-42.000000,-73.000000,-13.000000
1305231.965287,-32.000000,-55.000000,-80.000000,16.000000,83.000000,-1.000000,-33.000000,-31.000000
1305231.965302,20.000000,-103.000000,-28.000000,-125.000000,-128.000000,-37.000000,-3.000000,12.000000
1305231.978138,-52.000000,20.000000,-10.000000,-48.000000,-21.000000,-1.000000,7.000000,-9.000000
1305231.978188,71.000000,127.000000,127.000000,82.000000,6.000000,25.000000,-43.000000,-3.000000
1305231.984685,-31.000000,-2.000000,-79.000000,28.000000,106.000000,68.000000,5.000000,-25.000000
1305231.984695,48.000000,-24.000000,53.000000,-29.000000,-34.000000,14.000000,36.000000,54.000000
1305232.022346,34.000000,127.000000,124.000000,13.000000,-18.000000,-16.000000,-22.000000,-9.000000
1305232.022384,-68.000000,32.000000,127.000000,43.000000,28.000000,8.000000,28.000000,-23.000000
1305232.037913,-43.000000,8.000000,-128.000000,-34.000000,21.000000,-63.000000,-128.000000,-53.000000
1305232.037937,90.000000,9.000000,46.000000,24.000000,-21.000000,127.000000,127.000000,86.000000
1305232.045397,-21.000000,-31.000000,-74.000000,25.000000,-7.000000,-53.000000,-23.000000,-12.000000
1305232.045406,-87.000000,-70.000000,-91.000000,36.000000,111.000000,-128.000000,-104.000000,-3.000000
1305232.045766,12.000000,71.000000,-52.000000,-95.000000,-92.000000,127.000000,126.000000,31.000000
1305232.045774,-14.000000,127.000000,42.000000,49.000000,73.000000,-55.000000,30.000000,-12.000000
1305232.047348,14.000000,31.000000,-2.000000,-48.000000,-9.000000,-17.000000,-128.000000,-81.000000
1305232.047364,41.000000,-20.000000,53.000000,55.000000,8.000000,79.000000,127.000000,86.000000
1305232.048099,-65.000000,-128.000000,-64.000000,-19.000000,-29.000000,-25.000000,-25.000000,-23.000000
1305232.048126,-21.000000,84.000000,54.000000,-62.000000,-3.000000,-38.000000,-128.000000,21.000000
1305232.060363,23.000000,23.000000,45.000000,-72.000000,-128.000000,24.000000,37.000000,-4.000000
1305232.060505,32.000000,44.000000,-3.000000,6.000000,6.000000,38.000000,127.000000,48.000000
1305232.075214,81.000000,-72.000000,-42.000000,23.000000,53.000000,41.000000,63.000000,75.000000
1305232.075232,62.000000,-27.000000,79.000000,-31.000000,-51.000000,-66.000000,-128.000000,-69.000000
1305232.082783,-40.000000,-75.000000,-62.000000,-30.000000,-8.000000,23.000000,26.000000,-9.000000
1305232.082799,-69.000000,-57.000000,-1.000000,17.000000,59.000000,-17.000000,29.000000,4.000000
1305232.083506,-44.000000,-34.000000,-41.000000,-22.000000,-16.000000,-14.000000,-48.000000,-18.000000
1305232.083515,-60.000000,-19.000000,88.000000,101.000000,40.000000,-44.000000,-77.000000,-37.000000
1305232.098038,78.000000,126.000000,-31.000000,-16.000000,-29.000000,58.000000,54.000000,54.000000
1305232.098047,47.000000,-59.000000,36.000000,48.000000,69.000000,-17.000000,-59.000000,-21.000000
1305232.119676,-120.000000,-10.000000,-29.000000,-41.000000,34.000000,-83.000000,-34.000000,-54.000000
1305232.119688,127.000000,127.000000,69.000000,114.000000,127.000000,127.000000,34.000000,61.000000
1305232.142269,-93.000000,-52.000000,11.000000,-1.000000,6.000000,-23.000000,-128.000000,-42.000000
1305232.142291,71.000000,83.000000,38.000000,-46.000000,-11.000000,-3.000000,-36.000000,32.000000
1305232.157372,-38.000000,-63.000000,-42.000000,36.000000,53.000000,25.000000,66.000000,-15.000000
1305232.157383,-69.000000,27.000000,26.000000,-22.000000,-43.000000,-36.000000,-93.000000,-43.000000
1305232.179604,-20.000000,-40.000000,-13.000000,-29.000000,-1.000000,-35.000000,-118.000000,-59.000000
1305232.179626,-17.000000,-64.000000,-41.000000,-35.000000,5.000000,-30.000000,98.000000,13.000000
1305232.179982,21.000000,79.000000,37.000000,60.000000,-14.000000,-24.000000,-85.000000,-13.000000
1305232.180001,53.000000,12.000000,-16.000000,-128.000000,-111.000000,-12.000000,123.000000,53.000000
1305232.194408,-30.000000,-82.000000,-52.000000,31.000000,10.000000,6.000000,-89.000000,-30.000000
1305232.194422,-16.000000,45.000000,58.000000,-2.000000,31.000000,-8.000000,-71.000000,-1.000000
1305232.195223,-11.000000,-10.000000,-128.000000,-33.000000,-49.000000,-25.000000,-21.000000,-42.000000
1305232.195233,67.000000,23.000000,20.000000,61.000000,36.000000,-2.000000,-61.000000,-16.000000
1305232.196310,47.000000,-79.000000,-3.000000,-18.000000,-26.000000,-2.000000,27.000000,8.000000
1305232.196338,-37.000000,-10.000000,-93.000000,-60.000000,7.000000,-1.000000,55.000000,29.000000
1305232.197033,32.000000,-37.000000,6.000000,57.000000,54.000000,1.000000,-76.000000,-47.000000
1305232.197061,-81.000000,-128.000000,-108.000000,47.000000,113.000000,20.000000,14.000000,-18.000000
1305232.198458,48.000000,25.000000,127.000000,127.000000,127.000000,124.000000,127.000000,60.000000
1305232.198486,127.000000,24.000000,20.000000,50.000000,59.000000,30.000000,127.000000,51.000000
1305232.210297,-2.000000,-128.000000,-115.000000,26.000000,24.000000,-29.000000,-78.000000,20.000000
1305232.210308,-45.000000,20.000000,-42.000000,-45.000000,-95.000000,-40.000000,-14.000000,-44.000000
1305232.217906,-41.000000,22.000000,33.000000,27.000000,11.000000,-17.000000,36.000000,20.000000
1305232.217920,25.000000,-17.000000,6.000000,-62.000000,-74.000000,25.000000,-27.000000,5.000000
1305232.239767,14.000000,23.000000,26.000000,57.000000,21.000000,-31.000000,16.000000,-7.000000
1305232.239777,-76.000000,58.000000,62.000000,-98.000000,-128.000000,-56.000000,-14.000000,13.000000
1305232.254842,-69.000000,20.000000,-94.000000,-60.000000,-30.000000,-125.000000,-128.000000,-45.000000
1305232.254853,123.000000,-30.000000,3.000000,45.000000,56.000000,127.000000,127.000000,84.000000
1305232.262212,-14.000000,-1.000000,-34.000000,-9.000000,-16.000000,-28.000000,-45.000000,13.000000
1305232.262225,-15.000000,36.000000,38.000000,13.000000,-36.000000,-93.000000,-88.000000,-24.000000
1305232.284475,-128.000000,16.000000,0.000000,11.000000,58.000000,5.000000,-47.000000,-44.000000
1305232.284486,63.000000,-38.000000,-63.000000,-24.000000,4.000000,-57.000000,101.000000,36.000000
1305232.299810,-8.000000,36.000000,0.000000,80.000000,55.000000,10.000000,-69.000000,-20.000000
1305232.299888,-49.000000,-80.000000,61.000000,-45.000000,-55.000000,51.000000,78.000000,15.000000
1305232.300812,63.000000,73.000000,13.000000,74.000000,43.000000,20.000000,-100.000000,-22.000000
1305232.300824,87.000000,-1.000000,-110.000000,0.000000,102.000000,33.000000,-35.000000,43.000000
1305232.301427,-63.000000,-15.000000,-51.000000,-14.000000,-11.000000,-3.000000,-16.000000,-13.000000
1305232.301438,70.000000,24.000000,71.000000,-41.000000,-86.000000,87.000000,127.000000,72.000000
1305232.303086,-83.000000,-1.000000,-83.000000,-22.000000,-9.000000,-70.000000,-35.000000,-2.000000
1305232.303099,-16.000000,-44.000000,10.000000,21.000000,50.000000,-8.000000,-31.000000,-39.000000
1305232.314637,31.000000,127.000000,84.000000,54.000000,54.000000,50.000000,-128.000000,42.000000
1305232.314653,57.000000,-55.000000,13.000000,18.000000,14.000000,19.000000,48.000000,42.000000
1305232.315798,-128.000000,35.000000,-20.000000,9.000000,-26.000000,-41.000000,-128.000000,-79.000000
1305232.315806,118.000000,-66.000000,-121.000000,-51.000000,-77.000000,-56.000000,127.000000,78.000000
1305232.329558,-18.000000,-62.000000,6.000000,16.000000,-10.000000,-54.000000,-62.000000,-25.000000
1305232.329587,-65.000000,-11.000000,-57.000000,9.000000,64.000000,28.000000,124.000000,-13.000000
1305232.352376,37.000000,55.000000,120.000000,32.000000,-8.000000,1.000000,-77.000000,-6.000000
1305232.352389,26.000000,89.000000,-8.000000,13.000000,63.000000,74.000000,37.000000,16.000000
1305232.359804,-16.000000,-12.000000,-43.000000,-3.000000,27.000000,-8.000000,-27.000000,-16.000000
1305232.359817,7.000000,-35.000000,44.000000,-32.000000,-87.000000,-11.000000,-18.000000,34.000000
1305232.374483,25.000000,-27.000000,-25.000000,-61.000000,-6.000000,86.000000,-94.000000,-12.000000
1305232.374493,19.000000,112.000000,50.000000,50.000000,82.000000,51.000000,127.000000,51.000000
1305232.397362,-3.000000,-39.000000,-15.000000,38.000000,37.000000,36.000000,-60.000000,-26.000000
1305232.397373,-16.000000,-128.000000,-128.000000,-68.000000,-23.000000,5.000000,10.000000,-13.000000
1305232.412249,84.000000,65.000000,102.000000,51.000000,18.000000,-35.000000,-71.000000,9.000000
1305232.412264,-87.000000,-31.000000,-68.000000,-49.000000,-67.000000,-36.000000,25.000000,27.000000
1305232.419858,-7.000000,-80.000000,24.000000,-17.000000,-49.000000,-44.000000,-56.000000,-25.000000
1305232.419912,-128.000000,-111.000000,2.000000,28.000000,42.000000,33.000000,-34.000000,-7.000000
1305232.442491,110.000000,-15.000000,-9.000000,64.000000,83.000000,-20.000000,58.000000,8.000000
1305232.442501,-45.000000,19.000000,24.000000,-50.000000,-68.000000,11.000000,14.000000,13.000000
1305232.442923,-30.000000,-71.000000,-43.000000,55.000000,13.000000,-76.000000,-103.000000,-50.000000
1305232.442930,63.000000,-8.000000,2.000000,-33.000000,1.000000,4.000000,80.000000,-8.000000
1305232.457545,-51.000000,-76.000000,-47.000000,51.000000,88.000000,3.000000,3.000000,-23.000000
1305232.457565,36.000000,19.000000,-35.000000,-46.000000,-62.000000,-107.000000,-128.000000,-8.000000
1305232.458121,-7.000000,18.000000,-3.000000,-22.000000,-14.000000,65.000000,65.000000,18.000000
1305232.458138,-4.000000,-54.000000,1.000000,-5.000000,68.000000,84.000000,-42.000000,-36.000000
1305232.458911,29.000000,-22.000000,30.000000,66.000000,122.000000,127.000000,127.000000,5.000000
1305232.458929,11.000000,-69.000000,-3.000000,12.000000,0.000000,-45.000000,-23.000000,-9.000000
1305232.460261,127.000000,-47.000000,-57.000000,49.000000,94.000000,-24.000000,-107.000000,18.000000
1305232.460270,-77.000000,-27.000000,-25.000000,-61.000000,-66.000000,-11.000000,104.000000,51.000000
1305232.472222,14.000000,74.000000,73.000000,-9.000000,-30.000000,51.000000,-15.000000,21.000000
1305232.472238,-24.000000,38.000000,-9.000000,15.000000,20.000000,-3.000000,-46.000000,-13.000000
1305232.487266,-30.000000,11.000000,-70.000000,4.000000,15.000000,-76.000000,1.000000,-6.000000
1305232.487276,-4.000000,12.000000,-8.000000,-48.000000,-75.000000,17.000000,-20.000000,-5.000000
1305232.495347,-23.000000,120.000000,101.000000,49.000000,37.000000,73.000000,-128.000000,53.000000
1305232.495357,127.000000,10.000000,-95.000000,-4.000000,11.000000,8.000000,127.000000,71.000000
1305232.524580,-50.000000,11.000000,127.000000,16.000000,51.000000,25.000000,-98.000000,-50.000000
1305232.524610,-55.000000,-127.000000,-85.000000,16.000000,5.000000,-82.000000,-82.000000,-29.000000
1305232.532377,-12.000000,127.000000,127.000000,9.000000,-21.000000,43.000000,66.000000,-2.000000
1305232.532388,-42.000000,-62.000000,-128.000000,-5.000000,72.000000,-4.000000,18.000000,0.000000
1305232.540017,27.000000,127.000000,127.000000,21.000000,-29.000000,-43.000000,-128.000000,-21.000000
1305232.540026,-6.000000,-67.000000,-52.000000,56.000000,64.000000,-1.000000,122.000000,16.000000
1305232.540907,80.000000,38.000000,4.000000,-52.000000,-91.000000,34.000000,57.000000,25.000000
1305232.540936,-24.000000,-21.000000,-3.000000,22.000000,14.000000,-50.000000,15.000000,5.000000
1305232.542327,-22.000000,-58.000000,-38.000000,-23.000000,-30.000000,-1.000000,21.000000,-9.000000
1305232.542364,-17.000000,-61.000000,-90.000000,9.000000,59.000000,70.000000,79.000000,23.000000
1305232.554618,-3.000000,104.000000,102.000000,59.000000,64.000000,-8.000000,-47.000000,-29.000000
1305232.554640,21.000000,20.000000,106.000000,-43.000000,-106.000000,-1.000000,7.000000,31.000000
1305232.555885,-1.000000,2.000000,30.000000,-39.000000,-60.000000,-50.000000,-1.000000,-14.000000
1305232.555898,-4.000000,-59.000000,-49.000000,4.000000,59.000000,25.000000,6.000000,0.000000
1305232.577349,-24.000000,58.000000,118.000000,99.000000,127.000000,106.000000,-102.000000,-21.000000
1305232.577360,-18.000000,32.000000,29.000000,61.000000,52.000000,-24.000000,118.000000,53.000000
1305232.578479,-25.000000,9.000000,12.000000,-57.000000,-63.000000,46.000000,93.000000,-7.000000
1305232.578487,79.000000,27.000000,-37.000000,-70.000000,-52.000000,34.000000,2.000000,47.000000
1305232.584828,-128.000000,-32.000000,98.000000,72.000000,127.000000,102.000000,-71.000000,-69.000000
1305232.584841,127.000000,73.000000,-128.000000,-68.000000,10.000000,13.000000,-37.000000,33.000000
1305232.614593,-122.000000,-128.000000,-78.000000,-42.000000,-58.000000,-50.000000,36.000000,-36.000000
1305232.614603,7.000000,127.000000,80.000000,42.000000,50.000000,-19.000000,-80.000000,64.000000
1305232.629897,-45.000000,-125.000000,-9.000000,43.000000,40.000000,51.000000,127.000000,19.000000
1305232.629908,-13.000000,-72.000000,-128.000000,-63.000000,-40.000000,-40.000000,-12.000000,-26.000000
1305232.652361,-1.000000,15.000000,127.000000,18.000000,-18.000000,13.000000,-80.000000,0.000000
1305232.652372,-125.000000,4.000000,42.000000,13.000000,-6.000000,-45.000000,-47.000000,-27.000000
1305232.674782,118.000000,-52.000000,-94.000000,-111.000000,-128.000000,-24.000000,53.000000,55.000000
1305232.674795,40.000000,91.000000,51.000000,35.000000,87.000000,47.000000,-85.000000,6.000000
1305232.675694,-31.000000,-20.000000,8.000000,94.000000,99.000000,-11.000000,83.000000,33.000000
1305232.675701,-44.000000,-35.000000,37.000000,-104.000000,-112.000000,33.000000,10.000000,-7.000000
1305232.676310,0.000000,0.000000,25.000000,20.000000,42.000000,20.000000,-43.000000,-4.000000
1305232.676318,-43.000000,-10.000000,74.000000,18.000000,-17.000000,-32.000000,116.000000,18.000000
1305232.677818,-28.000000,-30.000000,-8.000000,-5.000000,2.000000,-21.000000,-70.000000,-17.000000
1305232.677829,67.000000,55.000000,21.000000,-37.000000,-31.000000,35.000000,71.000000,26.000000
1305232.678698,-2.000000,19.000000,51.000000,28.000000,42.000000,20.000000,-69.000000,20.000000
1305232.678707,-22.000000,-42.000000,-77.000000,71.000000,78.000000,-1.000000,103.000000,-7.000000
1305232.689834,-44.000000,127.000000,95.000000,55.000000,61.000000,-54.000000,36.000000,-16.000000
1305232.689859,127.000000,127.000000,56.000000,-42.000000,-85.000000,78.000000,60.000000,63.000000
1305232.697746,-57.000000,21.000000,-110.000000,-49.000000,-11.000000,-11.000000,63.000000,19.000000
1305232.697761,37.000000,-34.000000,-98.000000,34.000000,45.000000,-44.000000,15.000000,-2.000000
1305232.712069,28.000000,70.000000,83.000000,-51.000000,-114.000000,-23.000000,72.000000,44.000000
1305232.712078,-128.000000,82.000000,116.000000,35.000000,-2.000000,84.000000,32.000000,15.000000
1305232.734776,127.000000,-70.000000,-48.000000,-3.000000,-6.000000,6.000000,73.000000,68.000000
1305232.734786,-41.000000,-35.000000,-26.000000,17.000000,62.000000,34.000000,-38.000000,-23.000000
1305232.749614,-39.000000,4.000000,0.000000,-44.000000,-35.000000,-3.000000,-65.000000,-24.000000
1305232.749656,-13.000000,-32.000000,43.000000,46.000000,43.000000,-6.000000,80.000000,34.000000
1305232.772386,-19.000000,127.000000,-45.000000,15.000000,14.000000,-6.000000,-21.000000,-19.000000
1305232.772396,59.000000,73.000000,127.000000,1.000000,-13.000000,2.000000,-29.000000,27.000000
1305232.787315,-8.000000,-59.000000,-128.000000,-32.000000,-9.000000,-61.000000,19.000000,-61.000000
1305232.787344,-17.000000,24.000000,103.000000,20.000000,-15.000000,15.000000,100.000000,52.000000
1305232.802120,28.000000,2.000000,-9.000000,17.000000,32.000000,16.000000,-26.000000,-41.000000
1305232.802131,-12.000000,-74.000000,-36.000000,-24.000000,-74.000000,-79.000000,-49.000000,-24.000000
1305232.802652,-48.000000,-111.000000,-74.000000,3.000000,38.000000,-3.000000,-75.000000,-32.000000
1305232.802681,9.000000,73.000000,88.000000,37.000000,40.000000,-17.000000,70.000000,45.000000
1305232.803795,-17.000000,27.000000,58.000000,3.000000,25.000000,-10.000000,-17.000000,-25.000000
1305232.803804,70.000000,-64.000000,-33.000000,-4.000000,-36.000000,-24.000000,85.000000,29.000000
1305232.809444,-23.000000,-10.000000,-7.000000,-30.000000,-24.000000,-50.000000,-81.000000,-44.000000
1305232.809473,5.000000,23.000000,-10.000000,56.000000,45.000000,-8.000000,-37.000000,6.000000
1305232.810159,-26.000000,-14.000000,36.000000,42.000000,58.000000,-21.000000,-53.000000,6.000000
1305232.810186,127.000000,85.000000,26.000000,2.000000,-45.000000,-15.000000,33.000000,25.000000
1305232.832267,-78.000000,-87.000000,2.000000,6.000000,12.000000,-12.000000,16.000000,10.000000
1305232.832277,-56.000000,-98.000000,-68.000000,33.000000,63.000000,-31.000000,-65.000000,-42.000000
1305232.877349,106.000000,-60.000000,57.000000,-45.000000,-87.000000,44.000000,-31.000000,61.000000
1305232.877375,36.000000,127.000000,87.000000,13.000000,25.000000,32.000000,-39.000000,-14.000000
1305232.892630,-7.000000,13.000000,7.000000,5.000000,67.000000,67.000000,114.000000,42.000000
1305232.892642,-12.000000,-49.000000,12.000000,-9.000000,-56.000000,-54.000000,-100.000000,1.000000
1305232.893219,5.000000,69.000000,64.000000,-13.000000,-47.000000,56.000000,126.000000,2.000000
1305232.893239,13.000000,-75.000000,-44.000000,21.000000,44.000000,44.000000,55.000000,25.000000
1305232.894529,-25.000000,3.000000,-31.000000,60.000000,73.000000,-27.000000,57.000000,21.000000
1305232.894537,-93.000000,27.000000,127.000000,-69.000000,-107.000000,18.000000,45.000000,-13.000000
1305232.895003,-128.000000,102.000000,-43.000000,36.000000,53.000000,69.000000,116.000000,6.000000
1305232.895012,127.000000,127.000000,34.000000,18.000000,13.000000,12.000000,52.000000,127.000000
1305232.895956,-11.000000,32.000000,67.000000,26.000000,32.000000,-23.000000,-95.000000,-51.000000
1305232.895970,-33.000000,20.000000,17.000000,18.000000,-19.000000,-35.000000,2.000000,-46.000000
1305232.907277,76.000000,40.000000,-19.000000,31.000000,86.000000,83.000000,127.000000,85.000000
1305232.907290,-59.000000,27.000000,12.000000,-6.000000,3.000000,3.000000,-86.000000,-57.000000
1305232.907949,54.000000,-64.000000,34.000000,-10.000000,28.000000,-49.000000,-128.000000,-56.000000
1305232.907957,29.000000,-37.000000,-49.000000,-4.000000,19.000000,5.000000,87.000000,44.000000
1305232.915267,-3.000000,34.000000,36.000000,5.000000,-22.000000,-6.000000,40.000000,7.000000
1305232.915276,4.000000,4.000000,-16.000000,-13.000000,-21.000000,3.000000,32.000000,10.000000
1305232.929657,12.000000,-18.000000,24.000000,0.000000,-3.000000,-20.000000,-58.000000,-14.000000
1305232.929678,-128.000000,-13.000000,-45.000000,5.000000,40.000000,21.000000,-128.000000,-76.000000
1305232.959833,127.000000,-128.000000,17.000000,-32.000000,-102.000000,21.000000,127.000000,90.000000
1305232.959876,-20.000000,56.000000,-39.000000,22.000000,60.000000,15.000000,110.000000,3.000000
1305232.967599,-28.000000,12.000000,-63.000000,28.000000,90.000000,34.000000,-57.000000,40.000000
1305232.967609,-23.000000,-30.000000,127.000000,12.000000,-40.000000,26.000000,-8.000000,-11.000000
1305232.989823,70.000000,36.000000,-97.000000,-21.000000,-14.000000,-23.000000,-46.000000,-25.000000
1305232.989841,4.000000,-79.000000,-28.000000,0.000000,-24.000000,-28.000000,38.000000,-36.000000
1305233.012386,6.000000,-41.000000,30.000000,-128.000000,-128.000000,-12.000000,-99.000000,-11.000000
1305233.012428,-7.000000,-7.000000,37.000000,42.000000,29.000000,78.000000,54.000000,1.000000
1305233.034456,-26.000000,-65.000000,-11.000000,51.000000,86.000000,-41.000000,-61.000000,-5.000000
1305233.034466,-3.000000,-31.000000,-5.000000,-4.000000,-25.000000,48.000000,20.000000,16.000000
1305233.042337,5.000000,-45.000000,2.000000,25.000000,44.000000,-25.000000,-51.000000,-12.000000
1305233.042350,-14.000000,16.000000,-62.000000,20.000000,51.000000,-46.000000,-51.000000,-22.000000
1305233.043287,-8.000000,-52.000000,-17.000000,-11.000000,-81.000000,6.000000,54.000000,17.000000
1305233.043303,0.000000,21.000000,127.000000,-93.000000,-103.000000,-56.000000,-91.000000,-12.000000
1305233.045187,-34.000000,-64.000000,-89.000000,-1.000000,-4.000000,-58.000000,-111.000000,-10.000000
1305233.045199,-41.000000,-86.000000,-2.000000,72.000000,120.000000,41.000000,16.000000,12.000000
1305233.049906,13.000000,-91.000000,35.000000,12.000000,-27.000000,-15.000000,84.000000,59.000000
1305233.049919,16.000000,-15.000000,-99.000000,-4.000000,40.000000,-12.000000,-33.000000,-28.000000
1305233.072275,-19.000000,-36.000000,47.000000,8.000000,71.000000,52.000000,5.000000,6.000000
1305233.072304,-10.000000,27.000000,127.000000,-13.000000,-85.000000,10.000000,-38.000000,-4.000000
1305233.079584,35.000000,-14.000000,19.000000,-9.000000,-8.000000,30.000000,102.000000,37.000000
1305233.079594,42.000000,47.000000,-18.000000,10.000000,28.000000,6.000000,73.000000,44.000000
1305233.094877,-20.000000,-56.000000,19.000000,-55.000000,-90.000000,-4.000000,5.000000,-30.000000
1305233.094887,-75.000000,0.000000,-58.000000,-2.000000,16.000000,-30.000000,-103.000000,-48.000000
1305233.109979,36.000000,-4.000000,-26.000000,9.000000,55.000000,-37.000000,-13.000000,17.000000
1305233.109993,-59.000000,98.000000,14.000000,-26.000000,-57.000000,17.000000,-71.000000,-79.000000
1305233.132255,120.000000,79.000000,86.000000,-14.000000,-36.000000,30.000000,127.000000,127.000000
1305233.132276,-50.000000,-128.000000,-105.000000,4.000000,50.000000,42.000000,62.000000,-16.000000
1305233.147216,3.000000,127.000000,127.000000,60.000000,47.000000,-5.000000,-10.000000,-6.000000
1305233.147228,57.000000,127.000000,98.000000,-83.000000,-105.000000,-21.000000,21.000000,16.000000
1305233.148208,-85.000000,-86.000000,-4.000000,-15.000000,14.000000,-32.000000,-94.000000,-57.000000
1305233.148219,76.000000,28.000000,-100.000000,6.000000,44.000000,51.000000,114.000000,45.000000
1305233.148872,-50.000000,-38.000000,16.000000,8.000000,34.000000,-23.000000,-128.000000,-45.000000
1305233.148885,-61.000000,-62.000000,-48.000000,6.000000,-42.000000,11.000000,-20.000000,-48.000000
1305233.150238,-67.000000,53.000000,50.000000,-40.000000,-69.000000,100.000000,127.000000,76.000000
1305233.150248,127.000000,-120.000000,-29.000000,31.000000,22.000000,-29.000000,-121.000000,11.000000
1305233.151109,-21.000000,100.000000,83.000000,-40.000000,-28.000000,51.000000,-33.000000,-6.000000
1305233.151129,-37.000000,-11.000000,54.000000,-10.000000,-34.000000,23.000000,76.000000,12.000000
1305233.162117,-70.000000,-94.000000,-94.000000,11.000000,105.000000,5.000000,-53.000000,-35.000000
1305233.162146,-29.000000,26.000000,72.000000,65.000000,62.000000,-55.000000,-17.000000,-81.000000
1305233.169917,41.000000,-40.000000,101.000000,-118.000000,-128.000000,55.000000,57.000000,25.000000
1305233.169929,-45.000000,95.000000,120.000000,15.000000,40.000000,-5.000000,-40.000000,-36.000000
1305233.192597,44.000000,1.000000,-55.000000,25.000000,61.000000,-17.000000,-8.000000,13.000000
1305233.192609,-108.000000,-62.000000,-6.000000,-128.000000,-128.000000,-9.000000,46.000000,-10.000000
1305233.200012,-8.000000,127.000000,24.000000,22.000000,61.000000,-63.000000,-90.000000,1.000000
1305233.200033,70.000000,-82.000000,19.000000,-128.000000,-118.000000,17.000000,124.000000,26.000000
1305233.229638,-1.000000,27.000000,-14.000000,40.000000,99.000000,106.000000,127.000000,29.000000
1305233.229649,31.000000,31.000000,5.000000,45.000000,45.000000,46.000000,113.000000,127.000000
1305233.229995,-45.000000,-53.000000,-12.000000,5.000000,7.000000,-40.000000,-122.000000,-57.000000
1305233.230022,18.000000,26.000000,26.000000,25.000000,44.000000,21.000000,-7.000000,18.000000
1305233.231209,-23.000000,127.000000,127.000000,-92.000000,-99.000000,18.000000,-53.000000,-2.000000
1305233.231236,19.000000,-9.000000,19.000000,23.000000,15.000000,4.000000,94.000000,0.000000
1305233.232054,-10.000000,36.000000,-9.000000,91.000000,95.000000,27.000000,120.000000,34.000000
1305233.232080,127.000000,-64.000000,19.000000,-29.000000,-40.000000,-10.000000,10.000000,46.000000
1305233.245621,-84.000000,-14.000000,-128.000000,-15.000000,11.000000,59.000000,15.000000,-35.000000
1305233.245647,-108.000000,-44.000000,26.000000,61.000000,58.000000,-91.000000,-94.000000,-39.000000
1305233.252661,83.000000,59.000000,0.000000,-128.000000,-128.000000,-30.000000,-6.000000,-7.000000
1305233.252710,-61.000000,13.000000,31.000000,55.000000,55.000000,-46.000000,-31.000000,-26.000000
1305233.267124,7.000000,41.000000,-83.000000,44.000000,66.000000,64.000000,13.000000,8.000000
1305233.267140,-57.000000,11.000000,52.000000,-20.000000,-54.000000,1.000000,1.000000,-12.000000
1305233.267691,45.000000,-1.000000,-106.000000,20.000000,5.000000,-74.000000,27.000000,44.000000
1305233.267708,-99.000000,60.000000,112.000000,-24.000000,15.000000,127.000000,82.000000,-7.000000
1305233.282255,125.000000,40.000000,44.000000,-1.000000,-34.000000,-21.000000,-58.000000,20.000000
1305233.282294,-21.000000,44.000000,-65.000000,-10.000000,-18.000000,-37.000000,78.000000,7.000000
1305233.290010,4.000000,6.000000,-9.000000,12.000000,32.000000,4.000000,-32.000000,23.000000
1305233.290029,-29.000000,-86.000000,4.000000,51.000000,42.000000,0.000000,-29.000000,-42.000000
1305233.312145,66.000000,81.000000,-17.000000,6.000000,6.000000,-27.000000,121.000000,37.000000
1305233.312156,-19.000000,-48.000000,-128.000000,-128.000000,-126.000000,37.000000,31.000000,7.000000
1305233.319662,-76.000000,-21.000000,25.000000,-13.000000,-87.000000,-52.000000,-29.000000,-29.000000
1305233.319674,58.000000,-16.000000,-36.000000,65.000000,127.000000,38.000000,72.000000,73.000000
1305233.349621,-16.000000,38.000000,30.000000,31.000000,13.000000,11.000000,62.000000,11.000000
1305233.349631,18.000000,68.000000,92.000000,25.000000,59.000000,7.000000,-43.000000,-24.000000
1305233.357245,16.000000,15.000000,52.000000,66.000000,109.000000,36.000000,-10.000000,-50.000000
1305233.357254,-109.000000,-68.000000,1.000000,-27.000000,-20.000000,-9.000000,-128.000000,-85.000000
1305233.372376,80.000000,43.000000,-70.000000,44.000000,58.000000,-53.000000,-4.000000,8.000000
1305233.372387,-80.000000,-45.000000,19.000000,-21.000000,-15.000000,-32.000000,-52.000000,2.000000
1305233.387194,-9.000000,71.000000,62.000000,31.000000,19.000000,43.000000,52.000000,1.000000
1305233.387216,-5.000000,67.000000,-57.000000,13.000000,13.000000,-31.000000,-6.000000,3.000000
1305233.388039,-16.000000,60.000000,-10.000000,-38.000000,-64.000000,-35.000000,-33.000000,-9.000000
1305233.388048,3.000000,-4.000000,18.000000,-19.000000,-13.000000,13.000000,40.000000,5.000000
1305233.388700,110.000000,48.000000,25.000000,-23.000000,-40.000000,41.000000,127.000000,54.000000
1305233.388708,11.000000,-8.000000,-45.000000,33.000000,1.000000,-29.000000,-8.000000,-26.000000
1305233.390088,0.000000,1.000000,8.000000,-12.000000,15.000000,-5.000000,-1.000000,19.000000
1305233.390097,-66.000000,-128.000000,-120.000000,-26.000000,-97.000000,-120.000000,-73.000000,-49.000000
1305233.390974,-13.000000,51.000000,50.000000,5.000000,-2.000000,-3.000000,21.000000,-5.000000
1305233.390993,75.000000,-111.000000,0.000000,18.000000,36.000000,7.000000,-47.000000,7.000000
1305233.409419,111.000000,14.000000,-39.000000,38.000000,94.000000,-20.000000,-50.000000,-10.000000
1305233.409429,-64.000000,7.000000,58.000000,-29.000000,-100.000000,94.000000,127.000000,-2.000000
1305233.410106,-42.000000,-47.000000,-14.000000,-33.000000,-46.000000,-24.000000,22.000000,-10.000000
1305233.410114,8.000000,25.000000,35.000000,20.000000,43.000000,-13.000000,-52.000000,-22.000000
1305233.432327,16.000000,-19.000000,2.000000,36.000000,63.000000,15.000000,-19.000000,-2.000000
1305233.432352,-31.000000,18.000000,17.000000,-50.000000,-77.000000,-23.000000,-35.000000,-22.000000
1305233.447271,-36.000000,13.000000,-20.000000,30.000000,51.000000,-39.000000,-67.000000,-15.000000
1305233.447290,32.000000,30.000000,83.000000,42.000000,38.000000,37.000000,-9.000000,13.000000
1305233.469633,28.000000,-106.000000,-128.000000,-72.000000,-91.000000,-13.000000,-30.000000,62.000000
1305233.469643,93.000000,127.000000,69.000000,63.000000,105.000000,80.000000,104.000000,58.000000
1305233.484874,4.000000,-47.000000,-67.000000,-69.000000,-70.000000,-48.000000,-128.000000,-62.000000
1305233.484964,-5.000000,-15.000000,1.000000,-2.000000,12.000000,-20.000000,-12.000000,-26.000000
1305233.486285,-9.000000,127.000000,127.000000,55.000000,1.000000,-9.000000,-29.000000,-3.000000
1305233.486308,8.000000,6.000000,-46.000000,-3.000000,48.000000,47.000000,-3.000000,49.000000
1305233.486740,-128.000000,-42.000000,6.000000,-2.000000,-23.000000,-27.000000,-56.000000,-27.000000
1305233.486768,72.000000,35.000000,-79.000000,5.000000,6.000000,15.000000,26.000000,-9.000000
1305233.488193,0.000000,-65.000000,19.000000,-7.000000,-14.000000,5.000000,29.000000,24.000000
1305233.488221,1.000000,-45.000000,25.000000,-34.000000,-115.000000,-113.000000,-85.000000,-31.000000
1305233.507186,11.000000,118.000000,20.000000,-13.000000,-32.000000,127.000000,127.000000,72.000000
1305233.507196,-128.000000,-42.000000,9.000000,13.000000,-29.000000,-77.000000,-19.000000,-72.000000
1305233.508408,127.000000,20.000000,-32.000000,77.000000,127.000000,-21.000000,-108.000000,17.000000
1305233.508424,-60.000000,-99.000000,-18.000000,-128.000000,-128.000000,35.000000,65.000000,24.000000
1305233.509476,61.000000,76.000000,94.000000,33.000000,27.000000,-33.000000,-67.000000,-42.000000
1305233.509496,5.000000,87.000000,6.000000,7.000000,-51.000000,-19.000000,31.000000,2.000000
1305233.522809,-48.000000,-96.000000,-38.000000,-8.000000,38.000000,23.000000,-40.000000,-19.000000
1305233.522837,5.000000,66.000000,33.000000,-21.000000,-88.000000,-55.000000,27.000000,-8.000000
1305233.529634,-32.000000,-30.000000,-20.000000,-13.000000,-15.000000,-34.000000,-52.000000,-22.000000
1305233.529644,14.000000,-6.000000,-14.000000,-23.000000,7.000000,-2.000000,3.000000,54.000000
1305233.552367,-65.000000,-128.000000,-128.000000,74.000000,91.000000,-106.000000,-99.000000,-65.000000
1305233.552388,-10.000000,35.000000,85.000000,-75.000000,-113.000000,74.000000,37.000000,16.000000
1305233.559620,80.000000,35.000000,75.000000,23.000000,34.000000,24.000000,64.000000,53.000000
1305233.559630,11.000000,-41.000000,2.000000,27.000000,2.000000,-27.000000,-33.000000,-17.000000
1305233.582641,-38.000000,-13.000000,-18.000000,8.000000,37.000000,-6.000000,-110.000000,-48.000000
1305233.582674,9.000000,38.000000,21.000000,8.000000,-16.000000,33.000000,64.000000,15.000000
1305233.589819,1.000000,-19.000000,-19.000000,-37.000000,-63.000000,-53.000000,-28.000000,13.000000
1305233.589836,-12.000000,-23.000000,-1.000000,-11.000000,-12.000000,-24.000000,-69.000000,-35.000000
1305233.604882,0.000000,47.000000,12.000000,78.000000,100.000000,80.000000,93.000000,1.000000
1305233.604930,-13.000000,77.000000,36.000000,-30.000000,-27.000000,26.000000,55.000000,24.000000
1305233.627081,-13.000000,55.000000,-17.000000,59.000000,54.000000,-20.000000,-38.000000,22.000000
1305233.627092,127.000000,104.000000,-101.000000,-51.000000,-69.000000,10.000000,88.000000,65.000000
1305233.635131,2.000000,-21.000000,30.000000,62.000000,104.000000,-44.000000,-107.000000,-40.000000
1305233.635143,23.000000,127.000000,118.000000,-2.000000,13.000000,83.000000,127.000000,-6.000000
1305233.635965,-41.000000,-62.000000,-15.000000,12.000000,-65.000000,-41.000000,106.000000,35.000000
1305233.635976,-20.000000,50.000000,0.000000,-60.000000,-45.000000,-10.000000,-128.000000,-58.000000
1305233.636956,40.000000,30.000000,-55.000000,5.000000,20.000000,127.000000,127.000000,66.000000
1305233.636977,-32.000000,-70.000000,-17.000000,4.000000,41.000000,1.000000,-112.000000,-26.000000
1305233.637881,-15.000000,44.000000,-6.000000,2.000000,-78.000000,-128.000000,16.000000,-22.000000
1305233.637896,14.000000,86.000000,127.000000,17.000000,-13.000000,-10.000000,101.000000,33.000000
1305233.641999,7.000000,70.000000,7.000000,19.000000,21.000000,14.000000,18.000000,3.000000
1305233.642008,-21.000000,-33.000000,38.000000,5.000000,3.000000,-20.000000,-88.000000,-33.000000
1305233.649943,67.000000,48.000000,39.000000,-43.000000,-29.000000,41.000000,41.000000,46.000000
1305233.649956,-17.000000,32.000000,-11.000000,13.000000,33.000000,-59.000000,-36.000000,-28.000000
1305233.702273,-40.000000,-46.000000,-12.000000,6.000000,13.000000,32.000000,4.000000,-5.000000
1305233.702283,-19.000000,-70.000000,-76.000000,-43.000000,-29.000000,15.000000,23.000000,-23.000000
1305233.709815,-1.000000,18.000000,74.000000,-16.000000,-83.000000,-17.000000,59.000000,6.000000
1305233.709832,-62.000000,-128.000000,-84.000000,46.000000,60.000000,-16.000000,91.000000,54.000000
1305233.710927,127.000000,34.000000,78.000000,36.000000,19.000000,-15.000000,-32.000000,31.000000
1305233.710936,-45.000000,-31.000000,-54.000000,-104.000000,-97.000000,-62.000000,-95.000000,-35.000000
1305233.711465,-26.000000,100.000000,40.000000,-71.000000,-52.000000,40.000000,48.000000,7.000000
1305233.711479,19.000000,-61.000000,-18.000000,68.000000,85.000000,55.000000,127.000000,15.000000
1305233.712828,-86.000000,-52.000000,-37.000000,-51.000000,-53.000000,-4.000000,-128.000000,-54.000000
1305233.712837,10.000000,33.000000,-42.000000,-22.000000,-49.000000,56.000000,127.000000,24.000000
1305233.725430,-46.000000,-128.000000,27.000000,12.000000,-7.000000,-52.000000,0.000000,-7.000000
1305233.725508,55.000000,127.000000,78.000000,-50.000000,-79.000000,12.000000,-17.000000,-12.000000
1305233.739593,-14.000000,-68.000000,-62.000000,-15.000000,14.000000,-41.000000,-34.000000,8.000000
1305233.739613,-29.000000,-96.000000,-10.000000,6.000000,-26.000000,13.000000,32.000000,-25.000000
1305233.740902,-40.000000,25.000000,18.000000,37.000000,44.000000,-9.000000,38.000000,-8.000000
1305233.740919,59.000000,-11.000000,-5.000000,-63.000000,-50.000000,33.000000,10.000000,-7.000000
1305233.747368,22.000000,98.000000,49.000000,-6.000000,-54.000000,-47.000000,-77.000000,-17.000000
1305233.747379,-6.000000,-14.000000,-80.000000,7.000000,22.000000,-10.000000,-3.000000,11.000000
1305233.762136,-72.000000,-34.000000,-8.000000,28.000000,41.000000,-5.000000,5.000000,-33.000000
1305233.762149,28.000000,54.000000,-13.000000,-80.000000,-105.000000,82.000000,54.000000,26.000000
1305233.784801,-8.000000,-107.000000,-85.000000,-29.000000,-38.000000,-8.000000,-59.000000,-38.000000
1305233.784819,-11.000000,-8.000000,-1.000000,55.000000,84.000000,24.000000,10.000000,52.000000
1305233.807686,127.000000,7.000000,-30.000000,-12.000000,-23.000000,-34.000000,-19.000000,35.000000
1305233.807718,-1.000000,109.000000,70.000000,-12.000000,9.000000,29.000000,56.000000,8.000000
1305233.829696,-55.000000,5.000000,76.000000,13.000000,54.000000,-27.000000,-128.000000,-67.000000
1305233.829716,-36.000000,-114.000000,-56.000000,42.000000,71.000000,17.000000,89.000000,20.000000
1305233.830735,4.000000,9.000000,-7.000000,-35.000000,-72.000000,-51.000000,-48.000000,-15.000000
1305233.830758,-28.000000,-51.000000,-4.000000,5.000000,-30.000000,-19.000000,-12.000000,-20.000000
1305233.831302,27.000000,25.000000,19.000000,15.000000,20.000000,10.000000,127.000000,41.000000
1305233.831324,-49.000000,-16.000000,-42.000000,29.000000,46.000000,-35.000000,-122.000000,-82.000000
1305233.832795,38.000000,-2.000000,15.000000,-22.000000,-51.000000,-8.000000,127.000000,45.000000
1305233.832819,7.000000,-51.000000,-32.000000,-10.000000,-6.000000,-36.000000,-51.000000,0.000000
1305233.833561,14.000000,82.000000,-9.000000,-59.000000,-65.000000,-14.000000,-27.000000,-8.000000
1305233.833570,-23.000000,-17.000000,56.000000,17.000000,39.000000,38.000000,-16.000000,-13.000000
1305233.845538,6.000000,3.000000,-28.000000,29.000000,23.000000,-40.000000,3.000000,13.000000
1305233.845547,-17.000000,-41.000000,-1.000000,-41.000000,-92.000000,-31.000000,-36.000000,-19.000000
1305233.859620,15.000000,-46.000000,-11.000000,-4.000000,-33.000000,11.000000,66.000000,9.000000
1305233.859637,-34.000000,-22.000000,-23.000000,-4.000000,12.000000,-47.000000,-128.000000,-49.000000
1305233.867618,10.000000,-75.000000,4.000000,-66.000000,-87.000000,121.000000,127.000000,9.000000
1305233.867634,26.000000,-66.000000,-60.000000,18.000000,49.000000,-4.000000,-26.000000,-10.000000
1305233.868683,-73.000000,-84.000000,-81.000000,-4.000000,-15.000000,-19.000000,-66.000000,-23.000000
1305233.868696,51.000000,5.000000,-16.000000,-20.000000,-10.000000,-32.000000,-34.000000,-10.000000
1305233.882105,-103.000000,-57.000000,-41.000000,31.000000,37.000000,-42.000000,-51.000000,-59.000000
1305233.882133,20.000000,-12.000000,-55.000000,-26.000000,-48.000000,41.000000,17.000000,27.000000
1305233.897352,-6.000000,-6.000000,57.000000,-15.000000,-29.000000,-3.000000,-9.000000,0.000000
1305233.897363,-71.000000,-24.000000,-19.000000,14.000000,-2.000000,13.000000,6.000000,-21.000000
1305233.919691,-34.000000,-49.000000,-9.000000,64.000000,72.000000,-15.000000,-13.000000,-5.000000
1305233.919714,104.000000,69.000000,-76.000000,-128.000000,-128.000000,3.000000,-9.000000,49.000000
1305233.927107,50.000000,4.000000,54.000000,21.000000,58.000000,11.000000,27.000000,5.000000
1305233.927117,-45.000000,-24.000000,-62.000000,-6.000000,6.000000,10.000000,9.000000,-11.000000
1305233.949646,-34.000000,88.000000,28.000000,5.000000,-24.000000,-18.000000,-16.000000,-1.000000
1305233.949668,40.000000,-22.000000,-3.000000,-19.000000,-46.000000,-26.000000,-57.000000,-9.000000
1305233.964800,-22.000000,-7.000000,-14.000000,-10.000000,-8.000000,-36.000000,53.000000,7.000000
1305233.964812,4.000000,-7.000000,86.000000,-9.000000,-30.000000,54.000000,7.000000,-9.000000
1305233.980255,-32.000000,-44.000000,-87.000000,34.000000,102.000000,-32.000000,17.000000,-11.000000
1305233.980265,49.000000,-128.000000,-43.000000,-8.000000,20.000000,56.000000,-88.000000,17.000000
1305233.980791,78.000000,127.000000,72.000000,32.000000,54.000000,56.000000,29.000000,-7.000000
1305233.980802,-19.000000,-29.000000,19.000000,48.000000,73.000000,5.000000,32.000000,-7.000000
1305233.981931,-36.000000,-72.000000,-25.000000,5.000000,-33.000000,-35.000000,-43.000000,-13.000000
1305233.981939,-32.000000,-54.000000,-49.000000,-40.000000,-27.000000,-47.000000,-86.000000,-31.000000
1305233.982521,-18.000000,-39.000000,24.000000,-5.000000,-13.000000,13.000000,-112.000000,-26.000000
1305233.982529,-4.000000,-58.000000,-96.000000,-14.000000,20.000000,55.000000,-10.000000,22.000000
1305233.983641,22.000000,18.000000,1.000000,10.000000,11.000000,3.000000,-56.000000,-30.000000
1305233.983652,-106.000000,45.000000,74.000000,27.000000,20.000000,-18.000000,-15.000000,-4.000000
1305233.987247,38.000000,18.000000,-25.000000,-40.000000,0.000000,-31.000000,-20.000000,-17.000000
1305233.987258,4.000000,80.000000,-2.000000,-8.000000,-8.000000,18.000000,77.000000,7.000000
1305234.017290,-69.000000,-61.000000,14.000000,37.000000,51.000000,-46.000000,-40.000000,-35.000000
1305234.017312,-12.000000,69.000000,54.000000,-46.000000,-57.000000,1.000000,-27.000000,-19.000000
1305234.024966,1.000000,-49.000000,-86.000000,-40.000000,-73.000000,-12.000000,65.000000,10.000000
1305234.024978,39.000000,74.000000,34.000000,31.000000,56.000000,34.000000,11.000000,-11.000000
1305234.039798,-128.000000,-128.000000,-23.000000,-53.000000,-77.000000,-117.000000,-128.000000,-85.000000
1305234.039819,127.000000,-33.000000,-49.000000,-15.000000,-16.000000,-17.000000,63.000000,-6.000000
1305234.062243,-12.000000,2.000000,-12.000000,-22.000000,-6.000000,-58.000000,-5.000000,37.000000
1305234.062272,-40.000000,-53.000000,23.000000,69.000000,113.000000,74.000000,127.000000,-15.000000
1305234.077961,-35.000000,-70.000000,-32.000000,21.000000,15.000000,-9.000000,115.000000,15.000000
1305234.077980,-40.000000,-64.000000,-23.000000,-29.000000,-3.000000,30.000000,-66.000000,-39.000000
1305234.078418,-25.000000,86.000000,71.000000,45.000000,17.000000,18.000000,127.000000,93.000000
1305234.078428,33.000000,-87.000000,-81.000000,-35.000000,-39.000000,-43.000000,-126.000000,-36.000000
1305234.079542,-21.000000,-31.000000,-15.000000,34.000000,25.000000,-41.000000,-6.000000,0.000000
1305234.079553,-34.000000,21.000000,9.000000,-59.000000,-54.000000,27.000000,-37.000000,1.000000
1305234.080209,-41.000000,-63.000000,-43.000000,57.000000,101.000000,3.000000,32.000000,-1.000000
1305234.080219,67.000000,-18.000000,31.000000,-34.000000,-86.000000,23.000000,39.000000,17.000000
1305234.099632,12.000000,127.000000,52.000000,103.000000,117.000000,89.000000,62.000000,19.000000
1305234.099648,94.000000,-15.000000,19.000000,-54.000000,-104.000000,24.000000,-6.000000,31.000000
1305234.101018,41.000000,18.000000,-6.000000,15.000000,4.000000,-20.000000,-66.000000,5.000000
1305234.101036,-58.000000,-27.000000,11.000000,36.000000,-6.000000,-40.000000,-13.000000,-24.000000
1305234.114481,36.000000,-69.000000,-106.000000,-3.000000,-2.000000,-3.000000,-64.000000,14.000000
1305234.114491,-28.000000,-61.000000,-18.000000,14.000000,-19.000000,-47.000000,46.000000,17.000000
1305234.137166,18.000000,56.000000,10.000000,31.000000,18.000000,41.000000,104.000000,31.000000
1305234.137195,-26.000000,58.000000,-101.000000,13.000000,35.000000,18.000000,-12.000000,-31.000000
1305234.144486,-31.000000,-34.000000,-28.000000,-65.000000,-57.000000,-19.000000,-14.000000,-5.000000
1305234.144496,13.000000,60.000000,74.000000,-22.000000,-8.000000,44.000000,-33.000000,-3.000000
1305234.197177,-11.000000,-80.000000,-87.000000,11.000000,88.000000,43.000000,10.000000,7.000000
1305234.197187,-39.000000,21.000000,18.000000,8.000000,6.000000,-51.000000,-26.000000,-15.000000
1305234.204506,-9.000000,-12.000000,6.000000,26.000000,12.000000,24.000000,73.000000,9.000000
1305234.204521,39.000000,-66.000000,-67.000000,28.000000,73.000000,46.000000,62.000000,35.000000
1305234.205594,-128.000000,-128.000000,-56.000000,68.000000,66.000000,-68.000000,-76.000000,-72.000000
1305234.205616,127.000000,127.000000,24.000000,13.000000,16.000000,-4.000000,14.000000,52.000000
1305234.206165,-120.000000,57.000000,6.000000,16.000000,43.000000,15.000000,-20.000000,-44.000000
1305234.206172,112.000000,-36.000000,-15.000000,16.000000,12.000000,-18.000000,-62.000000,25.000000
1305234.220121,41.000000,24.000000,-18.000000,-7.000000,4.000000,-24.000000,-125.000000,-24.000000
1305234.220135,-49.000000,48.000000,-57.000000,8.000000,22.000000,-28.000000,0.000000,-39.000000
1305234.221237,12.000000,-69.000000,40.000000,10.000000,-22.000000,-27.000000,-22.000000,4.000000
1305234.221253,-21.000000,-50.000000,-1.000000,5.000000,-4.000000,-39.000000,-50.000000,-4.000000
1305234.242159,11.000000,-12.000000,27.000000,0.000000,-13.000000,35.000000,43.000000,19.000000
1305234.242170,-50.000000,-32.000000,-74.000000,0.000000,23.000000,-15.000000,-80.000000,-55.000000
1305234.257372,25.000000,10.000000,-32.000000,-7.000000,-91.000000,-60.000000,41.000000,27.000000
1305234.257382,13.000000,23.000000,-12.000000,34.000000,27.000000,-3.000000,34.000000,-9.000000
1305234.264822,112.000000,-10.000000,37.000000,-128.000000,-128.000000,-11.000000,-87.000000,7.000000
1305234.264833,6.000000,-53.000000,-69.000000,28.000000,49.000000,35.000000,127.000000,55.000000
1305234.294662,-57.000000,27.000000,-48.000000,47.000000,64.000000,-60.000000,-25.000000,-31.000000
1305234.294677,-7.000000,0.000000,16.000000,-5.000000,-25.000000,-18.000000,-89.000000,-22.000000
1305234.302185,-51.000000,-32.000000,-24.000000,-7.000000,8.000000,71.000000,59.000000,-4.000000
1305234.302195,80.000000,-77.000000,-13.000000,8.000000,20.000000,-4.000000,-22.000000,55.000000
1305234.317520,-4.000000,98.000000,27.000000,67.000000,127.000000,-26.000000,-128.000000,-30.000000
1305234.317542,34.000000,26.000000,-30.000000,3.000000,-17.000000,57.000000,127.000000,78.000000
1305234.339490,-16.000000,-117.000000,-29.000000,-19.000000,-13.000000,-40.000000,-50.000000,0.000000
1305234.339501,-38.000000,-74.000000,-88.000000,-26.000000,-12.000000,-56.000000,115.000000,-40.000000
1305234.354889,8.000000,8.000000,-38.000000,6.000000,20.000000,67.000000,103.000000,15.000000
1305234.354902,35.000000,59.000000,127.000000,39.000000,9.000000,13.000000,-7.000000,22.000000
1305234.355412,-128.000000,-33.000000,28.000000,-20.000000,0.000000,-90.000000,-128.000000,-76.000000
1305234.355421,88.000000,-40.000000,-50.000000,-5.000000,-4.000000,-14.000000,13.000000,19.000000
1305234.356243,-43.000000,-118.000000,-56.000000,-52.000000,-66.000000,-57.000000,-73.000000,-35.000000
1305234.356251,-72.000000,57.000000,97.000000,26.000000,-10.000000,55.000000,1.000000,-46.000000
1305234.356845,-41.000000,-28.000000,-18.000000,25.000000,28.000000,63.000000,127.000000,69.000000
1305234.356853,68.000000,60.000000,75.000000,-20.000000,-35.000000,-17.000000,-84.000000,-6.000000
1305234.358196,-75.000000,-31.000000,-3.000000,68.000000,37.000000,-61.000000,-108.000000,-40.000000
1305234.358207,-3.000000,41.000000,-49.000000,-59.000000,-50.000000,-1.000000,-46.000000,-61.000000
1305234.377214,-15.000000,-85.000000,-35.000000,26.000000,60.000000,16.000000,6.000000,4.000000
1305234.377224,-8.000000,31.000000,24.000000,-7.000000,-64.000000,-34.000000,4.000000,11.000000
1305234.384510,-10.000000,100.000000,-11.000000,10.000000,16.000000,27.000000,60.000000,-32.000000
1305234.384520,-31.000000,-22.000000,18.000000,36.000000,32.000000,-29.000000,-53.000000,-11.000000
1305234.414579,81.000000,25.000000,6.000000,6.000000,27.000000,51.000000,41.000000,38.000000
1305234.414589,1.000000,8.000000,-41.000000,-19.000000,34.000000,34.000000,29.000000,17.000000
1305234.422048,-3.000000,95.000000,44.000000,-56.000000,-128.000000,-65.000000,-46.000000,2.000000
1305234.422069,-9.000000,-10.000000,36.000000,28.000000,41.000000,36.000000,-1.000000,2.000000
1305234.423082,-63.000000,-32.000000,-21.000000,33.000000,67.000000,-85.000000,-128.000000,-64.000000
1305234.423091,24.000000,56.000000,-6.000000,12.000000,47.000000,127.000000,127.000000,48.000000
1305234.423711,25.000000,-55.000000,-57.000000,-20.000000,-8.000000,-39.000000,-33.000000,3.000000
1305234.423720,-47.000000,33.000000,51.000000,-4.000000,-38.000000,-31.000000,-33.000000,-64.000000
1305234.425313,-49.000000,-48.000000,-60.000000,-77.000000,-97.000000,-57.000000,-65.000000,-9.000000
1305234.425328,83.000000,90.000000,35.000000,25.000000,40.000000,64.000000,82.000000,69.000000
1305234.429420,-60.000000,-23.000000,3.000000,11.000000,-4.000000,-16.000000,-8.000000,-37.000000
1305234.429429,22.000000,-128.000000,-128.000000,19.000000,82.000000,57.000000,127.000000,41.000000
1305234.460039,36.000000,127.000000,127.000000,-3.000000,-98.000000,-56.000000,-28.000000,-4.000000
1305234.460056,-46.000000,-26.000000,-103.000000,-3.000000,28.000000,4.000000,5.000000,0.000000
1305234.460228,-39.000000,5.000000,20.000000,44.000000,55.000000,10.000000,1.000000,-15.000000
1305234.460246,64.000000,-41.000000,-106.000000,-62.000000,-70.000000,-31.000000,-49.000000,-18.000000
1305234.461583,-8.000000,25.000000,43.000000,55.000000,48.000000,4.000000,-2.000000,-6.000000
1305234.461592,-128.000000,-93.000000,-11.000000,34.000000,36.000000,-28.000000,18.000000,-46.000000
1305234.474722,125.000000,47.000000,27.000000,30.000000,49.000000,88.000000,-128.000000,32.000000
1305234.474736,53.000000,103.000000,-71.000000,-24.000000,-57.000000,8.000000,127.000000,23.000000
1305234.482055,-50.000000,-28.000000,36.000000,4.000000,17.000000,-33.000000,-103.000000,-34.000000
1305234.482074,-50.000000,-35.000000,-5.000000,-12.000000,19.000000,50.000000,-54.000000,-39.000000
1305234.497376,26.000000,-26.000000,7.000000,24.000000,29.000000,1.000000,127.000000,81.000000
1305234.497387,12.000000,-47.000000,-6.000000,23.000000,46.000000,39.000000,127.000000,55.000000
1305234.519777,-19.000000,-12.000000,-30.000000,27.000000,39.000000,-72.000000,-128.000000,-45.000000
1305234.519800,38.000000,50.000000,20.000000,-31.000000,-21.000000,13.000000,9.000000,6.000000
1305234.526976,-41.000000,-20.000000,-42.000000,-5.000000,-15.000000,-19.000000,-21.000000,-46.000000
1305234.526986,4.000000,-77.000000,-59.000000,-16.000000,-42.000000,-15.000000,7.000000,-5.000000
1305234.542399,12.000000,105.000000,65.000000,9.000000,-5.000000,-28.000000,7.000000,-24.000000
1305234.542409,-21.000000,10.000000,21.000000,-18.000000,-1.000000,21.000000,-88.000000,-14.000000
1305234.556982,24.000000,-27.000000,-4.000000,32.000000,15.000000,-5.000000,24.000000,-26.000000
1305234.556996,36.000000,33.000000,-26.000000,-36.000000,-12.000000,6.000000,45.000000,25.000000
1305234.558216,-45.000000,-82.000000,-68.000000,20.000000,26.000000,-9.000000,-6.000000,-15.000000
1305234.558225,52.000000,127.000000,78.000000,8.000000,32.000000,64.000000,39.000000,23.000000
1305234.558754,-55.000000,-112.000000,-77.000000,71.000000,110.000000,-89.000000,-37.000000,-20.000000
1305234.558762,14.000000,127.000000,127.000000,-69.000000,-96.000000,77.000000,-64.000000,-12.000000
1305234.572005,-13.000000,10.000000,41.000000,21.000000,-55.000000,-48.000000,127.000000,33.000000
1305234.572015,11.000000,-14.000000,65.000000,63.000000,91.000000,121.000000,127.000000,8.000000
1305234.579418,115.000000,-6.000000,-114.000000,20.000000,47.000000,-10.000000,26.000000,-33.000000
1305234.579428,-33.000000,-27.000000,53.000000,6.000000,13.000000,-3.000000,-92.000000,-22.000000
1305234.581294,-49.000000,-74.000000,-56.000000,-19.000000,-12.000000,-34.000000,-46.000000,-18.000000
1305234.581305,-41.000000,-14.000000,-13.000000,32.000000,66.000000,-19.000000,-111.000000,-40.000000
1305234.594945,0.000000,-48.000000,19.000000,-52.000000,-103.000000,-9.000000,71.000000,3.000000
1305234.594964,-1.000000,-8.000000,-34.000000,8.000000,17.000000,14.000000,3.000000,22.000000
1305234.609579,-9.000000,-54.000000,-28.000000,2.000000,30.000000,-50.000000,-40.000000,-20.000000
1305234.609591,-13.000000,-12.000000,37.000000,-92.000000,-128.000000,53.000000,25.000000,34.000000
1305234.617147,62.000000,-75.000000,-57.000000,11.000000,22.000000,-12.000000,-17.000000,37.000000
1305234.617158,16.000000,-36.000000,3.000000,51.000000,89.000000,10.000000,27.000000,6.000000
1305234.639883,-13.000000,72.000000,22.000000,5.000000,-16.000000,6.000000,-39.000000,7.000000
1305234.639894,-21.000000,-36.000000,-56.000000,3.000000,3.000000,-18.000000,110.000000,27.000000
1305234.647082,-27.000000,-45.000000,38.000000,16.000000,19.000000,-28.000000,-20.000000,-25.000000
1305234.647093,-66.000000,69.000000,1.000000,4.000000,28.000000,-6.000000,-95.000000,-29.000000
1305234.661981,97.000000,12.000000,44.000000,53.000000,65.000000,120.000000,127.000000,72.000000
1305234.661998,-7.000000,56.000000,41.000000,-31.000000,-33.000000,-7.000000,-30.000000,-21.000000
1305234.662533,-33.000000,-26.000000,-125.000000,-8.000000,5.000000,-9.000000,-72.000000,-38.000000
1305234.662572,-34.000000,-128.000000,38.000000,-75.000000,-128.000000,-47.000000,-1.000000,4.000000
1305234.664015,21.000000,87.000000,16.000000,31.000000,41.000000,15.000000,26.000000,-4.000000
1305234.664057,-31.000000,-32.000000,-41.000000,-7.000000,25.000000,-19.000000,-56.000000,-38.000000
1305234.677050,-39.000000,-86.000000,-24.000000,-33.000000,-53.000000,-78.000000,-128.000000,-42.000000
1305234.677079,64.000000,27.000000,-57.000000,-19.000000,8.000000,113.000000,127.000000,66.000000
1305234.694626,-1.000000,13.000000,47.000000,-8.000000,-4.000000,62.000000,127.000000,19.000000
1305234.694635,-29.000000,6.000000,20.000000,-14.000000,-38.000000,-44.000000,-21.000000,-2.000000
1305234.694716,42.000000,-21.000000,-17.000000,-3.000000,7.000000,-34.000000,-16.000000,10.000000
1305234.694719,-19.000000,-49.000000,-96.000000,53.000000,64.000000,-22.000000,-38.000000,-28.000000
1305234.707190,6.000000,85.000000,127.000000,-108.000000,-128.000000,42.000000,-28.000000,2.000000
1305234.707214,-34.000000,-91.000000,-41.000000,-21.000000,-31.000000,-14.000000,-20.000000,-20.000000
1305234.714460,0.000000,46.000000,8.000000,24.000000,24.000000,23.000000,103.000000,14.000000
1305234.714470,-14.000000,-18.000000,-42.000000,9.000000,9.000000,-7.000000,-56.000000,-4.000000
1305234.737487,21.000000,-35.000000,45.000000,-9.000000,-12.000000,28.000000,53.000000,43.000000
1305234.737510,-21.000000,63.000000,-24.000000,-48.000000,-70.000000,-64.000000,-61.000000,-18.000000
1305234.752059,18.000000,-9.000000,84.000000,31.000000,37.000000,48.000000,-7.000000,1.000000
1305234.752070,36.000000,-22.000000,-124.000000,-37.000000,-20.000000,-45.000000,126.000000,54.000000
1305234.774943,-44.000000,-38.000000,-36.000000,44.000000,91.000000,41.000000,-56.000000,-41.000000
1305234.774955,-55.000000,-10.000000,86.000000,33.000000,-28.000000,-41.000000,38.000000,36.000000
1305234.775407,108.000000,28.000000,-44.000000,-87.000000,-83.000000,7.000000,-97.000000,-13.000000
1305234.775417,-3.000000,127.000000,65.000000,29.000000,55.000000,62.000000,10.000000,2.000000
1305234.776320,-35.000000,-45.000000,-78.000000,-14.000000,-13.000000,-19.000000,29.000000,-14.000000
1305234.776330,-79.000000,-105.000000,-84.000000,0.000000,-5.000000,-37.000000,-36.000000,-41.000000
1305234.776974,71.000000,10.000000,59.000000,-32.000000,-60.000000,-21.000000,64.000000,53.000000
1305234.776984,22.000000,88.000000,85.000000,24.000000,36.000000,7.000000,-33.000000,23.000000
1305234.782470,-60.000000,-29.000000,-37.000000,41.000000,35.000000,25.000000,60.000000,-20.000000
1305234.782482,49.000000,-58.000000,30.000000,17.000000,-18.000000,-27.000000,-7.000000,-16.000000
1305234.796956,-8.000000,58.000000,75.000000,-13.000000,15.000000,-1.000000,-91.000000,-23.000000
1305234.796972,0.000000,-116.000000,-123.000000,-14.000000,-48.000000,-10.000000,16.000000,0.000000
1305234.812189,18.000000,125.000000,52.000000,5.000000,12.000000,14.000000,18.000000,15.000000
1305234.812206,-9.000000,-11.000000,3.000000,35.000000,58.000000,5.000000,19.000000,-8.000000
1305234.812573,-40.000000,-41.000000,80.000000,-11.000000,-29.000000,-35.000000,-52.000000,-16.000000
1305234.812592,1.000000,13.000000,18.000000,-4.000000,0.000000,7.000000,50.000000,10.000000
1305234.819634,8.000000,-68.000000,-11.000000,33.000000,23.000000,-12.000000,-57.000000,9.000000
1305234.819662,-7.000000,38.000000,35.000000,-68.000000,-119.000000,-75.000000,-99.000000,-41.000000
1305234.849627,-33.000000,-19.000000,-4.000000,41.000000,108.000000,73.000000,-55.000000,-46.000000
1305234.849638,9.000000,-117.000000,-59.000000,-46.000000,-98.000000,14.000000,119.000000,35.000000
1305234.857176,-48.000000,73.000000,58.000000,27.000000,65.000000,26.000000,-50.000000,-25.000000
1305234.857187,-4.000000,31.000000,-36.000000,9.000000,24.000000,8.000000,49.000000,4.000000
1305234.872838,25.000000,-84.000000,-28.000000,-25.000000,-30.000000,-8.000000,-38.000000,-16.000000
1305234.872848,37.000000,1.000000,-67.000000,-5.000000,4.000000,-8.000000,30.000000,15.000000
1305234.873310,-11.000000,22.000000,56.000000,-8.000000,-12.000000,9.000000,-11.000000,-10.000000
1305234.873325,-31.000000,-41.000000,-91.000000,-1.000000,34.000000,3.000000,-48.000000,-15.000000
1305234.875184,37.000000,16.000000,3.000000,-6.000000,-29.000000,19.000000,61.000000,9.000000
1305234.875197,-8.000000,-76.000000,-73.000000,43.000000,52.000000,-32.000000,-23.000000,-8.000000
1305234.894685,-96.000000,55.000000,90.000000,-128.000000,-128.000000,-10.000000,-108.000000,-58.000000
1305234.894699,63.000000,-11.000000,-109.000000,-37.000000,3.000000,19.000000,10.000000,20.000000
1305234.917269,32.000000,64.000000,100.000000,58.000000,79.000000,12.000000,16.000000,-28.000000
1305234.917280,6.000000,14.000000,-67.000000,17.000000,68.000000,-18.000000,-78.000000,-4.000000
1305234.924860,22.000000,-56.000000,-55.000000,-24.000000,-27.000000,12.000000,12.000000,-7.000000
1305234.924897,21.000000,20.000000,48.000000,4.000000,-14.000000,-13.000000,65.000000,35.000000
1305234.947096,-6.000000,0.000000,16.000000,11.000000,24.000000,22.000000,47.000000,6.000000
1305234.947120,-6.000000,-65.000000,-41.000000,22.000000,26.000000,8.000000,3.000000,24.000000
1305234.954583,-84.000000,-70.000000,-55.000000,22.000000,58.000000,-31.000000,-128.000000,-86.000000
1305234.954597,41.000000,127.000000,127.000000,-23.000000,-80.000000,19.000000,102.000000,3.000000
1305234.955654,23.000000,-7.000000,-36.000000,9.000000,55.000000,40.000000,6.000000,52.000000
1305234.955663,-38.000000,-53.000000,-10.000000,15.000000,-12.000000,-53.000000,-40.000000,-25.000000
1305234.956291,-14.000000,127.000000,64.000000,8.000000,18.000000,-31.000000,-56.000000,-36.000000
1305234.956301,-5.000000,-45.000000,-22.000000,-38.000000,-17.000000,33.000000,19.000000,-1.000000
1305234.957908,-48.000000,-20.000000,7.000000,-13.000000,-27.000000,-41.000000,-1.000000,-15.000000
1305234.957916,92.000000,-53.000000,46.000000,11.000000,-16.000000,3.000000,57.000000,15.000000
1305234.969895,-6.000000,0.000000,-76.000000,-6.000000,-16.000000,-20.000000,-22.000000,-31.000000
1305234.969908,-74.000000,-56.000000,-46.000000,-24.000000,-24.000000,-10.000000,-36.000000,-11.000000
1305234.977780,78.000000,52.000000,38.000000,14.000000,-1.000000,-28.000000,43.000000,12.000000
1305234.977790,-17.000000,-45.000000,26.000000,20.000000,59.000000,-39.000000,-49.000000,-1.000000
1305234.984764,30.000000,94.000000,30.000000,-5.000000,-24.000000,46.000000,67.000000,6.000000
1305234.984775,-1.000000,-24.000000,-9.000000,30.000000,69.000000,11.000000,-76.000000,-21.000000
1305234.992741,-45.000000,-88.000000,-89.000000,-49.000000,-83.000000,-31.000000,-14.000000,-14.000000
1305234.992768,47.000000,127.000000,33.000000,10.000000,-13.000000,-59.000000,-39.000000,-19.000000
1305235.014710,16.000000,65.000000,47.000000,0.000000,-2.000000,-18.000000,-68.000000,-13.000000
1305235.014722,-16.000000,-36.000000,46.000000,40.000000,52.000000,-7.000000,-80.000000,12.000000
1305235.015863,6.000000,0.000000,19.000000,-54.000000,-62.000000,51.000000,87.000000,7.000000
1305235.015871,24.000000,-66.000000,-57.000000,38.000000,7.000000,-125.000000,7.000000,-30.000000
1305235.030040,-10.000000,63.000000,36.000000,-48.000000,-82.000000,-9.000000,40.000000,24.000000
1305235.030081,6.000000,-26.000000,-69.000000,-33.000000,-9.000000,37.000000,31.000000,4.000000
1305235.037794,-25.000000,12.000000,1.000000,49.000000,106.000000,52.000000,-72.000000,-6.000000
1305235.037843,-128.000000,15.000000,90.000000,4.000000,-33.000000,-61.000000,-99.000000,-86.000000
1305235.052230,127.000000,114.000000,10.000000,24.000000,27.000000,83.000000,127.000000,116.000000
1305235.052258,-44.000000,28.000000,33.000000,46.000000,87.000000,-18.000000,-112.000000,-37.000000
1305235.074805,-57.000000,-58.000000,-80.000000,-62.000000,-57.000000,-2.000000,-24.000000,-8.000000
1305235.074834,66.000000,25.000000,71.000000,-9.000000,-4.000000,40.000000,31.000000,37.000000
1305235.081980,-8.000000,2.000000,11.000000,7.000000,9.000000,0.000000,2.000000,-5.000000
1305235.081989,-22.000000,-22.000000,-10.000000,12.000000,15.000000,-17.000000,-13.000000,2.000000
1305235.097456,-8.000000,4.000000,-46.000000,55.000000,81.000000,-25.000000,-22.000000,-19.000000
1305235.097476,-14.000000,-38.000000,-3.000000,-69.000000,-96.000000,-3.000000,-34.000000,-18.000000
1305235.112369,25.000000,-43.000000,6.000000,7.000000,4.000000,2.000000,100.000000,31.000000
1305235.112383,-9.000000,9.000000,18.000000,23.000000,43.000000,42.000000,-56.000000,-30.000000
1305235.134705,-92.000000,-128.000000,-68.000000,-12.000000,-35.000000,-55.000000,-89.000000,-44.000000
1305235.134759,51.000000,21.000000,30.000000,4.000000,1.000000,24.000000,49.000000,45.000000
1305235.135162,6.000000,-53.000000,69.000000,10.000000,20.000000,-28.000000,-35.000000,11.000000
1305235.135177,-19.000000,-6.000000,-24.000000,-16.000000,4.000000,-11.000000,23.000000,-7.000000
1305235.136244,-32.000000,48.000000,34.000000,14.000000,11.000000,6.000000,48.000000,12.000000
1305235.136272,-11.000000,-65.000000,-13.000000,91.000000,127.000000,13.000000,-44.000000,-25.000000
1305235.136918,36.000000,90.000000,46.000000,-24.000000,-14.000000,-1.000000,-128.000000,-17.000000
1305235.136927,68.000000,21.000000,-19.000000,-2.000000,-12.000000,16.000000,127.000000,35.000000
1305235.149650,-43.000000,-50.000000,-128.000000,-1.000000,10.000000,-40.000000,-65.000000,-53.000000
1305235.149660,-43.000000,-34.000000,-110.000000,-7.000000,18.000000,-6.000000,-23.000000,11.000000
1305235.187145,44.000000,15.000000,-47.000000,-33.000000,-49.000000,-9.000000,-17.000000,-24.000000
1305235.187156,-46.000000,-71.000000,28.000000,10.000000,29.000000,-4.000000,-43.000000,-11.000000
1305235.194819,-55.000000,-80.000000,-113.000000,-36.000000,-25.000000,-43.000000,-50.000000,-19.000000
1305235.194830,95.000000,47.000000,127.000000,48.000000,21.000000,56.000000,127.000000,60.000000
1305235.210007,57.000000,-52.000000,2.000000,-11.000000,-6.000000,-33.000000,66.000000,31.000000
1305235.210049,6.000000,-51.000000,-36.000000,-33.000000,15.000000,-8.000000,-56.000000,-19.000000
1305235.217155,-10.000000,77.000000,22.000000,12.000000,3.000000,-51.000000,-29.000000,-7.000000
1305235.217168,-23.000000,5.000000,66.000000,0.000000,-28.000000,50.000000,32.000000,3.000000
1305235.247337,5.000000,-7.000000,-84.000000,12.000000,52.000000,-1.000000,-46.000000,-13.000000
1305235.247349,-83.000000,-80.000000,5.000000,-21.000000,3.000000,51.000000,65.000000,-14.000000
1305235.247882,109.000000,112.000000,22.000000,8.000000,16.000000,0.000000,-8.000000,42.000000
1305235.247890,-20.000000,-36.000000,-23.000000,21.000000,43.000000,-12.000000,-5.000000,-2.000000
1305235.248748,-53.000000,-117.000000,-80.000000,4.000000,13.000000,-3.000000,-54.000000,-29.000000
1305235.248756,17.000000,13.000000,2.000000,34.000000,66.000000,22.000000,21.000000,22.000000
1305235.249340,-35.000000,-128.000000,3.000000,-105.000000,-128.000000,-50.000000,55.000000,9.000000
1305235.249348,-25.000000,49.000000,-7.000000,-3.000000,0.000000,3.000000,7.000000,-17.000000
1305235.250378,-7.000000,1.000000,-36.000000,2.000000,-11.000000,30.000000,67.000000,-11.000000
1305235.250390,16.000000,-33.000000,-40.000000,71.000000,94.000000,47.000000,53.000000,31.000000
1305235.255379,-10.000000,-4.000000,24.000000,-32.000000,-53.000000,-47.000000,-42.000000,-13.000000
1305235.255388,-63.000000,6.000000,-87.000000,-5.000000,18.000000,-77.000000,-113.000000,-31.000000
1305235.262171,90.000000,36.000000,10.000000,17.000000,14.000000,88.000000,127.000000,121.000000
1305235.262180,37.000000,23.000000,17.000000,8.000000,-12.000000,11.000000,-38.000000,27.000000
1305235.299838,-43.000000,-87.000000,-39.000000,34.000000,74.000000,8.000000,-79.000000,-63.000000
1305235.299876,-128.000000,55.000000,27.000000,18.000000,72.000000,-46.000000,-128.000000,-13.000000
1305235.307128,127.000000,-6.000000,-14.000000,-2.000000,-52.000000,27.000000,77.000000,44.000000
