# participant_id: P9
# gesture: hard
# trial_number: 1
# stream_name: Myo_EMG
# stream_type: emg
# timestamp: 20260420_155145
# samples: 5634
# duration_sec: 30.653
# nominal_sample_rate: 200.0
# effective_sample_rate: 183.77
#
timestamp,emg_1,emg_2,emg_3,emg_4,emg_5,emg_6,emg_7,emg_8
1304997.249363,127.000000,127.000000,127.000000,-99.000000,-60.000000,12.000000,82.000000,74.000000
1304997.249374,9.000000,9.000000,127.000000,-126.000000,-128.000000,-51.000000,-42.000000,20.000000
1304997.257129,-128.000000,117.000000,49.000000,-32.000000,-64.000000,-128.000000,-128.000000,-128.000000
1304997.257166,127.000000,-128.000000,66.000000,-90.000000,-69.000000,127.000000,127.000000,127.000000
1304997.257989,95.000000,127.000000,127.000000,95.000000,59.000000,42.000000,13.000000,54.000000
1304997.258006,-7.000000,41.000000,127.000000,119.000000,90.000000,-83.000000,-97.000000,-38.000000
1304997.258643,45.000000,-110.000000,127.000000,-128.000000,-128.000000,-94.000000,-55.000000,-20.000000
1304997.258656,-3.000000,127.000000,127.000000,113.000000,59.000000,35.000000,-128.000000,-4.000000
1304997.260168,-77.000000,127.000000,81.000000,26.000000,-72.000000,-48.000000,127.000000,-36.000000
1304997.260188,127.000000,107.000000,-128.000000,1.000000,-38.000000,-13.000000,68.000000,49.000000
1304997.260968,-128.000000,84.000000,60.000000,-101.000000,-40.000000,-22.000000,-98.000000,-70.000000
1304997.260987,127.000000,75.000000,-38.000000,-1.000000,40.000000,100.000000,-2.000000,86.000000
1304997.272689,-128.000000,-128.000000,-95.000000,32.000000,107.000000,111.000000,58.000000,-30.000000
1304997.272705,30.000000,-45.000000,-128.000000,85.000000,68.000000,-23.000000,-23.000000,5.000000
1304997.279600,-128.000000,127.000000,70.000000,-118.000000,-97.000000,30.000000,50.000000,4.000000
1304997.279611,-47.000000,64.000000,-34.000000,-60.000000,-50.000000,24.000000,-96.000000,19.000000
1304997.309434,127.000000,127.000000,-128.000000,-26.000000,-62.000000,11.000000,58.000000,76.000000
1304997.309447,-97.000000,-61.000000,108.000000,34.000000,24.000000,-40.000000,-27.000000,-59.000000
1304997.317006,-128.000000,-70.000000,-24.000000,127.000000,67.000000,-40.000000,-122.000000,-51.000000
1304997.317022,18.000000,-81.000000,-8.000000,-87.000000,21.000000,127.000000,44.000000,-14.000000
1304997.332286,-7.000000,-128.000000,114.000000,88.000000,56.000000,2.000000,-85.000000,14.000000
1304997.332336,-128.000000,-128.000000,-128.000000,-26.000000,-128.000000,-128.000000,-86.000000,-128.000000
1304997.361854,-15.000000,-128.000000,-128.000000,-7.000000,30.000000,127.000000,127.000000,46.000000
1304997.361866,-120.000000,103.000000,125.000000,72.000000,98.000000,58.000000,-34.000000,-36.000000
1304997.369950,56.000000,-14.000000,56.000000,2.000000,-8.000000,-101.000000,-128.000000,-64.000000
1304997.369979,2.000000,-114.000000,8.000000,-125.000000,-69.000000,32.000000,22.000000,-5.000000
1304997.370794,-50.000000,-128.000000,-17.000000,47.000000,-11.000000,-128.000000,-128.000000,22.000000
1304997.370807,46.000000,5.000000,-94.000000,25.000000,13.000000,60.000000,83.000000,30.000000
1304997.371858,-42.000000,17.000000,-128.000000,-86.000000,-65.000000,-47.000000,-80.000000,-5.000000
1304997.371873,-13.000000,4.000000,121.000000,58.000000,47.000000,11.000000,94.000000,6.000000
1304997.372851,122.000000,-39.000000,10.000000,41.000000,30.000000,0.000000,30.000000,61.000000
1304997.372861,8.000000,-15.000000,-41.000000,29.000000,30.000000,-61.000000,-80.000000,0.000000
1304997.377140,-128.000000,127.000000,58.000000,76.000000,127.000000,50.000000,-22.000000,-60.000000
1304997.377159,-94.000000,51.000000,-3.000000,7.000000,21.000000,-111.000000,-128.000000,-128.000000
1304997.392693,127.000000,66.000000,-128.000000,4.000000,59.000000,127.000000,127.000000,112.000000
1304997.392703,-40.000000,-33.000000,127.000000,-61.000000,-72.000000,-128.000000,-128.000000,-66.000000
1304997.399852,-128.000000,26.000000,-128.000000,61.000000,127.000000,32.000000,-67.000000,-105.000000
1304997.399879,112.000000,127.000000,126.000000,-62.000000,-19.000000,78.000000,8.000000,63.000000
1304997.414341,12.000000,-1.000000,101.000000,32.000000,12.000000,-103.000000,-108.000000,-66.000000
1304997.414370,-128.000000,-128.000000,-128.000000,38.000000,55.000000,83.000000,-44.000000,-90.000000
1304997.429766,127.000000,46.000000,127.000000,111.000000,127.000000,127.000000,127.000000,127.000000
1304997.429776,-104.000000,127.000000,16.000000,-58.000000,29.000000,-107.000000,-81.000000,-79.000000
1304997.444643,43.000000,-13.000000,-128.000000,24.000000,25.000000,58.000000,58.000000,41.000000
1304997.444732,-7.000000,-7.000000,-31.000000,55.000000,-2.000000,-50.000000,-60.000000,-45.000000
1304997.451800,16.000000,127.000000,-74.000000,-128.000000,-128.000000,-128.000000,-128.000000,-69.000000
1304997.451815,52.000000,127.000000,46.000000,-43.000000,-11.000000,127.000000,127.000000,90.000000
1304997.481786,-83.000000,-76.000000,-74.000000,44.000000,127.000000,-28.000000,-73.000000,-52.000000
1304997.481806,20.000000,120.000000,127.000000,-34.000000,-50.000000,30.000000,35.000000,23.000000
1304997.489598,127.000000,127.000000,104.000000,6.000000,-36.000000,5.000000,-84.000000,22.000000
1304997.489611,-41.000000,127.000000,60.000000,77.000000,55.000000,-4.000000,-4.000000,-14.000000
1304997.512142,-95.000000,-128.000000,-128.000000,53.000000,-84.000000,-105.000000,-42.000000,-80.000000
1304997.512199,127.000000,11.000000,127.000000,-128.000000,-128.000000,94.000000,64.000000,46.000000
1304997.526884,-36.000000,-52.000000,109.000000,127.000000,61.000000,1.000000,-46.000000,-35.000000
1304997.526894,-116.000000,-128.000000,-107.000000,-21.000000,-4.000000,-12.000000,-57.000000,-57.000000
1304997.549647,-121.000000,109.000000,79.000000,127.000000,54.000000,-68.000000,-70.000000,-17.000000
1304997.549688,127.000000,127.000000,-73.000000,-22.000000,-15.000000,38.000000,84.000000,111.000000
1304997.556825,-103.000000,-117.000000,4.000000,-43.000000,-25.000000,-27.000000,40.000000,12.000000
1304997.556843,66.000000,23.000000,120.000000,36.000000,72.000000,127.000000,123.000000,53.000000
1304997.572052,-88.000000,-78.000000,-89.000000,50.000000,16.000000,-128.000000,-100.000000,-69.000000
1304997.572061,-96.000000,21.000000,106.000000,-13.000000,28.000000,127.000000,39.000000,-17.000000
1304997.573911,-21.000000,127.000000,70.000000,-35.000000,-38.000000,-1.000000,-4.000000,-8.000000
1304997.573921,109.000000,23.000000,-3.000000,18.000000,18.000000,0.000000,-8.000000,17.000000
1304997.587693,6.000000,44.000000,21.000000,0.000000,25.000000,27.000000,32.000000,13.000000
1304997.587816,-128.000000,-39.000000,63.000000,89.000000,72.000000,-31.000000,-100.000000,-53.000000
1304997.588770,-69.000000,-120.000000,-68.000000,54.000000,47.000000,-25.000000,-39.000000,-32.000000
1304997.588799,-8.000000,-128.000000,-10.000000,-34.000000,-128.000000,-128.000000,35.000000,-11.000000
1304997.589691,127.000000,-39.000000,118.000000,-85.000000,-12.000000,127.000000,127.000000,127.000000
1304997.589738,-8.000000,-15.000000,-111.000000,-1.000000,20.000000,35.000000,8.000000,28.000000
1304997.591301,-72.000000,-26.000000,80.000000,1.000000,-79.000000,-119.000000,32.000000,-38.000000
1304997.591323,-68.000000,-128.000000,-19.000000,47.000000,4.000000,12.000000,-26.000000,-90.000000
1304997.609307,-70.000000,-128.000000,-128.000000,-48.000000,-21.000000,69.000000,127.000000,1.000000
1304997.609337,-25.000000,-128.000000,127.000000,13.000000,-34.000000,-55.000000,12.000000,14.000000
1304997.631814,-128.000000,-21.000000,38.000000,118.000000,63.000000,-34.000000,-45.000000,-87.000000
1304997.631827,127.000000,127.000000,72.000000,97.000000,64.000000,83.000000,127.000000,110.000000
1304997.632285,-49.000000,-128.000000,-128.000000,-107.000000,-25.000000,-41.000000,-58.000000,-17.000000
1304997.632300,-33.000000,86.000000,50.000000,82.000000,16.000000,28.000000,61.000000,16.000000
1304997.633759,-60.000000,-34.000000,-58.000000,127.000000,89.000000,-37.000000,-40.000000,-19.000000
1304997.633770,-10.000000,-128.000000,-64.000000,-80.000000,-98.000000,-45.000000,-6.000000,-1.000000
1304997.646907,-38.000000,127.000000,-6.000000,26.000000,9.000000,-6.000000,-2.000000,-40.000000
1304997.646924,-82.000000,-4.000000,-22.000000,127.000000,67.000000,-108.000000,-95.000000,-11.000000
1304997.648108,21.000000,-128.000000,127.000000,-83.000000,-53.000000,107.000000,49.000000,63.000000
1304997.648135,127.000000,44.000000,-128.000000,-128.000000,29.000000,44.000000,127.000000,127.000000
1304997.669433,-103.000000,81.000000,66.000000,127.000000,-3.000000,-35.000000,-63.000000,-38.000000
1304997.669443,-79.000000,35.000000,-128.000000,12.000000,-12.000000,-100.000000,-128.000000,-83.000000
1304997.684640,17.000000,-43.000000,-128.000000,44.000000,58.000000,5.000000,-27.000000,-82.000000
1304997.684655,12.000000,-41.000000,-128.000000,-128.000000,-128.000000,27.000000,5.000000,-51.000000
1304997.692154,6.000000,69.000000,-12.000000,40.000000,64.000000,-26.000000,49.000000,-12.000000
1304997.692165,-3.000000,-22.000000,53.000000,43.000000,67.000000,44.000000,-31.000000,4.000000
1304997.714323,-57.000000,-128.000000,66.000000,16.000000,63.000000,-22.000000,-40.000000,-34.000000
1304997.714334,49.000000,-103.000000,20.000000,-37.000000,-2.000000,40.000000,-102.000000,-3.000000
1304997.721728,127.000000,127.000000,26.000000,19.000000,48.000000,32.000000,15.000000,53.000000
1304997.721739,-128.000000,127.000000,41.000000,127.000000,82.000000,-41.000000,-11.000000,-69.000000
1304997.730640,127.000000,127.000000,44.000000,-96.000000,-74.000000,4.000000,-21.000000,76.000000
1304997.730668,-83.000000,-17.000000,42.000000,40.000000,67.000000,22.000000,19.000000,1.000000
1304997.730856,27.000000,-111.000000,36.000000,27.000000,81.000000,36.000000,0.000000,-3.000000
1304997.730865,-102.000000,-128.000000,29.000000,90.000000,2.000000,-67.000000,-96.000000,-82.000000
1304997.732060,1.000000,-1.000000,23.000000,-128.000000,-101.000000,23.000000,51.000000,56.000000
1304997.732075,66.000000,127.000000,19.000000,-17.000000,31.000000,43.000000,73.000000,27.000000
1304997.751826,53.000000,119.000000,13.000000,75.000000,74.000000,17.000000,-23.000000,-21.000000
1304997.751842,-128.000000,37.000000,10.000000,77.000000,23.000000,-5.000000,-100.000000,-47.000000
1304997.753158,127.000000,88.000000,8.000000,-61.000000,-32.000000,49.000000,43.000000,78.000000
1304997.753231,-117.000000,-128.000000,6.000000,39.000000,67.000000,-15.000000,-101.000000,-16.000000
1304997.766706,-91.000000,-1.000000,5.000000,7.000000,56.000000,-34.000000,-83.000000,-71.000000
1304997.766716,-50.000000,-54.000000,3.000000,83.000000,127.000000,75.000000,40.000000,6.000000
1304997.767984,-128.000000,127.000000,2.000000,18.000000,-58.000000,-71.000000,-91.000000,-99.000000
1304997.768012,127.000000,-18.000000,2.000000,26.000000,49.000000,56.000000,127.000000,127.000000
1304997.789253,-26.000000,-52.000000,2.000000,-77.000000,-19.000000,16.000000,-31.000000,-23.000000
1304997.789281,-104.000000,-128.000000,1.000000,2.000000,6.000000,-108.000000,-69.000000,-60.000000
1304997.826836,8.000000,-31.000000,0.000000,-128.000000,-128.000000,65.000000,73.000000,43.000000
1304997.826848,29.000000,39.000000,0.000000,57.000000,65.000000,15.000000,120.000000,43.000000
1304997.834308,-15.000000,-53.000000,1.000000,52.000000,41.000000,-13.000000,-11.000000,-1.000000
1304997.834328,7.000000,67.000000,0.000000,3.000000,64.000000,13.000000,-90.000000,-58.000000
1304997.864463,-128.000000,42.000000,-1.000000,9.000000,-128.000000,-100.000000,-9.000000,-13.000000
1304997.864492,105.000000,-70.000000,0.000000,-108.000000,-95.000000,-34.000000,37.000000,-14.000000
1304997.864893,-104.000000,-34.000000,0.000000,-1.000000,22.000000,-4.000000,1.000000,-46.000000
1304997.864923,22.000000,-8.000000,0.000000,-5.000000,-47.000000,-24.000000,44.000000,35.000000
1304997.865925,127.000000,-40.000000,-1.000000,7.000000,18.000000,43.000000,20.000000,18.000000
1304997.865934,-32.000000,63.000000,0.000000,-6.000000,72.000000,76.000000,12.000000,12.000000
1304997.866663,-78.000000,4.000000,0.000000,-2.000000,-54.000000,-104.000000,-86.000000,-83.000000
1304997.866672,-34.000000,-128.000000,0.000000,-33.000000,-49.000000,57.000000,88.000000,48.000000
1304997.872518,-31.000000,45.000000,-1.000000,127.000000,127.000000,109.000000,28.000000,29.000000
1304997.872527,-94.000000,-106.000000,-1.000000,6.000000,22.000000,-61.000000,-128.000000,-105.000000
1304997.879385,127.000000,89.000000,0.000000,-72.000000,-17.000000,93.000000,56.000000,82.000000
1304997.879405,-56.000000,-66.000000,-1.000000,27.000000,-3.000000,-16.000000,24.000000,3.000000
1304997.887361,-68.000000,-69.000000,-1.000000,36.000000,75.000000,11.000000,-29.000000,-25.000000
1304997.887370,-42.000000,-128.000000,0.000000,22.000000,14.000000,-26.000000,-31.000000,-1.000000
1304997.909487,10.000000,18.000000,-1.000000,-61.000000,-118.000000,-34.000000,64.000000,5.000000
1304997.909498,-55.000000,123.000000,-1.000000,24.000000,24.000000,-8.000000,-19.000000,-45.000000
1304997.931857,-22.000000,83.000000,-1.000000,46.000000,108.000000,45.000000,35.000000,43.000000
1304997.931889,103.000000,-105.000000,0.000000,-16.000000,12.000000,-10.000000,-7.000000,34.000000
1304997.946913,-91.000000,-13.000000,-1.000000,-27.000000,-44.000000,-11.000000,-68.000000,-34.000000
1304997.946951,32.000000,127.000000,-1.000000,-25.000000,8.000000,42.000000,52.000000,6.000000
1304997.962399,-128.000000,-128.000000,-1.000000,4.000000,-92.000000,-128.000000,-80.000000,-72.000000
1304997.962409,29.000000,54.000000,0.000000,-91.000000,-40.000000,48.000000,-10.000000,28.000000
1304997.963094,1.000000,127.000000,-1.000000,-32.000000,-36.000000,3.000000,-32.000000,-4.000000
1304997.963103,43.000000,51.000000,-1.000000,127.000000,49.000000,-56.000000,50.000000,8.000000
1304997.964126,-128.000000,-128.000000,-1.000000,-112.000000,-80.000000,0.000000,0.000000,-15.000000
1304997.964135,127.000000,127.000000,0.000000,24.000000,12.000000,-19.000000,-21.000000,-24.000000
1304997.969503,-90.000000,-128.000000,-1.000000,20.000000,-8.000000,-78.000000,-105.000000,-47.000000
1304997.969523,71.000000,-15.000000,-1.000000,73.000000,52.000000,18.000000,120.000000,77.000000
1304997.970651,16.000000,127.000000,-1.000000,-128.000000,-128.000000,-62.000000,-5.000000,3.000000
1304997.970671,36.000000,-20.000000,0.000000,38.000000,37.000000,15.000000,-50.000000,-22.000000
1304997.984447,127.000000,46.000000,-2.000000,52.000000,38.000000,77.000000,127.000000,92.000000
1304997.984458,-83.000000,-77.000000,-1.000000,11.000000,24.000000,-52.000000,-14.000000,-36.000000
1304997.992395,-75.000000,-128.000000,-1.000000,-73.000000,-108.000000,-29.000000,-13.000000,3.000000
1304997.992410,-128.000000,-85.000000,0.000000,-22.000000,-7.000000,27.000000,33.000000,-31.000000
1304997.999253,127.000000,85.000000,-1.000000,101.000000,81.000000,52.000000,-7.000000,100.000000
1304997.999281,-32.000000,-63.000000,-1.000000,2.000000,-73.000000,-64.000000,-39.000000,-30.000000
1304998.029273,-45.000000,-128.000000,-1.000000,-3.000000,-85.000000,-31.000000,-10.000000,-15.000000
1304998.029302,-14.000000,-68.000000,0.000000,-128.000000,-128.000000,22.000000,-31.000000,2.000000
1304998.036865,106.000000,-128.000000,-1.000000,33.000000,-101.000000,-30.000000,-103.000000,52.000000
1304998.036876,79.000000,127.000000,-2.000000,8.000000,6.000000,-31.000000,-52.000000,11.000000
1304998.051954,-62.000000,-128.000000,-1.000000,-19.000000,-4.000000,-34.000000,1.000000,-16.000000
1304998.051965,-62.000000,-128.000000,0.000000,8.000000,15.000000,41.000000,-28.000000,-30.000000
1304998.067246,-125.000000,-49.000000,-1.000000,48.000000,19.000000,-46.000000,-34.000000,-46.000000
1304998.067255,91.000000,35.000000,-1.000000,-5.000000,40.000000,33.000000,-3.000000,28.000000
1304998.104484,-90.000000,-128.000000,-1.000000,-24.000000,-49.000000,-40.000000,-1.000000,0.000000
1304998.104495,86.000000,127.000000,0.000000,-7.000000,20.000000,58.000000,55.000000,2.000000
1304998.111864,-37.000000,127.000000,-1.000000,24.000000,28.000000,-21.000000,2.000000,34.000000
1304998.111881,68.000000,97.000000,-1.000000,-128.000000,-17.000000,123.000000,25.000000,9.000000
1304998.141827,-128.000000,-29.000000,-1.000000,112.000000,62.000000,-19.000000,105.000000,-22.000000
1304998.141837,126.000000,127.000000,0.000000,-128.000000,-93.000000,23.000000,50.000000,56.000000
1304998.149790,-54.000000,-28.000000,0.000000,90.000000,127.000000,-1.000000,-67.000000,-31.000000
1304998.149802,17.000000,-128.000000,-1.000000,124.000000,87.000000,-52.000000,-128.000000,-34.000000
1304998.164387,-36.000000,-128.000000,0.000000,37.000000,12.000000,-60.000000,-77.000000,-35.000000
1304998.164398,68.000000,127.000000,-1.000000,21.000000,50.000000,53.000000,10.000000,35.000000
1304998.187011,53.000000,-36.000000,0.000000,-128.000000,-128.000000,-41.000000,-30.000000,-4.000000
1304998.187024,-24.000000,19.000000,-1.000000,6.000000,57.000000,68.000000,63.000000,67.000000
1304998.209222,-128.000000,-38.000000,-1.000000,-44.000000,18.000000,-30.000000,-83.000000,-83.000000
1304998.209233,114.000000,-57.000000,-1.000000,-43.000000,-22.000000,-27.000000,-22.000000,-26.000000
1304998.209696,127.000000,-63.000000,-1.000000,-52.000000,-56.000000,1.000000,34.000000,120.000000
1304998.209704,-123.000000,-128.000000,-1.000000,61.000000,6.000000,-26.000000,13.000000,-18.000000
1304998.210864,7.000000,120.000000,-1.000000,12.000000,20.000000,16.000000,-8.000000,-8.000000
1304998.210873,-26.000000,-111.000000,0.000000,66.000000,84.000000,-25.000000,-78.000000,-27.000000
1304998.211629,-8.000000,116.000000,-1.000000,-49.000000,-2.000000,112.000000,35.000000,-16.000000
1304998.211644,67.000000,56.000000,-1.000000,-47.000000,-64.000000,48.000000,4.000000,33.000000
1304998.212356,11.000000,100.000000,-1.000000,-128.000000,-128.000000,-6.000000,6.000000,-9.000000
1304998.212375,42.000000,127.000000,-1.000000,-66.000000,-36.000000,-31.000000,-5.000000,73.000000
1304998.224253,127.000000,127.000000,-2.000000,-35.000000,-76.000000,63.000000,110.000000,105.000000
1304998.224275,-31.000000,-4.000000,-1.000000,-1.000000,23.000000,8.000000,65.000000,21.000000
1304998.247027,-87.000000,-61.000000,-1.000000,7.000000,-67.000000,-72.000000,-14.000000,-54.000000
1304998.247119,90.000000,-26.000000,-1.000000,47.000000,-35.000000,38.000000,31.000000,34.000000
1304998.247457,126.000000,-128.000000,-1.000000,-75.000000,-53.000000,-40.000000,-74.000000,18.000000
1304998.247465,-13.000000,127.000000,-1.000000,27.000000,1.000000,-9.000000,-4.000000,2.000000
1304998.262032,-39.000000,-44.000000,-1.000000,53.000000,14.000000,13.000000,122.000000,23.000000
1304998.262059,-128.000000,-69.000000,-1.000000,80.000000,127.000000,28.000000,-81.000000,-58.000000
1304998.269256,12.000000,127.000000,-1.000000,-108.000000,-88.000000,111.000000,78.000000,66.000000
1304998.269268,-128.000000,-112.000000,-1.000000,40.000000,53.000000,-20.000000,73.000000,-6.000000
1304998.284504,127.000000,127.000000,-1.000000,9.000000,4.000000,-15.000000,-35.000000,122.000000
1304998.284515,-128.000000,-80.000000,-1.000000,37.000000,121.000000,15.000000,-26.000000,-57.000000
1304998.291924,45.000000,4.000000,-1.000000,31.000000,46.000000,36.000000,95.000000,10.000000
1304998.291954,-81.000000,-128.000000,-3.000000,-49.000000,-22.000000,-1.000000,-52.000000,-44.000000
1304998.314276,35.000000,127.000000,-1.000000,127.000000,99.000000,-13.000000,9.000000,6.000000
1304998.314288,-37.000000,-128.000000,0.000000,-128.000000,-128.000000,68.000000,72.000000,29.000000
1304998.321702,99.000000,41.000000,-1.000000,9.000000,39.000000,40.000000,92.000000,53.000000
1304998.321762,127.000000,-112.000000,-2.000000,88.000000,50.000000,-10.000000,14.000000,33.000000
1304998.323453,-49.000000,12.000000,-1.000000,-37.000000,-48.000000,-66.000000,-56.000000,-30.000000
1304998.323481,-77.000000,44.000000,-1.000000,113.000000,52.000000,-51.000000,-4.000000,-15.000000
1304998.324353,35.000000,100.000000,-1.000000,-128.000000,-109.000000,87.000000,33.000000,34.000000
1304998.324381,-31.000000,-7.000000,-1.000000,14.000000,-17.000000,-29.000000,-38.000000,-43.000000
1304998.330001,-51.000000,-29.000000,-2.000000,65.000000,51.000000,25.000000,-23.000000,-12.000000
1304998.330010,-8.000000,-128.000000,0.000000,-19.000000,-67.000000,17.000000,-21.000000,-43.000000
1304998.344472,-128.000000,127.000000,0.000000,20.000000,39.000000,-38.000000,-98.000000,-52.000000
1304998.344492,127.000000,-70.000000,-1.000000,-66.000000,-68.000000,54.000000,127.000000,74.000000
1304998.367038,-10.000000,127.000000,-1.000000,-13.000000,-14.000000,-41.000000,-128.000000,-31.000000
1304998.367048,-128.000000,105.000000,0.000000,53.000000,27.000000,-45.000000,-84.000000,-115.000000
1304998.367715,127.000000,127.000000,-1.000000,29.000000,14.000000,72.000000,127.000000,127.000000
1304998.367724,-42.000000,-25.000000,-1.000000,11.000000,25.000000,-8.000000,35.000000,-14.000000
1304998.381846,-120.000000,2.000000,-1.000000,-53.000000,20.000000,16.000000,-45.000000,-41.000000
1304998.381856,127.000000,33.000000,-1.000000,-13.000000,-39.000000,-46.000000,-48.000000,-5.000000
1304998.389303,-26.000000,-75.000000,0.000000,65.000000,39.000000,59.000000,105.000000,44.000000
1304998.389314,38.000000,127.000000,-1.000000,19.000000,-13.000000,26.000000,91.000000,34.000000
1304998.419319,-116.000000,-57.000000,-2.000000,1.000000,23.000000,16.000000,-46.000000,14.000000
1304998.419330,127.000000,40.000000,-1.000000,5.000000,26.000000,-31.000000,-100.000000,34.000000
1304998.427262,-42.000000,-82.000000,-1.000000,-11.000000,-14.000000,24.000000,59.000000,0.000000
1304998.427291,-108.000000,127.000000,-3.000000,89.000000,125.000000,68.000000,6.000000,-5.000000
1304998.441703,123.000000,10.000000,-1.000000,-68.000000,-43.000000,-35.000000,-10.000000,28.000000
1304998.441714,-74.000000,-128.000000,0.000000,-7.000000,-3.000000,18.000000,26.000000,-35.000000
1304998.442064,-65.000000,95.000000,-2.000000,89.000000,52.000000,-8.000000,-64.000000,-39.000000
1304998.442072,60.000000,64.000000,-1.000000,-39.000000,-73.000000,72.000000,107.000000,55.000000
1304998.443409,-5.000000,-11.000000,-1.000000,-38.000000,-5.000000,-16.000000,-87.000000,21.000000
1304998.443431,-76.000000,-101.000000,-2.000000,54.000000,16.000000,-50.000000,-83.000000,-37.000000
1304998.444271,-29.000000,75.000000,-1.000000,-22.000000,-7.000000,69.000000,109.000000,-8.000000
1304998.444279,127.000000,-25.000000,-1.000000,4.000000,1.000000,60.000000,105.000000,83.000000
1304998.464919,-103.000000,-128.000000,-1.000000,-19.000000,22.000000,-17.000000,-112.000000,-82.000000
1304998.464931,-46.000000,127.000000,0.000000,118.000000,59.000000,7.000000,-19.000000,-15.000000
1304998.465423,-19.000000,-51.000000,0.000000,-84.000000,-53.000000,-15.000000,-37.000000,-30.000000
1304998.465432,72.000000,75.000000,-2.000000,104.000000,127.000000,127.000000,23.000000,76.000000
1304998.472039,88.000000,123.000000,-3.000000,-85.000000,-64.000000,87.000000,101.000000,52.000000
1304998.472052,19.000000,-108.000000,0.000000,51.000000,69.000000,3.000000,3.000000,2.000000
1304998.479518,-128.000000,54.000000,-2.000000,74.000000,77.000000,-24.000000,-44.000000,-59.000000
1304998.479531,31.000000,-6.000000,-1.000000,-57.000000,-65.000000,-24.000000,-12.000000,-9.000000
1304998.501853,127.000000,-128.000000,-2.000000,40.000000,79.000000,43.000000,-20.000000,65.000000
1304998.501872,-95.000000,34.000000,-2.000000,-96.000000,-38.000000,28.000000,91.000000,24.000000
1304998.524440,15.000000,-67.000000,-1.000000,-5.000000,50.000000,25.000000,-59.000000,-32.000000
1304998.524450,89.000000,127.000000,-3.000000,22.000000,-7.000000,12.000000,123.000000,105.000000
1304998.546981,-128.000000,-99.000000,0.000000,41.000000,5.000000,-3.000000,-48.000000,-75.000000
1304998.546998,127.000000,-128.000000,0.000000,8.000000,-16.000000,-1.000000,71.000000,101.000000
1304998.561627,-128.000000,-90.000000,-1.000000,-5.000000,-5.000000,-41.000000,-19.000000,-95.000000
1304998.561656,127.000000,-49.000000,-2.000000,-20.000000,-42.000000,-41.000000,32.000000,126.000000
1304998.562923,-128.000000,-128.000000,-1.000000,-52.000000,-62.000000,23.000000,-33.000000,-64.000000
1304998.562933,127.000000,6.000000,0.000000,88.000000,41.000000,40.000000,105.000000,105.000000
1304998.563496,-81.000000,-63.000000,-1.000000,0.000000,-32.000000,-75.000000,-14.000000,-34.000000
1304998.563504,-58.000000,-128.000000,-1.000000,69.000000,116.000000,88.000000,20.000000,-12.000000
1304998.564671,-128.000000,64.000000,0.000000,102.000000,127.000000,-35.000000,-88.000000,-114.000000
1304998.564679,127.000000,81.000000,-1.000000,-76.000000,-79.000000,37.000000,83.000000,28.000000
1304998.565849,-41.000000,6.000000,-1.000000,11.000000,21.000000,13.000000,127.000000,66.000000
1304998.565860,-25.000000,84.000000,-1.000000,51.000000,102.000000,50.000000,-50.000000,-18.000000
1304998.577759,59.000000,63.000000,-1.000000,-29.000000,-2.000000,5.000000,-11.000000,33.000000
1304998.577774,-11.000000,-128.000000,0.000000,8.000000,-22.000000,-4.000000,127.000000,9.000000
1304998.584098,-84.000000,127.000000,-1.000000,-12.000000,-12.000000,-22.000000,-128.000000,-67.000000
1304998.584112,127.000000,127.000000,-2.000000,113.000000,114.000000,-6.000000,30.000000,81.000000
1304998.599108,-83.000000,-45.000000,0.000000,-91.000000,-59.000000,10.000000,-27.000000,-6.000000
1304998.599118,-38.000000,-12.000000,0.000000,-86.000000,-115.000000,-8.000000,-25.000000,-5.000000
1304998.599813,-89.000000,127.000000,-1.000000,126.000000,81.000000,18.000000,30.000000,30.000000
1304998.599842,-11.000000,-50.000000,-1.000000,-43.000000,1.000000,-30.000000,-83.000000,-62.000000
1304998.622132,5.000000,-128.000000,0.000000,33.000000,-3.000000,-19.000000,6.000000,9.000000
1304998.622158,-53.000000,-84.000000,0.000000,-54.000000,-78.000000,2.000000,6.000000,-30.000000
1304998.644381,127.000000,95.000000,-1.000000,-36.000000,-50.000000,-5.000000,83.000000,74.000000
1304998.644410,-19.000000,-98.000000,-1.000000,-5.000000,-2.000000,-32.000000,-45.000000,-17.000000
1304998.666794,-8.000000,46.000000,-3.000000,115.000000,66.000000,-79.000000,-101.000000,-95.000000
1304998.666805,121.000000,46.000000,-1.000000,-128.000000,-128.000000,89.000000,105.000000,97.000000
1304998.681792,8.000000,29.000000,-1.000000,-14.000000,-57.000000,-69.000000,25.000000,11.000000
1304998.681811,-69.000000,-35.000000,-1.000000,8.000000,-40.000000,-67.000000,-100.000000,-48.000000
1304998.697300,-81.000000,-128.000000,-1.000000,-20.000000,-31.000000,-28.000000,-31.000000,-10.000000
1304998.697345,118.000000,53.000000,-1.000000,-11.000000,84.000000,118.000000,-3.000000,45.000000
1304998.697809,-48.000000,-77.000000,-1.000000,-12.000000,7.000000,-1.000000,16.000000,-21.000000
1304998.697845,127.000000,-128.000000,-1.000000,-59.000000,-53.000000,27.000000,127.000000,85.000000
1304998.699105,21.000000,127.000000,-1.000000,51.000000,79.000000,19.000000,28.000000,12.000000
1304998.699132,-128.000000,-34.000000,0.000000,20.000000,-44.000000,-124.000000,-75.000000,-85.000000
1304998.699977,127.000000,-80.000000,-13.000000,-33.000000,-28.000000,36.000000,33.000000,40.000000
1304998.700006,-101.000000,-72.000000,-29.000000,-89.000000,-112.000000,-108.000000,-47.000000,-22.000000
1304998.712177,-15.000000,21.000000,-24.000000,9.000000,-15.000000,27.000000,7.000000,-29.000000
1304998.712189,-23.000000,8.000000,-90.000000,32.000000,19.000000,-59.000000,-2.000000,-36.000000
1304998.734451,-32.000000,-128.000000,-68.000000,-81.000000,-50.000000,3.000000,28.000000,-21.000000
1304998.734464,53.000000,116.000000,127.000000,-19.000000,39.000000,54.000000,-35.000000,-17.000000
1304998.742092,-42.000000,-128.000000,-27.000000,-128.000000,-72.000000,31.000000,125.000000,12.000000
1304998.742120,13.000000,127.000000,37.000000,21.000000,54.000000,-28.000000,-128.000000,-7.000000
1304998.757125,-14.000000,42.000000,-59.000000,-3.000000,-77.000000,-21.000000,-3.000000,-19.000000
1304998.757135,-85.000000,-101.000000,-36.000000,-84.000000,-39.000000,-9.000000,-60.000000,-43.000000
1304998.764193,10.000000,44.000000,-82.000000,-24.000000,-59.000000,-45.000000,-40.000000,-43.000000
1304998.764204,24.000000,-55.000000,-30.000000,19.000000,-3.000000,-8.000000,-60.000000,-35.000000
1304998.786929,-12.000000,-128.000000,-99.000000,-43.000000,19.000000,-55.000000,-70.000000,-43.000000
1304998.786940,-18.000000,-128.000000,-24.000000,65.000000,80.000000,108.000000,102.000000,84.000000
1304998.794504,-88.000000,18.000000,-9.000000,-23.000000,11.000000,14.000000,13.000000,-5.000000
1304998.794515,105.000000,127.000000,98.000000,10.000000,-16.000000,-3.000000,-118.000000,15.000000
1304998.817413,-55.000000,-128.000000,-122.000000,76.000000,46.000000,43.000000,77.000000,-20.000000
1304998.817424,82.000000,39.000000,27.000000,-39.000000,-30.000000,21.000000,28.000000,23.000000
1304998.824250,-75.000000,-128.000000,-98.000000,-76.000000,-9.000000,-10.000000,-128.000000,-48.000000
1304998.824271,-73.000000,-128.000000,10.000000,-98.000000,-59.000000,-36.000000,76.000000,28.000000
1304998.839322,108.000000,71.000000,5.000000,52.000000,111.000000,127.000000,-25.000000,21.000000
1304998.839332,-113.000000,51.000000,-35.000000,-31.000000,-12.000000,-57.000000,-60.000000,-75.000000
1304998.846653,119.000000,-65.000000,8.000000,49.000000,43.000000,51.000000,71.000000,106.000000
1304998.846683,-24.000000,127.000000,-56.000000,34.000000,27.000000,-55.000000,-63.000000,-36.000000
1304998.847762,-68.000000,127.000000,127.000000,69.000000,34.000000,24.000000,49.000000,49.000000
1304998.847788,127.000000,-26.000000,3.000000,90.000000,74.000000,25.000000,-8.000000,36.000000
1304998.854887,74.000000,127.000000,127.000000,-11.000000,-29.000000,8.000000,67.000000,73.000000
1304998.854902,-16.000000,73.000000,-64.000000,-22.000000,-9.000000,59.000000,-108.000000,-13.000000
1304998.862185,-79.000000,-128.000000,-16.000000,32.000000,10.000000,3.000000,36.000000,-16.000000
1304998.862201,37.000000,127.000000,20.000000,89.000000,83.000000,1.000000,79.000000,34.000000
1304998.876741,-96.000000,-128.000000,0.000000,-116.000000,-128.000000,-75.000000,-49.000000,-23.000000
1304998.876751,127.000000,88.000000,127.000000,8.000000,43.000000,107.000000,127.000000,100.000000
1304998.891918,2.000000,-67.000000,-50.000000,23.000000,32.000000,-38.000000,3.000000,-12.000000
1304998.891929,39.000000,-36.000000,-70.000000,-57.000000,-17.000000,-43.000000,-62.000000,-28.000000
1304998.922291,-104.000000,-100.000000,45.000000,127.000000,127.000000,-19.000000,-128.000000,-103.000000
1304998.922306,127.000000,-21.000000,-15.000000,-5.000000,-61.000000,64.000000,73.000000,105.000000
1304998.922772,-42.000000,127.000000,38.000000,49.000000,35.000000,-18.000000,-19.000000,-46.000000
1304998.922793,21.000000,67.000000,48.000000,98.000000,127.000000,97.000000,19.000000,25.000000
1304998.923885,27.000000,-76.000000,-18.000000,34.000000,33.000000,4.000000,30.000000,-15.000000
1304998.923938,-125.000000,127.000000,-8.000000,102.000000,65.000000,0.000000,-40.000000,-5.000000
1304998.924542,127.000000,-50.000000,-3.000000,-70.000000,-124.000000,-50.000000,0.000000,53.000000
1304998.924557,-105.000000,-128.000000,12.000000,35.000000,17.000000,9.000000,39.000000,-44.000000
1304998.925661,62.000000,127.000000,44.000000,23.000000,104.000000,43.000000,5.000000,13.000000
1304998.925688,-90.000000,-105.000000,-38.000000,92.000000,60.000000,-5.000000,-3.000000,-29.000000
1304998.937786,-87.000000,127.000000,18.000000,-10.000000,-66.000000,1.000000,-46.000000,-102.000000
1304998.937809,-98.000000,-128.000000,-101.000000,103.000000,70.000000,2.000000,-74.000000,-30.000000
1304998.944479,114.000000,-11.000000,-9.000000,-128.000000,-54.000000,8.000000,-50.000000,35.000000
1304998.944499,-55.000000,-128.000000,-101.000000,48.000000,52.000000,14.000000,26.000000,21.000000
1304998.960665,-111.000000,72.000000,4.000000,-94.000000,-33.000000,-29.000000,-72.000000,6.000000
1304998.960675,-128.000000,-60.000000,-9.000000,46.000000,98.000000,92.000000,-64.000000,-120.000000
1304998.974693,127.000000,127.000000,-10.000000,-36.000000,-13.000000,11.000000,24.000000,99.000000
1304998.974724,-32.000000,-105.000000,-30.000000,39.000000,15.000000,-55.000000,-84.000000,-55.000000
1304998.989383,-128.000000,-128.000000,-13.000000,24.000000,41.000000,28.000000,37.000000,1.000000
1304998.989461,101.000000,127.000000,-8.000000,-57.000000,-72.000000,-24.000000,40.000000,12.000000
1304999.011983,6.000000,-52.000000,-31.000000,77.000000,112.000000,-28.000000,-47.000000,-36.000000
1304999.012005,-7.000000,-85.000000,-29.000000,28.000000,-25.000000,-18.000000,0.000000,-72.000000
1304999.026783,81.000000,-38.000000,-32.000000,-35.000000,47.000000,47.000000,122.000000,52.000000
1304999.026793,-128.000000,-128.000000,-14.000000,43.000000,-45.000000,-4.000000,-77.000000,-27.000000
1304999.034444,2.000000,127.000000,84.000000,26.000000,-24.000000,-48.000000,12.000000,-21.000000
1304999.034461,19.000000,-66.000000,-74.000000,0.000000,-18.000000,-87.000000,-111.000000,-44.000000
1304999.042697,125.000000,112.000000,42.000000,-63.000000,-128.000000,67.000000,127.000000,70.000000
1304999.042724,-116.000000,-30.000000,-75.000000,-17.000000,18.000000,74.000000,127.000000,32.000000
1304999.043206,-15.000000,-128.000000,-15.000000,17.000000,-16.000000,-2.000000,37.000000,-27.000000
1304999.043232,-12.000000,-5.000000,-16.000000,44.000000,38.000000,-93.000000,-92.000000,-39.000000
1304999.044559,-100.000000,-128.000000,-67.000000,-17.000000,-4.000000,46.000000,91.000000,-3.000000
1304999.044577,62.000000,127.000000,54.000000,-67.000000,-57.000000,32.000000,-16.000000,20.000000
1304999.045337,-128.000000,-128.000000,-97.000000,-5.000000,25.000000,-4.000000,-5.000000,-38.000000
1304999.045351,127.000000,127.000000,102.000000,-57.000000,-38.000000,53.000000,3.000000,44.000000
1304999.057682,-88.000000,127.000000,9.000000,-14.000000,107.000000,46.000000,-20.000000,11.000000
1304999.057695,127.000000,127.000000,94.000000,53.000000,34.000000,29.000000,75.000000,76.000000
1304999.071833,-128.000000,-128.000000,-71.000000,29.000000,37.000000,-55.000000,-104.000000,-80.000000
1304999.071843,36.000000,127.000000,17.000000,57.000000,36.000000,32.000000,66.000000,63.000000
1304999.079867,-81.000000,127.000000,-27.000000,-128.000000,-112.000000,1.000000,39.000000,-3.000000
1304999.079878,127.000000,-2.000000,105.000000,76.000000,47.000000,34.000000,127.000000,92.000000
1304999.094300,-128.000000,-99.000000,-29.000000,100.000000,85.000000,-109.000000,-32.000000,-42.000000
1304999.094310,127.000000,127.000000,102.000000,-128.000000,-128.000000,51.000000,40.000000,87.000000
1304999.116686,82.000000,43.000000,32.000000,0.000000,62.000000,16.000000,-2.000000,13.000000
1304999.116696,-60.000000,4.000000,-87.000000,9.000000,43.000000,27.000000,48.000000,-3.000000
1304999.124319,-44.000000,34.000000,54.000000,59.000000,89.000000,-4.000000,-67.000000,-64.000000
1304999.124328,23.000000,-128.000000,-68.000000,20.000000,-32.000000,15.000000,1.000000,-4.000000
1304999.139582,-128.000000,-128.000000,-128.000000,-23.000000,21.000000,-42.000000,-85.000000,-94.000000
1304999.139611,36.000000,-113.000000,-3.000000,53.000000,28.000000,2.000000,0.000000,61.000000
1304999.154170,-128.000000,127.000000,75.000000,36.000000,45.000000,16.000000,-35.000000,-99.000000
1304999.154180,127.000000,21.000000,-34.000000,-1.000000,-5.000000,-8.000000,29.000000,127.000000
1304999.162070,-82.000000,-46.000000,-79.000000,5.000000,54.000000,16.000000,31.000000,-21.000000
1304999.162079,-53.000000,-47.000000,-128.000000,-35.000000,-128.000000,-74.000000,45.000000,7.000000
1304999.162735,12.000000,127.000000,127.000000,-90.000000,-78.000000,-10.000000,-33.000000,-8.000000
1304999.162743,-102.000000,-81.000000,7.000000,65.000000,79.000000,25.000000,-12.000000,-23.000000
1304999.164491,50.000000,-128.000000,-10.000000,19.000000,20.000000,-32.000000,-28.000000,-11.000000
1304999.164506,62.000000,44.000000,-39.000000,-10.000000,-18.000000,-37.000000,-80.000000,-20.000000
1304999.165110,-28.000000,64.000000,15.000000,-50.000000,1.000000,50.000000,96.000000,-7.000000
1304999.165118,-51.000000,-81.000000,51.000000,75.000000,86.000000,-2.000000,28.000000,-22.000000
1304999.177359,32.000000,-128.000000,3.000000,25.000000,24.000000,30.000000,-25.000000,-20.000000
1304999.177369,28.000000,25.000000,18.000000,69.000000,56.000000,-4.000000,-86.000000,-57.000000
1304999.199215,3.000000,17.000000,26.000000,59.000000,74.000000,45.000000,67.000000,54.000000
1304999.199225,-17.000000,52.000000,-49.000000,-95.000000,-128.000000,-38.000000,42.000000,-3.000000
1304999.200492,-80.000000,49.000000,-32.000000,-10.000000,-1.000000,-32.000000,-37.000000,-98.000000
1304999.200501,127.000000,-33.000000,120.000000,25.000000,5.000000,45.000000,82.000000,127.000000
1304999.214602,0.000000,127.000000,65.000000,23.000000,31.000000,-27.000000,57.000000,-17.000000
1304999.214615,-92.000000,-72.000000,-19.000000,-50.000000,-128.000000,-17.000000,36.000000,4.000000
1304999.252404,-103.000000,-74.000000,30.000000,67.000000,91.000000,-15.000000,-41.000000,-30.000000
1304999.252425,35.000000,-28.000000,33.000000,-15.000000,-20.000000,27.000000,27.000000,13.000000
1304999.259696,94.000000,127.000000,44.000000,55.000000,35.000000,-41.000000,-8.000000,31.000000
1304999.259709,-35.000000,-128.000000,-48.000000,-128.000000,-53.000000,6.000000,-26.000000,-9.000000
1304999.274815,-42.000000,-84.000000,21.000000,22.000000,31.000000,-13.000000,47.000000,-11.000000
1304999.275022,127.000000,92.000000,48.000000,60.000000,57.000000,31.000000,38.000000,30.000000
1304999.275250,-128.000000,9.000000,16.000000,15.000000,22.000000,8.000000,3.000000,-33.000000
1304999.275294,127.000000,17.000000,-23.000000,127.000000,83.000000,-11.000000,0.000000,85.000000
1304999.276182,-84.000000,-128.000000,3.000000,51.000000,57.000000,-33.000000,-76.000000,-47.000000
1304999.276190,127.000000,127.000000,18.000000,-45.000000,9.000000,76.000000,70.000000,121.000000
1304999.277769,-128.000000,-91.000000,-40.000000,0.000000,63.000000,40.000000,29.000000,-5.000000
1304999.277784,-36.000000,-47.000000,-33.000000,41.000000,-2.000000,-8.000000,-86.000000,-56.000000
1304999.296843,-128.000000,5.000000,84.000000,49.000000,56.000000,51.000000,-8.000000,-50.000000
1304999.296859,127.000000,2.000000,-92.000000,-114.000000,-46.000000,-2.000000,-26.000000,127.000000
1304999.297939,-128.000000,-128.000000,-49.000000,80.000000,91.000000,19.000000,30.000000,-35.000000
1304999.297948,-36.000000,117.000000,41.000000,18.000000,-11.000000,-8.000000,-6.000000,7.000000
1304999.304879,-70.000000,-128.000000,13.000000,-34.000000,-24.000000,18.000000,-5.000000,-30.000000
1304999.304935,22.000000,-20.000000,-67.000000,127.000000,101.000000,-6.000000,-74.000000,-7.000000
1304999.312494,-9.000000,-13.000000,90.000000,22.000000,2.000000,23.000000,15.000000,-16.000000
1304999.312503,70.000000,-36.000000,-80.000000,94.000000,74.000000,-40.000000,-67.000000,-6.000000
1304999.334441,17.000000,18.000000,91.000000,-29.000000,-11.000000,20.000000,27.000000,12.000000
1304999.334455,127.000000,-128.000000,1.000000,59.000000,26.000000,-6.000000,36.000000,34.000000
1304999.357109,69.000000,127.000000,70.000000,-45.000000,6.000000,5.000000,-12.000000,31.000000
1304999.357118,-104.000000,-102.000000,3.000000,24.000000,15.000000,-5.000000,-69.000000,-45.000000
1304999.357732,59.000000,127.000000,127.000000,1.000000,0.000000,33.000000,127.000000,87.000000
1304999.357739,-101.000000,-128.000000,-128.000000,12.000000,51.000000,39.000000,-60.000000,-31.000000
1304999.359473,-38.000000,14.000000,53.000000,4.000000,4.000000,-4.000000,-29.000000,1.000000
1304999.359501,-40.000000,-19.000000,0.000000,43.000000,71.000000,24.000000,-12.000000,-39.000000
1304999.371707,-128.000000,42.000000,-2.000000,3.000000,-76.000000,-104.000000,-71.000000,-66.000000
1304999.371718,127.000000,78.000000,-92.000000,-41.000000,-34.000000,88.000000,105.000000,127.000000
1304999.394319,-101.000000,101.000000,112.000000,16.000000,6.000000,20.000000,22.000000,11.000000
1304999.394349,-88.000000,-87.000000,-5.000000,102.000000,127.000000,-25.000000,-67.000000,-38.000000
1304999.409387,-41.000000,-113.000000,7.000000,-128.000000,-108.000000,127.000000,-4.000000,4.000000
1304999.409398,-33.000000,23.000000,-20.000000,26.000000,-45.000000,-56.000000,-1.000000,-28.000000
1304999.418157,127.000000,59.000000,-33.000000,71.000000,44.000000,-41.000000,-44.000000,42.000000
1304999.418167,-9.000000,-117.000000,62.000000,-64.000000,-58.000000,17.000000,74.000000,39.000000
1304999.418666,-46.000000,-29.000000,16.000000,21.000000,52.000000,11.000000,-1.000000,-5.000000
1304999.418675,61.000000,-84.000000,-59.000000,16.000000,31.000000,20.000000,42.000000,35.000000
1304999.420416,62.000000,-52.000000,64.000000,-62.000000,-79.000000,-21.000000,-8.000000,-29.000000
1304999.420428,-65.000000,-35.000000,-109.000000,-31.000000,-9.000000,-53.000000,-32.000000,-28.000000
1304999.424178,-128.000000,57.000000,26.000000,-36.000000,76.000000,14.000000,-16.000000,-58.000000
1304999.424189,62.000000,-125.000000,-41.000000,-60.000000,-47.000000,80.000000,127.000000,53.000000
1304999.432399,46.000000,67.000000,-22.000000,70.000000,101.000000,-2.000000,-73.000000,-43.000000
1304999.432421,10.000000,66.000000,-13.000000,27.000000,46.000000,-34.000000,-61.000000,-18.000000
1304999.447232,-46.000000,13.000000,71.000000,-68.000000,-41.000000,43.000000,59.000000,10.000000
1304999.447261,64.000000,-128.000000,-101.000000,-19.000000,27.000000,-30.000000,91.000000,29.000000
1304999.461863,12.000000,33.000000,48.000000,48.000000,43.000000,-38.000000,-33.000000,21.000000
1304999.461892,39.000000,-125.000000,-23.000000,-54.000000,-26.000000,75.000000,44.000000,21.000000
1304999.469609,-128.000000,-3.000000,0.000000,22.000000,23.000000,-57.000000,-60.000000,-72.000000
1304999.469630,53.000000,-88.000000,22.000000,-35.000000,50.000000,74.000000,-26.000000,24.000000
1304999.499595,-60.000000,-128.000000,-37.000000,-21.000000,34.000000,37.000000,44.000000,6.000000
1304999.499605,-97.000000,107.000000,7.000000,54.000000,52.000000,-3.000000,65.000000,-19.000000
1304999.529215,59.000000,-30.000000,41.000000,36.000000,24.000000,-30.000000,-70.000000,-60.000000
1304999.529233,-36.000000,42.000000,-27.000000,-9.000000,-16.000000,9.000000,8.000000,14.000000
1304999.530225,-128.000000,64.000000,102.000000,-103.000000,-99.000000,-41.000000,-32.000000,-17.000000
1304999.530234,-31.000000,55.000000,82.000000,81.000000,80.000000,42.000000,52.000000,-38.000000
1304999.530959,127.000000,21.000000,13.000000,28.000000,46.000000,-16.000000,27.000000,112.000000
1304999.531019,-128.000000,-59.000000,-41.000000,120.000000,61.000000,0.000000,-35.000000,-87.000000
1304999.532136,127.000000,127.000000,127.000000,-128.000000,-91.000000,71.000000,127.000000,127.000000
1304999.532145,-58.000000,-128.000000,-128.000000,-30.000000,7.000000,-43.000000,-22.000000,-22.000000
1304999.533114,-48.000000,23.000000,50.000000,56.000000,73.000000,23.000000,-15.000000,-36.000000
1304999.533139,56.000000,-107.000000,18.000000,25.000000,-27.000000,-25.000000,-11.000000,11.000000
1304999.544506,31.000000,15.000000,78.000000,-10.000000,-14.000000,-29.000000,28.000000,44.000000
1304999.544517,-5.000000,-110.000000,-47.000000,-9.000000,-30.000000,-66.000000,0.000000,-8.000000
1304999.551752,66.000000,57.000000,74.000000,-20.000000,-14.000000,68.000000,84.000000,6.000000
1304999.551782,32.000000,-128.000000,-41.000000,46.000000,46.000000,72.000000,33.000000,28.000000
1304999.553149,-66.000000,-111.000000,41.000000,48.000000,127.000000,1.000000,-128.000000,-71.000000
1304999.553157,54.000000,127.000000,99.000000,-9.000000,-48.000000,59.000000,127.000000,50.000000
1304999.566895,-119.000000,72.000000,85.000000,68.000000,59.000000,0.000000,49.000000,-10.000000
1304999.566915,101.000000,-25.000000,-112.000000,15.000000,-7.000000,1.000000,-10.000000,12.000000
1304999.589577,-109.000000,-35.000000,76.000000,-99.000000,-27.000000,-15.000000,-61.000000,-33.000000
1304999.589609,127.000000,-13.000000,25.000000,82.000000,23.000000,-18.000000,-24.000000,65.000000
1304999.596887,15.000000,127.000000,66.000000,-10.000000,8.000000,13.000000,-20.000000,-11.000000
1304999.596896,-56.000000,-67.000000,-21.000000,-8.000000,-21.000000,-22.000000,-36.000000,-2.000000
1304999.612120,-83.000000,127.000000,21.000000,26.000000,25.000000,5.000000,52.000000,-7.000000
1304999.612166,-128.000000,127.000000,3.000000,-8.000000,24.000000,-24.000000,-45.000000,-55.000000
1304999.612759,127.000000,-39.000000,-54.000000,-104.000000,-28.000000,-24.000000,-21.000000,52.000000
1304999.612769,43.000000,-34.000000,75.000000,-7.000000,-10.000000,-25.000000,-19.000000,18.000000
1304999.614209,50.000000,-45.000000,35.000000,-19.000000,-30.000000,50.000000,79.000000,24.000000
1304999.614218,-128.000000,-128.000000,-128.000000,-99.000000,-128.000000,-128.000000,-61.000000,-100.000000
1304999.626574,-128.000000,127.000000,91.000000,23.000000,60.000000,75.000000,-80.000000,5.000000
1304999.626583,127.000000,-128.000000,-118.000000,-55.000000,-7.000000,10.000000,42.000000,79.000000
1304999.635058,-77.000000,-128.000000,-78.000000,55.000000,3.000000,-16.000000,-81.000000,-33.000000
1304999.635067,-85.000000,127.000000,106.000000,-21.000000,5.000000,21.000000,-108.000000,-54.000000
1304999.649338,56.000000,67.000000,-17.000000,36.000000,43.000000,11.000000,47.000000,-14.000000
1304999.649363,113.000000,91.000000,51.000000,57.000000,21.000000,-20.000000,-39.000000,55.000000
1304999.656932,73.000000,-56.000000,21.000000,-125.000000,-106.000000,36.000000,42.000000,-6.000000
1304999.656961,-47.000000,-118.000000,-37.000000,35.000000,15.000000,6.000000,-7.000000,-25.000000
1304999.664152,-37.000000,1.000000,-32.000000,28.000000,-1.000000,-33.000000,-52.000000,-20.000000
1304999.664162,-74.000000,4.000000,18.000000,72.000000,127.000000,71.000000,-3.000000,-8.000000
1304999.671691,120.000000,10.000000,82.000000,-4.000000,15.000000,17.000000,-15.000000,57.000000
1304999.671702,63.000000,-36.000000,-97.000000,57.000000,58.000000,-29.000000,-7.000000,4.000000
1304999.686980,-25.000000,127.000000,104.000000,-115.000000,-93.000000,40.000000,-51.000000,67.000000
1304999.686991,23.000000,-12.000000,57.000000,18.000000,39.000000,93.000000,127.000000,-4.000000
1304999.701828,5.000000,63.000000,-26.000000,36.000000,-21.000000,-19.000000,35.000000,22.000000
1304999.701853,-128.000000,-9.000000,-47.000000,44.000000,48.000000,-25.000000,-67.000000,-46.000000
1304999.709243,88.000000,98.000000,-42.000000,0.000000,-1.000000,1.000000,6.000000,27.000000
1304999.709253,46.000000,-128.000000,-82.000000,-45.000000,-64.000000,-32.000000,-34.000000,-18.000000
1304999.732331,100.000000,102.000000,116.000000,51.000000,-2.000000,38.000000,57.000000,39.000000
1304999.732341,-76.000000,-60.000000,-20.000000,-9.000000,45.000000,28.000000,38.000000,-10.000000
1304999.732924,-95.000000,10.000000,8.000000,51.000000,31.000000,-30.000000,-61.000000,-20.000000
1304999.732932,-65.000000,-88.000000,40.000000,-12.000000,-24.000000,-18.000000,-82.000000,-53.000000
1304999.734702,34.000000,-43.000000,84.000000,33.000000,-23.000000,-13.000000,-27.000000,20.000000
1304999.734712,21.000000,20.000000,-14.000000,51.000000,96.000000,48.000000,-17.000000,5.000000
1304999.754391,-94.000000,-128.000000,-8.000000,-16.000000,-32.000000,1.000000,25.000000,-4.000000
1304999.754409,40.000000,62.000000,74.000000,64.000000,43.000000,-3.000000,6.000000,32.000000
1304999.755480,38.000000,-107.000000,-128.000000,-79.000000,-20.000000,10.000000,49.000000,10.000000
1304999.755489,-48.000000,16.000000,105.000000,5.000000,-5.000000,-32.000000,-89.000000,-55.000000
1304999.769124,-2.000000,-1.000000,17.000000,-40.000000,-8.000000,35.000000,54.000000,28.000000
1304999.769153,-74.000000,-128.000000,-44.000000,79.000000,60.000000,8.000000,69.000000,-15.000000
1304999.777044,118.000000,114.000000,33.000000,-53.000000,-17.000000,22.000000,-10.000000,26.000000
1304999.777057,94.000000,-42.000000,26.000000,-49.000000,-57.000000,-44.000000,-126.000000,-20.000000
1304999.792489,9.000000,-128.000000,1.000000,57.000000,104.000000,76.000000,81.000000,35.000000
1304999.792522,-31.000000,-128.000000,-70.000000,46.000000,55.000000,27.000000,50.000000,3.000000
1304999.793244,27.000000,126.000000,37.000000,-18.000000,-13.000000,-47.000000,-105.000000,2.000000
1304999.793264,122.000000,-37.000000,20.000000,46.000000,13.000000,13.000000,62.000000,60.000000
1304999.807271,-128.000000,-111.000000,-87.000000,-31.000000,-68.000000,-51.000000,-59.000000,-118.000000
1304999.807291,127.000000,127.000000,-128.000000,-128.000000,-128.000000,-17.000000,127.000000,127.000000
1304999.822290,-92.000000,-102.000000,-91.000000,36.000000,50.000000,-11.000000,-27.000000,-32.000000
1304999.822308,-51.000000,-67.000000,67.000000,69.000000,61.000000,-14.000000,-58.000000,-36.000000
1304999.829250,-20.000000,-101.000000,-2.000000,-13.000000,-44.000000,-31.000000,3.000000,-11.000000
1304999.829266,0.000000,101.000000,10.000000,102.000000,71.000000,-29.000000,-28.000000,-22.000000
1304999.852193,-1.000000,-107.000000,-57.000000,-65.000000,-26.000000,26.000000,-14.000000,16.000000
1304999.852212,-109.000000,-56.000000,64.000000,17.000000,-7.000000,4.000000,-21.000000,-39.000000
1304999.852900,127.000000,-73.000000,-107.000000,-72.000000,-58.000000,18.000000,18.000000,47.000000
1304999.852959,-42.000000,4.000000,36.000000,5.000000,40.000000,-7.000000,-19.000000,-23.000000
1304999.859218,-128.000000,-128.000000,-11.000000,100.000000,84.000000,21.000000,-74.000000,-60.000000
1304999.859249,127.000000,32.000000,-6.000000,-28.000000,-97.000000,-11.000000,74.000000,70.000000
1304999.866553,-81.000000,-46.000000,-44.000000,-128.000000,-102.000000,12.000000,-90.000000,-59.000000
1304999.866563,69.000000,105.000000,17.000000,34.000000,37.000000,0.000000,18.000000,11.000000
1304999.874573,-17.000000,-33.000000,20.000000,-27.000000,-5.000000,-4.000000,3.000000,-1.000000
1304999.874587,-27.000000,-14.000000,-71.000000,-28.000000,-87.000000,-97.000000,-17.000000,-11.000000
1304999.889334,13.000000,-30.000000,-31.000000,40.000000,-14.000000,-40.000000,-17.000000,0.000000
1304999.889365,-56.000000,-128.000000,1.000000,-81.000000,-74.000000,43.000000,79.000000,10.000000
1304999.896618,94.000000,121.000000,-58.000000,56.000000,52.000000,-8.000000,-78.000000,11.000000
1304999.896630,-7.000000,-74.000000,38.000000,75.000000,54.000000,-60.000000,-24.000000,-39.000000
1304999.911617,-128.000000,-78.000000,41.000000,49.000000,43.000000,53.000000,-26.000000,-69.000000
1304999.911627,78.000000,112.000000,-58.000000,-11.000000,23.000000,-16.000000,58.000000,24.000000
1304999.926786,-49.000000,-41.000000,16.000000,-42.000000,-9.000000,-16.000000,13.000000,24.000000
1304999.926796,-51.000000,-87.000000,-39.000000,32.000000,56.000000,-33.000000,-93.000000,-46.000000
1304999.934301,0.000000,-39.000000,-17.000000,-39.000000,-49.000000,31.000000,87.000000,2.000000
1304999.934311,-21.000000,-76.000000,-19.000000,-28.000000,-42.000000,3.000000,-16.000000,-16.000000
1304999.957056,-51.000000,-25.000000,-90.000000,31.000000,31.000000,-13.000000,27.000000,17.000000
1304999.957069,-20.000000,61.000000,89.000000,71.000000,30.000000,-5.000000,-41.000000,3.000000
1304999.972294,23.000000,-59.000000,-18.000000,-44.000000,-15.000000,59.000000,23.000000,-35.000000
1304999.972308,-9.000000,-2.000000,73.000000,11.000000,21.000000,-28.000000,-72.000000,11.000000
1304999.972801,-65.000000,-57.000000,62.000000,53.000000,39.000000,56.000000,35.000000,1.000000
1304999.972814,127.000000,56.000000,-60.000000,-16.000000,6.000000,-43.000000,56.000000,43.000000
1304999.973722,-50.000000,-33.000000,47.000000,119.000000,90.000000,-27.000000,-84.000000,-46.000000
1304999.973733,63.000000,99.000000,9.000000,-93.000000,-74.000000,34.000000,99.000000,41.000000
1304999.986832,-5.000000,127.000000,5.000000,20.000000,19.000000,-15.000000,-6.000000,-25.000000
1304999.986851,-116.000000,125.000000,-72.000000,16.000000,34.000000,1.000000,12.000000,-5.000000
1304999.987938,81.000000,-25.000000,47.000000,0.000000,-31.000000,13.000000,-67.000000,-16.000000
1304999.987946,-13.000000,74.000000,30.000000,80.000000,34.000000,39.000000,22.000000,11.000000
1304999.994225,79.000000,0.000000,40.000000,-128.000000,-96.000000,28.000000,30.000000,4.000000
1304999.994235,19.000000,-42.000000,-2.000000,-23.000000,-56.000000,-67.000000,51.000000,59.000000
1305000.031876,-47.000000,-82.000000,-59.000000,31.000000,41.000000,33.000000,21.000000,-6.000000
1305000.031908,-45.000000,-31.000000,25.000000,0.000000,-31.000000,-27.000000,15.000000,9.000000
1305000.054444,15.000000,127.000000,73.000000,-37.000000,-32.000000,-21.000000,-26.000000,6.000000
1305000.054473,49.000000,-78.000000,-35.000000,-56.000000,-33.000000,-32.000000,-23.000000,35.000000
1305000.069335,-37.000000,-128.000000,-109.000000,39.000000,36.000000,-6.000000,-28.000000,-16.000000
1305000.069346,73.000000,1.000000,59.000000,-36.000000,-27.000000,62.000000,77.000000,15.000000
1305000.084522,39.000000,94.000000,110.000000,68.000000,115.000000,26.000000,-40.000000,-2.000000
1305000.084544,-26.000000,-128.000000,-118.000000,-128.000000,-128.000000,-15.000000,68.000000,18.000000
1305000.099622,-34.000000,35.000000,-29.000000,36.000000,39.000000,-15.000000,-1.000000,-2.000000
1305000.099641,-128.000000,-83.000000,25.000000,65.000000,55.000000,-42.000000,-109.000000,-87.000000
1305000.106814,127.000000,127.000000,-47.000000,-96.000000,-90.000000,56.000000,127.000000,100.000000
1305000.106824,-60.000000,6.000000,-11.000000,-39.000000,-53.000000,-29.000000,-52.000000,-16.000000
1305000.129355,4.000000,-1.000000,20.000000,39.000000,69.000000,55.000000,107.000000,48.000000
1305000.129366,57.000000,35.000000,-9.000000,-85.000000,-87.000000,24.000000,75.000000,44.000000
1305000.144989,-38.000000,-34.000000,-84.000000,31.000000,19.000000,-19.000000,34.000000,-12.000000
1305000.144999,127.000000,-128.000000,75.000000,-128.000000,-128.000000,-1.000000,44.000000,59.000000
1305000.145948,-25.000000,-71.000000,-50.000000,-35.000000,-54.000000,-41.000000,-50.000000,-62.000000
1305000.145956,127.000000,127.000000,58.000000,45.000000,49.000000,23.000000,-58.000000,24.000000
1305000.147552,6.000000,-57.000000,-54.000000,43.000000,27.000000,11.000000,44.000000,30.000000
1305000.147562,-20.000000,-52.000000,64.000000,19.000000,86.000000,93.000000,-105.000000,-29.000000
1305000.167166,69.000000,127.000000,54.000000,95.000000,78.000000,-75.000000,-90.000000,12.000000
1305000.167176,39.000000,20.000000,70.000000,-128.000000,-100.000000,41.000000,-32.000000,4.000000
1305000.205074,72.000000,83.000000,-16.000000,71.000000,73.000000,77.000000,81.000000,57.000000
1305000.205105,-44.000000,12.000000,7.000000,61.000000,90.000000,35.000000,2.000000,-21.000000
1305000.205152,47.000000,-35.000000,-4.000000,-87.000000,-46.000000,0.000000,20.000000,2.000000
1305000.205169,-71.000000,64.000000,-42.000000,33.000000,30.000000,16.000000,42.000000,-13.000000
1305000.206467,75.000000,-49.000000,-8.000000,-80.000000,-104.000000,-57.000000,-53.000000,11.000000
1305000.206483,-59.000000,28.000000,-128.000000,-30.000000,-10.000000,27.000000,51.000000,58.000000
1305000.206882,10.000000,-128.000000,-50.000000,26.000000,-56.000000,-37.000000,11.000000,-23.000000
1305000.206900,-46.000000,127.000000,127.000000,34.000000,18.000000,-8.000000,-4.000000,-11.000000
1305000.208241,72.000000,-11.000000,127.000000,-76.000000,-58.000000,-16.000000,75.000000,48.000000
1305000.208251,-64.000000,-38.000000,101.000000,-9.000000,1.000000,5.000000,4.000000,-22.000000
1305000.219828,-38.000000,127.000000,34.000000,-1.000000,-47.000000,-10.000000,-23.000000,-31.000000
1305000.219839,-128.000000,56.000000,96.000000,1.000000,-26.000000,-31.000000,79.000000,25.000000
1305000.227792,127.000000,-120.000000,-41.000000,19.000000,36.000000,-8.000000,-52.000000,37.000000
1305000.227808,-126.000000,-1.000000,-6.000000,28.000000,9.000000,-65.000000,-103.000000,-63.000000
1305000.249274,88.000000,127.000000,46.000000,-96.000000,-112.000000,44.000000,79.000000,82.000000
1305000.249287,-28.000000,-90.000000,-30.000000,30.000000,56.000000,12.000000,-4.000000,-22.000000
1305000.250549,-89.000000,-32.000000,-79.000000,49.000000,19.000000,-12.000000,22.000000,18.000000
1305000.250559,63.000000,-66.000000,47.000000,-32.000000,-13.000000,-35.000000,-88.000000,-28.000000
1305000.264372,-30.000000,-75.000000,75.000000,31.000000,41.000000,36.000000,1.000000,-4.000000
1305000.264390,-56.000000,83.000000,-64.000000,18.000000,18.000000,45.000000,127.000000,47.000000
1305000.265532,41.000000,-60.000000,-20.000000,71.000000,44.000000,-5.000000,-59.000000,-5.000000
1305000.265542,-58.000000,1.000000,27.000000,11.000000,12.000000,-17.000000,4.000000,-13.000000
1305000.286767,-83.000000,127.000000,-38.000000,2.000000,-1.000000,34.000000,53.000000,49.000000
1305000.286795,16.000000,-128.000000,12.000000,-7.000000,-48.000000,-21.000000,-18.000000,-26.000000
1305000.324357,25.000000,77.000000,0.000000,24.000000,49.000000,10.000000,40.000000,-6.000000
1305000.324367,11.000000,-30.000000,15.000000,3.000000,110.000000,39.000000,-25.000000,-18.000000
1305000.331587,-50.000000,-18.000000,-11.000000,44.000000,-4.000000,-51.000000,34.000000,34.000000
1305000.331617,2.000000,-1.000000,127.000000,-128.000000,-104.000000,32.000000,-20.000000,-3.000000
1305000.332775,42.000000,127.000000,15.000000,-10.000000,23.000000,21.000000,108.000000,54.000000
1305000.332802,-34.000000,-69.000000,-15.000000,47.000000,51.000000,-5.000000,-37.000000,-35.000000
1305000.333414,18.000000,-57.000000,-51.000000,-23.000000,-27.000000,-19.000000,-6.000000,-21.000000
1305000.333441,-84.000000,-126.000000,29.000000,-68.000000,7.000000,27.000000,-81.000000,17.000000
1305000.334922,-75.000000,-3.000000,22.000000,60.000000,44.000000,18.000000,30.000000,-58.000000
1305000.334949,127.000000,127.000000,-35.000000,26.000000,64.000000,9.000000,-69.000000,36.000000
1305000.346737,-125.000000,-128.000000,-91.000000,-24.000000,6.000000,99.000000,-19.000000,-33.000000
1305000.346766,4.000000,-9.000000,-29.000000,93.000000,38.000000,-51.000000,-7.000000,-6.000000
1305000.348056,39.000000,83.000000,81.000000,-68.000000,24.000000,55.000000,31.000000,6.000000
1305000.348065,-27.000000,-34.000000,-50.000000,17.000000,28.000000,-6.000000,0.000000,-6.000000
1305000.361834,-128.000000,-96.000000,-48.000000,69.000000,9.000000,-26.000000,-97.000000,-31.000000
1305000.361859,127.000000,112.000000,-51.000000,-11.000000,-48.000000,24.000000,85.000000,30.000000
1305000.370004,-37.000000,-128.000000,34.000000,15.000000,9.000000,-26.000000,-101.000000,-49.000000
1305000.370014,97.000000,38.000000,-37.000000,101.000000,30.000000,-31.000000,47.000000,55.000000
1305000.376889,-128.000000,-122.000000,13.000000,-126.000000,-88.000000,-3.000000,-1.000000,-21.000000
1305000.376904,80.000000,-3.000000,11.000000,-1.000000,10.000000,-6.000000,-94.000000,-10.000000
1305000.385083,-57.000000,121.000000,2.000000,79.000000,47.000000,74.000000,119.000000,16.000000
1305000.385094,-12.000000,-49.000000,6.000000,-74.000000,-26.000000,5.000000,-17.000000,-19.000000
1305000.399384,-31.000000,-28.000000,78.000000,42.000000,26.000000,20.000000,56.000000,15.000000
1305000.399395,-26.000000,10.000000,-21.000000,65.000000,17.000000,-17.000000,-22.000000,-28.000000
1305000.421983,67.000000,127.000000,56.000000,48.000000,119.000000,52.000000,-11.000000,23.000000
1305000.422002,-20.000000,42.000000,-3.000000,58.000000,-3.000000,-20.000000,34.000000,1.000000
1305000.429435,-11.000000,-102.000000,39.000000,1.000000,45.000000,81.000000,120.000000,53.000000
1305000.429446,-3.000000,-83.000000,-26.000000,-67.000000,-77.000000,-56.000000,-23.000000,-26.000000
1305000.445127,-119.000000,-128.000000,23.000000,21.000000,5.000000,-21.000000,-59.000000,-57.000000
1305000.445139,127.000000,127.000000,10.000000,67.000000,127.000000,68.000000,114.000000,62.000000
1305000.445479,-24.000000,-128.000000,-92.000000,-86.000000,-128.000000,-72.000000,-9.000000,-25.000000
1305000.445487,-20.000000,75.000000,-31.000000,-54.000000,9.000000,23.000000,-61.000000,11.000000
1305000.467147,0.000000,127.000000,59.000000,80.000000,39.000000,-16.000000,-25.000000,-30.000000
1305000.467165,-108.000000,-128.000000,-28.000000,-6.000000,19.000000,9.000000,-20.000000,-4.000000
1305000.467788,83.000000,60.000000,18.000000,65.000000,53.000000,-19.000000,6.000000,50.000000
1305000.467803,41.000000,-96.000000,-29.000000,-33.000000,-77.000000,-14.000000,5.000000,-7.000000
1305000.469520,-49.000000,-128.000000,-124.000000,16.000000,46.000000,-7.000000,105.000000,36.000000
1305000.469539,-10.000000,-101.000000,-89.000000,40.000000,47.000000,-4.000000,-40.000000,-22.000000
1305000.481964,123.000000,43.000000,-24.000000,8.000000,1.000000,13.000000,62.000000,37.000000
1305000.481975,-59.000000,-128.000000,-86.000000,26.000000,11.000000,-60.000000,-62.000000,-37.000000
1305000.489884,-7.000000,127.000000,114.000000,-41.000000,-29.000000,42.000000,-38.000000,-10.000000
1305000.489892,98.000000,104.000000,92.000000,-7.000000,-8.000000,-13.000000,-14.000000,17.000000
1305000.496583,-22.000000,-108.000000,-107.000000,-59.000000,-128.000000,-89.000000,-8.000000,-4.000000
1305000.496592,9.000000,-128.000000,38.000000,15.000000,-13.000000,-25.000000,-39.000000,-35.000000
1305000.519698,-57.000000,-128.000000,-13.000000,52.000000,55.000000,19.000000,-60.000000,-46.000000
1305000.519722,88.000000,127.000000,-107.000000,-128.000000,-70.000000,-22.000000,13.000000,53.000000
1305000.527067,32.000000,-45.000000,100.000000,-58.000000,-46.000000,70.000000,127.000000,-13.000000
1305000.527079,-128.000000,9.000000,10.000000,12.000000,26.000000,-1.000000,-51.000000,-61.000000
1305000.541988,49.000000,-128.000000,17.000000,38.000000,19.000000,-37.000000,-44.000000,-16.000000
1305000.542001,-57.000000,-78.000000,-128.000000,-68.000000,-59.000000,18.000000,53.000000,7.000000
1305000.564289,-45.000000,-69.000000,61.000000,57.000000,70.000000,-20.000000,-101.000000,-39.000000
1305000.564304,-56.000000,-128.000000,-20.000000,-68.000000,-75.000000,-67.000000,-6.000000,-14.000000
1305000.565458,127.000000,127.000000,51.000000,-53.000000,-64.000000,114.000000,127.000000,59.000000
1305000.565471,-32.000000,-128.000000,-107.000000,-5.000000,2.000000,-31.000000,-19.000000,-23.000000
1305000.566044,127.000000,127.000000,41.000000,71.000000,38.000000,22.000000,53.000000,22.000000
1305000.566075,1.000000,-63.000000,41.000000,21.000000,-6.000000,-28.000000,-23.000000,8.000000
1305000.567514,-128.000000,-48.000000,10.000000,17.000000,8.000000,2.000000,-7.000000,-35.000000
1305000.567530,92.000000,24.000000,-44.000000,-24.000000,-88.000000,18.000000,80.000000,42.000000
1305000.587486,64.000000,38.000000,13.000000,35.000000,9.000000,24.000000,-14.000000,13.000000
1305000.587496,-35.000000,-128.000000,-73.000000,-13.000000,11.000000,11.000000,1.000000,-52.000000
1305000.588225,-24.000000,41.000000,34.000000,62.000000,54.000000,-15.000000,-55.000000,-24.000000
1305000.588251,-108.000000,-26.000000,-84.000000,-1.000000,-25.000000,19.000000,56.000000,15.000000
1305000.601898,127.000000,17.000000,70.000000,8.000000,0.000000,-43.000000,-29.000000,18.000000
1305000.601909,-13.000000,127.000000,-28.000000,-40.000000,-30.000000,-41.000000,-45.000000,-31.000000
1305000.609854,-102.000000,7.000000,9.000000,-10.000000,-44.000000,-44.000000,-27.000000,-54.000000
1305000.609882,59.000000,-128.000000,23.000000,13.000000,-7.000000,99.000000,127.000000,50.000000
1305000.616729,127.000000,127.000000,-128.000000,32.000000,18.000000,-35.000000,-36.000000,22.000000
1305000.616739,-122.000000,-94.000000,7.000000,-31.000000,-16.000000,1.000000,18.000000,-22.000000
1305000.639280,-46.000000,-116.000000,-82.000000,87.000000,94.000000,13.000000,30.000000,28.000000
1305000.639290,3.000000,14.000000,1.000000,19.000000,24.000000,-12.000000,-29.000000,-37.000000
1305000.646631,32.000000,-128.000000,17.000000,-35.000000,-62.000000,47.000000,5.000000,16.000000
1305000.646641,5.000000,-93.000000,-128.000000,-22.000000,2.000000,-23.000000,20.000000,12.000000
1305000.676942,0.000000,14.000000,6.000000,38.000000,-15.000000,-56.000000,-58.000000,-19.000000
1305000.676968,-128.000000,127.000000,48.000000,1.000000,8.000000,27.000000,18.000000,-31.000000
1305000.684274,127.000000,64.000000,-34.000000,67.000000,53.000000,32.000000,55.000000,54.000000
1305000.684283,18.000000,-92.000000,-27.000000,-27.000000,-44.000000,-38.000000,-4.000000,6.000000
1305000.706810,-128.000000,-36.000000,25.000000,73.000000,31.000000,-68.000000,-12.000000,-40.000000
1305000.706821,54.000000,-128.000000,-85.000000,-83.000000,-96.000000,54.000000,94.000000,65.000000
1305000.721822,16.000000,126.000000,65.000000,67.000000,82.000000,8.000000,-9.000000,-19.000000
1305000.721836,6.000000,-51.000000,-2.000000,5.000000,15.000000,46.000000,-17.000000,-13.000000
1305000.722901,-104.000000,-81.000000,16.000000,-14.000000,-42.000000,-43.000000,-27.000000,-27.000000
1305000.722911,127.000000,-34.000000,6.000000,22.000000,16.000000,-24.000000,-1.000000,94.000000
1305000.723629,-3.000000,65.000000,36.000000,4.000000,14.000000,51.000000,127.000000,26.000000
1305000.723645,-18.000000,26.000000,-46.000000,34.000000,18.000000,41.000000,52.000000,-29.000000
1305000.725149,127.000000,-20.000000,-12.000000,-67.000000,-35.000000,-16.000000,14.000000,53.000000
1305000.725171,-109.000000,-66.000000,-104.000000,5.000000,26.000000,-67.000000,-94.000000,-71.000000
1305000.759655,61.000000,-13.000000,-11.000000,-21.000000,-15.000000,41.000000,51.000000,-27.000000
1305000.759668,81.000000,125.000000,86.000000,-12.000000,9.000000,52.000000,68.000000,24.000000
1305000.767062,-2.000000,2.000000,-31.000000,8.000000,-1.000000,-36.000000,-98.000000,18.000000
1305000.767075,-5.000000,16.000000,19.000000,-46.000000,-18.000000,115.000000,72.000000,32.000000
1305000.781870,27.000000,-38.000000,-20.000000,-10.000000,-11.000000,9.000000,-9.000000,-9.000000
1305000.781882,-8.000000,92.000000,-6.000000,28.000000,17.000000,-8.000000,-4.000000,-13.000000
1305000.804304,-8.000000,44.000000,88.000000,34.000000,7.000000,-6.000000,-14.000000,0.000000
1305000.804331,-35.000000,-125.000000,2.000000,-30.000000,-32.000000,-18.000000,-16.000000,-23.000000
1305000.805258,-69.000000,127.000000,-45.000000,59.000000,50.000000,34.000000,-36.000000,-10.000000
1305000.805267,127.000000,12.000000,105.000000,11.000000,-10.000000,22.000000,120.000000,91.000000
1305000.805826,0.000000,-100.000000,-47.000000,-38.000000,-6.000000,25.000000,-12.000000,-14.000000
1305000.805834,-38.000000,-25.000000,-20.000000,17.000000,2.000000,-69.000000,-53.000000,-19.000000
1305000.807232,-68.000000,-128.000000,31.000000,63.000000,17.000000,37.000000,68.000000,-6.000000
1305000.807250,20.000000,127.000000,-1.000000,-72.000000,-28.000000,-11.000000,95.000000,28.000000
1305000.808222,-56.000000,-32.000000,-46.000000,44.000000,73.000000,9.000000,-91.000000,-52.000000
1305000.808235,-15.000000,-84.000000,-24.000000,-103.000000,-49.000000,33.000000,-29.000000,32.000000
1305000.819889,17.000000,106.000000,107.000000,-7.000000,-11.000000,-8.000000,104.000000,42.000000
1305000.819906,-19.000000,-53.000000,-42.000000,51.000000,102.000000,75.000000,-78.000000,-78.000000
1305000.827447,-61.000000,-128.000000,15.000000,-32.000000,-18.000000,27.000000,62.000000,-7.000000
1305000.827457,52.000000,65.000000,41.000000,61.000000,66.000000,-26.000000,-102.000000,-1.000000
1305000.841838,-13.000000,-38.000000,42.000000,31.000000,10.000000,68.000000,68.000000,31.000000
1305000.841854,-5.000000,127.000000,65.000000,43.000000,73.000000,58.000000,0.000000,-12.000000
1305000.879409,-53.000000,-83.000000,-75.000000,31.000000,-1.000000,-22.000000,17.000000,-6.000000
1305000.879420,0.000000,-128.000000,54.000000,62.000000,54.000000,-17.000000,-72.000000,8.000000
1305000.886771,-19.000000,51.000000,12.000000,9.000000,28.000000,-5.000000,-36.000000,4.000000
1305000.886791,3.000000,-32.000000,127.000000,23.000000,-12.000000,17.000000,57.000000,16.000000
1305000.901964,27.000000,31.000000,2.000000,-20.000000,-10.000000,24.000000,-55.000000,-49.000000
1305000.901976,-9.000000,-128.000000,-26.000000,87.000000,45.000000,11.000000,75.000000,39.000000
1305000.916766,26.000000,-128.000000,2.000000,-128.000000,-128.000000,-19.000000,26.000000,16.000000
1305000.916776,81.000000,117.000000,-35.000000,23.000000,7.000000,-5.000000,-37.000000,-2.000000
1305000.939480,-28.000000,127.000000,-70.000000,2.000000,-21.000000,-28.000000,-84.000000,-7.000000
1305000.939611,-74.000000,25.000000,29.000000,86.000000,71.000000,-25.000000,-43.000000,-57.000000
1305000.939937,49.000000,127.000000,29.000000,-128.000000,-123.000000,24.000000,48.000000,17.000000
1305000.939954,10.000000,-45.000000,31.000000,56.000000,56.000000,47.000000,15.000000,19.000000
1305000.941177,-5.000000,-46.000000,-15.000000,-39.000000,-48.000000,-19.000000,-81.000000,-47.000000
1305000.941188,52.000000,-54.000000,-86.000000,25.000000,19.000000,-1.000000,-11.000000,19.000000
1305000.941673,4.000000,127.000000,39.000000,41.000000,8.000000,-46.000000,-49.000000,-37.000000
1305000.941700,-25.000000,-74.000000,52.000000,17.000000,12.000000,-12.000000,-36.000000,-4.000000
1305000.942910,-53.000000,-98.000000,-76.000000,35.000000,37.000000,74.000000,9.000000,-24.000000
1305000.942943,10.000000,-36.000000,-64.000000,-28.000000,-20.000000,-83.000000,-71.000000,-7.000000
1305000.955016,-7.000000,-3.000000,48.000000,-128.000000,-128.000000,-7.000000,-7.000000,-7.000000
1305000.955054,-17.000000,-30.000000,-4.000000,30.000000,26.000000,-58.000000,10.000000,15.000000
1305000.961632,13.000000,-128.000000,-73.000000,34.000000,47.000000,27.000000,25.000000,-26.000000
1305000.961643,30.000000,7.000000,11.000000,49.000000,-6.000000,4.000000,110.000000,35.000000
1305000.984330,-13.000000,-86.000000,-23.000000,-31.000000,-19.000000,-31.000000,-128.000000,-34.000000
1305000.984341,-81.000000,127.000000,21.000000,-19.000000,-18.000000,62.000000,25.000000,-20.000000
1305000.999678,89.000000,91.000000,-7.000000,-20.000000,-30.000000,-34.000000,65.000000,60.000000
1305000.999689,-41.000000,-73.000000,41.000000,68.000000,72.000000,-37.000000,-63.000000,-92.000000
1305001.022346,95.000000,127.000000,-23.000000,-25.000000,-37.000000,-35.000000,-33.000000,42.000000
1305001.022367,-26.000000,3.000000,-4.000000,-61.000000,-12.000000,1.000000,3.000000,8.000000
1305001.036781,2.000000,-57.000000,-6.000000,113.000000,61.000000,55.000000,127.000000,38.000000
1305001.036798,-7.000000,92.000000,26.000000,-30.000000,-40.000000,-14.000000,-21.000000,-19.000000
1305001.037790,-44.000000,127.000000,64.000000,-107.000000,-83.000000,-27.000000,-46.000000,-24.000000
1305001.037799,127.000000,81.000000,22.000000,29.000000,36.000000,46.000000,4.000000,36.000000
1305001.038355,-31.000000,-40.000000,0.000000,33.000000,50.000000,-36.000000,-57.000000,-30.000000
1305001.038364,-28.000000,-37.000000,36.000000,-44.000000,-69.000000,-21.000000,29.000000,-4.000000
1305001.039778,26.000000,-59.000000,10.000000,-77.000000,-12.000000,52.000000,20.000000,23.000000
1305001.039787,-13.000000,-5.000000,47.000000,34.000000,22.000000,31.000000,100.000000,18.000000
1305001.040603,-74.000000,-3.000000,25.000000,59.000000,38.000000,-55.000000,-124.000000,-24.000000
1305001.040617,24.000000,-68.000000,6.000000,-38.000000,-16.000000,28.000000,65.000000,-1.000000
1305001.051714,-32.000000,-101.000000,-4.000000,-10.000000,-16.000000,-5.000000,-126.000000,-27.000000
1305001.051724,-12.000000,27.000000,0.000000,75.000000,65.000000,64.000000,127.000000,33.000000
1305001.059266,21.000000,1.000000,-38.000000,-44.000000,-35.000000,17.000000,-10.000000,42.000000
1305001.059277,70.000000,68.000000,75.000000,-34.000000,-68.000000,-44.000000,12.000000,29.000000
1305001.075230,-7.000000,-4.000000,58.000000,42.000000,56.000000,23.000000,15.000000,13.000000
1305001.075251,-44.000000,-60.000000,25.000000,-68.000000,-53.000000,-54.000000,-9.000000,-24.000000
1305001.082093,-102.000000,101.000000,39.000000,65.000000,6.000000,-60.000000,-14.000000,-61.000000
1305001.082122,93.000000,85.000000,31.000000,-16.000000,50.000000,99.000000,72.000000,55.000000
1305001.090192,-64.000000,-128.000000,-128.000000,14.000000,6.000000,0.000000,18.000000,-29.000000
1305001.090243,-8.000000,127.000000,53.000000,42.000000,8.000000,3.000000,48.000000,4.000000
1305001.096756,-68.000000,-97.000000,-53.000000,-68.000000,-69.000000,-63.000000,-81.000000,-54.000000
1305001.096785,55.000000,-83.000000,-40.000000,-37.000000,-33.000000,-35.000000,-59.000000,15.000000
1305001.119680,-59.000000,1.000000,50.000000,70.000000,45.000000,-49.000000,-33.000000,-13.000000
1305001.119715,20.000000,-128.000000,-55.000000,-128.000000,-128.000000,67.000000,23.000000,8.000000
1305001.141860,59.000000,107.000000,107.000000,52.000000,-1.000000,-9.000000,54.000000,44.000000
1305001.141870,-11.000000,71.000000,56.000000,19.000000,7.000000,-36.000000,13.000000,1.000000
1305001.164439,58.000000,12.000000,43.000000,-9.000000,8.000000,-1.000000,-64.000000,-10.000000
1305001.164468,-37.000000,-5.000000,11.000000,-33.000000,-14.000000,94.000000,122.000000,16.000000
1305001.164718,-68.000000,-74.000000,-89.000000,20.000000,-14.000000,-52.000000,-14.000000,-28.000000
1305001.164730,58.000000,35.000000,9.000000,-119.000000,-103.000000,-21.000000,42.000000,30.000000
1305001.165978,127.000000,127.000000,31.000000,5.000000,-20.000000,-34.000000,-2.000000,61.000000
1305001.165987,-47.000000,-11.000000,3.000000,18.000000,29.000000,7.000000,2.000000,-26.000000
1305001.166789,-101.000000,-123.000000,-44.000000,78.000000,43.000000,-97.000000,-85.000000,-71.000000
1305001.166827,112.000000,-33.000000,40.000000,-128.000000,-101.000000,109.000000,55.000000,44.000000
1305001.172372,-5.000000,0.000000,-33.000000,26.000000,25.000000,-8.000000,17.000000,-10.000000
1305001.172390,-14.000000,-27.000000,-46.000000,42.000000,-19.000000,-51.000000,-40.000000,9.000000
1305001.179677,-22.000000,-55.000000,15.000000,-16.000000,5.000000,41.000000,46.000000,-25.000000
1305001.179706,10.000000,-35.000000,-19.000000,32.000000,36.000000,-5.000000,-28.000000,-23.000000
1305001.194932,41.000000,127.000000,114.000000,28.000000,-43.000000,16.000000,-94.000000,16.000000
1305001.194942,-67.000000,7.000000,-14.000000,-1.000000,2.000000,-26.000000,-26.000000,-34.000000
1305001.201868,10.000000,7.000000,51.000000,11.000000,70.000000,84.000000,26.000000,3.000000
1305001.201886,39.000000,11.000000,-15.000000,-3.000000,-51.000000,-22.000000,123.000000,109.000000
1305001.210055,39.000000,-82.000000,16.000000,-6.000000,-7.000000,-32.000000,-36.000000,-15.000000
1305001.210087,-7.000000,12.000000,45.000000,38.000000,68.000000,23.000000,53.000000,19.000000
1305001.217256,-24.000000,-61.000000,19.000000,-116.000000,-114.000000,-12.000000,7.000000,-10.000000
1305001.217304,-90.000000,46.000000,67.000000,106.000000,105.000000,-3.000000,-128.000000,-92.000000
1305001.231768,127.000000,44.000000,-39.000000,-128.000000,-114.000000,63.000000,114.000000,77.000000
1305001.231788,-28.000000,-128.000000,-54.000000,30.000000,39.000000,-14.000000,10.000000,-4.000000
1305001.239304,-128.000000,-128.000000,-31.000000,6.000000,-39.000000,-101.000000,-79.000000,-88.000000
1305001.239315,-70.000000,-92.000000,-48.000000,-8.000000,17.000000,11.000000,-41.000000,-46.000000
1305001.254415,90.000000,-54.000000,-8.000000,-26.000000,19.000000,20.000000,33.000000,39.000000
1305001.254446,-37.000000,-48.000000,-11.000000,8.000000,-39.000000,-78.000000,-71.000000,-32.000000
1305001.261686,-117.000000,-64.000000,41.000000,5.000000,11.000000,54.000000,-5.000000,-16.000000
1305001.261696,92.000000,19.000000,0.000000,50.000000,68.000000,-22.000000,-120.000000,12.000000
1305001.277133,-5.000000,59.000000,3.000000,-128.000000,-128.000000,40.000000,51.000000,45.000000
1305001.277142,-20.000000,-53.000000,26.000000,20.000000,-14.000000,-21.000000,-14.000000,-21.000000
1305001.277924,-36.000000,-13.000000,43.000000,91.000000,111.000000,6.000000,-44.000000,-6.000000
1305001.277932,121.000000,-7.000000,-32.000000,-60.000000,-50.000000,30.000000,75.000000,37.000000
1305001.291979,4.000000,66.000000,127.000000,51.000000,37.000000,-32.000000,-41.000000,-11.000000
1305001.291990,-128.000000,-12.000000,40.000000,-56.000000,-128.000000,30.000000,127.000000,-24.000000
1305001.299793,127.000000,-128.000000,-93.000000,52.000000,60.000000,-2.000000,-35.000000,75.000000
1305001.299803,53.000000,56.000000,-13.000000,-104.000000,-113.000000,32.000000,127.000000,24.000000
1305001.321564,14.000000,51.000000,-93.000000,8.000000,14.000000,1.000000,60.000000,23.000000
1305001.321583,-62.000000,-128.000000,37.000000,127.000000,127.000000,-107.000000,-128.000000,-67.000000
1305001.329079,14.000000,127.000000,89.000000,-128.000000,-80.000000,39.000000,-17.000000,-15.000000
1305001.329090,16.000000,-53.000000,-57.000000,34.000000,43.000000,6.000000,-56.000000,8.000000
1305001.336994,-7.000000,-96.000000,-91.000000,17.000000,12.000000,-48.000000,-16.000000,-18.000000
1305001.337004,-55.000000,-16.000000,0.000000,-11.000000,-32.000000,3.000000,-14.000000,-29.000000
1305001.344432,-67.000000,0.000000,20.000000,1.000000,44.000000,-7.000000,-98.000000,-79.000000
1305001.344443,127.000000,101.000000,19.000000,-65.000000,-86.000000,28.000000,68.000000,55.000000
1305001.359233,-6.000000,77.000000,13.000000,-48.000000,45.000000,7.000000,-106.000000,-7.000000
1305001.359262,-9.000000,45.000000,55.000000,45.000000,-3.000000,-22.000000,117.000000,26.000000
1305001.366654,-91.000000,-128.000000,10.000000,-34.000000,-44.000000,-20.000000,97.000000,4.000000
1305001.366664,59.000000,-23.000000,28.000000,-128.000000,-70.000000,-1.000000,-128.000000,-35.000000
1305001.374538,-54.000000,-128.000000,5.000000,36.000000,-15.000000,69.000000,89.000000,12.000000
1305001.374549,34.000000,79.000000,-2.000000,47.000000,47.000000,-38.000000,-13.000000,-6.000000
1305001.381963,93.000000,4.000000,-83.000000,-108.000000,-94.000000,-60.000000,-44.000000,15.000000
1305001.381974,-66.000000,-58.000000,67.000000,46.000000,9.000000,-29.000000,-74.000000,-51.000000
1305001.419480,17.000000,-39.000000,-107.000000,-11.000000,-20.000000,2.000000,45.000000,64.000000
1305001.419491,54.000000,127.000000,127.000000,-56.000000,-42.000000,87.000000,64.000000,39.000000
1305001.434214,31.000000,-17.000000,-128.000000,-9.000000,13.000000,-28.000000,-51.000000,-29.000000
1305001.434225,-63.000000,-87.000000,-26.000000,-30.000000,-31.000000,-20.000000,-40.000000,-17.000000
1305001.435268,-4.000000,-93.000000,-6.000000,41.000000,14.000000,0.000000,23.000000,13.000000
1305001.435277,-56.000000,-84.000000,-45.000000,19.000000,18.000000,3.000000,25.000000,24.000000
1305001.435871,33.000000,127.000000,22.000000,46.000000,69.000000,42.000000,-20.000000,-15.000000
1305001.435880,33.000000,37.000000,-11.000000,-125.000000,-128.000000,-38.000000,35.000000,1.000000
1305001.437756,-10.000000,-34.000000,12.000000,29.000000,3.000000,-49.000000,-48.000000,-11.000000
1305001.437768,-9.000000,-7.000000,6.000000,-10.000000,2.000000,20.000000,9.000000,-20.000000
1305001.441846,-110.000000,-26.000000,58.000000,-32.000000,-51.000000,10.000000,-92.000000,-38.000000
1305001.441855,115.000000,7.000000,127.000000,100.000000,20.000000,91.000000,127.000000,44.000000
1305001.471841,-94.000000,-117.000000,-39.000000,-128.000000,-128.000000,-28.000000,127.000000,34.000000
1305001.471851,29.000000,-81.000000,-57.000000,-17.000000,6.000000,-28.000000,-113.000000,-55.000000
1305001.479715,101.000000,127.000000,47.000000,17.000000,10.000000,12.000000,26.000000,14.000000
1305001.479728,-128.000000,-122.000000,-34.000000,35.000000,42.000000,-24.000000,-51.000000,-53.000000
1305001.509341,-15.000000,127.000000,-24.000000,-13.000000,-21.000000,8.000000,-32.000000,-9.000000
1305001.509379,127.000000,127.000000,51.000000,-65.000000,-33.000000,18.000000,102.000000,78.000000
1305001.516859,-43.000000,16.000000,-60.000000,27.000000,46.000000,-22.000000,-97.000000,-48.000000
1305001.516889,12.000000,35.000000,86.000000,47.000000,-15.000000,97.000000,127.000000,81.000000
1305001.532319,1.000000,4.000000,-128.000000,-26.000000,17.000000,-2.000000,30.000000,16.000000
1305001.532338,-59.000000,98.000000,14.000000,-29.000000,-60.000000,-78.000000,-53.000000,-65.000000
1305001.532801,-1.000000,44.000000,-63.000000,62.000000,21.000000,-34.000000,-52.000000,-8.000000
1305001.532828,37.000000,41.000000,127.000000,-128.000000,-111.000000,31.000000,56.000000,21.000000
1305001.534217,12.000000,127.000000,26.000000,-21.000000,-24.000000,-16.000000,63.000000,51.000000
1305001.534244,19.000000,-61.000000,29.000000,92.000000,110.000000,3.000000,-78.000000,-40.000000
1305001.535924,-96.000000,-74.000000,-32.000000,-5.000000,-23.000000,-5.000000,10.000000,-10.000000
1305001.535937,-21.000000,18.000000,98.000000,-56.000000,-49.000000,-63.000000,-68.000000,-8.000000
1305001.539564,46.000000,-85.000000,-67.000000,67.000000,64.000000,-10.000000,-1.000000,-5.000000
1305001.539593,11.000000,127.000000,74.000000,70.000000,73.000000,6.000000,20.000000,11.000000
1305001.554821,-53.000000,-16.000000,24.000000,-33.000000,-22.000000,-26.000000,-37.000000,-23.000000
1305001.554843,20.000000,-93.000000,-21.000000,-40.000000,-21.000000,49.000000,24.000000,-27.000000
1305001.576824,10.000000,10.000000,-9.000000,21.000000,46.000000,-1.000000,13.000000,11.000000
1305001.576834,-47.000000,-73.000000,9.000000,28.000000,26.000000,-71.000000,-128.000000,-65.000000
1305001.599169,43.000000,43.000000,-83.000000,0.000000,-2.000000,102.000000,49.000000,8.000000
1305001.599187,-5.000000,-49.000000,18.000000,40.000000,-11.000000,-39.000000,83.000000,32.000000
1305001.614519,0.000000,22.000000,40.000000,-128.000000,-128.000000,-5.000000,-92.000000,-13.000000
1305001.614531,-14.000000,21.000000,48.000000,45.000000,56.000000,35.000000,86.000000,29.000000
1305001.637346,-36.000000,4.000000,-128.000000,-39.000000,-17.000000,-24.000000,-108.000000,-40.000000
1305001.637394,66.000000,98.000000,31.000000,105.000000,54.000000,29.000000,100.000000,26.000000
1305001.638174,-4.000000,-128.000000,-48.000000,-4.000000,53.000000,-5.000000,-70.000000,-45.000000
1305001.638189,5.000000,78.000000,41.000000,15.000000,20.000000,-4.000000,55.000000,12.000000
1305001.639190,-69.000000,23.000000,-126.000000,3.000000,23.000000,-38.000000,-116.000000,-44.000000
1305001.639208,16.000000,21.000000,98.000000,-49.000000,-53.000000,60.000000,-5.000000,5.000000
1305001.639760,-71.000000,-44.000000,10.000000,67.000000,4.000000,-123.000000,-26.000000,-26.000000
1305001.639787,98.000000,23.000000,-60.000000,-41.000000,-35.000000,96.000000,73.000000,36.000000
1305001.652576,127.000000,127.000000,-88.000000,-37.000000,-37.000000,-29.000000,38.000000,62.000000
1305001.652593,19.000000,-29.000000,32.000000,14.000000,-7.000000,-13.000000,-20.000000,12.000000
1305001.659246,-20.000000,-12.000000,38.000000,-11.000000,-46.000000,-20.000000,59.000000,10.000000
1305001.659256,-31.000000,-71.000000,-30.000000,44.000000,54.000000,3.000000,-84.000000,-32.000000
1305001.674933,52.000000,-39.000000,4.000000,-3.000000,15.000000,19.000000,-17.000000,11.000000
1305001.674950,-32.000000,-43.000000,-27.000000,-108.000000,-74.000000,-16.000000,-55.000000,-14.000000
1305001.681740,-116.000000,-108.000000,41.000000,95.000000,117.000000,48.000000,75.000000,-34.000000
1305001.681750,107.000000,25.000000,12.000000,-45.000000,-74.000000,24.000000,79.000000,65.000000
1305001.696684,-6.000000,33.000000,11.000000,20.000000,-20.000000,-10.000000,-44.000000,12.000000
1305001.696712,6.000000,42.000000,-57.000000,-6.000000,-10.000000,-7.000000,-5.000000,-6.000000
1305001.712046,-31.000000,-37.000000,-100.000000,53.000000,56.000000,-31.000000,15.000000,0.000000
1305001.712058,9.000000,-128.000000,41.000000,-31.000000,-37.000000,-89.000000,-44.000000,-11.000000
1305001.726921,33.000000,-75.000000,-22.000000,62.000000,36.000000,75.000000,127.000000,54.000000
1305001.726932,49.000000,54.000000,-22.000000,16.000000,56.000000,109.000000,84.000000,33.000000
1305001.734162,35.000000,34.000000,96.000000,-12.000000,1.000000,-47.000000,-33.000000,6.000000
1305001.734182,-128.000000,-65.000000,-21.000000,38.000000,-31.000000,-54.000000,-93.000000,-73.000000
1305001.756909,80.000000,26.000000,-8.000000,-67.000000,-46.000000,41.000000,-3.000000,51.000000
1305001.756921,14.000000,2.000000,-5.000000,-4.000000,-13.000000,-33.000000,-7.000000,-27.000000
1305001.757431,-52.000000,-8.000000,31.000000,79.000000,127.000000,0.000000,-94.000000,-30.000000
1305001.757470,67.000000,-43.000000,-91.000000,10.000000,14.000000,13.000000,120.000000,35.000000
1305001.759033,-108.000000,28.000000,61.000000,-11.000000,1.000000,-51.000000,-121.000000,-53.000000
1305001.759044,127.000000,-128.000000,-23.000000,-1.000000,30.000000,51.000000,71.000000,68.000000
1305001.764371,-46.000000,22.000000,-24.000000,10.000000,2.000000,-33.000000,13.000000,1.000000
1305001.764381,-3.000000,75.000000,-30.000000,-23.000000,-30.000000,-40.000000,-22.000000,-14.000000
1305001.771795,52.000000,-57.000000,-12.000000,-35.000000,-10.000000,30.000000,72.000000,22.000000
1305001.771814,-70.000000,-3.000000,-7.000000,-27.000000,-18.000000,-13.000000,10.000000,-5.000000
1305001.794204,7.000000,20.000000,-7.000000,53.000000,21.000000,19.000000,-16.000000,7.000000
1305001.794215,7.000000,44.000000,14.000000,-128.000000,-117.000000,29.000000,57.000000,11.000000
1305001.795701,-57.000000,-128.000000,-96.000000,34.000000,36.000000,-37.000000,-35.000000,-21.000000
1305001.795710,-39.000000,-60.000000,49.000000,5.000000,5.000000,-38.000000,-44.000000,-41.000000
1305001.809328,94.000000,-19.000000,-128.000000,-22.000000,-5.000000,19.000000,-3.000000,61.000000
1305001.809338,-87.000000,-128.000000,66.000000,63.000000,40.000000,-16.000000,-26.000000,-36.000000
1305001.832134,-128.000000,32.000000,67.000000,-59.000000,-51.000000,15.000000,-19.000000,-22.000000
1305001.832144,123.000000,127.000000,-5.000000,4.000000,-13.000000,-21.000000,-29.000000,53.000000
1305001.854944,11.000000,-33.000000,25.000000,115.000000,127.000000,75.000000,-58.000000,9.000000
1305001.854968,85.000000,127.000000,-49.000000,-43.000000,-75.000000,29.000000,127.000000,53.000000
1305001.869936,-94.000000,-128.000000,-33.000000,-5.000000,-9.000000,-31.000000,-32.000000,-40.000000
1305001.869994,34.000000,127.000000,49.000000,57.000000,19.000000,-22.000000,-40.000000,-16.000000
1305001.870816,-59.000000,-128.000000,-33.000000,-22.000000,-12.000000,-8.000000,-26.000000,-18.000000
1305001.870836,-66.000000,-2.000000,20.000000,-21.000000,7.000000,-41.000000,-52.000000,-19.000000
1305001.872020,22.000000,51.000000,11.000000,12.000000,20.000000,65.000000,93.000000,13.000000
1305001.872047,76.000000,-44.000000,-1.000000,-39.000000,-9.000000,91.000000,118.000000,12.000000
1305001.872491,27.000000,-128.000000,-26.000000,22.000000,33.000000,-10.000000,-81.000000,14.000000
1305001.872499,-53.000000,-46.000000,-1.000000,71.000000,47.000000,28.000000,-19.000000,-34.000000
1305001.873291,-100.000000,-39.000000,-17.000000,-93.000000,-18.000000,74.000000,-14.000000,-4.000000
1305001.873318,89.000000,110.000000,-16.000000,-11.000000,-53.000000,21.000000,59.000000,13.000000
1305001.884668,-20.000000,-92.000000,-62.000000,-64.000000,24.000000,18.000000,-21.000000,-25.000000
1305001.884688,90.000000,127.000000,53.000000,-15.000000,-1.000000,-7.000000,-32.000000,-1.000000
1305001.891946,-61.000000,-19.000000,-31.000000,40.000000,12.000000,-54.000000,-32.000000,-32.000000
1305001.891957,15.000000,-117.000000,-50.000000,-23.000000,-10.000000,31.000000,73.000000,15.000000
1305001.906862,-18.000000,-85.000000,108.000000,79.000000,53.000000,-3.000000,-53.000000,-20.000000
1305001.906872,11.000000,-6.000000,4.000000,-44.000000,7.000000,54.000000,-48.000000,2.000000
1305001.914307,-7.000000,-128.000000,6.000000,5.000000,-17.000000,-12.000000,46.000000,-1.000000
1305001.914324,28.000000,3.000000,-88.000000,13.000000,0.000000,46.000000,51.000000,41.000000
1305001.921883,-45.000000,-89.000000,-10.000000,17.000000,16.000000,-27.000000,-15.000000,-21.000000
1305001.921911,-21.000000,35.000000,87.000000,10.000000,41.000000,49.000000,43.000000,-21.000000
1305001.936765,-42.000000,-90.000000,-69.000000,-23.000000,-17.000000,2.000000,-5.000000,-11.000000
1305001.936774,40.000000,-4.000000,-3.000000,68.000000,62.000000,-28.000000,-20.000000,5.000000
1305001.944494,-45.000000,-128.000000,24.000000,-105.000000,-50.000000,26.000000,-45.000000,-11.000000
1305001.944505,122.000000,90.000000,105.000000,85.000000,122.000000,32.000000,2.000000,38.000000
1305001.974243,-25.000000,-128.000000,-38.000000,-23.000000,-31.000000,26.000000,12.000000,-12.000000
1305001.974272,43.000000,36.000000,68.000000,74.000000,69.000000,-7.000000,-36.000000,8.000000
1305001.989587,18.000000,-93.000000,-11.000000,-128.000000,-99.000000,2.000000,-66.000000,4.000000
1305001.989597,-63.000000,-34.000000,33.000000,-59.000000,-107.000000,-39.000000,127.000000,21.000000
1305002.026929,36.000000,-36.000000,-14.000000,127.000000,125.000000,53.000000,0.000000,-19.000000
1305002.026941,-1.000000,-10.000000,11.000000,-47.000000,-42.000000,20.000000,74.000000,52.000000
1305002.027496,-69.000000,-128.000000,-120.000000,-15.000000,-99.000000,-83.000000,-34.000000,-49.000000
1305002.027505,88.000000,-38.000000,35.000000,-8.000000,-5.000000,-10.000000,10.000000,34.000000
1305002.028373,-72.000000,-128.000000,-54.000000,1.000000,18.000000,31.000000,30.000000,29.000000
1305002.028381,19.000000,127.000000,57.000000,88.000000,71.000000,-3.000000,-34.000000,2.000000
1305002.029039,68.000000,-23.000000,82.000000,-62.000000,-52.000000,29.000000,1.000000,30.000000
1305002.029047,-5.000000,-41.000000,-50.000000,-5.000000,-52.000000,-101.000000,20.000000,-9.000000
1305002.030958,-19.000000,-64.000000,76.000000,-13.000000,7.000000,47.000000,65.000000,25.000000
1305002.030969,66.000000,127.000000,59.000000,111.000000,96.000000,12.000000,-4.000000,10.000000
1305002.034494,-27.000000,111.000000,27.000000,36.000000,35.000000,-2.000000,-110.000000,-24.000000
1305002.034505,-5.000000,127.000000,15.000000,8.000000,-1.000000,-4.000000,41.000000,12.000000
1305002.041901,16.000000,-46.000000,-10.000000,34.000000,18.000000,-18.000000,-29.000000,-2.000000
1305002.041912,-128.000000,-49.000000,33.000000,16.000000,16.000000,30.000000,55.000000,4.000000
1305002.071753,119.000000,1.000000,10.000000,-27.000000,0.000000,-22.000000,-23.000000,10.000000
1305002.071764,45.000000,127.000000,83.000000,-38.000000,-41.000000,36.000000,19.000000,1.000000
1305002.079489,-18.000000,-96.000000,-62.000000,56.000000,69.000000,11.000000,32.000000,11.000000
1305002.079500,-20.000000,-39.000000,-3.000000,30.000000,-38.000000,-68.000000,38.000000,-22.000000
1305002.094401,23.000000,-56.000000,-22.000000,-48.000000,-27.000000,7.000000,-47.000000,5.000000
1305002.094430,-23.000000,-53.000000,-32.000000,-18.000000,-10.000000,18.000000,-18.000000,-27.000000
1305002.109352,-23.000000,84.000000,-11.000000,20.000000,-9.000000,-32.000000,38.000000,18.000000
1305002.109425,-74.000000,-119.000000,-26.000000,119.000000,69.000000,-55.000000,-100.000000,-73.000000
1305002.110529,75.000000,127.000000,82.000000,-128.000000,-87.000000,-4.000000,23.000000,69.000000
1305002.110538,-35.000000,102.000000,43.000000,-65.000000,-9.000000,63.000000,127.000000,17.000000
1305002.111068,82.000000,10.000000,69.000000,38.000000,-10.000000,-4.000000,48.000000,39.000000
1305002.111080,-11.000000,127.000000,-128.000000,10.000000,-41.000000,-53.000000,-39.000000,-6.000000
1305002.112880,-8.000000,-44.000000,18.000000,21.000000,20.000000,-1.000000,-46.000000,-13.000000
1305002.112906,29.000000,-39.000000,39.000000,41.000000,13.000000,-29.000000,-23.000000,13.000000
1305002.131815,7.000000,-85.000000,-49.000000,-75.000000,-90.000000,26.000000,30.000000,-2.000000
1305002.131853,56.000000,127.000000,78.000000,58.000000,23.000000,15.000000,42.000000,29.000000
1305002.132944,-13.000000,36.000000,-28.000000,17.000000,4.000000,-46.000000,91.000000,-1.000000
1305002.132971,7.000000,127.000000,-11.000000,3.000000,-8.000000,16.000000,-24.000000,-13.000000
1305002.146797,-128.000000,-66.000000,45.000000,25.000000,-6.000000,-46.000000,-73.000000,-28.000000
1305002.146813,127.000000,127.000000,50.000000,-68.000000,-43.000000,11.000000,-24.000000,35.000000
1305002.154505,-64.000000,-93.000000,-39.000000,-6.000000,-2.000000,-19.000000,12.000000,-25.000000
1305002.154534,-25.000000,-128.000000,26.000000,42.000000,37.000000,15.000000,23.000000,-16.000000
1305002.161606,19.000000,48.000000,52.000000,-38.000000,-28.000000,-13.000000,39.000000,71.000000
1305002.161615,9.000000,68.000000,25.000000,26.000000,44.000000,15.000000,101.000000,38.000000
1305002.191873,-47.000000,-9.000000,62.000000,54.000000,53.000000,45.000000,-39.000000,-23.000000
1305002.191892,14.000000,-28.000000,-61.000000,-38.000000,7.000000,-26.000000,-51.000000,-10.000000
1305002.206903,-16.000000,-51.000000,-59.000000,-128.000000,-121.000000,-12.000000,9.000000,-27.000000
1305002.206914,-2.000000,-52.000000,-2.000000,37.000000,32.000000,-26.000000,14.000000,11.000000
1305002.230215,-17.000000,62.000000,22.000000,4.000000,71.000000,88.000000,-10.000000,-26.000000
1305002.230244,10.000000,1.000000,-56.000000,-25.000000,-63.000000,-58.000000,46.000000,8.000000
1305002.230434,64.000000,-22.000000,22.000000,28.000000,27.000000,-16.000000,28.000000,35.000000
1305002.230441,-27.000000,127.000000,18.000000,16.000000,-35.000000,-23.000000,-16.000000,-8.000000
1305002.231032,33.000000,44.000000,-14.000000,-4.000000,8.000000,12.000000,5.000000,-5.000000
1305002.231040,-75.000000,-12.000000,-63.000000,-8.000000,20.000000,4.000000,2.000000,-20.000000
1305002.231693,-43.000000,-128.000000,-34.000000,28.000000,15.000000,-47.000000,-34.000000,2.000000
1305002.231704,127.000000,127.000000,103.000000,-128.000000,-128.000000,44.000000,112.000000,86.000000
1305002.233156,15.000000,37.000000,-21.000000,29.000000,27.000000,45.000000,32.000000,10.000000
1305002.233165,17.000000,26.000000,-46.000000,45.000000,18.000000,1.000000,-22.000000,-5.000000
1305002.251892,-38.000000,-71.000000,-19.000000,63.000000,29.000000,-57.000000,-128.000000,-56.000000
1305002.251912,-19.000000,-128.000000,-32.000000,-54.000000,-80.000000,65.000000,127.000000,33.000000
1305002.267105,82.000000,127.000000,23.000000,-7.000000,-28.000000,5.000000,127.000000,69.000000
1305002.267114,-29.000000,26.000000,25.000000,-10.000000,-1.000000,-37.000000,-35.000000,-34.000000
1305002.267754,3.000000,-88.000000,-53.000000,-25.000000,-2.000000,-66.000000,-30.000000,-7.000000
1305002.267761,-128.000000,-128.000000,21.000000,23.000000,58.000000,23.000000,-83.000000,-50.000000
1305002.274618,127.000000,30.000000,-32.000000,-128.000000,-128.000000,12.000000,127.000000,82.000000
1305002.274629,-16.000000,-102.000000,-26.000000,-2.000000,-37.000000,-31.000000,4.000000,15.000000
1305002.311784,2.000000,5.000000,16.000000,12.000000,9.000000,48.000000,24.000000,1.000000
1305002.311795,2.000000,-127.000000,-6.000000,37.000000,59.000000,-26.000000,-52.000000,-26.000000
1305002.349338,40.000000,127.000000,96.000000,-33.000000,-36.000000,-47.000000,-14.000000,11.000000
1305002.349351,14.000000,-128.000000,-39.000000,1.000000,15.000000,75.000000,-29.000000,1.000000
1305002.349681,-16.000000,11.000000,-7.000000,91.000000,54.000000,-60.000000,-40.000000,-18.000000
1305002.349691,5.000000,-10.000000,79.000000,8.000000,29.000000,26.000000,22.000000,8.000000
1305002.350991,-128.000000,-128.000000,-122.000000,-18.000000,-25.000000,-55.000000,-82.000000,-59.000000
1305002.351001,119.000000,127.000000,51.000000,25.000000,30.000000,15.000000,97.000000,59.000000
1305002.351588,-29.000000,-40.000000,-7.000000,12.000000,11.000000,18.000000,-41.000000,-33.000000
1305002.351597,-69.000000,-82.000000,0.000000,4.000000,26.000000,-23.000000,-75.000000,-36.000000
1305002.353560,-51.000000,-90.000000,18.000000,-10.000000,8.000000,19.000000,51.000000,-13.000000
1305002.353573,-2.000000,100.000000,-49.000000,12.000000,24.000000,18.000000,29.000000,-28.000000
1305002.364620,-27.000000,-45.000000,63.000000,-43.000000,-21.000000,-14.000000,-27.000000,-2.000000
1305002.364634,-45.000000,-128.000000,-7.000000,39.000000,30.000000,-78.000000,-105.000000,-39.000000
1305002.371882,-123.000000,-90.000000,-34.000000,-86.000000,-19.000000,101.000000,25.000000,-4.000000
1305002.371895,61.000000,127.000000,127.000000,3.000000,-17.000000,-47.000000,-128.000000,-39.000000
1305002.386844,8.000000,-98.000000,-86.000000,-25.000000,-37.000000,3.000000,-93.000000,4.000000
1305002.386858,-35.000000,-128.000000,-36.000000,29.000000,24.000000,-2.000000,127.000000,38.000000
1305002.394075,-2.000000,39.000000,6.000000,-5.000000,1.000000,2.000000,-20.000000,0.000000
1305002.394084,-50.000000,-128.000000,-9.000000,-23.000000,-39.000000,-80.000000,-128.000000,-51.000000
1305002.401760,-5.000000,127.000000,-2.000000,24.000000,31.000000,65.000000,46.000000,5.000000
1305002.401789,25.000000,3.000000,-8.000000,38.000000,39.000000,-27.000000,48.000000,25.000000
1305002.424415,4.000000,62.000000,43.000000,-9.000000,-2.000000,1.000000,22.000000,28.000000
1305002.424435,17.000000,-84.000000,40.000000,15.000000,47.000000,58.000000,87.000000,43.000000
1305002.431834,37.000000,-12.000000,34.000000,98.000000,59.000000,13.000000,-64.000000,-49.000000
1305002.431856,-3.000000,14.000000,43.000000,6.000000,-9.000000,-54.000000,-73.000000,-45.000000
1305002.446756,-9.000000,73.000000,30.000000,42.000000,19.000000,-69.000000,-54.000000,-32.000000
1305002.446766,-9.000000,127.000000,97.000000,6.000000,20.000000,25.000000,69.000000,3.000000
1305002.461950,127.000000,107.000000,-58.000000,0.000000,-17.000000,21.000000,72.000000,59.000000
1305002.461961,-7.000000,75.000000,67.000000,39.000000,41.000000,-4.000000,7.000000,18.000000
1305002.469839,86.000000,-48.000000,-37.000000,-113.000000,-69.000000,16.000000,4.000000,52.000000
1305002.469858,-33.000000,-128.000000,-4.000000,84.000000,69.000000,-1.000000,-112.000000,-63.000000
1305002.470492,-25.000000,43.000000,-31.000000,-14.000000,-49.000000,-70.000000,91.000000,49.000000
1305002.470503,13.000000,127.000000,-20.000000,43.000000,19.000000,5.000000,-83.000000,-58.000000
1305002.471914,-69.000000,-128.000000,-46.000000,78.000000,79.000000,-9.000000,13.000000,-19.000000
1305002.471933,69.000000,-24.000000,92.000000,-39.000000,11.000000,26.000000,-22.000000,18.000000
1305002.484183,-101.000000,114.000000,-46.000000,-2.000000,-11.000000,-41.000000,56.000000,-5.000000
1305002.484200,68.000000,113.000000,-7.000000,27.000000,14.000000,58.000000,16.000000,-17.000000
1305002.491633,-42.000000,-62.000000,-24.000000,53.000000,48.000000,-41.000000,-52.000000,-40.000000
1305002.491643,15.000000,-128.000000,-112.000000,-42.000000,-9.000000,2.000000,30.000000,24.000000
1305002.506820,-41.000000,19.000000,17.000000,18.000000,17.000000,-30.000000,-31.000000,-37.000000
1305002.506843,-68.000000,-128.000000,-32.000000,22.000000,5.000000,-27.000000,-82.000000,-50.000000
1305002.529266,71.000000,127.000000,-9.000000,4.000000,-26.000000,-14.000000,24.000000,51.000000
1305002.529277,-18.000000,-39.000000,-9.000000,-17.000000,-21.000000,-10.000000,20.000000,-7.000000
1305002.544286,-39.000000,-55.000000,-18.000000,-124.000000,-104.000000,1.000000,-26.000000,-8.000000
1305002.544308,22.000000,23.000000,-6.000000,-21.000000,-4.000000,48.000000,86.000000,17.000000
1305002.566694,-99.000000,-43.000000,-44.000000,20.000000,-18.000000,-45.000000,-45.000000,-32.000000
1305002.566705,111.000000,127.000000,40.000000,32.000000,38.000000,-24.000000,-94.000000,14.000000
1305002.581890,-95.000000,-53.000000,79.000000,-45.000000,-15.000000,79.000000,89.000000,24.000000
1305002.581902,54.000000,2.000000,-32.000000,44.000000,-4.000000,-31.000000,9.000000,-9.000000
1305002.596884,-48.000000,-128.000000,-93.000000,10.000000,38.000000,-20.000000,-23.000000,7.000000
1305002.596896,44.000000,127.000000,125.000000,-42.000000,-5.000000,37.000000,17.000000,14.000000
1305002.604900,-34.000000,-128.000000,-65.000000,-31.000000,-25.000000,-50.000000,-57.000000,-33.000000
1305002.604912,-45.000000,-39.000000,-74.000000,10.000000,20.000000,11.000000,3.000000,-5.000000
1305002.605408,-54.000000,-16.000000,11.000000,114.000000,67.000000,-27.000000,-20.000000,-7.000000
1305002.605419,104.000000,11.000000,36.000000,-73.000000,-26.000000,60.000000,-31.000000,58.000000
1305002.605988,-26.000000,-128.000000,-50.000000,7.000000,52.000000,61.000000,37.000000,-10.000000
1305002.605999,29.000000,83.000000,-128.000000,-7.000000,2.000000,-11.000000,25.000000,13.000000
1305002.606660,65.000000,-125.000000,67.000000,-76.000000,-58.000000,8.000000,-37.000000,10.000000
1305002.606671,-11.000000,113.000000,37.000000,3.000000,9.000000,-7.000000,28.000000,4.000000
1305002.612057,-45.000000,-114.000000,-97.000000,64.000000,59.000000,-30.000000,-40.000000,-37.000000
1305002.612121,-40.000000,-74.000000,-23.000000,-72.000000,-37.000000,33.000000,22.000000,28.000000
1305002.619481,49.000000,12.000000,16.000000,10.000000,-11.000000,13.000000,20.000000,10.000000
1305002.619492,-30.000000,-60.000000,-33.000000,16.000000,13.000000,16.000000,8.000000,1.000000
1305002.641992,-101.000000,-38.000000,65.000000,127.000000,86.000000,-51.000000,-103.000000,-59.000000
1305002.642010,127.000000,127.000000,87.000000,-128.000000,-84.000000,71.000000,106.000000,80.000000
1305002.649283,40.000000,3.000000,-27.000000,44.000000,73.000000,6.000000,-30.000000,12.000000
1305002.649293,-51.000000,16.000000,-32.000000,63.000000,35.000000,-67.000000,-100.000000,-52.000000
1305002.686838,-26.000000,-128.000000,46.000000,-113.000000,-118.000000,27.000000,-15.000000,-45.000000
1305002.686849,8.000000,-29.000000,15.000000,39.000000,61.000000,79.000000,84.000000,62.000000
1305002.701979,86.000000,-60.000000,-128.000000,35.000000,19.000000,-78.000000,-13.000000,1.000000
1305002.701989,-3.000000,39.000000,39.000000,-68.000000,-21.000000,54.000000,-58.000000,-15.000000
1305002.716666,6.000000,51.000000,54.000000,-2.000000,-39.000000,50.000000,102.000000,5.000000
1305002.716715,-42.000000,51.000000,-42.000000,50.000000,11.000000,-29.000000,-61.000000,-40.000000
1305002.717152,24.000000,88.000000,34.000000,15.000000,-41.000000,-89.000000,-48.000000,11.000000
1305002.717190,-14.000000,-14.000000,-81.000000,-55.000000,-5.000000,54.000000,80.000000,24.000000
1305002.718417,-21.000000,127.000000,-5.000000,6.000000,-39.000000,-37.000000,-8.000000,-42.000000
1305002.718425,-68.000000,-77.000000,4.000000,38.000000,25.000000,-33.000000,-35.000000,-14.000000
1305002.719259,0.000000,-89.000000,-14.000000,-64.000000,-21.000000,42.000000,-50.000000,11.000000
1305002.719268,118.000000,108.000000,40.000000,-46.000000,-58.000000,10.000000,112.000000,36.000000
1305002.724258,94.000000,127.000000,43.000000,-69.000000,-40.000000,81.000000,127.000000,90.000000
1305002.724277,2.000000,-13.000000,-41.000000,27.000000,64.000000,-10.000000,-4.000000,19.000000
1305002.732297,-64.000000,45.000000,12.000000,28.000000,-4.000000,-39.000000,36.000000,-7.000000
1305002.732309,31.000000,82.000000,-11.000000,55.000000,-2.000000,-128.000000,-128.000000,-19.000000
1305002.746745,84.000000,127.000000,44.000000,-97.000000,-34.000000,127.000000,127.000000,66.000000
1305002.746755,-29.000000,-46.000000,60.000000,67.000000,61.000000,13.000000,28.000000,-12.000000
1305002.754220,-106.000000,-128.000000,-68.000000,-37.000000,-75.000000,-41.000000,-41.000000,-42.000000
1305002.754230,75.000000,23.000000,14.000000,-85.000000,-52.000000,10.000000,-56.000000,-13.000000
1305002.761774,4.000000,127.000000,23.000000,-9.000000,-26.000000,-27.000000,17.000000,-3.000000
1305002.761793,95.000000,-128.000000,-1.000000,18.000000,38.000000,53.000000,127.000000,87.000000
1305002.806938,-71.000000,-8.000000,-50.000000,38.000000,44.000000,-7.000000,-42.000000,-34.000000
1305002.806955,48.000000,30.000000,-41.000000,10.000000,13.000000,1.000000,-29.000000,0.000000
1305002.822615,-52.000000,127.000000,110.000000,-21.000000,-28.000000,-28.000000,-79.000000,-46.000000
1305002.822629,0.000000,-33.000000,-5.000000,83.000000,80.000000,-29.000000,-3.000000,5.000000
1305002.823529,0.000000,-39.000000,-1.000000,-128.000000,-109.000000,24.000000,23.000000,11.000000
1305002.823539,-41.000000,-121.000000,18.000000,14.000000,46.000000,3.000000,-25.000000,-23.000000
1305002.824136,-23.000000,-91.000000,38.000000,61.000000,25.000000,-15.000000,-31.000000,-26.000000
1305002.824164,-48.000000,-62.000000,35.000000,65.000000,0.000000,-70.000000,-91.000000,-57.000000
1305002.825440,114.000000,127.000000,70.000000,-126.000000,-89.000000,26.000000,8.000000,68.000000
1305002.825467,-128.000000,-107.000000,-66.000000,-14.000000,-62.000000,-55.000000,-14.000000,-49.000000
1305002.826412,106.000000,-66.000000,-38.000000,-6.000000,-21.000000,-30.000000,50.000000,40.000000
1305002.826439,-9.000000,-22.000000,35.000000,50.000000,40.000000,-30.000000,-43.000000,-20.000000
1305002.837663,-30.000000,-6.000000,2.000000,-6.000000,5.000000,-7.000000,-44.000000,-51.000000
1305002.837674,20.000000,-65.000000,-9.000000,35.000000,-5.000000,17.000000,-14.000000,10.000000
1305002.844700,52.000000,-101.000000,-8.000000,-3.000000,-22.000000,22.000000,100.000000,50.000000
1305002.844711,-7.000000,-48.000000,-86.000000,-1.000000,-6.000000,-12.000000,-16.000000,-15.000000
1305002.859407,-7.000000,101.000000,58.000000,-10.000000,-5.000000,-23.000000,-72.000000,-29.000000
1305002.859425,-25.000000,-98.000000,8.000000,17.000000,-50.000000,-17.000000,36.000000,11.000000
1305002.866696,6.000000,-79.000000,-58.000000,-31.000000,14.000000,23.000000,45.000000,17.000000
1305002.866706,-23.000000,-56.000000,-50.000000,-21.000000,-2.000000,-21.000000,-32.000000,5.000000
1305002.904277,-18.000000,80.000000,-87.000000,45.000000,-19.000000,-37.000000,-42.000000,-40.000000
1305002.904299,10.000000,18.000000,59.000000,4.000000,52.000000,77.000000,-13.000000,8.000000
1305002.926911,12.000000,127.000000,-20.000000,26.000000,-23.000000,-28.000000,-33.000000,-14.000000
1305002.926922,-24.000000,8.000000,2.000000,17.000000,25.000000,-18.000000,-86.000000,-23.000000
1305002.927847,40.000000,107.000000,67.000000,87.000000,57.000000,49.000000,42.000000,27.000000
1305002.927856,-3.000000,-44.000000,-71.000000,-63.000000,-56.000000,-37.000000,33.000000,18.000000
1305002.928487,-41.000000,-55.000000,82.000000,54.000000,55.000000,-13.000000,-48.000000,-60.000000
1305002.928515,23.000000,-9.000000,1.000000,-79.000000,-89.000000,8.000000,-7.000000,56.000000
1305002.929823,-15.000000,127.000000,82.000000,-20.000000,-1.000000,-26.000000,-23.000000,-18.000000
1305002.929832,33.000000,124.000000,38.000000,38.000000,-8.000000,-48.000000,-6.000000,8.000000
1305002.930703,26.000000,-35.000000,-15.000000,-18.000000,-25.000000,-7.000000,-17.000000,1.000000
1305002.930711,-115.000000,-16.000000,91.000000,127.000000,127.000000,10.000000,-10.000000,-32.000000
1305002.941883,98.000000,127.000000,-15.000000,-71.000000,-39.000000,76.000000,46.000000,48.000000
1305002.941894,-4.000000,-70.000000,-15.000000,42.000000,42.000000,1.000000,13.000000,-6.000000
1305002.942151,-8.000000,-78.000000,-13.000000,27.000000,34.000000,-16.000000,-30.000000,-14.000000
1305002.942159,-40.000000,32.000000,-65.000000,-7.000000,-11.000000,-68.000000,-16.000000,-16.000000
1305002.964130,56.000000,104.000000,18.000000,-2.000000,-22.000000,26.000000,0.000000,-9.000000
1305002.964159,-59.000000,-25.000000,2.000000,118.000000,103.000000,14.000000,-3.000000,-21.000000
1305002.965419,25.000000,127.000000,-32.000000,-55.000000,-61.000000,-6.000000,59.000000,31.000000
1305002.965446,37.000000,-31.000000,21.000000,27.000000,54.000000,38.000000,3.000000,14.000000
1305002.979300,-39.000000,-17.000000,71.000000,28.000000,18.000000,-15.000000,-14.000000,-17.000000
1305002.979310,-9.000000,-115.000000,3.000000,-22.000000,5.000000,35.000000,-62.000000,-15.000000
1305003.001841,-49.000000,24.000000,27.000000,47.000000,29.000000,-33.000000,-8.000000,17.000000
1305003.001856,20.000000,-91.000000,-6.000000,-123.000000,-68.000000,49.000000,8.000000,42.000000
1305003.016962,117.000000,127.000000,64.000000,-31.000000,14.000000,82.000000,121.000000,34.000000
1305003.016973,2.000000,127.000000,127.000000,39.000000,32.000000,-86.000000,-58.000000,-25.000000
1305003.046906,-72.000000,-128.000000,-13.000000,80.000000,38.000000,2.000000,-66.000000,1.000000
1305003.046917,25.000000,110.000000,25.000000,-128.000000,-105.000000,62.000000,62.000000,32.000000
1305003.061667,-18.000000,21.000000,46.000000,29.000000,32.000000,8.000000,59.000000,9.000000
1305003.061697,3.000000,-128.000000,-19.000000,22.000000,20.000000,-34.000000,-69.000000,-10.000000
1305003.062816,-59.000000,-26.000000,-34.000000,-17.000000,-52.000000,-14.000000,39.000000,-23.000000
1305003.062824,42.000000,127.000000,42.000000,-25.000000,17.000000,55.000000,15.000000,-1.000000
1305003.063576,-5.000000,-80.000000,-56.000000,-2.000000,8.000000,20.000000,-2.000000,9.000000
1305003.063585,-16.000000,-111.000000,-51.000000,39.000000,52.000000,19.000000,79.000000,28.000000
1305003.064932,54.000000,127.000000,14.000000,-1.000000,-20.000000,-15.000000,15.000000,19.000000
1305003.064941,-12.000000,56.000000,-15.000000,-9.000000,-32.000000,-35.000000,-9.000000,-6.000000
1305003.084251,-34.000000,-33.000000,-16.000000,-18.000000,-7.000000,28.000000,35.000000,-20.000000
1305003.084263,26.000000,108.000000,47.000000,38.000000,23.000000,12.000000,-7.000000,-2.000000
1305003.085506,0.000000,127.000000,-38.000000,-92.000000,-83.000000,-36.000000,23.000000,14.000000
1305003.085576,-2.000000,94.000000,-3.000000,15.000000,3.000000,-15.000000,-43.000000,-26.000000
1305003.099243,-28.000000,-106.000000,-35.000000,41.000000,47.000000,5.000000,4.000000,15.000000
1305003.099255,31.000000,6.000000,-71.000000,-39.000000,-29.000000,-2.000000,54.000000,53.000000
1305003.114580,-40.000000,-128.000000,34.000000,-69.000000,-69.000000,29.000000,-26.000000,-12.000000
1305003.114591,-33.000000,76.000000,-128.000000,0.000000,35.000000,-5.000000,-20.000000,-5.000000
1305003.121941,24.000000,-35.000000,-14.000000,1.000000,-39.000000,-15.000000,59.000000,3.000000
1305003.121951,-22.000000,22.000000,20.000000,29.000000,61.000000,10.000000,-41.000000,-13.000000
1305003.144283,35.000000,-30.000000,19.000000,-25.000000,-73.000000,-64.000000,-26.000000,16.000000
1305003.144303,-4.000000,127.000000,-32.000000,0.000000,25.000000,39.000000,-11.000000,2.000000
1305003.151982,-18.000000,-128.000000,-19.000000,64.000000,52.000000,-14.000000,-22.000000,-21.000000
1305003.152014,52.000000,127.000000,22.000000,-128.000000,-91.000000,-18.000000,22.000000,-16.000000
1305003.181567,30.000000,-30.000000,73.000000,40.000000,55.000000,78.000000,-33.000000,6.000000
1305003.181581,-18.000000,-103.000000,-31.000000,2.000000,18.000000,-48.000000,-122.000000,-27.000000
1305003.182199,-3.000000,-50.000000,-6.000000,-29.000000,-79.000000,8.000000,46.000000,7.000000
1305003.182219,4.000000,127.000000,65.000000,24.000000,12.000000,-39.000000,-43.000000,-3.000000
1305003.183393,-48.000000,-73.000000,0.000000,3.000000,8.000000,-41.000000,53.000000,-17.000000
1305003.183401,4.000000,102.000000,-66.000000,75.000000,13.000000,-49.000000,-89.000000,-24.000000
1305003.184032,-16.000000,32.000000,98.000000,-128.000000,-70.000000,59.000000,75.000000,54.000000
1305003.184040,41.000000,-57.000000,5.000000,-18.000000,-32.000000,-16.000000,20.000000,25.000000
1305003.185669,30.000000,127.000000,95.000000,62.000000,43.000000,54.000000,127.000000,38.000000
1305003.185678,-7.000000,-44.000000,-4.000000,-3.000000,9.000000,-22.000000,-77.000000,-26.000000
1305003.196955,50.000000,23.000000,-77.000000,63.000000,41.000000,-35.000000,-64.000000,-5.000000
1305003.196966,-44.000000,12.000000,72.000000,-103.000000,-106.000000,-25.000000,27.000000,-25.000000
1305003.219460,4.000000,-61.000000,-128.000000,-24.000000,11.000000,-13.000000,-2.000000,7.000000
1305003.219472,-2.000000,-7.000000,12.000000,8.000000,-12.000000,-28.000000,-30.000000,21.000000
1305003.241816,-5.000000,-128.000000,21.000000,81.000000,60.000000,-7.000000,-69.000000,-50.000000
1305003.241826,-1.000000,53.000000,24.000000,-44.000000,-63.000000,25.000000,23.000000,23.000000
1305003.264533,-18.000000,16.000000,-59.000000,17.000000,17.000000,-15.000000,17.000000,14.000000
1305003.264568,-66.000000,28.000000,12.000000,13.000000,26.000000,-2.000000,-3.000000,-17.000000
1305003.279499,62.000000,127.000000,-103.000000,-9.000000,-9.000000,-33.000000,-92.000000,-24.000000
1305003.279523,-37.000000,-16.000000,-62.000000,-26.000000,-55.000000,-38.000000,-12.000000,-29.000000
1305003.301831,61.000000,-23.000000,100.000000,38.000000,26.000000,31.000000,41.000000,45.000000
1305003.301923,-55.000000,45.000000,-128.000000,-27.000000,19.000000,34.000000,-23.000000,-11.000000
1305003.302551,-104.000000,31.000000,62.000000,65.000000,6.000000,-30.000000,-42.000000,-20.000000
1305003.302562,97.000000,9.000000,-38.000000,-8.000000,28.000000,-3.000000,32.000000,37.000000
1305003.309597,-24.000000,-79.000000,-106.000000,21.000000,42.000000,-1.000000,-10.000000,2.000000
1305003.309607,-64.000000,-26.000000,-53.000000,-104.000000,-103.000000,-17.000000,80.000000,20.000000
1305003.317328,36.000000,126.000000,-4.000000,-63.000000,-30.000000,33.000000,23.000000,18.000000
1305003.317349,-47.000000,-27.000000,15.000000,17.000000,29.000000,7.000000,-10.000000,-22.000000
1305003.318231,43.000000,-41.000000,31.000000,7.000000,34.000000,-57.000000,-91.000000,-16.000000
1305003.318252,-31.000000,-50.000000,3.000000,-11.000000,-103.000000,-14.000000,127.000000,39.000000
1305003.325262,42.000000,-42.000000,37.000000,-98.000000,-79.000000,7.000000,13.000000,6.000000
1305003.325272,-21.000000,-28.000000,-80.000000,-34.000000,-1.000000,-8.000000,-39.000000,-27.000000
1305003.339333,127.000000,35.000000,99.000000,41.000000,12.000000,43.000000,19.000000,8.000000
1305003.339344,-17.000000,-45.000000,-103.000000,54.000000,48.000000,-19.000000,-28.000000,-14.000000
1305003.362114,-15.000000,-128.000000,-3.000000,-85.000000,-52.000000,39.000000,85.000000,27.000000
1305003.362135,-15.000000,77.000000,51.000000,19.000000,23.000000,-15.000000,57.000000,10.000000
1305003.376993,-33.000000,-128.000000,14.000000,72.000000,28.000000,-62.000000,-128.000000,-14.000000
1305003.377004,-13.000000,127.000000,-60.000000,-52.000000,-17.000000,64.000000,75.000000,1.000000
1305003.399411,-23.000000,-49.000000,54.000000,35.000000,6.000000,-49.000000,14.000000,6.000000
1305003.399439,35.000000,13.000000,26.000000,33.000000,11.000000,-10.000000,-18.000000,2.000000
1305003.400010,-66.000000,-2.000000,17.000000,-95.000000,-60.000000,-14.000000,-40.000000,-37.000000
1305003.400019,24.000000,29.000000,-9.000000,55.000000,38.000000,4.000000,58.000000,21.000000
1305003.401281,12.000000,-20.000000,58.000000,13.000000,26.000000,3.000000,-18.000000,-7.000000
1305003.401289,4.000000,-86.000000,-15.000000,-22.000000,-2.000000,-8.000000,-16.000000,-7.000000
1305003.402173,5.000000,53.000000,36.000000,32.000000,20.000000,-16.000000,30.000000,43.000000
1305003.402181,17.000000,127.000000,-29.000000,11.000000,0.000000,22.000000,-6.000000,-2.000000
1305003.414702,-6.000000,-23.000000,14.000000,17.000000,26.000000,8.000000,-14.000000,-20.000000
1305003.414723,-63.000000,-113.000000,-97.000000,20.000000,-4.000000,-74.000000,-107.000000,-38.000000
1305003.415546,38.000000,56.000000,-45.000000,-98.000000,-71.000000,31.000000,61.000000,17.000000
1305003.415556,-27.000000,-44.000000,-47.000000,17.000000,72.000000,61.000000,-15.000000,-31.000000
1305003.422303,-128.000000,-128.000000,8.000000,52.000000,-14.000000,-26.000000,48.000000,-1.000000
1305003.422317,127.000000,-128.000000,-67.000000,19.000000,22.000000,-37.000000,-58.000000,37.000000
1305003.436979,0.000000,127.000000,40.000000,-1.000000,27.000000,-15.000000,-42.000000,-22.000000
1305003.436991,-56.000000,-33.000000,61.000000,-44.000000,-70.000000,-2.000000,33.000000,24.000000
1305003.474468,-7.000000,2.000000,-4.000000,29.000000,36.000000,20.000000,44.000000,1.000000
1305003.474546,14.000000,-14.000000,4.000000,4.000000,-2.000000,17.000000,65.000000,16.000000
1305003.481719,-1.000000,-26.000000,-43.000000,52.000000,14.000000,-48.000000,-55.000000,-9.000000
1305003.481748,34.000000,127.000000,33.000000,-61.000000,-58.000000,40.000000,41.000000,12.000000
1305003.519453,-5.000000,-6.000000,11.000000,30.000000,42.000000,-16.000000,2.000000,-13.000000
1305003.519469,-30.000000,-11.000000,-50.000000,36.000000,12.000000,-35.000000,-32.000000,-6.000000
1305003.534666,-28.000000,-58.000000,16.000000,-66.000000,-45.000000,17.000000,1.000000,-5.000000
1305003.534696,7.000000,-128.000000,-71.000000,-19.000000,12.000000,45.000000,-6.000000,21.000000
1305003.535464,-4.000000,-18.000000,16.000000,27.000000,35.000000,-20.000000,-27.000000,-6.000000
1305003.535494,22.000000,81.000000,-18.000000,9.000000,-101.000000,-13.000000,64.000000,27.000000
1305003.536314,12.000000,57.000000,66.000000,-5.000000,11.000000,16.000000,-57.000000,19.000000
1305003.536326,-57.000000,-19.000000,90.000000,4.000000,8.000000,0.000000,127.000000,30.000000
1305003.537510,-4.000000,127.000000,-118.000000,-9.000000,15.000000,-13.000000,-66.000000,-54.000000
1305003.537518,18.000000,-40.000000,-13.000000,33.000000,-3.000000,12.000000,11.000000,29.000000
1305003.538324,23.000000,63.000000,39.000000,1.000000,3.000000,31.000000,24.000000,22.000000
1305003.538352,-47.000000,17.000000,3.000000,-2.000000,9.000000,10.000000,25.000000,-18.000000
1305003.542792,-128.000000,-37.000000,85.000000,-50.000000,-107.000000,-27.000000,20.000000,-28.000000
1305003.542818,127.000000,3.000000,-51.000000,22.000000,-3.000000,-34.000000,-13.000000,46.000000
1305003.556917,0.000000,-38.000000,18.000000,-81.000000,-60.000000,60.000000,3.000000,7.000000
1305003.556929,-40.000000,127.000000,-7.000000,30.000000,21.000000,-34.000000,-15.000000,-27.000000
1305003.579600,-23.000000,-100.000000,0.000000,14.000000,5.000000,-5.000000,-29.000000,-24.000000
1305003.579611,-55.000000,-84.000000,-62.000000,85.000000,78.000000,53.000000,37.000000,5.000000
1305003.594448,54.000000,-128.000000,7.000000,-64.000000,-54.000000,-32.000000,0.000000,14.000000
1305003.594467,61.000000,127.000000,25.000000,-17.000000,-22.000000,-37.000000,-23.000000,-6.000000
1305003.616757,-5.000000,-64.000000,-18.000000,26.000000,26.000000,40.000000,79.000000,27.000000
1305003.616767,6.000000,-33.000000,63.000000,24.000000,-12.000000,-46.000000,82.000000,15.000000
1305003.624535,-54.000000,-48.000000,-17.000000,9.000000,56.000000,44.000000,-128.000000,-78.000000
1305003.624545,7.000000,8.000000,-8.000000,41.000000,-24.000000,-2.000000,61.000000,-11.000000
1305003.654197,79.000000,-128.000000,-11.000000,-128.000000,-109.000000,24.000000,36.000000,39.000000
1305003.654207,43.000000,106.000000,6.000000,22.000000,37.000000,36.000000,72.000000,25.000000
1305003.654582,-21.000000,-121.000000,44.000000,50.000000,21.000000,-8.000000,-34.000000,-11.000000
1305003.654592,-42.000000,-5.000000,-128.000000,19.000000,29.000000,-63.000000,-116.000000,-59.000000
1305003.655963,-128.000000,-128.000000,58.000000,-11.000000,-5.000000,36.000000,22.000000,-1.000000
1305003.655972,127.000000,127.000000,1.000000,-96.000000,-90.000000,39.000000,106.000000,109.000000
1305003.656577,-26.000000,22.000000,-27.000000,52.000000,27.000000,-48.000000,-36.000000,-1.000000
1305003.656585,-30.000000,-39.000000,-19.000000,-10.000000,-32.000000,18.000000,-44.000000,-29.000000
1305003.658149,17.000000,-128.000000,-78.000000,-3.000000,-14.000000,10.000000,-9.000000,-10.000000
1305003.658157,-53.000000,-38.000000,19.000000,-24.000000,-25.000000,-31.000000,5.000000,-3.000000
1305003.676837,12.000000,85.000000,-82.000000,67.000000,70.000000,-16.000000,-128.000000,-47.000000
