# participant_id: P10
# gesture: baseline
# trial_number: 1
# stream_name: Myo_EMG
# stream_type: emg
# timestamp: 20260420_161025
# samples: 5534
# duration_sec: 30.226
# nominal_sample_rate: 200.0
# effective_sample_rate: 183.05
#
timestamp,emg_1,emg_2,emg_3,emg_4,emg_5,emg_6,emg_7,emg_8
1306117.901185,1.000000,-16.000000,-3.000000,-2.000000,-3.000000,0.000000,3.000000,-1.000000
1306117.901195,-3.000000,7.000000,0.000000,-4.000000,5.000000,5.000000,-3.000000,1.000000
1306117.923630,9.000000,19.000000,18.000000,26.000000,1.000000,-1.000000,-6.000000,3.000000
1306117.923640,-5.000000,-7.000000,-27.000000,-11.000000,-8.000000,-11.000000,-4.000000,-8.000000
1306117.938805,3.000000,9.000000,-6.000000,-11.000000,-2.000000,-1.000000,2.000000,-1.000000
1306117.938815,-3.000000,12.000000,6.000000,12.000000,9.000000,7.000000,-7.000000,-6.000000
1306117.953888,2.000000,-6.000000,0.000000,-5.000000,-10.000000,-11.000000,0.000000,0.000000
1306117.953910,-3.000000,11.000000,-5.000000,-12.000000,-9.000000,-1.000000,3.000000,-8.000000
1306117.960965,2.000000,21.000000,1.000000,2.000000,-2.000000,1.000000,-6.000000,0.000000
1306117.960976,-4.000000,-1.000000,-6.000000,4.000000,3.000000,2.000000,-5.000000,1.000000
1306117.962174,-3.000000,-16.000000,6.000000,-6.000000,-4.000000,-6.000000,-2.000000,-4.000000
1306117.962183,3.000000,2.000000,7.000000,1.000000,2.000000,2.000000,-3.000000,0.000000
1306117.963033,-3.000000,8.000000,-3.000000,4.000000,7.000000,8.000000,-9.000000,2.000000
1306117.963044,-4.000000,-5.000000,-7.000000,-2.000000,0.000000,-2.000000,5.000000,-5.000000
1306117.964273,1.000000,-5.000000,-2.000000,-9.000000,-5.000000,-4.000000,0.000000,-1.000000
1306117.964282,2.000000,-2.000000,-1.000000,-8.000000,-7.000000,-13.000000,7.000000,-1.000000
1306117.976890,-9.000000,6.000000,-3.000000,1.000000,4.000000,8.000000,-1.000000,-1.000000
1306117.976900,-6.000000,-13.000000,2.000000,1.000000,-4.000000,-2.000000,-4.000000,0.000000
1306117.983923,4.000000,-12.000000,4.000000,8.000000,-13.000000,-8.000000,6.000000,0.000000
1306117.983934,5.000000,-5.000000,5.000000,3.000000,11.000000,5.000000,1.000000,1.000000
1306117.992098,1.000000,-8.000000,3.000000,10.000000,5.000000,1.000000,-10.000000,0.000000
1306117.992202,-8.000000,0.000000,-2.000000,-5.000000,-1.000000,-4.000000,3.000000,-8.000000
1306118.021205,0.000000,-1.000000,0.000000,-2.000000,0.000000,-6.000000,5.000000,-6.000000
1306118.021216,1.000000,8.000000,-6.000000,4.000000,6.000000,5.000000,-1.000000,3.000000
1306118.036247,-6.000000,5.000000,-15.000000,-4.000000,-10.000000,-12.000000,-2.000000,-3.000000
1306118.036257,8.000000,-5.000000,45.000000,2.000000,-6.000000,-9.000000,5.000000,-1.000000
1306118.043711,-3.000000,-3.000000,-22.000000,-17.000000,-1.000000,3.000000,-3.000000,-2.000000
1306118.043721,-7.000000,-3.000000,-2.000000,1.000000,-3.000000,0.000000,-5.000000,-4.000000
1306118.081215,2.000000,-19.000000,-14.000000,-22.000000,-8.000000,-13.000000,2.000000,0.000000
1306118.081225,0.000000,5.000000,-2.000000,6.000000,4.000000,0.000000,-3.000000,-4.000000
1306118.096413,-1.000000,-7.000000,1.000000,3.000000,5.000000,7.000000,-6.000000,2.000000
1306118.096444,5.000000,0.000000,5.000000,-11.000000,-10.000000,-3.000000,1.000000,2.000000
1306118.104192,-4.000000,7.000000,6.000000,1.000000,2.000000,1.000000,3.000000,0.000000
1306118.104219,-1.000000,23.000000,2.000000,8.000000,6.000000,6.000000,-8.000000,-6.000000
1306118.104836,-2.000000,8.000000,-12.000000,-6.000000,-1.000000,-3.000000,-2.000000,-1.000000
1306118.104863,1.000000,-7.000000,-16.000000,-21.000000,-9.000000,-5.000000,7.000000,0.000000
1306118.106015,5.000000,2.000000,5.000000,6.000000,2.000000,1.000000,-4.000000,2.000000
1306118.106035,2.000000,11.000000,14.000000,-3.000000,-3.000000,0.000000,-4.000000,-1.000000
1306118.111820,0.000000,-4.000000,-5.000000,-1.000000,-7.000000,-5.000000,0.000000,-6.000000
1306118.111857,2.000000,-15.000000,-1.000000,-12.000000,-4.000000,-7.000000,4.000000,-6.000000
1306118.156378,1.000000,1.000000,6.000000,11.000000,5.000000,8.000000,-5.000000,4.000000
1306118.156396,3.000000,4.000000,-1.000000,-4.000000,-12.000000,-8.000000,-1.000000,1.000000
1306118.178840,5.000000,-18.000000,-14.000000,-39.000000,-19.000000,-11.000000,8.000000,-4.000000
1306118.178852,-4.000000,-3.000000,-5.000000,-4.000000,1.000000,4.000000,-6.000000,-3.000000
1306118.193665,1.000000,3.000000,10.000000,7.000000,11.000000,6.000000,-8.000000,4.000000
1306118.193693,1.000000,0.000000,-3.000000,-3.000000,-1.000000,-8.000000,-2.000000,-4.000000
1306118.216434,4.000000,-1.000000,5.000000,-1.000000,15.000000,0.000000,7.000000,0.000000
1306118.216446,-2.000000,-14.000000,-1.000000,4.000000,-7.000000,4.000000,-8.000000,4.000000
1306118.231644,4.000000,-11.000000,-1.000000,1.000000,-14.000000,-7.000000,-6.000000,0.000000
1306118.231717,0.000000,-10.000000,-4.000000,-6.000000,-6.000000,-10.000000,9.000000,-4.000000
1306118.239086,-3.000000,22.000000,3.000000,4.000000,5.000000,2.000000,1.000000,0.000000
1306118.239120,-15.000000,20.000000,-1.000000,21.000000,3.000000,-3.000000,2.000000,-3.000000
1306118.241007,-2.000000,8.000000,-8.000000,-11.000000,-9.000000,-5.000000,-3.000000,-2.000000
1306118.241020,-11.000000,17.000000,2.000000,4.000000,22.000000,4.000000,8.000000,-9.000000
1306118.253699,0.000000,9.000000,12.000000,64.000000,24.000000,16.000000,-6.000000,6.000000
1306118.253716,3.000000,5.000000,-9.000000,-7.000000,41.000000,-4.000000,0.000000,-4.000000
1306118.298813,-3.000000,-9.000000,-12.000000,-10.000000,10.000000,6.000000,-4.000000,-2.000000
1306118.298831,3.000000,-2.000000,6.000000,9.000000,-42.000000,7.000000,-8.000000,1.000000
1306118.313972,-22.000000,-10.000000,22.000000,43.000000,-25.000000,-6.000000,0.000000,-8.000000
1306118.313983,-2.000000,1.000000,-8.000000,-44.000000,-12.000000,-11.000000,6.000000,-8.000000
1306118.314845,-11.000000,2.000000,4.000000,-8.000000,2.000000,-1.000000,-4.000000,-2.000000
1306118.314854,-7.000000,2.000000,-23.000000,2.000000,19.000000,-8.000000,-5.000000,-1.000000
1306118.315470,-7.000000,-8.000000,1.000000,-17.000000,96.000000,-12.000000,5.000000,-2.000000
1306118.315478,-6.000000,-2.000000,-2.000000,24.000000,4.000000,4.000000,-2.000000,-4.000000
1306118.316919,8.000000,-3.000000,-10.000000,6.000000,-78.000000,9.000000,-3.000000,-1.000000
1306118.316927,1.000000,0.000000,-4.000000,-24.000000,-70.000000,-8.000000,0.000000,-1.000000
1306118.321992,0.000000,2.000000,5.000000,19.000000,17.000000,4.000000,-4.000000,-1.000000
1306118.322002,4.000000,-6.000000,21.000000,9.000000,12.000000,-6.000000,8.000000,-1.000000
1306118.336897,-2.000000,7.000000,-15.000000,-33.000000,-11.000000,-9.000000,5.000000,-7.000000
1306118.336908,-7.000000,0.000000,-7.000000,11.000000,5.000000,11.000000,-1.000000,-3.000000
1306118.343765,4.000000,6.000000,-1.000000,0.000000,-2.000000,7.000000,-5.000000,4.000000
1306118.343780,3.000000,1.000000,8.000000,-14.000000,-3.000000,-3.000000,-2.000000,1.000000
1306118.359495,-3.000000,0.000000,0.000000,18.000000,11.000000,11.000000,0.000000,-3.000000
1306118.359504,2.000000,2.000000,5.000000,16.000000,11.000000,7.000000,-4.000000,1.000000
1306118.366565,-1.000000,-5.000000,-4.000000,3.000000,-6.000000,-1.000000,1.000000,-3.000000
1306118.366576,-11.000000,1.000000,-1.000000,9.000000,-4.000000,-4.000000,6.000000,-6.000000
1306118.381343,0.000000,-3.000000,1.000000,5.000000,4.000000,1.000000,-1.000000,0.000000
1306118.381355,-2.000000,-11.000000,1.000000,10.000000,4.000000,-6.000000,5.000000,1.000000
1306118.396469,-6.000000,-1.000000,-8.000000,-24.000000,-15.000000,-13.000000,6.000000,-5.000000
1306118.396481,-2.000000,-3.000000,-6.000000,7.000000,-3.000000,6.000000,-1.000000,-2.000000
1306118.418899,2.000000,-6.000000,4.000000,6.000000,-4.000000,0.000000,-6.000000,1.000000
1306118.418948,-5.000000,5.000000,-2.000000,-4.000000,1.000000,1.000000,4.000000,-7.000000
1306118.456181,6.000000,6.000000,7.000000,-4.000000,-1.000000,-1.000000,-3.000000,1.000000
1306118.456211,0.000000,4.000000,6.000000,19.000000,0.000000,0.000000,-8.000000,2.000000
1306118.457213,-4.000000,-11.000000,16.000000,-1.000000,-4.000000,-6.000000,2.000000,-3.000000
1306118.457222,4.000000,4.000000,-3.000000,-6.000000,-7.000000,-9.000000,2.000000,-7.000000
1306118.457949,0.000000,-2.000000,-4.000000,9.000000,2.000000,-5.000000,-1.000000,3.000000
1306118.457957,-1.000000,1.000000,7.000000,10.000000,3.000000,-4.000000,3.000000,0.000000
1306118.459295,-2.000000,-5.000000,-8.000000,-12.000000,-11.000000,-8.000000,6.000000,-3.000000
1306118.459303,-3.000000,12.000000,6.000000,13.000000,2.000000,-6.000000,-5.000000,-1.000000
1306118.460251,0.000000,-3.000000,3.000000,1.000000,-3.000000,4.000000,-5.000000,2.000000
1306118.460261,1.000000,-6.000000,-2.000000,-8.000000,-6.000000,-4.000000,4.000000,-1.000000
1306118.471250,2.000000,5.000000,-4.000000,7.000000,-3.000000,2.000000,5.000000,1.000000
1306118.471271,0.000000,6.000000,3.000000,-9.000000,-4.000000,-3.000000,2.000000,-3.000000
1306118.479513,-1.000000,5.000000,-18.000000,-7.000000,-3.000000,5.000000,-1.000000,7.000000
1306118.479541,-3.000000,-12.000000,11.000000,5.000000,-1.000000,-9.000000,-6.000000,-4.000000
1306118.493985,-1.000000,2.000000,-4.000000,-16.000000,-14.000000,-9.000000,9.000000,-4.000000
1306118.494014,1.000000,-6.000000,-3.000000,-2.000000,2.000000,-6.000000,1.000000,1.000000
1306118.538734,-5.000000,2.000000,-1.000000,3.000000,5.000000,2.000000,-2.000000,2.000000
1306118.538762,2.000000,-3.000000,4.000000,10.000000,4.000000,-8.000000,2.000000,-1.000000
1306118.553720,-5.000000,0.000000,-7.000000,-6.000000,4.000000,3.000000,-8.000000,-3.000000
1306118.553730,0.000000,5.000000,-10.000000,15.000000,4.000000,6.000000,-6.000000,2.000000
1306118.576504,-5.000000,3.000000,10.000000,1.000000,-1.000000,-1.000000,1.000000,-2.000000
1306118.576514,0.000000,-1.000000,8.000000,-2.000000,-7.000000,-4.000000,3.000000,-3.000000
1306118.577231,-4.000000,4.000000,-5.000000,3.000000,3.000000,0.000000,-7.000000,-2.000000
1306118.577250,2.000000,-3.000000,-11.000000,-7.000000,-4.000000,-5.000000,5.000000,-3.000000
1306118.591351,-4.000000,-5.000000,11.000000,11.000000,-6.000000,-3.000000,-3.000000,2.000000
1306118.591362,-4.000000,-2.000000,-19.000000,-15.000000,-7.000000,-6.000000,5.000000,-1.000000
1306118.592277,-4.000000,3.000000,-4.000000,-4.000000,-2.000000,0.000000,0.000000,-3.000000
1306118.592288,-4.000000,-2.000000,0.000000,-10.000000,-3.000000,-1.000000,0.000000,-3.000000
1306118.592828,-5.000000,-1.000000,-2.000000,-11.000000,-8.000000,-11.000000,7.000000,-5.000000
1306118.592835,-1.000000,-1.000000,2.000000,3.000000,4.000000,3.000000,-5.000000,0.000000
1306118.599387,2.000000,3.000000,-2.000000,7.000000,8.000000,4.000000,-3.000000,6.000000
1306118.599398,3.000000,4.000000,5.000000,-1.000000,-7.000000,-4.000000,4.000000,-2.000000
1306118.613800,-2.000000,-2.000000,-2.000000,2.000000,6.000000,6.000000,0.000000,3.000000
1306118.613837,2.000000,2.000000,-9.000000,3.000000,7.000000,5.000000,-9.000000,5.000000
1306118.636433,-1.000000,0.000000,6.000000,-7.000000,-2.000000,-2.000000,1.000000,0.000000
1306118.636444,1.000000,0.000000,14.000000,-4.000000,6.000000,2.000000,6.000000,0.000000
1306118.651713,-3.000000,-5.000000,-6.000000,0.000000,0.000000,5.000000,-4.000000,0.000000
1306118.651722,-2.000000,1.000000,-6.000000,-8.000000,-6.000000,0.000000,1.000000,2.000000
1306118.666144,2.000000,-3.000000,-13.000000,-10.000000,-9.000000,-9.000000,3.000000,-5.000000
1306118.666182,-7.000000,1.000000,9.000000,6.000000,7.000000,7.000000,-1.000000,-2.000000
1306118.666494,2.000000,5.000000,-1.000000,5.000000,1.000000,-2.000000,1.000000,-2.000000
1306118.666502,4.000000,-2.000000,-2.000000,-9.000000,-5.000000,-6.000000,3.000000,-5.000000
1306118.674118,1.000000,0.000000,13.000000,6.000000,1.000000,6.000000,-6.000000,-1.000000
1306118.674127,1.000000,4.000000,-7.000000,7.000000,0.000000,3.000000,-8.000000,0.000000
1306118.674835,4.000000,2.000000,-4.000000,-6.000000,-7.000000,-7.000000,-1.000000,-1.000000
1306118.674844,-1.000000,3.000000,-17.000000,3.000000,7.000000,4.000000,1.000000,-3.000000
1306118.676172,-3.000000,-1.000000,13.000000,23.000000,7.000000,13.000000,0.000000,-3.000000
1306118.676181,-4.000000,-5.000000,-8.000000,-7.000000,-5.000000,-5.000000,2.000000,-2.000000
1306118.696219,3.000000,-3.000000,-6.000000,-20.000000,-12.000000,-9.000000,5.000000,0.000000
1306118.696332,-5.000000,-2.000000,-1.000000,-1.000000,-1.000000,-1.000000,-1.000000,0.000000
1306118.697590,1.000000,9.000000,-2.000000,13.000000,-2.000000,-5.000000,-4.000000,-2.000000
1306118.697601,-1.000000,-4.000000,-3.000000,-13.000000,-7.000000,-6.000000,10.000000,-4.000000
1306118.711122,1.000000,-4.000000,-5.000000,6.000000,6.000000,4.000000,-4.000000,2.000000
1306118.711137,-4.000000,-12.000000,11.000000,17.000000,6.000000,3.000000,-8.000000,2.000000
1306118.733920,-1.000000,-1.000000,-4.000000,-1.000000,-8.000000,-6.000000,1.000000,-5.000000
1306118.733931,-3.000000,4.000000,3.000000,2.000000,0.000000,5.000000,4.000000,-2.000000
1306118.748818,2.000000,2.000000,0.000000,12.000000,6.000000,5.000000,-6.000000,3.000000
1306118.748829,-1.000000,3.000000,-6.000000,-6.000000,-1.000000,-4.000000,0.000000,2.000000
1306118.771267,-1.000000,-10.000000,7.000000,-11.000000,-9.000000,-6.000000,6.000000,-3.000000
1306118.771296,-1.000000,-6.000000,-1.000000,7.000000,1.000000,3.000000,-5.000000,-1.000000
1306118.793708,-1.000000,5.000000,-7.000000,-9.000000,-7.000000,-6.000000,-6.000000,-2.000000
1306118.793726,-1.000000,-3.000000,-7.000000,-13.000000,-9.000000,-9.000000,8.000000,-7.000000
1306118.794731,2.000000,-3.000000,-3.000000,4.000000,-5.000000,5.000000,-3.000000,-5.000000
1306118.794749,2.000000,-3.000000,10.000000,8.000000,1.000000,2.000000,-6.000000,4.000000
1306118.795253,-5.000000,2.000000,-4.000000,-9.000000,-1.000000,-7.000000,-2.000000,-6.000000
1306118.795261,2.000000,-8.000000,-1.000000,-7.000000,-3.000000,7.000000,1.000000,-2.000000
1306118.796941,-6.000000,5.000000,-3.000000,14.000000,8.000000,10.000000,-3.000000,3.000000
1306118.796950,-2.000000,-6.000000,-3.000000,-6.000000,-4.000000,3.000000,-4.000000,2.000000
1306118.797614,2.000000,-1.000000,-2.000000,-17.000000,-12.000000,-9.000000,4.000000,-5.000000
1306118.797635,-2.000000,-6.000000,-3.000000,0.000000,3.000000,-4.000000,-6.000000,1.000000
1306118.808652,0.000000,1.000000,2.000000,5.000000,2.000000,2.000000,-2.000000,-4.000000
1306118.808669,3.000000,-1.000000,4.000000,3.000000,7.000000,3.000000,-6.000000,3.000000
1306118.823777,5.000000,3.000000,2.000000,-11.000000,-3.000000,0.000000,1.000000,-4.000000
1306118.823788,3.000000,8.000000,6.000000,6.000000,0.000000,-2.000000,0.000000,-2.000000
1306118.831444,-6.000000,4.000000,-1.000000,6.000000,8.000000,11.000000,-9.000000,-2.000000
1306118.831455,-3.000000,8.000000,-9.000000,-5.000000,1.000000,1.000000,-2.000000,1.000000
1306118.868916,0.000000,-3.000000,0.000000,-9.000000,-1.000000,-3.000000,7.000000,-4.000000
1306118.868927,-3.000000,1.000000,15.000000,9.000000,6.000000,11.000000,-2.000000,-2.000000
1306118.876459,-3.000000,-5.000000,-8.000000,9.000000,-3.000000,-5.000000,0.000000,-2.000000
1306118.876470,-7.000000,-4.000000,4.000000,-27.000000,-13.000000,-14.000000,4.000000,-7.000000
1306118.898771,1.000000,8.000000,-8.000000,11.000000,6.000000,4.000000,-2.000000,2.000000
1306118.898783,0.000000,-4.000000,7.000000,20.000000,10.000000,10.000000,0.000000,-1.000000
1306118.905955,0.000000,4.000000,-9.000000,-5.000000,-7.000000,-4.000000,-2.000000,1.000000
1306118.905964,1.000000,2.000000,-3.000000,-8.000000,3.000000,8.000000,-2.000000,-4.000000
1306118.914296,-3.000000,0.000000,3.000000,13.000000,9.000000,10.000000,-7.000000,2.000000
1306118.914323,2.000000,-7.000000,1.000000,-5.000000,-1.000000,-5.000000,-2.000000,-1.000000
1306118.914897,1.000000,-3.000000,-2.000000,-10.000000,-4.000000,-2.000000,3.000000,-3.000000
1306118.914924,-2.000000,-9.000000,-7.000000,7.000000,1.000000,4.000000,-1.000000,0.000000
1306118.915449,-1.000000,6.000000,5.000000,6.000000,-5.000000,-1.000000,-7.000000,-2.000000
1306118.915460,-4.000000,-2.000000,-10.000000,-21.000000,-6.000000,-12.000000,6.000000,-6.000000
1306118.916033,-7.000000,-2.000000,-3.000000,4.000000,5.000000,2.000000,-4.000000,-4.000000
1306118.916041,-3.000000,-5.000000,1.000000,9.000000,0.000000,2.000000,-8.000000,2.000000
1306118.917544,0.000000,1.000000,-1.000000,-4.000000,1.000000,2.000000,-1.000000,3.000000
1306118.917552,1.000000,-4.000000,1.000000,1.000000,2.000000,6.000000,0.000000,-5.000000
1306118.928852,0.000000,2.000000,7.000000,19.000000,7.000000,11.000000,-9.000000,7.000000
1306118.928868,1.000000,3.000000,0.000000,-4.000000,-6.000000,-9.000000,-1.000000,-1.000000
1306118.936879,-3.000000,-4.000000,-3.000000,-5.000000,-1.000000,3.000000,5.000000,-5.000000
1306118.936889,0.000000,1.000000,0.000000,0.000000,0.000000,1.000000,-6.000000,-3.000000
1306118.943694,-1.000000,8.000000,0.000000,-10.000000,-3.000000,-4.000000,-1.000000,-4.000000
1306118.943711,0.000000,-8.000000,-6.000000,-8.000000,-3.000000,-10.000000,6.000000,-5.000000
1306118.973679,1.000000,-9.000000,2.000000,-2.000000,-4.000000,2.000000,-4.000000,1.000000
1306118.973693,-5.000000,-3.000000,-6.000000,5.000000,1.000000,-1.000000,-5.000000,-3.000000
1306118.988758,-3.000000,-6.000000,-4.000000,-9.000000,-3.000000,3.000000,-3.000000,-3.000000
1306118.988779,1.000000,2.000000,1.000000,0.000000,1.000000,-1.000000,1.000000,-3.000000
1306119.033987,3.000000,-3.000000,-7.000000,11.000000,6.000000,4.000000,-8.000000,5.000000
1306119.034091,-3.000000,-1.000000,1.000000,-2.000000,-2.000000,-5.000000,0.000000,-5.000000
1306119.034330,-1.000000,-1.000000,-5.000000,-11.000000,-4.000000,-1.000000,1.000000,-4.000000
1306119.034351,1.000000,0.000000,-4.000000,-6.000000,1.000000,-5.000000,-2.000000,-1.000000
1306119.035617,-1.000000,-3.000000,-8.000000,3.000000,0.000000,-2.000000,2.000000,-1.000000
1306119.035629,0.000000,-4.000000,-11.000000,-16.000000,-11.000000,-6.000000,5.000000,-6.000000
1306119.036015,-1.000000,-4.000000,2.000000,6.000000,3.000000,1.000000,-4.000000,0.000000
1306119.036023,-2.000000,-5.000000,-1.000000,5.000000,-5.000000,2.000000,-7.000000,2.000000
1306119.037827,-3.000000,4.000000,1.000000,15.000000,8.000000,8.000000,-8.000000,3.000000
1306119.037845,1.000000,-6.000000,4.000000,-4.000000,-5.000000,-8.000000,3.000000,-3.000000
1306119.048868,-3.000000,1.000000,-13.000000,-5.000000,-3.000000,-13.000000,1.000000,-3.000000
1306119.048880,0.000000,0.000000,2.000000,-9.000000,-8.000000,-6.000000,8.000000,-2.000000
1306119.071228,-4.000000,-6.000000,0.000000,-1.000000,-1.000000,3.000000,-6.000000,-3.000000
1306119.071251,0.000000,1.000000,-11.000000,8.000000,1.000000,3.000000,-2.000000,3.000000
1306119.072208,-1.000000,-4.000000,5.000000,-4.000000,-6.000000,-11.000000,2.000000,-3.000000
1306119.072226,-3.000000,1.000000,2.000000,1.000000,-1.000000,5.000000,-4.000000,1.000000
1306119.086556,0.000000,0.000000,2.000000,11.000000,3.000000,6.000000,-12.000000,-1.000000
1306119.086576,-1.000000,2.000000,-3.000000,-9.000000,-2.000000,-9.000000,3.000000,-4.000000
1306119.093695,-1.000000,4.000000,-5.000000,-11.000000,-5.000000,5.000000,1.000000,-3.000000
1306119.093718,1.000000,-5.000000,5.000000,-1.000000,2.000000,7.000000,-9.000000,-2.000000
1306119.131530,2.000000,9.000000,-5.000000,-7.000000,-7.000000,-7.000000,0.000000,0.000000
1306119.131602,2.000000,1.000000,-1.000000,-12.000000,-5.000000,-12.000000,6.000000,-5.000000
1306119.146275,0.000000,0.000000,-4.000000,7.000000,1.000000,5.000000,-2.000000,-2.000000
1306119.146290,5.000000,-9.000000,-3.000000,8.000000,-3.000000,0.000000,-6.000000,1.000000
1306119.147330,0.000000,-8.000000,2.000000,-14.000000,-3.000000,-1.000000,3.000000,-1.000000
1306119.147343,-1.000000,1.000000,5.000000,4.000000,0.000000,0.000000,-3.000000,1.000000
1306119.147972,1.000000,1.000000,5.000000,15.000000,2.000000,3.000000,-8.000000,4.000000
1306119.147983,2.000000,1.000000,7.000000,1.000000,1.000000,-5.000000,-1.000000,-4.000000
1306119.149287,-5.000000,8.000000,-12.000000,-4.000000,-8.000000,-1.000000,3.000000,-4.000000
1306119.149337,-1.000000,1.000000,-1.000000,-1.000000,0.000000,10.000000,-3.000000,-2.000000
1306119.149981,-2.000000,-1.000000,3.000000,1.000000,2.000000,-2.000000,3.000000,-1.000000
1306119.149991,2.000000,-4.000000,0.000000,-4.000000,-3.000000,-5.000000,6.000000,-1.000000
1306119.154305,-8.000000,-4.000000,-8.000000,3.000000,6.000000,5.000000,-1.000000,0.000000
1306119.154314,-2.000000,11.000000,-3.000000,2.000000,0.000000,1.000000,-6.000000,2.000000
1306119.169195,-3.000000,-6.000000,9.000000,-4.000000,-9.000000,-7.000000,3.000000,-3.000000
1306119.169209,1.000000,-1.000000,-14.000000,6.000000,5.000000,3.000000,-2.000000,-1.000000
1306119.183787,0.000000,0.000000,11.000000,11.000000,5.000000,5.000000,-4.000000,0.000000
1306119.183803,0.000000,0.000000,1.000000,2.000000,0.000000,-1.000000,-3.000000,-3.000000
1306119.191161,-2.000000,8.000000,1.000000,-3.000000,-1.000000,-2.000000,6.000000,-3.000000
1306119.191180,-7.000000,3.000000,0.000000,11.000000,2.000000,1.000000,-6.000000,-6.000000
1306119.206287,0.000000,7.000000,-7.000000,-1.000000,2.000000,-2.000000,3.000000,4.000000
1306119.206316,2.000000,-4.000000,3.000000,-19.000000,-9.000000,-8.000000,3.000000,-6.000000
1306119.213921,0.000000,-2.000000,-9.000000,5.000000,4.000000,1.000000,-2.000000,1.000000
1306119.213930,-5.000000,-1.000000,5.000000,-2.000000,3.000000,-1.000000,0.000000,0.000000
1306119.251432,-2.000000,-4.000000,2.000000,-14.000000,-8.000000,-8.000000,2.000000,-4.000000
1306119.251443,-2.000000,-3.000000,-12.000000,-7.000000,5.000000,10.000000,-3.000000,-1.000000
1306119.266307,-2.000000,6.000000,-1.000000,15.000000,8.000000,4.000000,-8.000000,2.000000
1306119.266323,7.000000,1.000000,-4.000000,-6.000000,-2.000000,-3.000000,1.000000,-1.000000
1306119.267531,-4.000000,4.000000,0.000000,-8.000000,-2.000000,0.000000,1.000000,-4.000000
1306119.267598,-1.000000,-2.000000,0.000000,6.000000,5.000000,3.000000,-5.000000,4.000000
1306119.267970,1.000000,-2.000000,-3.000000,-1.000000,-3.000000,-4.000000,0.000000,3.000000
1306119.267991,2.000000,-10.000000,3.000000,-22.000000,0.000000,0.000000,2.000000,-7.000000
1306119.269074,0.000000,-10.000000,-2.000000,0.000000,3.000000,3.000000,-3.000000,2.000000
1306119.269096,-1.000000,-5.000000,4.000000,2.000000,-3.000000,1.000000,-2.000000,0.000000
1306119.270255,3.000000,-3.000000,-5.000000,-8.000000,-10.000000,-12.000000,5.000000,-1.000000
1306119.270266,-4.000000,-9.000000,-6.000000,-1.000000,4.000000,5.000000,-4.000000,-1.000000
1306119.289158,3.000000,4.000000,1.000000,15.000000,5.000000,5.000000,-5.000000,3.000000
1306119.289186,2.000000,1.000000,-3.000000,-6.000000,-5.000000,-2.000000,-3.000000,-5.000000
1306119.289944,-7.000000,-9.000000,5.000000,-1.000000,-1.000000,6.000000,0.000000,-3.000000
1306119.289970,-3.000000,-2.000000,10.000000,8.000000,10.000000,7.000000,-6.000000,1.000000
1306119.304327,-3.000000,-1.000000,-7.000000,-9.000000,-9.000000,-10.000000,0.000000,0.000000
1306119.304336,0.000000,-2.000000,-7.000000,-7.000000,-4.000000,-10.000000,8.000000,-2.000000
1306119.305179,-3.000000,-3.000000,1.000000,1.000000,-1.000000,5.000000,-7.000000,-6.000000
1306119.305187,1.000000,-6.000000,1.000000,9.000000,-5.000000,-6.000000,-6.000000,-1.000000
1306119.326094,-3.000000,1.000000,-3.000000,-13.000000,-5.000000,-13.000000,5.000000,-7.000000
1306119.326110,2.000000,-2.000000,-3.000000,2.000000,4.000000,2.000000,-6.000000,0.000000
1306119.348740,2.000000,3.000000,-2.000000,10.000000,3.000000,7.000000,-5.000000,5.000000
1306119.348750,3.000000,2.000000,0.000000,-8.000000,-2.000000,-5.000000,-3.000000,-3.000000
1306119.386419,-3.000000,1.000000,0.000000,-4.000000,1.000000,0.000000,0.000000,-1.000000
1306119.386430,-1.000000,0.000000,0.000000,10.000000,6.000000,9.000000,2.000000,3.000000
1306119.408651,-5.000000,0.000000,-2.000000,-1.000000,-3.000000,-4.000000,-2.000000,1.000000
1306119.408696,-1.000000,-3.000000,-9.000000,-12.000000,-5.000000,0.000000,0.000000,-6.000000
1306119.409731,7.000000,2.000000,8.000000,-2.000000,-6.000000,0.000000,-5.000000,1.000000
1306119.409740,-5.000000,-1.000000,-2.000000,10.000000,4.000000,-7.000000,0.000000,-2.000000
1306119.410358,1.000000,-4.000000,-4.000000,-11.000000,-10.000000,-9.000000,7.000000,-5.000000
1306119.410367,-1.000000,-6.000000,0.000000,0.000000,2.000000,2.000000,-3.000000,-1.000000
1306119.412485,2.000000,7.000000,-4.000000,-1.000000,-8.000000,-6.000000,0.000000,0.000000
1306119.412500,0.000000,1.000000,2.000000,-12.000000,-4.000000,-2.000000,4.000000,1.000000
1306119.424583,1.000000,-4.000000,-4.000000,-9.000000,-1.000000,-10.000000,7.000000,-2.000000
1306119.424594,1.000000,0.000000,5.000000,-2.000000,-2.000000,-3.000000,-9.000000,0.000000
1306119.431430,2.000000,2.000000,0.000000,9.000000,2.000000,5.000000,-7.000000,3.000000
1306119.431445,1.000000,-9.000000,0.000000,-4.000000,-1.000000,4.000000,1.000000,0.000000
1306119.446519,-4.000000,-8.000000,0.000000,2.000000,1.000000,4.000000,4.000000,-4.000000
1306119.446531,2.000000,1.000000,6.000000,9.000000,3.000000,10.000000,-13.000000,-1.000000
1306119.461203,-2.000000,-6.000000,-6.000000,-3.000000,2.000000,-5.000000,6.000000,-2.000000
1306119.461213,-2.000000,0.000000,-24.000000,-17.000000,-7.000000,-7.000000,3.000000,-3.000000
1306119.483934,-3.000000,-2.000000,18.000000,8.000000,4.000000,-6.000000,0.000000,6.000000
1306119.483945,-4.000000,-1.000000,4.000000,-5.000000,-2.000000,-5.000000,-4.000000,-1.000000
1306119.491278,-3.000000,-3.000000,-10.000000,-21.000000,-7.000000,-14.000000,5.000000,-4.000000
1306119.491289,1.000000,2.000000,4.000000,0.000000,3.000000,6.000000,3.000000,1.000000
1306119.513646,0.000000,4.000000,-1.000000,6.000000,6.000000,3.000000,-3.000000,3.000000
1306119.513657,-1.000000,-4.000000,-6.000000,-8.000000,-2.000000,-2.000000,-1.000000,-2.000000
1306119.528739,-1.000000,1.000000,-1.000000,1.000000,1.000000,4.000000,-1.000000,1.000000
1306119.528750,2.000000,-8.000000,1.000000,9.000000,7.000000,9.000000,-10.000000,4.000000
1306119.566076,0.000000,-3.000000,-3.000000,-3.000000,-4.000000,-4.000000,3.000000,-1.000000
1306119.566131,-1.000000,8.000000,3.000000,-10.000000,0.000000,-4.000000,5.000000,-2.000000
1306119.566548,0.000000,3.000000,-9.000000,-2.000000,-1.000000,3.000000,0.000000,-2.000000
1306119.566556,-2.000000,-2.000000,1.000000,0.000000,-4.000000,-6.000000,-1.000000,1.000000
1306119.567751,-5.000000,6.000000,2.000000,-7.000000,-11.000000,-8.000000,7.000000,-6.000000
1306119.567759,-1.000000,3.000000,4.000000,5.000000,-3.000000,2.000000,-4.000000,1.000000
1306119.568458,-1.000000,-4.000000,5.000000,6.000000,-4.000000,-2.000000,-4.000000,3.000000
1306119.568466,-1.000000,-2.000000,-2.000000,-3.000000,-3.000000,-4.000000,3.000000,0.000000
1306119.569063,1.000000,-4.000000,1.000000,2.000000,-1.000000,-5.000000,-2.000000,-1.000000
1306119.569090,-3.000000,-7.000000,-3.000000,-8.000000,-4.000000,-5.000000,5.000000,-4.000000
1306119.569913,1.000000,-6.000000,0.000000,-15.000000,-12.000000,-9.000000,8.000000,-4.000000
1306119.569921,-1.000000,-6.000000,-3.000000,4.000000,2.000000,6.000000,-2.000000,-1.000000
1306119.582167,-1.000000,3.000000,0.000000,4.000000,2.000000,-1.000000,-7.000000,1.000000
1306119.582178,3.000000,-2.000000,-8.000000,-10.000000,-3.000000,-1.000000,2.000000,-1.000000
1306119.589001,1.000000,0.000000,-8.000000,5.000000,6.000000,0.000000,-3.000000,-1.000000
1306119.589031,1.000000,4.000000,4.000000,11.000000,0.000000,11.000000,-5.000000,-4.000000
1306119.604447,0.000000,1.000000,-12.000000,-7.000000,-3.000000,0.000000,4.000000,-3.000000
1306119.604501,1.000000,-8.000000,3.000000,-6.000000,4.000000,-2.000000,6.000000,-6.000000
1306119.618810,3.000000,-1.000000,-1.000000,5.000000,6.000000,0.000000,-1.000000,2.000000
1306119.618821,-3.000000,-4.000000,-3.000000,-1.000000,-3.000000,-3.000000,2.000000,-1.000000
1306119.626810,3.000000,0.000000,-5.000000,-16.000000,-6.000000,-7.000000,6.000000,-4.000000
1306119.626820,-5.000000,0.000000,-5.000000,0.000000,0.000000,3.000000,-10.000000,-4.000000
1306119.627538,0.000000,2.000000,1.000000,11.000000,2.000000,-4.000000,-4.000000,1.000000
1306119.627546,-2.000000,1.000000,-5.000000,-8.000000,-3.000000,0.000000,1.000000,-3.000000
1306119.642098,-1.000000,-3.000000,1.000000,0.000000,3.000000,4.000000,-1.000000,1.000000
1306119.642109,-2.000000,-1.000000,3.000000,15.000000,10.000000,7.000000,-9.000000,2.000000
1306119.648907,2.000000,0.000000,-1.000000,1.000000,-4.000000,-3.000000,1.000000,-3.000000
1306119.648918,-1.000000,1.000000,4.000000,-5.000000,5.000000,2.000000,4.000000,-7.000000
1306119.701557,-3.000000,0.000000,-6.000000,3.000000,6.000000,2.000000,-6.000000,2.000000
1306119.701583,0.000000,-3.000000,-1.000000,-3.000000,3.000000,-9.000000,-1.000000,0.000000
1306119.709404,1.000000,2.000000,-6.000000,-15.000000,-7.000000,-11.000000,6.000000,-1.000000
1306119.709435,-3.000000,3.000000,0.000000,1.000000,0.000000,2.000000,-4.000000,-4.000000
1306119.739339,-5.000000,6.000000,-3.000000,6.000000,1.000000,-1.000000,-4.000000,-1.000000
1306119.739364,-3.000000,-6.000000,1.000000,-5.000000,-4.000000,-9.000000,4.000000,1.000000
1306119.747288,-1.000000,-2.000000,1.000000,5.000000,0.000000,5.000000,-3.000000,0.000000
1306119.747344,2.000000,1.000000,6.000000,15.000000,6.000000,7.000000,-8.000000,1.000000
1306119.749208,-4.000000,-1.000000,-10.000000,-11.000000,-3.000000,-2.000000,3.000000,0.000000
1306119.749498,1.000000,-5.000000,-2.000000,-4.000000,-3.000000,0.000000,4.000000,-3.000000
1306119.750729,2.000000,1.000000,-2.000000,0.000000,-4.000000,-3.000000,-7.000000,2.000000
1306119.750748,-3.000000,-3.000000,-5.000000,-5.000000,-3.000000,-8.000000,6.000000,1.000000
1306119.751078,-3.000000,8.000000,-3.000000,3.000000,5.000000,5.000000,-5.000000,-2.000000
1306119.751100,2.000000,-4.000000,4.000000,13.000000,6.000000,2.000000,-12.000000,3.000000
1306119.751270,0.000000,0.000000,-4.000000,-6.000000,-8.000000,6.000000,3.000000,1.000000
1306119.751284,2.000000,5.000000,-4.000000,-8.000000,3.000000,0.000000,3.000000,0.000000
1306119.762748,-1.000000,-2.000000,3.000000,12.000000,0.000000,3.000000,-4.000000,3.000000
1306119.762771,-3.000000,-1.000000,-3.000000,-5.000000,-6.000000,-14.000000,-1.000000,-4.000000
1306119.769708,0.000000,-2.000000,-3.000000,-10.000000,-6.000000,-3.000000,12.000000,-2.000000
1306119.769732,1.000000,5.000000,-2.000000,7.000000,7.000000,2.000000,-5.000000,-2.000000
1306119.791780,3.000000,1.000000,1.000000,6.000000,1.000000,2.000000,-5.000000,3.000000
1306119.791803,2.000000,-7.000000,1.000000,-9.000000,-3.000000,-8.000000,4.000000,-3.000000
1306119.806474,0.000000,-1.000000,2.000000,3.000000,5.000000,3.000000,-2.000000,-1.000000
1306119.806489,-1.000000,-4.000000,0.000000,10.000000,3.000000,0.000000,-8.000000,0.000000
1306119.821409,-2.000000,-2.000000,-5.000000,-1.000000,-3.000000,-3.000000,4.000000,-1.000000
1306119.821433,1.000000,-4.000000,-10.000000,0.000000,-1.000000,8.000000,1.000000,-4.000000
1306119.843740,1.000000,0.000000,9.000000,4.000000,3.000000,5.000000,-3.000000,1.000000
1306119.843750,-4.000000,2.000000,-12.000000,-2.000000,-5.000000,-4.000000,5.000000,2.000000
1306119.844923,6.000000,-2.000000,6.000000,-4.000000,-10.000000,-3.000000,7.000000,-5.000000
1306119.844959,-7.000000,4.000000,-3.000000,-4.000000,1.000000,4.000000,0.000000,-1.000000
1306119.845656,1.000000,-10.000000,-1.000000,3.000000,1.000000,-5.000000,-3.000000,1.000000
1306119.845740,4.000000,-2.000000,-5.000000,-13.000000,-10.000000,-7.000000,-2.000000,-2.000000
1306119.846856,-7.000000,-9.000000,1.000000,6.000000,4.000000,9.000000,-4.000000,-5.000000
1306119.846864,0.000000,-5.000000,1.000000,8.000000,3.000000,2.000000,-4.000000,-3.000000
1306119.858601,-1.000000,0.000000,-2.000000,-8.000000,-2.000000,-3.000000,1.000000,0.000000
1306119.858621,-2.000000,4.000000,-2.000000,-2.000000,-1.000000,0.000000,1.000000,-2.000000
1306119.860035,3.000000,3.000000,-2.000000,6.000000,3.000000,6.000000,-2.000000,-2.000000
1306119.860049,0.000000,1.000000,-1.000000,-2.000000,4.000000,-8.000000,-1.000000,1.000000
1306119.866322,-3.000000,-3.000000,-14.000000,-16.000000,-6.000000,-6.000000,4.000000,-4.000000
1306119.866346,-3.000000,3.000000,3.000000,5.000000,-2.000000,3.000000,-6.000000,0.000000
1306119.882119,1.000000,-1.000000,4.000000,1.000000,-1.000000,-4.000000,-6.000000,-5.000000
1306119.882139,0.000000,-1.000000,-4.000000,-11.000000,-4.000000,-2.000000,6.000000,-2.000000
1306119.888879,3.000000,-5.000000,-2.000000,1.000000,5.000000,1.000000,-1.000000,1.000000
1306119.888889,0.000000,-7.000000,3.000000,6.000000,8.000000,9.000000,-6.000000,5.000000
1306119.903712,-2.000000,-5.000000,3.000000,-2.000000,-3.000000,-3.000000,1.000000,-3.000000
1306119.903722,-3.000000,-1.000000,-10.000000,-2.000000,2.000000,4.000000,-1.000000,-3.000000
1306119.918818,3.000000,5.000000,6.000000,6.000000,11.000000,8.000000,-3.000000,4.000000
1306119.918838,1.000000,4.000000,-2.000000,-4.000000,-3.000000,-7.000000,0.000000,-2.000000
1306119.934012,-3.000000,-10.000000,1.000000,-9.000000,-3.000000,-7.000000,5.000000,-6.000000
1306119.934025,-1.000000,-5.000000,2.000000,4.000000,1.000000,-2.000000,2.000000,-1.000000
1306119.941533,-2.000000,1.000000,7.000000,5.000000,-2.000000,-3.000000,-5.000000,1.000000
1306119.941549,-2.000000,-1.000000,-12.000000,-24.000000,-13.000000,-10.000000,5.000000,-3.000000
1306119.964056,0.000000,2.000000,2.000000,0.000000,2.000000,7.000000,-5.000000,1.000000
1306119.964084,-1.000000,2.000000,1.000000,9.000000,4.000000,6.000000,-6.000000,0.000000
1306119.964791,0.000000,-1.000000,-4.000000,-6.000000,-5.000000,-3.000000,3.000000,-1.000000
1306119.964844,-2.000000,-3.000000,2.000000,-7.000000,-9.000000,1.000000,2.000000,-3.000000
1306119.966222,-1.000000,0.000000,4.000000,2.000000,1.000000,6.000000,-10.000000,4.000000
1306119.966231,2.000000,-1.000000,4.000000,10.000000,2.000000,2.000000,-2.000000,-2.000000
1306119.978633,-3.000000,4.000000,-7.000000,-16.000000,-6.000000,-5.000000,2.000000,-5.000000
1306119.978643,-1.000000,-3.000000,5.000000,1.000000,-1.000000,-1.000000,-6.000000,0.000000
1306119.979855,2.000000,1.000000,2.000000,-1.000000,-2.000000,-1.000000,-1.000000,3.000000
1306119.979882,-3.000000,-4.000000,-15.000000,-16.000000,-3.000000,-5.000000,6.000000,-1.000000
1306119.986163,-3.000000,5.000000,9.000000,7.000000,2.000000,3.000000,-1.000000,-3.000000
1306119.986192,-4.000000,-5.000000,-1.000000,8.000000,-1.000000,2.000000,-7.000000,3.000000
1306120.001848,-2.000000,-5.000000,4.000000,-5.000000,-1.000000,-1.000000,-2.000000,-3.000000
1306120.001858,2.000000,3.000000,-5.000000,-4.000000,1.000000,3.000000,5.000000,-2.000000
1306120.023869,-3.000000,0.000000,5.000000,16.000000,13.000000,12.000000,-9.000000,2.000000
1306120.023882,2.000000,1.000000,0.000000,-7.000000,-7.000000,-7.000000,2.000000,-4.000000
1306120.046802,-3.000000,-5.000000,-9.000000,-13.000000,-7.000000,-7.000000,7.000000,0.000000
1306120.046816,0.000000,4.000000,5.000000,3.000000,3.000000,4.000000,-3.000000,-2.000000
1306120.061287,-5.000000,0.000000,-13.000000,-2.000000,0.000000,-7.000000,-3.000000,4.000000
1306120.061299,-1.000000,1.000000,-5.000000,-10.000000,-5.000000,-13.000000,10.000000,-2.000000
1306120.084015,-3.000000,-4.000000,4.000000,2.000000,-1.000000,-2.000000,2.000000,-2.000000
1306120.084025,-1.000000,-1.000000,4.000000,13.000000,3.000000,1.000000,-7.000000,0.000000
1306120.084356,0.000000,5.000000,-5.000000,-9.000000,0.000000,-2.000000,2.000000,-3.000000
1306120.084403,-2.000000,-2.000000,-4.000000,0.000000,1.000000,-3.000000,0.000000,1.000000
1306120.085340,2.000000,5.000000,10.000000,14.000000,8.000000,4.000000,-5.000000,2.000000
1306120.085385,2.000000,-2.000000,-6.000000,-1.000000,-6.000000,-7.000000,1.000000,-1.000000
1306120.086194,1.000000,-6.000000,-1.000000,-7.000000,-7.000000,-5.000000,1.000000,-3.000000
1306120.086211,-3.000000,4.000000,3.000000,10.000000,5.000000,-1.000000,-9.000000,3.000000
1306120.098801,0.000000,-1.000000,-3.000000,5.000000,3.000000,0.000000,1.000000,0.000000
1306120.098832,1.000000,-1.000000,1.000000,-18.000000,-6.000000,-11.000000,11.000000,-1.000000
1306120.121428,-1.000000,0.000000,2.000000,0.000000,1.000000,6.000000,-4.000000,1.000000
1306120.121439,-1.000000,7.000000,2.000000,7.000000,0.000000,-1.000000,-6.000000,3.000000
1306120.143670,3.000000,1.000000,-1.000000,-7.000000,0.000000,-3.000000,3.000000,4.000000
1306120.143688,-5.000000,-4.000000,-7.000000,0.000000,2.000000,7.000000,-4.000000,0.000000
1306120.158901,-2.000000,7.000000,10.000000,7.000000,2.000000,6.000000,-6.000000,1.000000
1306120.158926,0.000000,-2.000000,-7.000000,-1.000000,-4.000000,-6.000000,2.000000,-4.000000
1306120.197145,0.000000,-8.000000,-5.000000,-10.000000,-7.000000,-6.000000,6.000000,-2.000000
1306120.197169,0.000000,2.000000,3.000000,3.000000,-1.000000,6.000000,-5.000000,7.000000
1306120.197310,-1.000000,0.000000,4.000000,0.000000,-1.000000,-4.000000,-1.000000,-3.000000
1306120.197495,-3.000000,-1.000000,9.000000,-10.000000,-9.000000,-11.000000,3.000000,-4.000000
1306120.198973,1.000000,3.000000,-3.000000,-2.000000,-4.000000,-9.000000,4.000000,-1.000000
1306120.199022,1.000000,0.000000,3.000000,0.000000,0.000000,7.000000,-2.000000,1.000000
1306120.199994,0.000000,2.000000,-2.000000,6.000000,10.000000,6.000000,-9.000000,3.000000
1306120.200087,-5.000000,-1.000000,2.000000,11.000000,2.000000,-1.000000,2.000000,3.000000
1306120.212280,-3.000000,3.000000,-2.000000,5.000000,2.000000,8.000000,-5.000000,3.000000
1306120.212356,-2.000000,-4.000000,-12.000000,-10.000000,-3.000000,-6.000000,-1.000000,-6.000000
1306120.241306,-5.000000,3.000000,9.000000,0.000000,-3.000000,-2.000000,7.000000,-4.000000
1306120.241319,3.000000,5.000000,-2.000000,6.000000,5.000000,-1.000000,1.000000,3.000000
1306120.241652,-4.000000,-4.000000,-8.000000,-5.000000,-4.000000,-9.000000,-1.000000,-2.000000
1306120.241662,5.000000,-5.000000,-3.000000,-15.000000,-5.000000,-9.000000,4.000000,-3.000000
1306120.243181,-2.000000,-1.000000,-5.000000,-5.000000,-4.000000,-1.000000,-3.000000,-1.000000
1306120.243192,0.000000,0.000000,3.000000,8.000000,0.000000,0.000000,-4.000000,3.000000
1306120.248828,0.000000,2.000000,4.000000,0.000000,3.000000,-2.000000,-1.000000,-6.000000
1306120.248840,-1.000000,5.000000,-11.000000,1.000000,2.000000,7.000000,0.000000,1.000000
1306120.263777,-3.000000,2.000000,12.000000,11.000000,9.000000,-2.000000,-10.000000,-5.000000
1306120.263795,-4.000000,-3.000000,-13.000000,0.000000,-3.000000,0.000000,1.000000,-3.000000
1306120.271467,-4.000000,-3.000000,0.000000,-5.000000,-2.000000,-1.000000,3.000000,-4.000000
1306120.271476,3.000000,4.000000,4.000000,5.000000,0.000000,-2.000000,-4.000000,-1.000000
1306120.293980,1.000000,-3.000000,-6.000000,-2.000000,-7.000000,-4.000000,-4.000000,2.000000
1306120.293992,-3.000000,7.000000,9.000000,-11.000000,-10.000000,0.000000,7.000000,-4.000000
1306120.301259,0.000000,2.000000,-13.000000,10.000000,0.000000,-2.000000,3.000000,1.000000
1306120.301308,-3.000000,-7.000000,13.000000,7.000000,-1.000000,0.000000,-4.000000,5.000000
1306120.316516,-2.000000,-6.000000,-13.000000,-6.000000,2.000000,-1.000000,4.000000,0.000000
1306120.316525,3.000000,1.000000,4.000000,1.000000,9.000000,6.000000,0.000000,0.000000
1306120.317269,-1.000000,4.000000,-3.000000,1.000000,6.000000,7.000000,-5.000000,4.000000
1306120.317287,-1.000000,3.000000,-5.000000,-5.000000,1.000000,-4.000000,-2.000000,-3.000000
1306120.323610,1.000000,-2.000000,-15.000000,-7.000000,-2.000000,-1.000000,2.000000,-4.000000
1306120.323620,2.000000,1.000000,10.000000,7.000000,2.000000,-1.000000,-5.000000,-4.000000
1306120.338664,-3.000000,-5.000000,-17.000000,4.000000,-1.000000,-1.000000,0.000000,2.000000
1306120.338737,2.000000,-2.000000,25.000000,-6.000000,-5.000000,-7.000000,7.000000,-6.000000
1306120.339907,-3.000000,2.000000,-14.000000,4.000000,0.000000,2.000000,-4.000000,1.000000
1306120.339951,1.000000,-2.000000,-6.000000,2.000000,-6.000000,-8.000000,-3.000000,-1.000000
1306120.361099,4.000000,-5.000000,-2.000000,-2.000000,-5.000000,-7.000000,8.000000,-4.000000
1306120.361131,-2.000000,-1.000000,-2.000000,-4.000000,2.000000,2.000000,-6.000000,2.000000
1306120.362486,3.000000,-1.000000,-1.000000,6.000000,3.000000,2.000000,-7.000000,4.000000
1306120.362495,4.000000,-2.000000,-5.000000,-6.000000,-6.000000,-5.000000,1.000000,-4.000000
1306120.376280,-1.000000,3.000000,-9.000000,-7.000000,1.000000,1.000000,4.000000,-1.000000
1306120.376290,-1.000000,-1.000000,2.000000,4.000000,5.000000,4.000000,-4.000000,5.000000
1306120.413917,-4.000000,-1.000000,-1.000000,0.000000,-3.000000,-12.000000,0.000000,0.000000
1306120.413928,-1.000000,-3.000000,-4.000000,-10.000000,-8.000000,-6.000000,6.000000,-7.000000
1306120.421604,-3.000000,-7.000000,9.000000,5.000000,4.000000,1.000000,-6.000000,0.000000
1306120.421621,-5.000000,0.000000,-17.000000,3.000000,-5.000000,-6.000000,-3.000000,-5.000000
1306120.436543,2.000000,-8.000000,-11.000000,-11.000000,-2.000000,-10.000000,7.000000,-1.000000
1306120.436572,-3.000000,-1.000000,14.000000,5.000000,-2.000000,-1.000000,2.000000,-1.000000
1306120.437251,2.000000,6.000000,0.000000,16.000000,7.000000,6.000000,-9.000000,1.000000
1306120.437271,0.000000,-1.000000,-3.000000,-1.000000,-3.000000,-12.000000,3.000000,0.000000
1306120.438525,-3.000000,2.000000,3.000000,2.000000,4.000000,5.000000,1.000000,-3.000000
1306120.438537,-4.000000,3.000000,1.000000,14.000000,8.000000,6.000000,-7.000000,-1.000000
1306120.439361,1.000000,-3.000000,6.000000,1.000000,-1.000000,3.000000,0.000000,-4.000000
1306120.439389,0.000000,3.000000,-2.000000,-9.000000,-6.000000,-4.000000,4.000000,-5.000000
1306120.458909,-5.000000,-3.000000,0.000000,0.000000,3.000000,0.000000,-1.000000,-2.000000
1306120.458922,3.000000,-1.000000,-2.000000,4.000000,3.000000,-4.000000,-2.000000,0.000000
1306120.459399,-4.000000,-6.000000,1.000000,-8.000000,-8.000000,-15.000000,6.000000,-7.000000
1306120.459406,1.000000,4.000000,4.000000,7.000000,4.000000,7.000000,-6.000000,-3.000000
1306120.460625,-1.000000,6.000000,-1.000000,7.000000,4.000000,2.000000,-8.000000,5.000000
1306120.460633,1.000000,-1.000000,-4.000000,-8.000000,-4.000000,-2.000000,5.000000,-1.000000
1306120.473907,0.000000,3.000000,1.000000,-8.000000,0.000000,2.000000,2.000000,-4.000000
1306120.473924,0.000000,2.000000,8.000000,15.000000,9.000000,5.000000,-4.000000,0.000000
1306120.481137,-4.000000,-6.000000,1.000000,-14.000000,-7.000000,0.000000,-2.000000,-3.000000
1306120.481147,-4.000000,4.000000,-11.000000,-8.000000,-7.000000,-8.000000,7.000000,-3.000000
1306120.533611,0.000000,1.000000,3.000000,-1.000000,2.000000,3.000000,1.000000,-1.000000
1306120.533622,-1.000000,-1.000000,-9.000000,4.000000,-5.000000,-4.000000,-1.000000,-1.000000
1306120.534712,1.000000,-7.000000,1.000000,-14.000000,-8.000000,-6.000000,6.000000,0.000000
1306120.534722,-1.000000,0.000000,2.000000,2.000000,2.000000,3.000000,-2.000000,0.000000
1306120.535363,-2.000000,-3.000000,-4.000000,2.000000,4.000000,4.000000,-7.000000,0.000000
1306120.535372,-4.000000,-1.000000,-2.000000,1.000000,-1.000000,-8.000000,3.000000,-4.000000
1306120.536622,1.000000,-5.000000,-7.000000,1.000000,4.000000,3.000000,-2.000000,-1.000000
1306120.536630,-1.000000,5.000000,-4.000000,-1.000000,10.000000,11.000000,-7.000000,1.000000
1306120.541063,0.000000,-6.000000,4.000000,-5.000000,4.000000,0.000000,1.000000,0.000000
1306120.541090,4.000000,4.000000,-6.000000,-11.000000,-4.000000,-11.000000,4.000000,-6.000000
1306120.556459,-5.000000,3.000000,2.000000,-1.000000,0.000000,-3.000000,-4.000000,-1.000000
1306120.556473,0.000000,-4.000000,-3.000000,-1.000000,1.000000,-2.000000,-3.000000,4.000000
1306120.556844,0.000000,3.000000,1.000000,-12.000000,-6.000000,-7.000000,-1.000000,-4.000000
1306120.556856,-3.000000,0.000000,-10.000000,-1.000000,0.000000,8.000000,-2.000000,-1.000000
1306120.563919,0.000000,-6.000000,4.000000,19.000000,12.000000,6.000000,-3.000000,3.000000
1306120.563931,1.000000,5.000000,-4.000000,-10.000000,-2.000000,-5.000000,3.000000,0.000000
1306120.578859,0.000000,5.000000,0.000000,-1.000000,-2.000000,3.000000,-2.000000,0.000000
1306120.578872,-5.000000,5.000000,-1.000000,17.000000,8.000000,6.000000,-6.000000,3.000000
1306120.601034,-2.000000,3.000000,2.000000,1.000000,-2.000000,-3.000000,1.000000,0.000000
1306120.601044,-3.000000,0.000000,-5.000000,-13.000000,-6.000000,-5.000000,2.000000,-5.000000
1306120.608758,3.000000,0.000000,10.000000,1.000000,4.000000,8.000000,-1.000000,1.000000
1306120.608787,-2.000000,-1.000000,-2.000000,-1.000000,-9.000000,-3.000000,-4.000000,-2.000000
1306120.653734,0.000000,-12.000000,2.000000,-13.000000,-7.000000,-14.000000,4.000000,-6.000000
1306120.653764,1.000000,5.000000,3.000000,2.000000,4.000000,5.000000,-5.000000,1.000000
1306120.676480,-1.000000,0.000000,6.000000,13.000000,6.000000,6.000000,-3.000000,3.000000
1306120.676531,-5.000000,0.000000,-5.000000,-2.000000,-2.000000,-5.000000,1.000000,-3.000000
1306120.677534,-1.000000,0.000000,4.000000,-1.000000,2.000000,4.000000,-1.000000,-4.000000
1306120.677556,0.000000,9.000000,4.000000,11.000000,7.000000,12.000000,-6.000000,4.000000
1306120.678318,-1.000000,3.000000,-6.000000,-8.000000,1.000000,-4.000000,3.000000,1.000000
1306120.678335,-2.000000,3.000000,-4.000000,0.000000,-2.000000,-5.000000,5.000000,-6.000000
1306120.679511,1.000000,-7.000000,-9.000000,-12.000000,-7.000000,-13.000000,3.000000,-4.000000
1306120.679519,0.000000,1.000000,4.000000,5.000000,3.000000,8.000000,-6.000000,0.000000
1306120.680071,-3.000000,-2.000000,-5.000000,0.000000,3.000000,5.000000,-2.000000,-4.000000
1306120.680079,1.000000,3.000000,10.000000,14.000000,8.000000,7.000000,-7.000000,3.000000
1306120.690951,0.000000,5.000000,4.000000,-5.000000,-8.000000,-5.000000,1.000000,-3.000000
1306120.690964,-1.000000,-7.000000,-1.000000,-6.000000,-8.000000,0.000000,4.000000,-2.000000
1306120.691581,-4.000000,-13.000000,1.000000,-3.000000,3.000000,7.000000,-5.000000,2.000000
1306120.691638,-1.000000,-3.000000,4.000000,-4.000000,0.000000,-7.000000,0.000000,3.000000
1306120.698677,1.000000,-2.000000,-9.000000,-10.000000,-6.000000,-11.000000,6.000000,-6.000000
1306120.698712,-5.000000,2.000000,1.000000,-1.000000,-3.000000,4.000000,-4.000000,0.000000
1306120.714467,1.000000,4.000000,30.000000,17.000000,3.000000,2.000000,-4.000000,3.000000
1306120.714483,-1.000000,-3.000000,-12.000000,-4.000000,-8.000000,-2.000000,1.000000,-1.000000
1306120.721230,-2.000000,12.000000,0.000000,0.000000,5.000000,2.000000,-3.000000,-4.000000
1306120.721255,1.000000,-1.000000,-2.000000,7.000000,8.000000,10.000000,-7.000000,4.000000
1306120.751442,-3.000000,-5.000000,-3.000000,0.000000,-3.000000,-5.000000,0.000000,-2.000000
1306120.751453,0.000000,-5.000000,-2.000000,-9.000000,-1.000000,-2.000000,2.000000,-1.000000
1306120.758974,-3.000000,2.000000,-1.000000,-2.000000,0.000000,0.000000,-7.000000,2.000000
1306120.758986,-1.000000,-3.000000,5.000000,0.000000,-2.000000,1.000000,1.000000,4.000000
1306120.796497,-2.000000,0.000000,-5.000000,-3.000000,-6.000000,-8.000000,7.000000,-2.000000
1306120.796509,0.000000,-8.000000,-1.000000,2.000000,0.000000,3.000000,-2.000000,1.000000
1306120.811511,1.000000,-5.000000,-1.000000,6.000000,-1.000000,-4.000000,-6.000000,0.000000
1306120.811523,-3.000000,-3.000000,-3.000000,-3.000000,-3.000000,1.000000,1.000000,1.000000
1306120.812261,-3.000000,3.000000,-6.000000,2.000000,1.000000,1.000000,-2.000000,1.000000
1306120.812271,3.000000,0.000000,8.000000,6.000000,9.000000,11.000000,-5.000000,4.000000
1306120.813017,0.000000,-5.000000,1.000000,-3.000000,-6.000000,-2.000000,4.000000,0.000000
1306120.813032,-5.000000,3.000000,-3.000000,-7.000000,-7.000000,-1.000000,-2.000000,-1.000000
1306120.814214,-4.000000,2.000000,-4.000000,3.000000,6.000000,7.000000,-7.000000,0.000000
1306120.814224,-3.000000,-4.000000,4.000000,-3.000000,-2.000000,-6.000000,1.000000,3.000000
1306120.818775,1.000000,4.000000,5.000000,1.000000,1.000000,3.000000,-4.000000,2.000000
1306120.818799,-2.000000,8.000000,7.000000,7.000000,1.000000,7.000000,-9.000000,6.000000
1306120.834249,-3.000000,-11.000000,3.000000,-4.000000,-5.000000,-9.000000,0.000000,-5.000000
1306120.834259,1.000000,-6.000000,-3.000000,-7.000000,-2.000000,-8.000000,4.000000,-5.000000
1306120.848807,0.000000,-3.000000,-3.000000,6.000000,2.000000,3.000000,-4.000000,0.000000
1306120.848819,0.000000,4.000000,-7.000000,2.000000,-7.000000,-4.000000,-2.000000,-3.000000
1306120.871317,-3.000000,-4.000000,-9.000000,-10.000000,-3.000000,-7.000000,8.000000,-2.000000
1306120.871334,2.000000,-2.000000,-5.000000,4.000000,5.000000,-1.000000,-5.000000,-1.000000
1306120.878695,-1.000000,-3.000000,2.000000,5.000000,-3.000000,-3.000000,-6.000000,1.000000
1306120.878714,7.000000,-7.000000,1.000000,-5.000000,-3.000000,-7.000000,6.000000,0.000000
1306120.894067,-3.000000,9.000000,4.000000,5.000000,5.000000,4.000000,-6.000000,-1.000000
1306120.894099,-1.000000,7.000000,-2.000000,10.000000,5.000000,7.000000,-9.000000,2.000000
1306120.916130,-1.000000,1.000000,4.000000,-5.000000,-2.000000,-8.000000,2.000000,0.000000
1306120.916142,3.000000,-2.000000,-7.000000,-8.000000,1.000000,3.000000,2.000000,0.000000
1306120.917218,2.000000,-3.000000,-2.000000,2.000000,0.000000,0.000000,-7.000000,1.000000
1306120.917227,-2.000000,3.000000,-5.000000,-7.000000,-1.000000,-1.000000,-1.000000,2.000000
1306120.917962,-3.000000,-2.000000,-9.000000,-10.000000,-7.000000,-8.000000,3.000000,-5.000000
1306120.917972,-1.000000,3.000000,5.000000,2.000000,-3.000000,1.000000,-5.000000,-2.000000
1306120.919287,3.000000,-8.000000,-3.000000,0.000000,0.000000,-9.000000,3.000000,2.000000
1306120.919295,-3.000000,-6.000000,-3.000000,-5.000000,-6.000000,-11.000000,1.000000,-7.000000
1306120.931088,4.000000,-2.000000,10.000000,5.000000,2.000000,2.000000,-3.000000,1.000000
1306120.931108,0.000000,5.000000,4.000000,6.000000,5.000000,3.000000,-3.000000,1.000000
1306120.932423,1.000000,0.000000,-7.000000,-5.000000,-4.000000,-4.000000,2.000000,-1.000000
1306120.932432,-1.000000,-1.000000,-1.000000,-8.000000,3.000000,3.000000,3.000000,0.000000
1306120.954118,0.000000,4.000000,0.000000,6.000000,-2.000000,8.000000,-7.000000,-1.000000
1306120.954127,1.000000,3.000000,-4.000000,-2.000000,3.000000,-6.000000,7.000000,-3.000000
1306120.976299,-1.000000,1.000000,-1.000000,-6.000000,-2.000000,-4.000000,7.000000,-4.000000
1306120.976326,-2.000000,-1.000000,2.000000,0.000000,4.000000,2.000000,1.000000,3.000000
1306120.991434,0.000000,-6.000000,0.000000,3.000000,1.000000,-1.000000,-2.000000,3.000000
1306120.991445,-2.000000,1.000000,4.000000,-8.000000,-7.000000,-6.000000,2.000000,-5.000000
1306121.014204,-3.000000,1.000000,0.000000,7.000000,-2.000000,2.000000,-2.000000,-4.000000
1306121.014217,-1.000000,2.000000,7.000000,11.000000,7.000000,3.000000,-3.000000,1.000000
1306121.014722,-1.000000,5.000000,-3.000000,-5.000000,-7.000000,-7.000000,-1.000000,1.000000
1306121.014730,3.000000,3.000000,2.000000,-9.000000,-3.000000,0.000000,3.000000,-4.000000
1306121.016012,3.000000,5.000000,-1.000000,10.000000,2.000000,2.000000,-5.000000,4.000000
1306121.016029,0.000000,-2.000000,-3.000000,-2.000000,-2.000000,1.000000,0.000000,1.000000
1306121.016663,-1.000000,-1.000000,-1.000000,-8.000000,-6.000000,-8.000000,6.000000,-6.000000
1306121.016681,0.000000,-3.000000,-7.000000,2.000000,2.000000,3.000000,-4.000000,1.000000
1306121.028944,2.000000,3.000000,2.000000,2.000000,0.000000,0.000000,-2.000000,1.000000
1306121.028957,0.000000,8.000000,1.000000,2.000000,4.000000,0.000000,-8.000000,2.000000
1306121.037063,0.000000,-4.000000,-7.000000,-4.000000,3.000000,-5.000000,2.000000,-1.000000
1306121.037074,-2.000000,-10.000000,-4.000000,-7.000000,-5.000000,3.000000,0.000000,-2.000000
1306121.051228,-2.000000,6.000000,2.000000,2.000000,8.000000,7.000000,-7.000000,2.000000
1306121.051257,1.000000,-3.000000,-4.000000,-3.000000,-2.000000,-9.000000,-1.000000,0.000000
1306121.052406,-2.000000,4.000000,-7.000000,-10.000000,-3.000000,0.000000,7.000000,-1.000000
1306121.052435,9.000000,5.000000,5.000000,-2.000000,-7.000000,1.000000,-5.000000,1.000000
1306121.073738,-7.000000,-2.000000,2.000000,7.000000,4.000000,4.000000,-2.000000,4.000000
1306121.073747,1.000000,-5.000000,-6.000000,-4.000000,-4.000000,-11.000000,4.000000,-7.000000
1306121.096136,-4.000000,-7.000000,10.000000,1.000000,4.000000,-4.000000,2.000000,-1.000000
1306121.096147,0.000000,5.000000,-6.000000,7.000000,4.000000,2.000000,-11.000000,3.000000
1306121.111283,1.000000,-3.000000,-8.000000,-5.000000,-4.000000,3.000000,-4.000000,-2.000000
1306121.111293,1.000000,1.000000,-2.000000,-3.000000,-1.000000,1.000000,1.000000,-3.000000
1306121.140987,1.000000,2.000000,-1.000000,11.000000,6.000000,1.000000,-5.000000,4.000000
1306121.141003,1.000000,-3.000000,0.000000,-1.000000,6.000000,2.000000,3.000000,2.000000
1306121.148498,-3.000000,-1.000000,-4.000000,-7.000000,-5.000000,-1.000000,0.000000,1.000000
1306121.148511,0.000000,-2.000000,-1.000000,3.000000,-2.000000,-3.000000,-1.000000,-1.000000
1306121.149631,0.000000,3.000000,6.000000,2.000000,-1.000000,-2.000000,-4.000000,3.000000
1306121.149671,-6.000000,-15.000000,-17.000000,-16.000000,-10.000000,-5.000000,4.000000,-4.000000
1306121.150408,0.000000,0.000000,10.000000,3.000000,0.000000,2.000000,2.000000,-3.000000
1306121.150422,2.000000,4.000000,2.000000,6.000000,5.000000,-2.000000,-8.000000,0.000000
1306121.156777,0.000000,1.000000,-3.000000,-6.000000,-4.000000,0.000000,3.000000,0.000000
1306121.156793,-5.000000,-9.000000,-1.000000,-1.000000,-2.000000,5.000000,0.000000,0.000000
1306121.163833,-1.000000,-2.000000,-2.000000,8.000000,-2.000000,-1.000000,-8.000000,0.000000
1306121.163844,-3.000000,-6.000000,-6.000000,-8.000000,-9.000000,-16.000000,8.000000,-3.000000
1306121.193848,1.000000,6.000000,0.000000,-2.000000,-2.000000,8.000000,-3.000000,-3.000000
1306121.193868,-1.000000,-6.000000,-6.000000,6.000000,4.000000,1.000000,-3.000000,6.000000
1306121.208764,0.000000,-4.000000,-5.000000,0.000000,-2.000000,-4.000000,1.000000,-1.000000
1306121.208776,-2.000000,3.000000,3.000000,3.000000,7.000000,7.000000,-2.000000,-3.000000
1306121.246335,-2.000000,-1.000000,-3.000000,6.000000,3.000000,4.000000,-7.000000,2.000000
1306121.246385,-4.000000,-4.000000,-2.000000,-9.000000,-6.000000,-6.000000,0.000000,-2.000000
1306121.246757,-1.000000,-6.000000,-3.000000,-8.000000,-3.000000,-2.000000,3.000000,-6.000000
1306121.246774,-4.000000,-2.000000,-5.000000,0.000000,0.000000,0.000000,-5.000000,-1.000000
1306121.248262,0.000000,-2.000000,-5.000000,1.000000,2.000000,0.000000,-5.000000,-4.000000
1306121.248275,4.000000,-8.000000,5.000000,-8.000000,-9.000000,-7.000000,5.000000,-1.000000
1306121.248646,-2.000000,-2.000000,3.000000,-2.000000,1.000000,-3.000000,0.000000,-3.000000
1306121.248684,2.000000,-1.000000,-2.000000,9.000000,4.000000,5.000000,-9.000000,3.000000
1306121.254447,1.000000,1.000000,-5.000000,-12.000000,-2.000000,-2.000000,9.000000,-5.000000
1306121.254476,0.000000,-2.000000,-3.000000,2.000000,-1.000000,-1.000000,-2.000000,-1.000000
1306121.268909,1.000000,-8.000000,-2.000000,-2.000000,-6.000000,-3.000000,1.000000,0.000000
1306121.268926,0.000000,-1.000000,-3.000000,-14.000000,-7.000000,-13.000000,5.000000,-4.000000
1306121.283885,-5.000000,3.000000,0.000000,1.000000,-1.000000,9.000000,-3.000000,-2.000000
1306121.283910,-1.000000,-1.000000,0.000000,6.000000,3.000000,3.000000,-3.000000,2.000000
1306121.291313,-5.000000,-5.000000,-5.000000,-6.000000,-2.000000,-4.000000,2.000000,-3.000000
1306121.291396,-1.000000,-3.000000,0.000000,1.000000,3.000000,8.000000,6.000000,1.000000
1306121.292589,0.000000,1.000000,0.000000,13.000000,4.000000,10.000000,-5.000000,2.000000
1306121.292608,3.000000,5.000000,1.000000,-3.000000,-8.000000,-1.000000,3.000000,0.000000
1306121.306496,0.000000,0.000000,-6.000000,-4.000000,-1.000000,-6.000000,4.000000,-3.000000
1306121.306514,-5.000000,2.000000,0.000000,4.000000,1.000000,0.000000,-4.000000,-4.000000
1306121.328920,-1.000000,-6.000000,-3.000000,-1.000000,-1.000000,-4.000000,-3.000000,1.000000
1306121.328930,-5.000000,-10.000000,-5.000000,-10.000000,-11.000000,-10.000000,12.000000,-6.000000
1306121.351290,-4.000000,-1.000000,-1.000000,3.000000,1.000000,2.000000,-4.000000,1.000000
1306121.351332,3.000000,3.000000,0.000000,5.000000,-3.000000,3.000000,-5.000000,4.000000
1306121.352402,2.000000,-3.000000,-3.000000,-1.000000,-1.000000,-3.000000,2.000000,-1.000000
1306121.352414,2.000000,1.000000,-5.000000,1.000000,-3.000000,-2.000000,3.000000,-4.000000
1306121.352917,-6.000000,2.000000,2.000000,16.000000,7.000000,10.000000,-12.000000,3.000000
1306121.352944,-3.000000,-7.000000,0.000000,0.000000,-3.000000,-6.000000,0.000000,2.000000
1306121.354693,1.000000,-11.000000,-8.000000,-6.000000,-3.000000,-2.000000,3.000000,-5.000000
1306121.354709,-3.000000,1.000000,11.000000,11.000000,2.000000,5.000000,-1.000000,1.000000
1306121.366363,-1.000000,-7.000000,-3.000000,0.000000,-6.000000,-6.000000,-5.000000,0.000000
1306121.366373,2.000000,-4.000000,-7.000000,-14.000000,-10.000000,-11.000000,5.000000,1.000000
1306121.388998,2.000000,-3.000000,-1.000000,0.000000,1.000000,6.000000,-5.000000,3.000000
1306121.389042,1.000000,-1.000000,2.000000,3.000000,-1.000000,1.000000,-1.000000,1.000000
1306121.396190,3.000000,-5.000000,1.000000,-7.000000,-3.000000,-3.000000,-2.000000,-1.000000
1306121.396199,1.000000,8.000000,-2.000000,-1.000000,2.000000,4.000000,-1.000000,0.000000
1306121.411315,3.000000,2.000000,11.000000,16.000000,2.000000,5.000000,-5.000000,3.000000
1306121.411325,0.000000,-3.000000,-12.000000,-2.000000,-2.000000,-2.000000,1.000000,0.000000
1306121.411741,-1.000000,-2.000000,3.000000,-6.000000,0.000000,-4.000000,2.000000,-2.000000
1306121.411749,-2.000000,0.000000,-3.000000,6.000000,2.000000,-3.000000,-6.000000,-2.000000
1306121.413126,0.000000,0.000000,-1.000000,2.000000,-1.000000,-8.000000,-1.000000,-3.000000
1306121.413135,-1.000000,1.000000,-6.000000,-14.000000,-11.000000,-6.000000,6.000000,-2.000000
1306121.426329,-1.000000,5.000000,4.000000,7.000000,0.000000,-3.000000,-3.000000,2.000000
1306121.426352,-2.000000,-1.000000,2.000000,11.000000,0.000000,4.000000,-2.000000,-3.000000
1306121.441027,1.000000,-1.000000,-2.000000,-4.000000,1.000000,-4.000000,3.000000,-5.000000
1306121.441036,0.000000,9.000000,2.000000,1.000000,3.000000,7.000000,-4.000000,-2.000000
1306121.448737,1.000000,-3.000000,-5.000000,9.000000,7.000000,3.000000,-7.000000,5.000000
1306121.448747,-3.000000,3.000000,-1.000000,-5.000000,-7.000000,-4.000000,0.000000,-2.000000
1306121.471673,1.000000,0.000000,-1.000000,-8.000000,-2.000000,-1.000000,2.000000,-4.000000
1306121.471683,4.000000,-3.000000,1.000000,5.000000,1.000000,2.000000,-3.000000,2.000000
1306121.472137,-3.000000,-3.000000,-1.000000,3.000000,6.000000,-4.000000,0.000000,2.000000
1306121.472145,-2.000000,8.000000,-6.000000,-15.000000,-7.000000,-10.000000,4.000000,-4.000000
1306121.473835,3.000000,-1.000000,2.000000,7.000000,-4.000000,1.000000,1.000000,-3.000000
1306121.473849,-1.000000,2.000000,2.000000,9.000000,-1.000000,-6.000000,-1.000000,2.000000
1306121.486352,-1.000000,-6.000000,-7.000000,-2.000000,-7.000000,-5.000000,1.000000,-8.000000
1306121.486369,1.000000,1.000000,-8.000000,1.000000,10.000000,4.000000,-4.000000,2.000000
1306121.508893,-2.000000,3.000000,1.000000,7.000000,3.000000,10.000000,-4.000000,6.000000
1306121.508980,-2.000000,-1.000000,2.000000,0.000000,3.000000,-5.000000,2.000000,2.000000
1306121.509121,1.000000,-2.000000,1.000000,-5.000000,-1.000000,-3.000000,4.000000,-2.000000
1306121.509130,2.000000,6.000000,1.000000,1.000000,-1.000000,5.000000,-5.000000,1.000000
1306121.524009,1.000000,-12.000000,0.000000,-1.000000,-4.000000,-3.000000,0.000000,1.000000
1306121.524040,-3.000000,-1.000000,1.000000,-7.000000,-9.000000,-8.000000,6.000000,-7.000000
1306121.524471,-1.000000,1.000000,1.000000,-4.000000,-5.000000,3.000000,-3.000000,-4.000000
1306121.524480,-5.000000,-1.000000,2.000000,11.000000,-2.000000,2.000000,-1.000000,2.000000
1306121.531981,3.000000,-9.000000,-4.000000,-4.000000,3.000000,-10.000000,4.000000,0.000000
1306121.532082,1.000000,3.000000,-2.000000,2.000000,0.000000,9.000000,-1.000000,-1.000000
1306121.546168,-4.000000,11.000000,4.000000,6.000000,9.000000,3.000000,-6.000000,2.000000
1306121.546178,5.000000,3.000000,2.000000,-3.000000,-5.000000,-6.000000,4.000000,-3.000000
1306121.583879,3.000000,-5.000000,-2.000000,-7.000000,0.000000,0.000000,-4.000000,-3.000000
1306121.583897,-1.000000,1.000000,3.000000,12.000000,2.000000,3.000000,-8.000000,0.000000
1306121.591452,-3.000000,-3.000000,1.000000,-4.000000,1.000000,0.000000,-2.000000,0.000000
1306121.591463,1.000000,-2.000000,-5.000000,-8.000000,-2.000000,-3.000000,9.000000,-3.000000
1306121.607011,4.000000,-1.000000,-1.000000,-2.000000,1.000000,0.000000,-4.000000,0.000000
1306121.607048,-5.000000,-4.000000,1.000000,7.000000,-5.000000,-3.000000,-6.000000,-5.000000
1306121.607465,-2.000000,-2.000000,-3.000000,-11.000000,-8.000000,-8.000000,3.000000,-3.000000
1306121.607484,1.000000,-1.000000,0.000000,-3.000000,0.000000,2.000000,-7.000000,-1.000000
1306121.608795,1.000000,3.000000,-3.000000,11.000000,4.000000,3.000000,-9.000000,3.000000
1306121.608804,0.000000,2.000000,5.000000,1.000000,0.000000,0.000000,2.000000,0.000000
1306121.609491,-5.000000,-8.000000,2.000000,-1.000000,-2.000000,6.000000,1.000000,-1.000000
1306121.609513,-4.000000,1.000000,2.000000,9.000000,2.000000,10.000000,-8.000000,0.000000
1306121.629135,0.000000,2.000000,-5.000000,-2.000000,-5.000000,-15.000000,1.000000,-2.000000
1306121.629144,1.000000,-2.000000,-7.000000,-5.000000,-7.000000,-6.000000,8.000000,-4.000000
1306121.629623,1.000000,6.000000,0.000000,2.000000,1.000000,3.000000,0.000000,3.000000
1306121.629632,-6.000000,2.000000,-5.000000,1.000000,-1.000000,2.000000,-4.000000,3.000000
1306121.643633,2.000000,-6.000000,-2.000000,-7.000000,-6.000000,-11.000000,4.000000,-4.000000
1306121.643644,-5.000000,-2.000000,1.000000,1.000000,5.000000,3.000000,-3.000000,0.000000
1306121.644565,-1.000000,2.000000,12.000000,7.000000,4.000000,4.000000,-2.000000,2.000000
1306121.644574,-1.000000,2.000000,-9.000000,-6.000000,-8.000000,-5.000000,-1.000000,-5.000000
1306121.651999,-2.000000,-12.000000,6.000000,-4.000000,-3.000000,2.000000,3.000000,-2.000000
1306121.652008,0.000000,4.000000,4.000000,5.000000,8.000000,9.000000,-11.000000,0.000000
1306121.666237,-1.000000,-5.000000,-3.000000,-4.000000,-4.000000,1.000000,1.000000,-5.000000
1306121.666247,1.000000,2.000000,-4.000000,-12.000000,0.000000,-4.000000,5.000000,0.000000
1306121.688962,-1.000000,3.000000,-1.000000,2.000000,-2.000000,2.000000,1.000000,-2.000000
1306121.688974,-1.000000,-6.000000,-2.000000,6.000000,2.000000,-3.000000,-5.000000,-1.000000
1306121.703739,-1.000000,-9.000000,-3.000000,-11.000000,-7.000000,-9.000000,9.000000,-1.000000
1306121.703777,1.000000,-2.000000,0.000000,-3.000000,-1.000000,1.000000,-6.000000,-2.000000
1306121.704678,-3.000000,2.000000,6.000000,8.000000,0.000000,0.000000,-12.000000,3.000000
1306121.704698,1.000000,1.000000,-3.000000,-5.000000,3.000000,0.000000,-1.000000,-4.000000
1306121.705591,-4.000000,-4.000000,0.000000,-7.000000,-3.000000,-1.000000,1.000000,-1.000000
1306121.705606,0.000000,7.000000,4.000000,14.000000,7.000000,8.000000,-7.000000,3.000000
1306121.711894,-11.000000,0.000000,-3.000000,-5.000000,-7.000000,-7.000000,0.000000,-6.000000
1306121.711909,4.000000,-4.000000,-5.000000,-10.000000,-5.000000,-3.000000,6.000000,0.000000
1306121.726252,0.000000,1.000000,0.000000,4.000000,0.000000,6.000000,-5.000000,3.000000
1306121.726262,3.000000,-3.000000,0.000000,-2.000000,-6.000000,-3.000000,-2.000000,0.000000
1306121.748555,-1.000000,-12.000000,-4.000000,-13.000000,-11.000000,-12.000000,8.000000,-5.000000
1306121.748570,1.000000,6.000000,-3.000000,2.000000,4.000000,2.000000,-3.000000,1.000000
1306121.749080,-3.000000,6.000000,-2.000000,11.000000,4.000000,-3.000000,-4.000000,3.000000
1306121.749093,1.000000,2.000000,-3.000000,-3.000000,2.000000,0.000000,2.000000,1.000000
1306121.763665,2.000000,6.000000,10.000000,-1.000000,-1.000000,2.000000,-2.000000,3.000000
1306121.763686,5.000000,-2.000000,-4.000000,4.000000,9.000000,10.000000,-7.000000,4.000000
1306121.764329,0.000000,3.000000,8.000000,-5.000000,-6.000000,-7.000000,3.000000,-2.000000
1306121.764344,1.000000,0.000000,0.000000,-13.000000,-8.000000,-4.000000,6.000000,-5.000000
1306121.801183,2.000000,-11.000000,-4.000000,1.000000,4.000000,3.000000,-1.000000,3.000000
1306121.801212,-4.000000,-1.000000,-3.000000,1.000000,-2.000000,-4.000000,-5.000000,-1.000000
1306121.808706,-3.000000,-5.000000,-3.000000,-15.000000,-7.000000,-4.000000,9.000000,-3.000000
1306121.808727,-1.000000,-5.000000,2.000000,-1.000000,2.000000,5.000000,-2.000000,-1.000000
1306121.846265,0.000000,-4.000000,4.000000,6.000000,3.000000,1.000000,-4.000000,2.000000
1306121.846275,1.000000,0.000000,-1.000000,-6.000000,-5.000000,-5.000000,3.000000,0.000000
1306121.861077,2.000000,2.000000,10.000000,-3.000000,-1.000000,-9.000000,-2.000000,1.000000
1306121.861093,-3.000000,-1.000000,-6.000000,3.000000,4.000000,8.000000,-9.000000,1.000000
1306121.862112,-2.000000,-6.000000,8.000000,-7.000000,-1.000000,-11.000000,2.000000,-5.000000
1306121.862120,2.000000,3.000000,0.000000,-6.000000,-2.000000,-4.000000,7.000000,-7.000000
1306121.863033,-3.000000,-1.000000,1.000000,12.000000,-2.000000,0.000000,1.000000,1.000000
1306121.863059,-3.000000,-7.000000,-3.000000,0.000000,-5.000000,-7.000000,-8.000000,0.000000
1306121.883827,-2.000000,0.000000,-1.000000,8.000000,0.000000,1.000000,-6.000000,2.000000
1306121.883846,-4.000000,3.000000,0.000000,-7.000000,-1.000000,-5.000000,5.000000,-1.000000
1306121.906256,1.000000,0.000000,3.000000,-1.000000,-5.000000,-8.000000,2.000000,0.000000
1306121.906266,-2.000000,1.000000,-6.000000,-8.000000,-2.000000,-4.000000,5.000000,-4.000000
1306121.928777,-1.000000,1.000000,10.000000,9.000000,3.000000,3.000000,-2.000000,0.000000
1306121.928788,-2.000000,-3.000000,0.000000,-1.000000,4.000000,-7.000000,-4.000000,0.000000
1306121.943740,-1.000000,-13.000000,-4.000000,-11.000000,-9.000000,-7.000000,8.000000,-2.000000
1306121.943763,0.000000,6.000000,-7.000000,0.000000,5.000000,1.000000,-3.000000,-1.000000
1306121.966858,3.000000,0.000000,0.000000,12.000000,-3.000000,1.000000,-8.000000,1.000000
1306121.966869,2.000000,-4.000000,1.000000,-6.000000,-4.000000,-10.000000,2.000000,-1.000000
1306121.967402,-2.000000,1.000000,-2.000000,3.000000,4.000000,3.000000,-6.000000,-2.000000
1306121.967412,1.000000,2.000000,5.000000,17.000000,4.000000,14.000000,-5.000000,5.000000
1306121.967861,0.000000,0.000000,2.000000,1.000000,-1.000000,3.000000,-1.000000,-4.000000
1306121.967871,2.000000,1.000000,-2.000000,1.000000,-1.000000,-4.000000,0.000000,-1.000000
1306121.968546,1.000000,-7.000000,-2.000000,-10.000000,-3.000000,-8.000000,8.000000,-4.000000
1306121.968556,3.000000,0.000000,1.000000,4.000000,0.000000,-2.000000,-2.000000,3.000000
1306121.969145,-6.000000,2.000000,-4.000000,3.000000,4.000000,5.000000,-10.000000,0.000000
1306121.969154,0.000000,5.000000,-8.000000,-2.000000,-2.000000,-5.000000,4.000000,-2.000000
1306121.970044,-3.000000,0.000000,-13.000000,-4.000000,-3.000000,-3.000000,5.000000,0.000000
1306121.970054,-6.000000,2.000000,6.000000,-6.000000,-2.000000,-1.000000,8.000000,-2.000000
1306121.981625,0.000000,-7.000000,2.000000,3.000000,0.000000,1.000000,-3.000000,-1.000000
1306121.981634,-4.000000,3.000000,-1.000000,-1.000000,-1.000000,-6.000000,-3.000000,-5.000000
1306121.982356,-1.000000,-3.000000,-5.000000,-15.000000,-11.000000,-9.000000,11.000000,-7.000000
1306121.982379,-3.000000,-5.000000,-2.000000,2.000000,-1.000000,0.000000,-5.000000,3.000000
1306121.996171,-1.000000,-2.000000,-1.000000,7.000000,2.000000,-1.000000,-7.000000,3.000000
1306121.996182,0.000000,4.000000,-2.000000,-4.000000,-2.000000,-6.000000,-1.000000,-1.000000
1306122.003788,-1.000000,6.000000,3.000000,1.000000,1.000000,7.000000,0.000000,1.000000
1306122.003800,-2.000000,2.000000,6.000000,9.000000,0.000000,5.000000,-3.000000,1.000000
1306122.041106,0.000000,-1.000000,1.000000,-8.000000,2.000000,0.000000,2.000000,-1.000000
1306122.041125,-4.000000,-5.000000,-12.000000,-1.000000,1.000000,-1.000000,9.000000,-1.000000
1306122.071142,-3.000000,1.000000,6.000000,3.000000,4.000000,0.000000,-2.000000,-3.000000
1306122.071152,1.000000,-7.000000,-2.000000,-4.000000,-2.000000,0.000000,-1.000000,-1.000000
1306122.086143,-5.000000,-8.000000,-7.000000,0.000000,-2.000000,-2.000000,6.000000,-7.000000
1306122.086163,1.000000,-3.000000,-3.000000,9.000000,3.000000,5.000000,0.000000,0.000000
1306122.101387,-3.000000,-3.000000,6.000000,4.000000,-2.000000,-1.000000,-5.000000,1.000000
1306122.101399,-1.000000,-4.000000,-5.000000,-7.000000,-2.000000,-2.000000,2.000000,-5.000000
1306122.102296,-3.000000,0.000000,-3.000000,6.000000,4.000000,3.000000,-4.000000,-1.000000
1306122.102308,0.000000,8.000000,9.000000,8.000000,6.000000,4.000000,-8.000000,6.000000
1306122.102835,4.000000,-5.000000,-7.000000,-3.000000,-4.000000,-5.000000,1.000000,-1.000000
1306122.102844,1.000000,1.000000,6.000000,-6.000000,4.000000,5.000000,0.000000,-3.000000
1306122.103451,3.000000,-5.000000,-6.000000,-13.000000,-7.000000,-4.000000,9.000000,-2.000000
1306122.103459,-3.000000,1.000000,-7.000000,8.000000,7.000000,14.000000,1.000000,0.000000
1306122.105482,1.000000,1.000000,-1.000000,-5.000000,4.000000,2.000000,1.000000,-1.000000
1306122.105493,0.000000,11.000000,0.000000,11.000000,6.000000,1.000000,-9.000000,3.000000
1306122.116855,-2.000000,-5.000000,-8.000000,-7.000000,0.000000,-5.000000,0.000000,-3.000000
1306122.116874,-1.000000,-6.000000,-3.000000,-7.000000,-7.000000,-6.000000,3.000000,-2.000000
1306122.123652,-2.000000,6.000000,4.000000,5.000000,2.000000,7.000000,-6.000000,-2.000000
1306122.123672,-1.000000,-8.000000,-7.000000,-3.000000,-7.000000,-7.000000,1.000000,-1.000000
1306122.146449,-4.000000,-4.000000,-13.000000,-20.000000,-6.000000,-7.000000,7.000000,-7.000000
1306122.146460,-2.000000,2.000000,2.000000,1.000000,0.000000,1.000000,-8.000000,-1.000000
1306122.153946,-1.000000,-4.000000,2.000000,6.000000,7.000000,0.000000,-4.000000,4.000000
1306122.153958,1.000000,-6.000000,-5.000000,-10.000000,-7.000000,-10.000000,0.000000,-3.000000
1306122.183725,2.000000,0.000000,1.000000,1.000000,0.000000,2.000000,-4.000000,1.000000
1306122.183735,-1.000000,5.000000,0.000000,5.000000,3.000000,2.000000,-6.000000,1.000000
1306122.191451,0.000000,-4.000000,-2.000000,-4.000000,-7.000000,-4.000000,0.000000,-2.000000
1306122.191462,-2.000000,6.000000,-3.000000,0.000000,1.000000,4.000000,0.000000,1.000000
1306122.206490,3.000000,-1.000000,3.000000,-1.000000,1.000000,3.000000,-6.000000,2.000000
1306122.206507,-3.000000,1.000000,-1.000000,-1.000000,-7.000000,-9.000000,0.000000,0.000000
1306122.206973,-2.000000,-4.000000,5.000000,-5.000000,-9.000000,-5.000000,5.000000,-1.000000
1306122.206982,1.000000,3.000000,3.000000,3.000000,-2.000000,1.000000,-1.000000,2.000000
1306122.207856,0.000000,-7.000000,-5.000000,1.000000,3.000000,0.000000,-5.000000,-1.000000
1306122.207864,-3.000000,-5.000000,0.000000,-11.000000,-6.000000,-10.000000,5.000000,-1.000000
1306122.208725,0.000000,3.000000,3.000000,-1.000000,3.000000,5.000000,0.000000,-3.000000
1306122.208734,2.000000,3.000000,-1.000000,9.000000,6.000000,10.000000,-9.000000,5.000000
1306122.221981,-3.000000,-5.000000,-4.000000,-5.000000,-6.000000,-3.000000,4.000000,-5.000000
1306122.221992,5.000000,-4.000000,7.000000,-14.000000,-3.000000,-2.000000,6.000000,-1.000000
1306122.243664,-1.000000,3.000000,-1.000000,14.000000,-1.000000,7.000000,-6.000000,8.000000
1306122.243677,-2.000000,0.000000,2.000000,-8.000000,-5.000000,-5.000000,-2.000000,-3.000000
1306122.244687,-2.000000,-8.000000,-1.000000,-9.000000,-6.000000,-9.000000,5.000000,-1.000000
1306122.244705,-3.000000,1.000000,-2.000000,-7.000000,0.000000,-2.000000,-4.000000,-1.000000
1306122.245545,0.000000,-2.000000,-4.000000,2.000000,3.000000,-1.000000,-3.000000,-1.000000
1306122.245572,0.000000,-11.000000,-5.000000,-9.000000,-8.000000,-6.000000,4.000000,-6.000000
1306122.266137,-1.000000,8.000000,-1.000000,-2.000000,-1.000000,8.000000,-3.000000,2.000000
1306122.266160,2.000000,-4.000000,-1.000000,8.000000,9.000000,5.000000,-8.000000,2.000000
1306122.281234,2.000000,-10.000000,-5.000000,-2.000000,-4.000000,-1.000000,2.000000,0.000000
1306122.281244,0.000000,0.000000,-4.000000,-2.000000,-3.000000,-3.000000,3.000000,0.000000
1306122.318800,1.000000,0.000000,6.000000,5.000000,-1.000000,8.000000,-4.000000,0.000000
1306122.318819,-4.000000,-5.000000,-4.000000,-4.000000,3.000000,-3.000000,-2.000000,-1.000000
1306122.319252,0.000000,4.000000,-2.000000,-6.000000,-8.000000,-7.000000,3.000000,-7.000000
1306122.319265,1.000000,0.000000,3.000000,7.000000,4.000000,1.000000,-4.000000,-2.000000
1306122.320381,-1.000000,-3.000000,-1.000000,1.000000,1.000000,-8.000000,-3.000000,-1.000000
1306122.320390,-2.000000,-6.000000,-1.000000,-11.000000,-6.000000,-7.000000,0.000000,-2.000000
1306122.321070,0.000000,1.000000,-1.000000,0.000000,-1.000000,4.000000,-4.000000,2.000000
1306122.321088,-4.000000,1.000000,-1.000000,1.000000,1.000000,3.000000,-9.000000,3.000000
1306122.322585,-1.000000,3.000000,0.000000,-3.000000,-1.000000,1.000000,4.000000,-1.000000
1306122.322594,2.000000,-1.000000,2.000000,3.000000,-4.000000,4.000000,7.000000,-4.000000
1306122.341232,3.000000,5.000000,7.000000,4.000000,6.000000,4.000000,-10.000000,0.000000
1306122.341289,-8.000000,-9.000000,-9.000000,1.000000,0.000000,0.000000,-1.000000,-1.000000
1306122.342728,0.000000,-3.000000,-4.000000,-2.000000,-1.000000,-3.000000,4.000000,-7.000000
1306122.342770,-3.000000,-1.000000,2.000000,-1.000000,1.000000,-5.000000,-1.000000,-2.000000
1306122.348502,3.000000,7.000000,-6.000000,7.000000,-4.000000,-3.000000,-1.000000,-5.000000
1306122.348530,-2.000000,-5.000000,-4.000000,-9.000000,-10.000000,-6.000000,9.000000,-1.000000
1306122.356524,1.000000,0.000000,-1.000000,4.000000,0.000000,1.000000,-1.000000,2.000000
1306122.356536,-3.000000,-2.000000,6.000000,7.000000,2.000000,-3.000000,-10.000000,2.000000
1306122.363977,-1.000000,-3.000000,-1.000000,-1.000000,0.000000,-1.000000,5.000000,-5.000000
1306122.363990,1.000000,4.000000,-3.000000,0.000000,3.000000,2.000000,2.000000,0.000000
1306122.386168,0.000000,3.000000,2.000000,7.000000,3.000000,8.000000,-4.000000,1.000000
1306122.386189,-2.000000,-2.000000,-2.000000,-1.000000,-8.000000,-9.000000,-4.000000,-1.000000
1306122.393750,-8.000000,-6.000000,-5.000000,-1.000000,2.000000,-3.000000,3.000000,-5.000000
1306122.393761,-3.000000,-4.000000,-2.000000,9.000000,1.000000,0.000000,-4.000000,-2.000000
1306122.416459,1.000000,-7.000000,-3.000000,2.000000,-3.000000,-7.000000,-6.000000,1.000000
1306122.416470,-3.000000,-12.000000,-8.000000,-16.000000,-8.000000,-14.000000,7.000000,-1.000000
1306122.423879,0.000000,4.000000,0.000000,-3.000000,3.000000,9.000000,-5.000000,0.000000
1306122.423889,0.000000,9.000000,-3.000000,6.000000,6.000000,4.000000,-7.000000,6.000000
1306122.439064,1.000000,-4.000000,-2.000000,-7.000000,-5.000000,-7.000000,2.000000,-1.000000
1306122.439078,2.000000,0.000000,1.000000,-1.000000,5.000000,7.000000,-2.000000,-4.000000
1306122.439767,-4.000000,-3.000000,3.000000,11.000000,8.000000,11.000000,-8.000000,-1.000000
1306122.439787,-3.000000,-6.000000,-1.000000,-5.000000,-9.000000,-4.000000,3.000000,0.000000
1306122.441114,-2.000000,1.000000,0.000000,-3.000000,0.000000,1.000000,8.000000,0.000000
1306122.441124,-5.000000,1.000000,3.000000,10.000000,0.000000,-2.000000,-5.000000,2.000000
1306122.461429,0.000000,-4.000000,5.000000,0.000000,2.000000,1.000000,-4.000000,-2.000000
1306122.461443,3.000000,-1.000000,-4.000000,-11.000000,-8.000000,-7.000000,8.000000,-3.000000
1306122.462553,-3.000000,-2.000000,3.000000,-4.000000,-3.000000,-1.000000,-3.000000,-4.000000
1306122.462563,1.000000,2.000000,-6.000000,7.000000,0.000000,-4.000000,-6.000000,2.000000
1306122.476325,-2.000000,5.000000,-5.000000,-2.000000,-1.000000,1.000000,2.000000,-2.000000
1306122.476346,-3.000000,4.000000,1.000000,-1.000000,3.000000,7.000000,-1.000000,-7.000000
1306122.477407,-3.000000,6.000000,2.000000,9.000000,8.000000,13.000000,-6.000000,5.000000
1306122.477420,1.000000,-12.000000,0.000000,0.000000,-2.000000,-6.000000,2.000000,-6.000000
1306122.483626,-3.000000,-7.000000,0.000000,-7.000000,-8.000000,-4.000000,4.000000,-2.000000
1306122.483636,-2.000000,4.000000,2.000000,3.000000,0.000000,1.000000,-7.000000,1.000000
1306122.521214,2.000000,-7.000000,-4.000000,3.000000,-11.000000,-10.000000,-6.000000,3.000000
1306122.521232,-1.000000,-5.000000,-4.000000,-7.000000,-10.000000,-7.000000,4.000000,-6.000000
1306122.536298,0.000000,-1.000000,-5.000000,1.000000,6.000000,1.000000,1.000000,-2.000000
1306122.536319,0.000000,-1.000000,-1.000000,6.000000,8.000000,3.000000,-7.000000,2.000000
1306122.537135,0.000000,-10.000000,3.000000,-4.000000,-4.000000,-1.000000,2.000000,-2.000000
1306122.537144,-4.000000,1.000000,-1.000000,0.000000,-2.000000,1.000000,-4.000000,-4.000000
1306122.537757,1.000000,1.000000,5.000000,11.000000,7.000000,8.000000,-10.000000,3.000000
1306122.537766,-2.000000,2.000000,-2.000000,-3.000000,1.000000,-5.000000,1.000000,3.000000
1306122.539436,-3.000000,-9.000000,-5.000000,-14.000000,-5.000000,-1.000000,2.000000,-6.000000
1306122.539456,2.000000,2.000000,1.000000,4.000000,1.000000,3.000000,-2.000000,-1.000000
1306122.543720,1.000000,-1.000000,-1.000000,-4.000000,-3.000000,-6.000000,-1.000000,-1.000000
1306122.543730,1.000000,-5.000000,-7.000000,-10.000000,-4.000000,-9.000000,10.000000,-7.000000
1306122.559011,3.000000,3.000000,-2.000000,1.000000,3.000000,3.000000,1.000000,-4.000000
1306122.559022,-1.000000,2.000000,3.000000,7.000000,6.000000,8.000000,-6.000000,3.000000
1306122.581404,3.000000,0.000000,4.000000,-5.000000,-2.000000,0.000000,-1.000000,1.000000
1306122.581416,3.000000,3.000000,-5.000000,0.000000,3.000000,6.000000,-1.000000,0.000000
1306122.582599,-3.000000,9.000000,10.000000,8.000000,4.000000,5.000000,-13.000000,-2.000000
1306122.582608,-2.000000,-1.000000,-2.000000,4.000000,-6.000000,-6.000000,-1.000000,-2.000000
1306122.596442,-3.000000,1.000000,1.000000,-6.000000,-5.000000,-6.000000,9.000000,-4.000000
1306122.596453,-1.000000,-8.000000,5.000000,0.000000,4.000000,2.000000,0.000000,3.000000
1306122.597455,-1.000000,-2.000000,-7.000000,-1.000000,0.000000,-2.000000,-4.000000,4.000000
1306122.597463,-2.000000,-4.000000,-4.000000,-13.000000,-6.000000,-8.000000,3.000000,-2.000000
1306122.618790,-2.000000,4.000000,-1.000000,6.000000,-3.000000,-1.000000,-2.000000,2.000000
1306122.618800,1.000000,0.000000,0.000000,3.000000,0.000000,-2.000000,-6.000000,-1.000000
1306122.641376,1.000000,1.000000,-8.000000,-9.000000,2.000000,-4.000000,-5.000000,2.000000
1306122.641388,-4.000000,-5.000000,-5.000000,0.000000,1.000000,7.000000,-4.000000,-1.000000
1306122.641739,-1.000000,-4.000000,5.000000,3.000000,9.000000,7.000000,-9.000000,4.000000
1306122.641748,1.000000,-6.000000,-3.000000,-3.000000,-5.000000,-4.000000,3.000000,0.000000
1306122.643333,-3.000000,-6.000000,-1.000000,-10.000000,-4.000000,-6.000000,0.000000,0.000000
1306122.643343,4.000000,5.000000,1.000000,4.000000,1.000000,5.000000,-9.000000,0.000000
1306122.656204,2.000000,-5.000000,-3.000000,-5.000000,-6.000000,-5.000000,5.000000,-5.000000
1306122.656217,0.000000,1.000000,-3.000000,-10.000000,-4.000000,-2.000000,4.000000,-2.000000
1306122.693830,0.000000,-7.000000,5.000000,-1.000000,-2.000000,0.000000,-5.000000,0.000000
1306122.693840,-2.000000,-10.000000,-2.000000,7.000000,5.000000,1.000000,-6.000000,3.000000
1306122.701560,1.000000,-14.000000,3.000000,-5.000000,-5.000000,-12.000000,1.000000,-1.000000
1306122.701572,2.000000,-2.000000,5.000000,-4.000000,0.000000,-3.000000,-1.000000,-2.000000
1306122.716585,-2.000000,1.000000,3.000000,13.000000,3.000000,3.000000,-8.000000,6.000000
1306122.716594,-5.000000,-7.000000,-8.000000,4.000000,-3.000000,-3.000000,1.000000,-1.000000
1306122.717210,-6.000000,-2.000000,2.000000,-8.000000,1.000000,-3.000000,-3.000000,-5.000000
1306122.717220,0.000000,-3.000000,0.000000,2.000000,-1.000000,2.000000,-1.000000,2.000000
1306122.718487,-4.000000,-11.000000,-5.000000,-6.000000,-4.000000,-7.000000,4.000000,-2.000000
1306122.718504,-3.000000,-1.000000,-4.000000,-10.000000,-3.000000,-9.000000,4.000000,-4.000000
1306122.719178,-1.000000,3.000000,-1.000000,-4.000000,6.000000,6.000000,-3.000000,2.000000
1306122.719196,2.000000,-2.000000,-5.000000,-3.000000,0.000000,-4.000000,-4.000000,-5.000000
1306122.720038,-1.000000,-6.000000,-1.000000,-9.000000,-3.000000,-3.000000,6.000000,-3.000000
1306122.720053,-2.000000,-1.000000,7.000000,4.000000,-4.000000,7.000000,-1.000000,2.000000
1306122.738942,0.000000,-3.000000,-1.000000,8.000000,4.000000,7.000000,-8.000000,2.000000
1306122.738953,1.000000,4.000000,2.000000,-1.000000,-3.000000,-1.000000,1.000000,-1.000000
1306122.761341,1.000000,1.000000,1.000000,-6.000000,1.000000,-4.000000,-3.000000,-3.000000
1306122.761352,0.000000,2.000000,2.000000,6.000000,0.000000,5.000000,2.000000,2.000000
1306122.776168,-4.000000,5.000000,4.000000,-5.000000,0.000000,-3.000000,-2.000000,1.000000
1306122.776197,-3.000000,-4.000000,-4.000000,-8.000000,-3.000000,-10.000000,4.000000,-4.000000
1306122.798704,-5.000000,0.000000,10.000000,5.000000,4.000000,2.000000,0.000000,-3.000000
1306122.798715,1.000000,-8.000000,2.000000,2.000000,-1.000000,-4.000000,-3.000000,2.000000
1306122.799118,5.000000,-8.000000,-6.000000,-5.000000,-4.000000,-10.000000,5.000000,-3.000000
1306122.799127,-3.000000,-6.000000,1.000000,-3.000000,-2.000000,3.000000,1.000000,-3.000000
1306122.800373,1.000000,4.000000,1.000000,6.000000,4.000000,2.000000,-4.000000,2.000000
1306122.800389,-1.000000,-3.000000,-1.000000,-4.000000,-4.000000,-5.000000,2.000000,0.000000
1306122.801049,-2.000000,3.000000,0.000000,-3.000000,-4.000000,2.000000,5.000000,-5.000000
1306122.801057,0.000000,8.000000,1.000000,8.000000,-1.000000,7.000000,-9.000000,1.000000
1306122.802694,-1.000000,-5.000000,0.000000,4.000000,-1.000000,-1.000000,1.000000,1.000000
1306122.802703,-4.000000,-4.000000,-12.000000,-15.000000,-8.000000,-3.000000,6.000000,-4.000000
1306122.813555,-2.000000,0.000000,4.000000,5.000000,0.000000,-1.000000,-6.000000,-2.000000
1306122.813566,-5.000000,-5.000000,-5.000000,3.000000,-2.000000,-2.000000,-7.000000,-6.000000
1306122.814850,-3.000000,-10.000000,-4.000000,-8.000000,-8.000000,-12.000000,8.000000,-5.000000
1306122.814859,-1.000000,3.000000,4.000000,-1.000000,2.000000,-3.000000,0.000000,-3.000000
1306122.836235,-1.000000,3.000000,3.000000,9.000000,4.000000,-2.000000,-5.000000,5.000000
1306122.836246,-3.000000,-1.000000,-6.000000,-5.000000,3.000000,7.000000,-2.000000,1.000000
1306122.837655,1.000000,6.000000,-3.000000,-1.000000,-3.000000,-2.000000,4.000000,-2.000000
1306122.837672,0.000000,4.000000,1.000000,6.000000,6.000000,7.000000,-6.000000,-3.000000
1306122.844055,-2.000000,-3.000000,6.000000,5.000000,-4.000000,-4.000000,0.000000,-3.000000
1306122.844077,-1.000000,0.000000,-10.000000,-1.000000,0.000000,-7.000000,2.000000,-4.000000
1306122.859200,-2.000000,1.000000,10.000000,-3.000000,-3.000000,-2.000000,-2.000000,-2.000000
1306122.859214,1.000000,-1.000000,-2.000000,4.000000,-7.000000,-6.000000,3.000000,0.000000
1306122.896388,1.000000,0.000000,-4.000000,-8.000000,-9.000000,-12.000000,3.000000,-1.000000
1306122.896422,-3.000000,-1.000000,-2.000000,12.000000,6.000000,2.000000,-2.000000,-1.000000
1306122.911311,1.000000,8.000000,4.000000,5.000000,4.000000,4.000000,-7.000000,1.000000
1306122.911333,-2.000000,3.000000,1.000000,-1.000000,-5.000000,-4.000000,1.000000,-3.000000
1306122.911702,2.000000,1.000000,-4.000000,-8.000000,3.000000,6.000000,2.000000,-1.000000
1306122.911711,1.000000,-4.000000,10.000000,8.000000,3.000000,4.000000,-4.000000,1.000000
1306122.912836,-3.000000,2.000000,-8.000000,-3.000000,3.000000,-2.000000,3.000000,-3.000000
1306122.912864,-3.000000,-2.000000,-6.000000,-10.000000,-2.000000,-10.000000,7.000000,-4.000000
1306122.913519,-2.000000,0.000000,3.000000,5.000000,1.000000,2.000000,-5.000000,-4.000000
1306122.913546,-1.000000,-6.000000,-2.000000,5.000000,-3.000000,1.000000,-2.000000,-2.000000
1306122.918939,1.000000,5.000000,0.000000,-14.000000,-9.000000,-13.000000,4.000000,-6.000000
1306122.918950,-2.000000,3.000000,5.000000,-1.000000,-1.000000,1.000000,1.000000,3.000000
1306122.933934,-3.000000,-8.000000,4.000000,12.000000,9.000000,9.000000,-6.000000,0.000000
1306122.933946,-3.000000,-8.000000,-8.000000,-5.000000,-6.000000,-12.000000,1.000000,-3.000000
1306122.935088,3.000000,-5.000000,3.000000,-4.000000,2.000000,0.000000,-1.000000,-5.000000
1306122.935116,0.000000,3.000000,4.000000,13.000000,9.000000,12.000000,-1.000000,3.000000
1306122.956322,-1.000000,-3.000000,-1.000000,-1.000000,-6.000000,-5.000000,-2.000000,-1.000000
1306122.956392,1.000000,-3.000000,1.000000,-5.000000,-5.000000,-9.000000,8.000000,-1.000000
1306122.957454,-1.000000,0.000000,2.000000,3.000000,4.000000,2.000000,-3.000000,1.000000
1306122.957528,-4.000000,-4.000000,0.000000,-8.000000,-7.000000,0.000000,0.000000,-1.000000
1306122.971545,0.000000,-7.000000,-9.000000,-15.000000,-7.000000,-11.000000,7.000000,-1.000000
1306122.971559,-2.000000,7.000000,8.000000,3.000000,5.000000,4.000000,-1.000000,2.000000
1306122.986403,1.000000,-6.000000,6.000000,5.000000,3.000000,9.000000,-8.000000,2.000000
1306122.986415,-1.000000,-1.000000,-3.000000,-2.000000,-6.000000,-3.000000,4.000000,0.000000
1306122.994145,1.000000,1.000000,-4.000000,-6.000000,4.000000,-1.000000,2.000000,1.000000
1306122.994174,-3.000000,-2.000000,0.000000,4.000000,2.000000,8.000000,-6.000000,1.000000
1306123.031328,-2.000000,2.000000,-3.000000,-3.000000,2.000000,-5.000000,-1.000000,1.000000
1306123.031358,-6.000000,-7.000000,-6.000000,-5.000000,0.000000,-5.000000,6.000000,-3.000000
1306123.031835,-2.000000,4.000000,15.000000,6.000000,-2.000000,-3.000000,-6.000000,-1.000000
1306123.031850,-1.000000,-3.000000,-8.000000,5.000000,3.000000,2.000000,4.000000,0.000000
1306123.032839,0.000000,-5.000000,6.000000,-13.000000,-14.000000,-9.000000,6.000000,-2.000000
1306123.032854,-1.000000,2.000000,1.000000,-2.000000,5.000000,2.000000,-2.000000,0.000000
1306123.033508,4.000000,-4.000000,-1.000000,8.000000,-2.000000,7.000000,-3.000000,1.000000
1306123.033515,1.000000,-3.000000,-2.000000,-8.000000,-4.000000,-6.000000,-1.000000,-1.000000
1306123.038764,-1.000000,4.000000,-2.000000,-2.000000,-2.000000,1.000000,1.000000,0.000000
1306123.038773,1.000000,8.000000,5.000000,6.000000,9.000000,3.000000,-9.000000,4.000000
1306123.053843,0.000000,0.000000,1.000000,-4.000000,-4.000000,-5.000000,-2.000000,0.000000
1306123.053854,-3.000000,1.000000,-1.000000,-7.000000,-5.000000,1.000000,6.000000,-2.000000
1306123.077383,0.000000,5.000000,9.000000,-3.000000,3.000000,5.000000,-1.000000,-1.000000
1306123.077397,-3.000000,3.000000,0.000000,4.000000,-4.000000,-10.000000,2.000000,-2.000000
1306123.077727,1.000000,-3.000000,-9.000000,-6.000000,-1.000000,-9.000000,7.000000,-3.000000
1306123.077735,-3.000000,1.000000,8.000000,5.000000,-8.000000,4.000000,-4.000000,-1.000000
1306123.078874,3.000000,1.000000,-1.000000,6.000000,-3.000000,3.000000,-7.000000,2.000000
1306123.078884,-1.000000,-8.000000,3.000000,5.000000,-3.000000,-7.000000,-1.000000,-5.000000
1306123.091353,0.000000,8.000000,-4.000000,1.000000,2.000000,4.000000,3.000000,1.000000
1306123.091398,3.000000,-3.000000,2.000000,12.000000,9.000000,6.000000,-11.000000,1.000000
1306123.113918,0.000000,0.000000,-5.000000,-6.000000,-6.000000,1.000000,0.000000,-3.000000
1306123.113929,0.000000,1.000000,-2.000000,-11.000000,-1.000000,-3.000000,1.000000,-6.000000
1306123.136426,-4.000000,4.000000,-2.000000,-4.000000,-2.000000,4.000000,-5.000000,-1.000000
1306123.136442,0.000000,-8.000000,2.000000,3.000000,-4.000000,0.000000,-4.000000,1.000000
1306123.151552,5.000000,4.000000,-6.000000,-18.000000,-2.000000,-4.000000,8.000000,0.000000
1306123.151560,-5.000000,1.000000,-10.000000,1.000000,2.000000,4.000000,-1.000000,0.000000
1306123.152166,4.000000,-3.000000,3.000000,6.000000,-2.000000,0.000000,-6.000000,1.000000
1306123.152174,-1.000000,-8.000000,-4.000000,-5.000000,0.000000,-2.000000,3.000000,0.000000
1306123.153669,-5.000000,1.000000,7.000000,2.000000,1.000000,5.000000,-3.000000,-5.000000
1306123.153682,-3.000000,1.000000,-9.000000,10.000000,8.000000,7.000000,-9.000000,5.000000
1306123.154243,2.000000,-7.000000,-3.000000,1.000000,-1.000000,-4.000000,5.000000,-1.000000
1306123.154252,-2.000000,0.000000,-3.000000,-4.000000,-1.000000,-2.000000,5.000000,-6.000000
1306123.174050,-2.000000,3.000000,-1.000000,1.000000,3.000000,3.000000,-5.000000,-2.000000
1306123.174066,-3.000000,3.000000,-7.000000,1.000000,0.000000,-7.000000,-5.000000,-4.000000
1306123.188786,-2.000000,-6.000000,-3.000000,-7.000000,-9.000000,-10.000000,5.000000,-8.000000
1306123.188804,-8.000000,-2.000000,-8.000000,-2.000000,-4.000000,3.000000,-5.000000,5.000000
1306123.196808,-1.000000,-1.000000,7.000000,8.000000,-5.000000,-2.000000,-4.000000,2.000000
1306123.196818,-1.000000,-4.000000,1.000000,-8.000000,-2.000000,2.000000,0.000000,-4.000000
1306123.197354,0.000000,1.000000,-4.000000,-1.000000,0.000000,5.000000,0.000000,-1.000000
1306123.197362,-1.000000,3.000000,4.000000,12.000000,11.000000,4.000000,-9.000000,5.000000
1306123.211464,-3.000000,-6.000000,-2.000000,-1.000000,1.000000,-1.000000,2.000000,0.000000
1306123.211475,-2.000000,-8.000000,-2.000000,-10.000000,-5.000000,-1.000000,3.000000,-5.000000
1306123.226460,0.000000,8.000000,0.000000,-1.000000,-4.000000,1.000000,-5.000000,-3.000000
1306123.226471,0.000000,-4.000000,0.000000,4.000000,-5.000000,-4.000000,-4.000000,0.000000
1306123.248819,-1.000000,-8.000000,-6.000000,-9.000000,-8.000000,-11.000000,4.000000,-9.000000
1306123.248829,-2.000000,4.000000,-5.000000,4.000000,4.000000,-1.000000,-5.000000,1.000000
1306123.256868,0.000000,-6.000000,3.000000,6.000000,1.000000,-1.000000,-4.000000,2.000000
1306123.256879,0.000000,-1.000000,-7.000000,1.000000,-3.000000,-6.000000,5.000000,1.000000
1306123.271890,-3.000000,-6.000000,3.000000,2.000000,-1.000000,5.000000,-4.000000,2.000000
1306123.271902,-3.000000,5.000000,-2.000000,9.000000,5.000000,7.000000,-7.000000,4.000000
1306123.272275,-1.000000,-3.000000,-2.000000,-5.000000,-4.000000,-1.000000,-3.000000,-1.000000
1306123.272284,3.000000,-4.000000,-2.000000,-4.000000,-1.000000,-1.000000,0.000000,-3.000000
1306123.273476,-1.000000,5.000000,-5.000000,2.000000,-5.000000,3.000000,-7.000000,-2.000000
1306123.273485,-1.000000,1.000000,5.000000,-4.000000,-4.000000,-3.000000,-2.000000,1.000000
1306123.274267,0.000000,-1.000000,-1.000000,-9.000000,-1.000000,-8.000000,3.000000,-5.000000
1306123.274281,-1.000000,-3.000000,4.000000,-4.000000,-6.000000,2.000000,-1.000000,-1.000000
1306123.293902,-2.000000,1.000000,-2.000000,6.000000,-4.000000,0.000000,-5.000000,5.000000
1306123.293913,-3.000000,-9.000000,-3.000000,-10.000000,-6.000000,-10.000000,0.000000,-3.000000
1306123.308794,-2.000000,0.000000,-4.000000,2.000000,0.000000,-1.000000,-3.000000,-2.000000
1306123.308807,1.000000,-2.000000,7.000000,17.000000,4.000000,1.000000,-5.000000,3.000000
1306123.331258,-1.000000,1.000000,-3.000000,-7.000000,-9.000000,-2.000000,2.000000,-1.000000
1306123.331287,-1.000000,6.000000,-3.000000,-10.000000,-1.000000,-2.000000,1.000000,-2.000000
1306123.346474,1.000000,2.000000,3.000000,6.000000,1.000000,5.000000,0.000000,0.000000
1306123.346485,-3.000000,-4.000000,-3.000000,-5.000000,3.000000,-7.000000,3.000000,-2.000000
1306123.368799,-3.000000,-1.000000,-5.000000,-6.000000,-5.000000,-9.000000,5.000000,-2.000000
1306123.368820,1.000000,-8.000000,2.000000,0.000000,2.000000,-1.000000,-3.000000,0.000000
1306123.376283,3.000000,4.000000,1.000000,10.000000,2.000000,4.000000,-4.000000,6.000000
1306123.376301,2.000000,-10.000000,-1.000000,-5.000000,-5.000000,-9.000000,2.000000,-1.000000
1306123.391284,0.000000,-4.000000,0.000000,3.000000,2.000000,4.000000,-4.000000,-6.000000
1306123.391294,-1.000000,2.000000,-5.000000,9.000000,7.000000,7.000000,-5.000000,0.000000
1306123.413829,-1.000000,-1.000000,2.000000,-10.000000,-2.000000,-5.000000,1.000000,2.000000
1306123.413941,-1.000000,-8.000000,0.000000,-1.000000,-5.000000,0.000000,2.000000,-2.000000
1306123.414120,-4.000000,4.000000,1.000000,11.000000,4.000000,5.000000,-9.000000,2.000000
1306123.414131,4.000000,-4.000000,0.000000,-5.000000,-5.000000,2.000000,-1.000000,-1.000000
1306123.414749,-5.000000,-7.000000,-3.000000,-10.000000,-11.000000,-6.000000,4.000000,-4.000000
1306123.414768,-3.000000,8.000000,2.000000,8.000000,4.000000,0.000000,-1.000000,3.000000
1306123.415497,5.000000,2.000000,-5.000000,3.000000,4.000000,5.000000,-2.000000,0.000000
1306123.415517,2.000000,0.000000,-2.000000,3.000000,3.000000,2.000000,-1.000000,6.000000
1306123.416799,-4.000000,1.000000,-4.000000,-3.000000,-2.000000,0.000000,-1.000000,3.000000
1306123.416838,0.000000,3.000000,4.000000,-2.000000,3.000000,8.000000,1.000000,1.000000
1306123.417499,2.000000,9.000000,-2.000000,5.000000,5.000000,4.000000,-6.000000,0.000000
1306123.417508,-1.000000,-4.000000,-1.000000,1.000000,1.000000,-5.000000,0.000000,-1.000000
1306123.428919,-1.000000,0.000000,-1.000000,-7.000000,-5.000000,2.000000,2.000000,-7.000000
1306123.428950,0.000000,-3.000000,4.000000,1.000000,1.000000,3.000000,0.000000,1.000000
1306123.429350,-5.000000,2.000000,-2.000000,10.000000,2.000000,5.000000,-4.000000,0.000000
1306123.429359,0.000000,-10.000000,-8.000000,-8.000000,-6.000000,-12.000000,7.000000,-1.000000
1306123.451416,-1.000000,-4.000000,-4.000000,3.000000,2.000000,7.000000,-7.000000,0.000000
1306123.451445,-1.000000,0.000000,0.000000,7.000000,2.000000,2.000000,-6.000000,0.000000
1306123.466504,3.000000,-3.000000,-3.000000,-2.000000,-3.000000,2.000000,1.000000,1.000000
1306123.466527,0.000000,8.000000,2.000000,-3.000000,3.000000,0.000000,1.000000,-2.000000
1306123.488611,-2.000000,6.000000,5.000000,6.000000,6.000000,11.000000,-5.000000,0.000000
1306123.488640,1.000000,-7.000000,-3.000000,-1.000000,0.000000,-5.000000,1.000000,2.000000
1306123.489223,-4.000000,-10.000000,-1.000000,-7.000000,-1.000000,-6.000000,7.000000,-5.000000
1306123.489231,1.000000,4.000000,6.000000,7.000000,5.000000,2.000000,-4.000000,1.000000
1306123.490370,1.000000,-4.000000,-4.000000,-1.000000,-4.000000,-5.000000,-2.000000,-1.000000
1306123.490379,-3.000000,-4.000000,-1.000000,-12.000000,-10.000000,-9.000000,3.000000,-4.000000
1306123.491068,-2.000000,-3.000000,-4.000000,0.000000,2.000000,0.000000,0.000000,-2.000000
1306123.491079,3.000000,2.000000,4.000000,9.000000,4.000000,-1.000000,-5.000000,2.000000
1306123.503844,3.000000,0.000000,-1.000000,-3.000000,0.000000,-1.000000,1.000000,0.000000
1306123.503862,-2.000000,4.000000,2.000000,-8.000000,-7.000000,1.000000,2.000000,-2.000000
1306123.511262,0.000000,1.000000,0.000000,10.000000,6.000000,6.000000,-7.000000,2.000000
1306123.511272,2.000000,0.000000,4.000000,-1.000000,-1.000000,-1.000000,4.000000,3.000000
1306123.526130,-5.000000,-2.000000,-4.000000,-9.000000,-5.000000,2.000000,6.000000,-3.000000
1306123.526140,-6.000000,-5.000000,-2.000000,-2.000000,0.000000,1.000000,-1.000000,-4.000000
1306123.526918,-1.000000,-6.000000,0.000000,1.000000,-4.000000,-1.000000,-7.000000,1.000000
1306123.526926,-3.000000,-1.000000,-2.000000,-10.000000,-6.000000,-11.000000,7.000000,-3.000000
1306123.548598,-3.000000,4.000000,-14.000000,3.000000,1.000000,1.000000,-7.000000,0.000000
1306123.548615,-1.000000,-4.000000,4.000000,2.000000,3.000000,5.000000,-8.000000,-3.000000
1306123.549218,-2.000000,-1.000000,-4.000000,-9.000000,0.000000,2.000000,-2.000000,-4.000000
1306123.549226,2.000000,3.000000,-5.000000,-4.000000,-3.000000,6.000000,2.000000,-1.000000
1306123.571632,-3.000000,2.000000,2.000000,10.000000,7.000000,13.000000,-5.000000,4.000000
1306123.571647,-6.000000,-3.000000,-3.000000,3.000000,-6.000000,-9.000000,4.000000,-2.000000
1306123.586787,-2.000000,6.000000,-5.000000,-2.000000,-9.000000,-5.000000,5.000000,-6.000000
1306123.586809,0.000000,-2.000000,-1.000000,0.000000,0.000000,5.000000,-1.000000,1.000000
1306123.594253,1.000000,3.000000,9.000000,0.000000,-5.000000,-9.000000,-5.000000,-3.000000
1306123.594263,2.000000,0.000000,-8.000000,-12.000000,-5.000000,-1.000000,8.000000,0.000000
1306123.594757,0.000000,-4.000000,5.000000,4.000000,3.000000,4.000000,-5.000000,0.000000
1306123.594767,-1.000000,-3.000000,4.000000,8.000000,3.000000,0.000000,-6.000000,1.000000
1306123.608741,1.000000,3.000000,-13.000000,-15.000000,-2.000000,-5.000000,-1.000000,-1.000000
1306123.608758,-4.000000,4.000000,2.000000,-1.000000,2.000000,9.000000,-3.000000,-3.000000
1306123.609078,0.000000,8.000000,0.000000,15.000000,2.000000,7.000000,-7.000000,3.000000
1306123.609086,5.000000,-4.000000,1.000000,-2.000000,-7.000000,-3.000000,-4.000000,-1.000000
1306123.616438,2.000000,3.000000,0.000000,-7.000000,2.000000,-2.000000,4.000000,-4.000000
1306123.616449,-4.000000,9.000000,0.000000,4.000000,6.000000,6.000000,-3.000000,1.000000
1306123.631359,-2.000000,-8.000000,-1.000000,2.000000,-4.000000,0.000000,1.000000,-1.000000
1306123.631376,-4.000000,-14.000000,-9.000000,-11.000000,-12.000000,-12.000000,3.000000,-7.000000
1306123.646288,1.000000,3.000000,-3.000000,1.000000,-4.000000,4.000000,0.000000,2.000000
1306123.646306,-3.000000,1.000000,5.000000,6.000000,3.000000,4.000000,-4.000000,-1.000000
1306123.646821,2.000000,1.000000,0.000000,-1.000000,-1.000000,-2.000000,-1.000000,2.000000
1306123.646849,-2.000000,1.000000,-8.000000,-5.000000,-1.000000,-2.000000,1.000000,-2.000000
1306123.661529,1.000000,5.000000,10.000000,12.000000,10.000000,13.000000,-8.000000,0.000000
1306123.661542,0.000000,4.000000,-3.000000,3.000000,-7.000000,-3.000000,-1.000000,-1.000000
1306123.668984,-5.000000,-7.000000,-1.000000,-8.000000,-5.000000,0.000000,5.000000,-6.000000
1306123.668998,-1.000000,3.000000,-2.000000,-1.000000,4.000000,2.000000,-2.000000,-1.000000
1306123.691169,0.000000,-5.000000,-1.000000,3.000000,-4.000000,-8.000000,-3.000000,0.000000
1306123.691179,-1.000000,-9.000000,-7.000000,-9.000000,-8.000000,-11.000000,8.000000,-5.000000
1306123.706421,1.000000,-6.000000,1.000000,-1.000000,0.000000,-4.000000,-1.000000,-2.000000
1306123.706432,0.000000,1.000000,0.000000,8.000000,-1.000000,-2.000000,-5.000000,0.000000
1306123.743501,-4.000000,-4.000000,-3.000000,-3.000000,-7.000000,-3.000000,0.000000,-3.000000
1306123.743516,-1.000000,-1.000000,0.000000,2.000000,2.000000,6.000000,2.000000,2.000000
1306123.744093,-2.000000,2.000000,0.000000,17.000000,5.000000,5.000000,-4.000000,1.000000
1306123.744151,-4.000000,1.000000,-2.000000,-2.000000,1.000000,-6.000000,-1.000000,0.000000
1306123.745331,-1.000000,-3.000000,2.000000,-11.000000,-2.000000,0.000000,3.000000,-5.000000
1306123.745339,-4.000000,-2.000000,-2.000000,7.000000,3.000000,0.000000,0.000000,-3.000000
1306123.746669,-1.000000,2.000000,-1.000000,-9.000000,-6.000000,-5.000000,3.000000,-5.000000
1306123.746679,2.000000,-12.000000,-5.000000,-7.000000,-8.000000,-8.000000,2.000000,-1.000000
1306123.747488,1.000000,1.000000,3.000000,-1.000000,1.000000,1.000000,-3.000000,0.000000
1306123.747513,-5.000000,-2.000000,-1.000000,8.000000,1.000000,-5.000000,-6.000000,2.000000
1306123.751830,0.000000,-2.000000,-6.000000,-10.000000,-1.000000,-6.000000,1.000000,-2.000000
1306123.751857,-2.000000,7.000000,5.000000,0.000000,8.000000,3.000000,-5.000000,1.000000
1306123.758984,-1.000000,-3.000000,4.000000,7.000000,9.000000,3.000000,0.000000,4.000000
1306123.758997,3.000000,0.000000,-3.000000,-7.000000,-4.000000,0.000000,0.000000,-2.000000
1306123.804056,-2.000000,-7.000000,-4.000000,-11.000000,-5.000000,-5.000000,3.000000,-3.000000
1306123.804070,-1.000000,2.000000,2.000000,2.000000,2.000000,0.000000,-2.000000,0.000000
1306123.811546,-2.000000,-2.000000,-3.000000,-1.000000,-6.000000,-3.000000,0.000000,-1.000000
1306123.811559,0.000000,-7.000000,-9.000000,-12.000000,-4.000000,-8.000000,7.000000,-6.000000
1306123.848908,-3.000000,7.000000,-3.000000,-2.000000,0.000000,0.000000,3.000000,-2.000000
1306123.848920,0.000000,-4.000000,8.000000,4.000000,4.000000,3.000000,-6.000000,4.000000
1306123.849359,-3.000000,-4.000000,-10.000000,-5.000000,-4.000000,-8.000000,7.000000,-2.000000
1306123.849367,0.000000,2.000000,3.000000,3.000000,-2.000000,5.000000,1.000000,-4.000000
1306123.850495,-1.000000,-4.000000,3.000000,10.000000,8.000000,1.000000,-8.000000,3.000000
1306123.850505,1.000000,-4.000000,1.000000,-7.000000,-11.000000,-8.000000,1.000000,1.000000
1306123.851285,-3.000000,-3.000000,-5.000000,-8.000000,1.000000,-2.000000,4.000000,-5.000000
1306123.851304,1.000000,-3.000000,-3.000000,6.000000,4.000000,2.000000,0.000000,4.000000
1306123.852822,2.000000,4.000000,2.000000,-3.000000,-3.000000,-2.000000,-7.000000,0.000000
1306123.852832,-1.000000,0.000000,9.000000,4.000000,5.000000,1.000000,0.000000,1.000000
1306123.863991,0.000000,2.000000,2.000000,7.000000,4.000000,3.000000,-7.000000,-1.000000
1306123.864003,-4.000000,-6.000000,-1.000000,-8.000000,-1.000000,-2.000000,0.000000,-3.000000
1306123.871827,-1.000000,-2.000000,-3.000000,-7.000000,1.000000,-1.000000,6.000000,0.000000
1306123.871837,1.000000,4.000000,5.000000,3.000000,6.000000,3.000000,-4.000000,1.000000
1306123.886236,1.000000,-2.000000,1.000000,-1.000000,-4.000000,-7.000000,1.000000,0.000000
1306123.886246,-4.000000,-5.000000,-7.000000,-12.000000,-10.000000,-4.000000,3.000000,-2.000000
1306123.908905,-1.000000,2.000000,4.000000,6.000000,3.000000,3.000000,-5.000000,-4.000000
1306123.908915,-3.000000,-1.000000,-4.000000,10.000000,0.000000,-6.000000,-1.000000,2.000000
1306123.923771,-3.000000,-3.000000,-6.000000,-10.000000,-3.000000,-8.000000,3.000000,-1.000000
1306123.923782,0.000000,4.000000,8.000000,-1.000000,2.000000,1.000000,-5.000000,-1.000000
1306123.938724,5.000000,3.000000,0.000000,8.000000,2.000000,4.000000,-5.000000,1.000000
1306123.938733,-1.000000,1.000000,-1.000000,-3.000000,-1.000000,-6.000000,2.000000,0.000000
1306123.946458,-3.000000,5.000000,-1.000000,-10.000000,-8.000000,1.000000,4.000000,-6.000000
1306123.946469,0.000000,0.000000,1.000000,6.000000,2.000000,2.000000,-3.000000,0.000000
1306123.983661,-4.000000,-4.000000,-3.000000,-8.000000,-3.000000,-5.000000,0.000000,-2.000000
1306123.983671,-1.000000,-4.000000,-4.000000,-10.000000,-14.000000,-4.000000,8.000000,-2.000000
1306124.006362,-1.000000,7.000000,3.000000,3.000000,-1.000000,-4.000000,-5.000000,2.000000
1306124.006372,-2.000000,-2.000000,2.000000,5.000000,6.000000,-4.000000,-6.000000,-2.000000
1306124.007223,1.000000,3.000000,-3.000000,-5.000000,-1.000000,-6.000000,2.000000,-2.000000
1306124.007232,1.000000,-1.000000,-4.000000,-4.000000,5.000000,6.000000,-6.000000,1.000000
1306124.007860,-3.000000,5.000000,8.000000,9.000000,0.000000,4.000000,-4.000000,3.000000
1306124.007869,-2.000000,-1.000000,-9.000000,-6.000000,6.000000,6.000000,-2.000000,-5.000000
1306124.010123,0.000000,-3.000000,-2.000000,-7.000000,-4.000000,-5.000000,3.000000,-1.000000
1306124.010133,2.000000,2.000000,-7.000000,7.000000,4.000000,-5.000000,-5.000000,1.000000
1306124.021583,-3.000000,0.000000,7.000000,13.000000,8.000000,8.000000,-8.000000,0.000000
1306124.021592,-4.000000,-11.000000,-3.000000,-3.000000,-4.000000,-1.000000,1.000000,-1.000000
1306124.022480,-1.000000,-7.000000,-4.000000,-4.000000,1.000000,-3.000000,0.000000,-4.000000
1306124.022500,-2.000000,10.000000,4.000000,6.000000,1.000000,7.000000,-7.000000,2.000000
1306124.036444,0.000000,-11.000000,0.000000,2.000000,0.000000,-8.000000,2.000000,2.000000
1306124.036455,-2.000000,2.000000,-1.000000,-10.000000,-7.000000,-4.000000,7.000000,-3.000000
1306124.043892,-1.000000,-8.000000,3.000000,6.000000,0.000000,2.000000,0.000000,-1.000000
1306124.043903,0.000000,1.000000,1.000000,6.000000,-1.000000,-4.000000,0.000000,0.000000
1306124.066334,-3.000000,-10.000000,-7.000000,-14.000000,-11.000000,-8.000000,9.000000,-6.000000
1306124.066351,-2.000000,4.000000,5.000000,0.000000,-3.000000,3.000000,6.000000,-2.000000
1306124.081435,3.000000,6.000000,6.000000,3.000000,2.000000,7.000000,-7.000000,3.000000
1306124.081446,-4.000000,-3.000000,-10.000000,-8.000000,-6.000000,4.000000,0.000000,-3.000000
1306124.103811,3.000000,6.000000,6.000000,1.000000,1.000000,5.000000,5.000000,-4.000000
1306124.103823,-4.000000,2.000000,-2.000000,10.000000,2.000000,7.000000,-5.000000,3.000000
1306124.126081,0.000000,-5.000000,3.000000,1.000000,4.000000,-4.000000,-2.000000,-3.000000
1306124.126111,-3.000000,2.000000,-4.000000,-10.000000,-8.000000,-4.000000,11.000000,-8.000000
1306124.127132,-3.000000,6.000000,5.000000,1.000000,3.000000,4.000000,-2.000000,0.000000
1306124.127140,-1.000000,5.000000,-2.000000,1.000000,-1.000000,-2.000000,-7.000000,-1.000000
1306124.127813,-1.000000,-13.000000,-6.000000,-15.000000,-6.000000,-6.000000,5.000000,-2.000000
1306124.127821,2.000000,-1.000000,2.000000,2.000000,1.000000,5.000000,1.000000,0.000000
1306124.129439,0.000000,5.000000,6.000000,8.000000,-2.000000,7.000000,-5.000000,3.000000
1306124.129450,3.000000,7.000000,-1.000000,-1.000000,0.000000,1.000000,-1.000000,0.000000
1306124.130339,-3.000000,0.000000,-3.000000,-8.000000,-4.000000,-3.000000,0.000000,-4.000000
1306124.130347,2.000000,4.000000,1.000000,8.000000,3.000000,9.000000,-10.000000,2.000000
1306124.141741,-2.000000,-4.000000,-1.000000,-4.000000,0.000000,-2.000000,2.000000,2.000000
1306124.141751,-4.000000,-16.000000,-6.000000,-9.000000,-4.000000,-2.000000,5.000000,-7.000000
1306124.148797,0.000000,7.000000,2.000000,8.000000,3.000000,3.000000,-1.000000,2.000000
1306124.148809,2.000000,-1.000000,-3.000000,-2.000000,-2.000000,-5.000000,-1.000000,-4.000000
1306124.171202,0.000000,-8.000000,-4.000000,-11.000000,-12.000000,-12.000000,9.000000,-6.000000
1306124.171230,-2.000000,-9.000000,3.000000,-1.000000,2.000000,-1.000000,-3.000000,-3.000000
1306124.178968,0.000000,-3.000000,0.000000,9.000000,1.000000,0.000000,-10.000000,2.000000
1306124.178980,-3.000000,-7.000000,0.000000,5.000000,-3.000000,-6.000000,1.000000,-6.000000
1306124.201252,-1.000000,1.000000,1.000000,-1.000000,1.000000,-2.000000,-2.000000,-2.000000
1306124.201264,-3.000000,0.000000,9.000000,11.000000,7.000000,17.000000,-8.000000,6.000000
1306124.208838,-2.000000,-1.000000,-9.000000,-9.000000,-4.000000,-1.000000,-4.000000,-2.000000
1306124.208882,-4.000000,-5.000000,2.000000,-9.000000,0.000000,-4.000000,6.000000,-4.000000
1306124.246289,1.000000,1.000000,6.000000,4.000000,3.000000,0.000000,-4.000000,3.000000
1306124.246320,-6.000000,-5.000000,1.000000,0.000000,0.000000,-12.000000,2.000000,-4.000000
1306124.246725,0.000000,-4.000000,-3.000000,-12.000000,-7.000000,-5.000000,2.000000,-5.000000
1306124.246734,2.000000,-1.000000,-1.000000,-2.000000,1.000000,1.000000,0.000000,1.000000
1306124.247921,4.000000,1.000000,-4.000000,6.000000,-2.000000,-3.000000,-8.000000,3.000000
1306124.247931,1.000000,-8.000000,-9.000000,-10.000000,-4.000000,-9.000000,1.000000,0.000000
1306124.248641,-3.000000,3.000000,-9.000000,-6.000000,1.000000,8.000000,-2.000000,-4.000000
1306124.248651,-1.000000,3.000000,8.000000,8.000000,5.000000,6.000000,-5.000000,0.000000
1306124.250062,1.000000,-1.000000,-3.000000,-2.000000,-1.000000,-2.000000,2.000000,0.000000
1306124.250072,-1.000000,0.000000,-3.000000,-6.000000,-6.000000,-7.000000,4.000000,-5.000000
1306124.261432,-7.000000,-6.000000,-9.000000,-13.000000,-8.000000,-7.000000,4.000000,1.000000
1306124.261481,0.000000,10.000000,6.000000,0.000000,4.000000,-3.000000,-7.000000,0.000000
1306124.268608,1.000000,-5.000000,5.000000,8.000000,1.000000,2.000000,-1.000000,3.000000
1306124.268618,1.000000,-5.000000,-1.000000,-4.000000,0.000000,-7.000000,1.000000,-2.000000
1306124.298656,-3.000000,-1.000000,6.000000,2.000000,1.000000,2.000000,-6.000000,-3.000000
1306124.298667,-2.000000,4.000000,0.000000,5.000000,-3.000000,6.000000,-5.000000,2.000000
1306124.306155,-2.000000,0.000000,-3.000000,-3.000000,-1.000000,-4.000000,1.000000,-5.000000
1306124.306164,2.000000,-3.000000,-7.000000,-5.000000,-7.000000,-4.000000,6.000000,-5.000000
1306124.328678,3.000000,-2.000000,-3.000000,-2.000000,-4.000000,4.000000,-1.000000,2.000000
1306124.328690,1.000000,-7.000000,1.000000,3.000000,6.000000,-6.000000,-3.000000,2.000000
1306124.336143,1.000000,2.000000,-3.000000,-10.000000,-6.000000,-9.000000,5.000000,-4.000000
1306124.336154,-6.000000,0.000000,2.000000,5.000000,5.000000,2.000000,-3.000000,-1.000000
1306124.343882,-1.000000,-2.000000,4.000000,9.000000,3.000000,2.000000,-7.000000,-1.000000
1306124.343898,1.000000,-1.000000,-1.000000,3.000000,-4.000000,-7.000000,2.000000,0.000000
1306124.344286,1.000000,2.000000,-3.000000,0.000000,-1.000000,2.000000,-1.000000,-2.000000
1306124.344306,0.000000,0.000000,4.000000,14.000000,7.000000,4.000000,-5.000000,4.000000
1306124.345689,-1.000000,1.000000,5.000000,3.000000,3.000000,7.000000,-5.000000,1.000000
1306124.345699,-4.000000,-6.000000,-3.000000,2.000000,-3.000000,-5.000000,-2.000000,1.000000
1306124.359280,-1.000000,0.000000,0.000000,-13.000000,-6.000000,-6.000000,3.000000,1.000000
1306124.359310,-1.000000,6.000000,0.000000,4.000000,1.000000,4.000000,-3.000000,2.000000
1306124.360002,-1.000000,-1.000000,-1.000000,3.000000,-1.000000,-3.000000,-4.000000,3.000000
1306124.360013,0.000000,1.000000,1.000000,-4.000000,-4.000000,-4.000000,-4.000000,-1.000000
1306124.373958,0.000000,2.000000,2.000000,-1.000000,2.000000,5.000000,-3.000000,-2.000000
1306124.373968,0.000000,2.000000,3.000000,9.000000,5.000000,9.000000,-5.000000,1.000000
1306124.381470,-3.000000,0.000000,1.000000,-5.000000,-9.000000,-7.000000,0.000000,-2.000000
1306124.381481,-2.000000,1.000000,-3.000000,-5.000000,0.000000,2.000000,5.000000,-4.000000
1306124.418947,-3.000000,-1.000000,3.000000,8.000000,0.000000,-3.000000,0.000000,-1.000000
1306124.418958,-1.000000,0.000000,4.000000,1.000000,-3.000000,-3.000000,-1.000000,0.000000
1306124.426388,4.000000,-4.000000,-4.000000,-12.000000,-4.000000,-11.000000,7.000000,-1.000000
1306124.426401,2.000000,-3.000000,5.000000,2.000000,2.000000,2.000000,-6.000000,0.000000
1306124.427281,-1.000000,-5.000000,0.000000,10.000000,-1.000000,-8.000000,-4.000000,-1.000000
1306124.427290,3.000000,1.000000,-1.000000,-2.000000,-1.000000,-3.000000,3.000000,0.000000
1306124.427852,6.000000,-2.000000,6.000000,0.000000,2.000000,6.000000,0.000000,-1.000000
1306124.427861,-1.000000,1.000000,-3.000000,11.000000,8.000000,3.000000,-8.000000,1.000000
1306124.441182,-8.000000,-2.000000,2.000000,-4.000000,-1.000000,0.000000,-1.000000,-3.000000
1306124.441192,1.000000,5.000000,-5.000000,-3.000000,-1.000000,2.000000,4.000000,-2.000000
1306124.442008,0.000000,1.000000,-2.000000,3.000000,1.000000,-1.000000,-6.000000,5.000000
1306124.442024,-1.000000,-5.000000,-3.000000,-5.000000,3.000000,-3.000000,5.000000,-1.000000
1306124.463959,0.000000,5.000000,0.000000,-6.000000,-9.000000,-6.000000,5.000000,-3.000000
1306124.463970,-4.000000,-8.000000,-1.000000,2.000000,-2.000000,4.000000,-6.000000,3.000000
1306124.478669,-1.000000,-3.000000,1.000000,1.000000,-4.000000,-9.000000,-6.000000,-2.000000
1306124.478682,-1.000000,-3.000000,-4.000000,-9.000000,0.000000,-8.000000,2.000000,-2.000000
1306124.479827,0.000000,-4.000000,6.000000,0.000000,2.000000,8.000000,-2.000000,1.000000
1306124.479838,-1.000000,2.000000,-4.000000,7.000000,4.000000,9.000000,-2.000000,4.000000
1306124.480731,-1.000000,-7.000000,5.000000,-7.000000,-2.000000,-3.000000,1.000000,-2.000000
1306124.480754,-1.000000,5.000000,0.000000,-3.000000,-1.000000,1.000000,4.000000,-3.000000
1306124.524241,-3.000000,5.000000,4.000000,8.000000,5.000000,-1.000000,0.000000,2.000000
1306124.524251,-1.000000,-9.000000,-5.000000,-3.000000,-8.000000,-7.000000,1.000000,1.000000
1306124.531304,1.000000,-11.000000,-7.000000,-20.000000,-6.000000,-3.000000,5.000000,-4.000000
1306124.531333,1.000000,5.000000,-2.000000,6.000000,-1.000000,10.000000,-2.000000,0.000000
1306124.539002,0.000000,-8.000000,3.000000,4.000000,-4.000000,-3.000000,0.000000,3.000000
1306124.539011,-3.000000,-3.000000,-6.000000,-5.000000,-6.000000,1.000000,2.000000,0.000000
1306124.561452,1.000000,2.000000,-3.000000,1.000000,1.000000,4.000000,0.000000,1.000000
1306124.561464,-1.000000,4.000000,1.000000,8.000000,1.000000,1.000000,-9.000000,0.000000
1306124.562234,-1.000000,-7.000000,4.000000,-11.000000,-3.000000,-6.000000,4.000000,1.000000
1306124.562242,1.000000,4.000000,-12.000000,-5.000000,0.000000,1.000000,0.000000,-1.000000
1306124.562875,0.000000,6.000000,11.000000,4.000000,1.000000,1.000000,-5.000000,4.000000
1306124.562883,-1.000000,-1.000000,-1.000000,3.000000,-4.000000,2.000000,-3.000000,-3.000000
1306124.564273,-3.000000,-11.000000,-9.000000,-1.000000,0.000000,-8.000000,2.000000,-4.000000
1306124.564282,0.000000,2.000000,-2.000000,0.000000,8.000000,6.000000,-3.000000,0.000000
1306124.565119,0.000000,6.000000,-4.000000,3.000000,-2.000000,1.000000,-3.000000,2.000000
1306124.565127,-3.000000,-3.000000,0.000000,-9.000000,-5.000000,-7.000000,3.000000,-4.000000
1306124.583685,-2.000000,5.000000,5.000000,3.000000,-2.000000,-1.000000,-4.000000,1.000000
1306124.583704,-5.000000,-5.000000,2.000000,3.000000,7.000000,6.000000,-5.000000,3.000000
1306124.598978,0.000000,1.000000,0.000000,-1.000000,1.000000,1.000000,-4.000000,-1.000000
1306124.598988,-3.000000,-3.000000,1.000000,-4.000000,1.000000,6.000000,1.000000,-6.000000
1306124.636287,2.000000,6.000000,7.000000,9.000000,1.000000,7.000000,-6.000000,0.000000
1306124.636297,0.000000,-5.000000,0.000000,-1.000000,-5.000000,-1.000000,0.000000,-1.000000
1306124.643912,0.000000,-8.000000,-6.000000,-13.000000,-6.000000,-8.000000,7.000000,-7.000000
1306124.643927,0.000000,-4.000000,2.000000,4.000000,6.000000,-4.000000,0.000000,1.000000
1306124.681221,0.000000,-3.000000,1.000000,1.000000,0.000000,1.000000,-3.000000,-1.000000
1306124.681250,-3.000000,-7.000000,5.000000,-2.000000,-5.000000,-1.000000,3.000000,-3.000000
1306124.696233,2.000000,8.000000,-5.000000,0.000000,1.000000,7.000000,-4.000000,1.000000
1306124.696243,-6.000000,5.000000,10.000000,13.000000,0.000000,-1.000000,-8.000000,-3.000000
1306124.704343,3.000000,-1.000000,2.000000,4.000000,6.000000,3.000000,-5.000000,0.000000
1306124.704353,1.000000,-12.000000,-1.000000,0.000000,-4.000000,-8.000000,-2.000000,-1.000000
1306124.705397,5.000000,-4.000000,5.000000,4.000000,1.000000,-6.000000,-8.000000,1.000000
1306124.705406,-6.000000,2.000000,-6.000000,-9.000000,-11.000000,-12.000000,4.000000,-4.000000
1306124.706018,-3.000000,8.000000,2.000000,0.000000,2.000000,0.000000,-3.000000,-1.000000
1306124.706026,-4.000000,1.000000,6.000000,13.000000,1.000000,0.000000,-2.000000,1.000000
1306124.707015,-1.000000,1.000000,-4.000000,-9.000000,-3.000000,-4.000000,7.000000,-6.000000
1306124.707026,-1.000000,1.000000,4.000000,0.000000,-5.000000,6.000000,1.000000,5.000000
1306124.721394,-2.000000,-3.000000,-5.000000,-3.000000,-5.000000,-3.000000,-4.000000,2.000000
1306124.721638,-3.000000,-11.000000,-7.000000,-16.000000,-7.000000,-11.000000,8.000000,-2.000000
1306124.721864,-2.000000,-8.000000,3.000000,3.000000,9.000000,5.000000,-2.000000,-3.000000
1306124.721918,0.000000,-3.000000,1.000000,7.000000,2.000000,2.000000,-4.000000,3.000000
1306124.742556,2.000000,1.000000,-5.000000,-3.000000,-8.000000,-6.000000,1.000000,-4.000000
1306124.742609,-2.000000,2.000000,6.000000,-3.000000,3.000000,3.000000,0.000000,-3.000000
1306124.756578,1.000000,5.000000,0.000000,4.000000,2.000000,6.000000,-4.000000,2.000000
1306124.756609,1.000000,0.000000,-3.000000,-7.000000,-10.000000,-7.000000,-3.000000,2.000000
1306124.778679,-1.000000,-7.000000,0.000000,-13.000000,-8.000000,-4.000000,8.000000,-5.000000
1306124.778689,-3.000000,6.000000,2.000000,-1.000000,-2.000000,3.000000,-6.000000,0.000000
1306124.801257,0.000000,-3.000000,4.000000,1.000000,-7.000000,-5.000000,-3.000000,3.000000
1306124.801267,2.000000,-11.000000,-1.000000,-6.000000,0.000000,-15.000000,10.000000,-7.000000
1306124.816576,1.000000,5.000000,3.000000,4.000000,1.000000,3.000000,0.000000,1.000000
1306124.816604,-2.000000,5.000000,-8.000000,7.000000,3.000000,3.000000,-4.000000,2.000000
1306124.817212,2.000000,-3.000000,12.000000,-4.000000,-3.000000,-3.000000,2.000000,-4.000000
1306124.817238,3.000000,1.000000,-4.000000,-2.000000,5.000000,2.000000,-1.000000,-1.000000
1306124.818438,1.000000,14.000000,5.000000,10.000000,3.000000,3.000000,-11.000000,1.000000
1306124.818447,-2.000000,-4.000000,5.000000,-2.000000,-5.000000,-4.000000,0.000000,-3.000000
1306124.819380,-2.000000,-2.000000,-3.000000,-10.000000,-3.000000,-4.000000,2.000000,-4.000000
1306124.819388,-4.000000,-1.000000,0.000000,7.000000,4.000000,1.000000,-3.000000,-2.000000
1306124.838617,-2.000000,1.000000,1.000000,4.000000,-2.000000,5.000000,-3.000000,-3.000000
1306124.838627,1.000000,4.000000,6.000000,6.000000,1.000000,-6.000000,-4.000000,0.000000
1306124.839686,-1.000000,-8.000000,-3.000000,-5.000000,-3.000000,-5.000000,4.000000,1.000000
1306124.839694,1.000000,-7.000000,3.000000,3.000000,4.000000,3.000000,2.000000,-2.000000
1306124.840611,1.000000,7.000000,9.000000,7.000000,4.000000,7.000000,-9.000000,2.000000
1306124.840623,-5.000000,-3.000000,-12.000000,-5.000000,0.000000,-5.000000,4.000000,0.000000
1306124.853994,-1.000000,1.000000,8.000000,-9.000000,-6.000000,-4.000000,9.000000,-6.000000
1306124.854004,2.000000,2.000000,2.000000,0.000000,0.000000,7.000000,-2.000000,-1.000000
1306124.861299,-5.000000,-4.000000,-3.000000,4.000000,3.000000,-1.000000,0.000000,0.000000
1306124.861316,-2.000000,0.000000,-2.000000,-14.000000,-7.000000,-6.000000,5.000000,-7.000000
1306124.898869,0.000000,2.000000,-11.000000,-1.000000,0.000000,1.000000,-2.000000,-1.000000
1306124.898924,-5.000000,3.000000,3.000000,12.000000,-2.000000,0.000000,-8.000000,1.000000
1306124.913677,1.000000,0.000000,2.000000,-2.000000,-1.000000,0.000000,-2.000000,-2.000000
1306124.913700,-1.000000,9.000000,-10.000000,2.000000,-1.000000,5.000000,-1.000000,-2.000000
1306124.914678,0.000000,5.000000,8.000000,8.000000,8.000000,12.000000,-9.000000,2.000000
1306124.914698,-5.000000,-6.000000,8.000000,1.000000,-7.000000,-1.000000,0.000000,-3.000000
1306124.915215,-1.000000,1.000000,-10.000000,-9.000000,-5.000000,-3.000000,4.000000,-4.000000
1306124.915224,0.000000,-6.000000,4.000000,3.000000,1.000000,4.000000,-2.000000,1.000000
1306124.916898,-4.000000,-8.000000,-13.000000,-5.000000,-8.000000,-7.000000,-1.000000,0.000000
1306124.916907,-1.000000,-4.000000,5.000000,-15.000000,-8.000000,-4.000000,8.000000,-2.000000
1306124.921384,0.000000,5.000000,1.000000,2.000000,2.000000,8.000000,-5.000000,0.000000
1306124.921395,-4.000000,0.000000,1.000000,11.000000,3.000000,3.000000,1.000000,5.000000
1306124.958778,-1.000000,-3.000000,4.000000,1.000000,-3.000000,1.000000,-1.000000,0.000000
1306124.958808,5.000000,7.000000,5.000000,-2.000000,0.000000,3.000000,1.000000,-1.000000
1306124.959051,-2.000000,2.000000,-3.000000,0.000000,5.000000,4.000000,-10.000000,-1.000000
1306124.959060,1.000000,5.000000,-4.000000,-2.000000,-4.000000,1.000000,1.000000,-3.000000
1306124.960436,0.000000,-11.000000,-5.000000,-7.000000,-5.000000,-3.000000,5.000000,-4.000000
1306124.960449,-6.000000,-2.000000,2.000000,3.000000,4.000000,0.000000,-2.000000,3.000000
1306124.961207,-3.000000,-8.000000,0.000000,0.000000,1.000000,-7.000000,-4.000000,-1.000000
1306124.961216,1.000000,-2.000000,-6.000000,-12.000000,-11.000000,-11.000000,7.000000,-4.000000
1306124.981472,-3.000000,6.000000,0.000000,-1.000000,-3.000000,4.000000,-1.000000,0.000000
1306124.981483,-1.000000,-3.000000,11.000000,6.000000,-5.000000,-6.000000,-7.000000,1.000000
1306124.996367,1.000000,-5.000000,-2.000000,-5.000000,-8.000000,-7.000000,-1.000000,-2.000000
1306124.996382,-1.000000,6.000000,0.000000,5.000000,4.000000,7.000000,3.000000,4.000000
1306125.011157,4.000000,8.000000,-4.000000,6.000000,4.000000,2.000000,-3.000000,0.000000
1306125.011187,0.000000,-8.000000,-6.000000,1.000000,-5.000000,-5.000000,-2.000000,1.000000
1306125.018978,-6.000000,-5.000000,1.000000,5.000000,-3.000000,0.000000,-1.000000,-10.000000
