# participant_id: P10
# gesture: baseline
# trial_number: 2
# stream_name: Myo_EMG
# stream_type: emg
# timestamp: 20260420_161454
# samples: 5586
# duration_sec: 30.585
# nominal_sample_rate: 200.0
# effective_sample_rate: 182.60
#
timestamp,emg_1,emg_2,emg_3,emg_4,emg_5,emg_6,emg_7,emg_8
1306385.884168,-1.000000,-7.000000,-4.000000,-8.000000,0.000000,-1.000000,0.000000,-4.000000
1306385.884202,-2.000000,11.000000,2.000000,9.000000,2.000000,5.000000,-4.000000,0.000000
1306385.891449,2.000000,-4.000000,-5.000000,-4.000000,-2.000000,0.000000,-2.000000,1.000000
1306385.891458,0.000000,-8.000000,4.000000,5.000000,-1.000000,-3.000000,4.000000,-3.000000
1306385.929115,-4.000000,1.000000,0.000000,1.000000,-2.000000,2.000000,-3.000000,-2.000000
1306385.929163,1.000000,-15.000000,-8.000000,-3.000000,7.000000,0.000000,4.000000,3.000000
1306385.929580,-3.000000,-8.000000,4.000000,-10.000000,-3.000000,0.000000,-1.000000,-2.000000
1306385.929589,0.000000,-4.000000,-7.000000,2.000000,0.000000,1.000000,-2.000000,1.000000
1306385.930732,1.000000,13.000000,4.000000,4.000000,-2.000000,4.000000,-4.000000,2.000000
1306385.930741,-2.000000,-6.000000,6.000000,12.000000,-1.000000,0.000000,-3.000000,-1.000000
1306385.931468,0.000000,3.000000,-3.000000,-9.000000,-1.000000,1.000000,1.000000,0.000000
1306385.931483,-1.000000,11.000000,1.000000,3.000000,1.000000,-3.000000,-2.000000,-2.000000
1306385.932877,2.000000,0.000000,0.000000,3.000000,1.000000,-3.000000,1.000000,2.000000
1306385.932895,-1.000000,-5.000000,0.000000,-6.000000,-2.000000,-2.000000,1.000000,-3.000000
1306385.937111,-2.000000,-10.000000,-2.000000,-8.000000,-2.000000,-3.000000,4.000000,0.000000
1306385.937120,2.000000,2.000000,0.000000,-3.000000,-2.000000,-1.000000,4.000000,-3.000000
1306385.952253,2.000000,2.000000,-1.000000,10.000000,0.000000,1.000000,-2.000000,-1.000000
1306385.952264,-1.000000,-4.000000,2.000000,-14.000000,-3.000000,-2.000000,1.000000,-1.000000
1306385.966504,-1.000000,0.000000,-3.000000,-9.000000,-3.000000,4.000000,-2.000000,0.000000
1306385.966524,4.000000,12.000000,-7.000000,4.000000,1.000000,-2.000000,0.000000,3.000000
1306385.967169,-1.000000,2.000000,5.000000,5.000000,-1.000000,-4.000000,-1.000000,-3.000000
1306385.967178,0.000000,-9.000000,-7.000000,-14.000000,-1.000000,-2.000000,2.000000,-3.000000
1306386.026982,2.000000,2.000000,-1.000000,0.000000,-1.000000,2.000000,-2.000000,2.000000
1306386.027018,2.000000,-4.000000,2.000000,8.000000,5.000000,1.000000,-4.000000,-4.000000
1306386.049391,-5.000000,-18.000000,-1.000000,-1.000000,-5.000000,-8.000000,0.000000,-3.000000
1306386.049402,-1.000000,-1.000000,0.000000,-2.000000,0.000000,-1.000000,-1.000000,1.000000
1306386.057516,3.000000,13.000000,-2.000000,8.000000,1.000000,-3.000000,-3.000000,0.000000
1306386.057526,-4.000000,-11.000000,-3.000000,-2.000000,-2.000000,1.000000,2.000000,-2.000000
1306386.057781,-3.000000,-5.000000,-3.000000,-6.000000,1.000000,0.000000,0.000000,-1.000000
1306386.057796,3.000000,23.000000,11.000000,16.000000,4.000000,3.000000,0.000000,0.000000
1306386.058905,1.000000,-4.000000,0.000000,-5.000000,-2.000000,-3.000000,4.000000,-1.000000
1306386.058914,-2.000000,-6.000000,-2.000000,-2.000000,-1.000000,0.000000,2.000000,-2.000000
1306386.086585,0.000000,-5.000000,1.000000,-7.000000,-1.000000,-5.000000,-3.000000,0.000000
1306386.086596,-2.000000,-8.000000,-4.000000,-1.000000,1.000000,-3.000000,1.000000,1.000000
1306386.087727,-3.000000,8.000000,0.000000,-7.000000,-2.000000,1.000000,-4.000000,-3.000000
1306386.087744,5.000000,1.000000,-3.000000,-3.000000,-4.000000,2.000000,3.000000,1.000000
1306386.088653,-1.000000,-10.000000,-5.000000,3.000000,-4.000000,-5.000000,-5.000000,-1.000000
1306386.088667,-6.000000,2.000000,-3.000000,2.000000,0.000000,4.000000,0.000000,-4.000000
1306386.109180,-1.000000,4.000000,2.000000,2.000000,-4.000000,-2.000000,-4.000000,-1.000000
1306386.109200,-4.000000,-7.000000,1.000000,11.000000,-1.000000,-1.000000,-5.000000,-1.000000
1306386.124225,-3.000000,-2.000000,-1.000000,-10.000000,-1.000000,-1.000000,1.000000,-2.000000
1306386.124247,0.000000,10.000000,-2.000000,5.000000,1.000000,0.000000,-3.000000,-1.000000
1306386.161875,0.000000,-9.000000,-5.000000,-5.000000,-3.000000,-2.000000,-3.000000,-1.000000
1306386.161886,0.000000,1.000000,1.000000,5.000000,-2.000000,-5.000000,4.000000,-5.000000
1306386.162695,-2.000000,6.000000,1.000000,5.000000,-1.000000,0.000000,-4.000000,-2.000000
1306386.162751,2.000000,-5.000000,-2.000000,-1.000000,-1.000000,-2.000000,-2.000000,2.000000
1306386.164010,3.000000,-12.000000,1.000000,-5.000000,-3.000000,-1.000000,2.000000,-2.000000
1306386.164022,-3.000000,4.000000,0.000000,0.000000,1.000000,-3.000000,-1.000000,0.000000
1306386.164764,-5.000000,2.000000,4.000000,9.000000,2.000000,0.000000,-8.000000,-2.000000
1306386.164789,-2.000000,-9.000000,-4.000000,-8.000000,-5.000000,-6.000000,0.000000,1.000000
1306386.168968,4.000000,-7.000000,-3.000000,-1.000000,0.000000,0.000000,-1.000000,4.000000
1306386.168996,-1.000000,-9.000000,2.000000,6.000000,0.000000,-2.000000,0.000000,-4.000000
1306386.184749,-8.000000,3.000000,-4.000000,-13.000000,-4.000000,-2.000000,-7.000000,-3.000000
1306386.184759,0.000000,5.000000,1.000000,-1.000000,0.000000,2.000000,-1.000000,0.000000
1306386.206695,4.000000,-7.000000,3.000000,5.000000,-2.000000,1.000000,0.000000,-1.000000
1306386.206706,-3.000000,-4.000000,-8.000000,-1.000000,0.000000,-1.000000,0.000000,2.000000
1306386.207616,0.000000,4.000000,7.000000,-4.000000,-1.000000,-4.000000,-1.000000,1.000000
1306386.207643,1.000000,2.000000,3.000000,-15.000000,-8.000000,-4.000000,-3.000000,1.000000
1306386.208429,0.000000,-1.000000,-8.000000,-8.000000,-4.000000,-4.000000,-3.000000,-3.000000
1306386.208447,0.000000,6.000000,-5.000000,-2.000000,0.000000,4.000000,-1.000000,2.000000
1306386.244331,2.000000,8.000000,4.000000,-2.000000,-5.000000,-2.000000,0.000000,-1.000000
1306386.244382,-4.000000,-6.000000,-9.000000,-1.000000,2.000000,2.000000,-1.000000,-2.000000
1306386.251628,3.000000,14.000000,1.000000,9.000000,4.000000,0.000000,4.000000,2.000000
1306386.251641,-1.000000,5.000000,12.000000,9.000000,1.000000,-5.000000,-4.000000,-2.000000
1306386.266639,-4.000000,-10.000000,-4.000000,-3.000000,-1.000000,-5.000000,2.000000,0.000000
1306386.266650,0.000000,4.000000,-4.000000,-3.000000,3.000000,-1.000000,-1.000000,1.000000
1306386.274459,2.000000,4.000000,-3.000000,-5.000000,-2.000000,-3.000000,-2.000000,0.000000
1306386.274470,2.000000,-6.000000,-1.000000,8.000000,-3.000000,-1.000000,0.000000,1.000000
1306386.282098,-5.000000,-8.000000,-2.000000,-13.000000,-3.000000,1.000000,0.000000,-3.000000
1306386.282128,0.000000,6.000000,-3.000000,-5.000000,2.000000,5.000000,3.000000,3.000000
1306386.282693,4.000000,-7.000000,-1.000000,2.000000,0.000000,1.000000,0.000000,-2.000000
1306386.282705,1.000000,-3.000000,1.000000,7.000000,1.000000,-3.000000,1.000000,-4.000000
1306386.284543,-1.000000,-1.000000,1.000000,12.000000,4.000000,2.000000,-4.000000,-1.000000
1306386.284554,0.000000,-4.000000,2.000000,2.000000,-2.000000,-3.000000,2.000000,-2.000000
1306386.289227,-3.000000,-10.000000,-1.000000,1.000000,0.000000,-4.000000,-1.000000,0.000000
1306386.289237,1.000000,-4.000000,-2.000000,-8.000000,-2.000000,2.000000,-1.000000,-1.000000
1306386.318948,3.000000,16.000000,2.000000,-4.000000,-1.000000,-2.000000,-4.000000,0.000000
1306386.318959,-4.000000,-16.000000,-5.000000,19.000000,1.000000,0.000000,-2.000000,-4.000000
1306386.319488,-6.000000,5.000000,0.000000,-11.000000,1.000000,-5.000000,-2.000000,-2.000000
1306386.319498,-1.000000,4.000000,0.000000,-1.000000,1.000000,0.000000,-6.000000,-2.000000
1306386.321035,2.000000,-6.000000,-8.000000,-13.000000,-2.000000,-4.000000,0.000000,0.000000
1306386.321046,-2.000000,-7.000000,0.000000,2.000000,0.000000,0.000000,-1.000000,-3.000000
1306386.326916,-2.000000,9.000000,-1.000000,-6.000000,-5.000000,2.000000,-1.000000,0.000000
1306386.326929,-3.000000,-3.000000,0.000000,-2.000000,0.000000,-1.000000,-5.000000,0.000000
1306386.379356,-3.000000,-15.000000,-1.000000,-4.000000,1.000000,-3.000000,1.000000,0.000000
1306386.379369,0.000000,4.000000,0.000000,1.000000,-5.000000,0.000000,2.000000,-4.000000
1306386.386791,5.000000,7.000000,-1.000000,-1.000000,-3.000000,-1.000000,-2.000000,3.000000
1306386.386802,-16.000000,-61.000000,-10.000000,19.000000,4.000000,4.000000,-1.000000,-3.000000
1306386.424292,0.000000,10.000000,-8.000000,4.000000,1.000000,2.000000,1.000000,-1.000000
1306386.424335,0.000000,7.000000,2.000000,-3.000000,1.000000,6.000000,1.000000,4.000000
1306386.424813,0.000000,0.000000,3.000000,7.000000,-1.000000,-2.000000,1.000000,0.000000
1306386.424830,0.000000,4.000000,-1.000000,1.000000,0.000000,-3.000000,-3.000000,1.000000
1306386.425681,1.000000,9.000000,-4.000000,-6.000000,-5.000000,0.000000,-4.000000,-1.000000
1306386.425811,0.000000,-3.000000,-1.000000,3.000000,0.000000,0.000000,-1.000000,-2.000000
1306386.427007,5.000000,3.000000,2.000000,-5.000000,7.000000,7.000000,5.000000,6.000000
1306386.427015,-7.000000,-18.000000,-3.000000,-7.000000,-4.000000,-6.000000,-1.000000,-3.000000
1306386.431641,1.000000,10.000000,-3.000000,-5.000000,2.000000,3.000000,-3.000000,-2.000000
1306386.431652,-3.000000,-5.000000,-2.000000,0.000000,-2.000000,-2.000000,-3.000000,1.000000
1306386.439691,2.000000,-10.000000,1.000000,0.000000,1.000000,-2.000000,2.000000,1.000000
1306386.439700,-1.000000,4.000000,5.000000,6.000000,-2.000000,-1.000000,-5.000000,-5.000000
1306386.446650,1.000000,4.000000,4.000000,-14.000000,-5.000000,3.000000,-2.000000,0.000000
1306386.446660,-7.000000,-20.000000,7.000000,8.000000,3.000000,-3.000000,0.000000,-3.000000
1306386.476993,-2.000000,-3.000000,2.000000,4.000000,3.000000,1.000000,3.000000,0.000000
1306386.477007,3.000000,2.000000,-3.000000,-7.000000,-3.000000,4.000000,-1.000000,3.000000
1306386.484227,0.000000,-10.000000,-2.000000,8.000000,-1.000000,-1.000000,0.000000,-2.000000
1306386.484238,-1.000000,-2.000000,-4.000000,-11.000000,-3.000000,-4.000000,0.000000,-3.000000
1306386.499078,-2.000000,10.000000,2.000000,1.000000,-1.000000,3.000000,-4.000000,-2.000000
1306386.499130,1.000000,-5.000000,-1.000000,-2.000000,1.000000,-1.000000,-1.000000,0.000000
1306386.521735,-3.000000,-3.000000,1.000000,2.000000,2.000000,1.000000,-1.000000,1.000000
1306386.521746,-4.000000,3.000000,-3.000000,-5.000000,-7.000000,2.000000,-2.000000,-3.000000
1306386.530266,-1.000000,-5.000000,-1.000000,6.000000,2.000000,-1.000000,2.000000,1.000000
1306386.530293,-8.000000,-26.000000,-17.000000,-16.000000,-5.000000,-1.000000,0.000000,-4.000000
1306386.536554,-6.000000,-2.000000,-5.000000,-7.000000,-5.000000,-2.000000,-1.000000,-7.000000
1306386.536571,3.000000,12.000000,2.000000,3.000000,2.000000,3.000000,-2.000000,-3.000000
1306386.537545,2.000000,-5.000000,1.000000,-4.000000,-1.000000,-3.000000,1.000000,-2.000000
1306386.537553,-1.000000,-5.000000,-4.000000,2.000000,-3.000000,0.000000,2.000000,-1.000000
1306386.538125,2.000000,15.000000,3.000000,1.000000,-1.000000,2.000000,0.000000,1.000000
1306386.538141,-2.000000,-1.000000,-2.000000,2.000000,1.000000,3.000000,2.000000,1.000000
1306386.540414,-1.000000,-8.000000,-3.000000,-2.000000,1.000000,-1.000000,-1.000000,-1.000000
1306386.540432,-1.000000,-1.000000,1.000000,-5.000000,1.000000,0.000000,-1.000000,0.000000
1306386.559231,1.000000,4.000000,7.000000,2.000000,-3.000000,-4.000000,-4.000000,-2.000000
1306386.559242,10.000000,16.000000,12.000000,-18.000000,-8.000000,-9.000000,-1.000000,-1.000000
1306386.560343,-3.000000,-20.000000,-13.000000,12.000000,1.000000,2.000000,2.000000,-4.000000
1306386.560351,1.000000,20.000000,7.000000,14.000000,10.000000,-2.000000,2.000000,2.000000
1306386.581524,0.000000,-6.000000,-2.000000,-4.000000,-4.000000,1.000000,-4.000000,1.000000
1306386.581553,-1.000000,-4.000000,1.000000,11.000000,-1.000000,-2.000000,-2.000000,1.000000
1306386.604109,-1.000000,12.000000,3.000000,2.000000,2.000000,0.000000,-3.000000,-1.000000
1306386.604121,0.000000,-5.000000,-1.000000,4.000000,3.000000,1.000000,-2.000000,-4.000000
1306386.611863,-3.000000,-4.000000,-3.000000,-3.000000,-6.000000,-1.000000,2.000000,-3.000000
1306386.611875,-1.000000,3.000000,-3.000000,-1.000000,3.000000,2.000000,-3.000000,-1.000000
1306386.633957,-1.000000,-6.000000,2.000000,1.000000,-1.000000,-1.000000,-2.000000,0.000000
1306386.633967,-2.000000,-15.000000,0.000000,-5.000000,-1.000000,-1.000000,2.000000,-2.000000
1306386.641422,-3.000000,-2.000000,-1.000000,-3.000000,0.000000,1.000000,1.000000,0.000000
1306386.641434,-1.000000,-1.000000,-2.000000,1.000000,0.000000,0.000000,-3.000000,3.000000
1306386.642761,-8.000000,-25.000000,-6.000000,-20.000000,-9.000000,-5.000000,-4.000000,-3.000000
1306386.642778,3.000000,10.000000,-1.000000,1.000000,2.000000,-3.000000,4.000000,-4.000000
1306386.643223,1.000000,10.000000,2.000000,4.000000,-3.000000,-1.000000,1.000000,0.000000
1306386.643252,2.000000,-1.000000,1.000000,1.000000,-4.000000,-2.000000,0.000000,-2.000000
1306386.644763,0.000000,-10.000000,-1.000000,-3.000000,0.000000,-4.000000,-3.000000,-1.000000
1306386.644772,-2.000000,5.000000,-4.000000,-4.000000,-3.000000,2.000000,0.000000,0.000000
1306386.656800,2.000000,0.000000,1.000000,3.000000,0.000000,-1.000000,-1.000000,-1.000000
1306386.656812,1.000000,-10.000000,-2.000000,-5.000000,0.000000,1.000000,1.000000,-1.000000
1306386.657838,8.000000,9.000000,7.000000,-13.000000,2.000000,5.000000,-2.000000,1.000000
1306386.657846,-8.000000,-21.000000,-10.000000,9.000000,-2.000000,5.000000,0.000000,1.000000
1306386.679087,-2.000000,-14.000000,10.000000,22.000000,3.000000,-4.000000,-5.000000,-2.000000
1306386.679117,-5.000000,12.000000,0.000000,-34.000000,-5.000000,-7.000000,0.000000,-4.000000
1306386.680207,5.000000,12.000000,-2.000000,1.000000,-3.000000,0.000000,-1.000000,6.000000
1306386.680216,0.000000,-1.000000,-1.000000,0.000000,-3.000000,-1.000000,-3.000000,-3.000000
1306386.701823,0.000000,-5.000000,1.000000,2.000000,-2.000000,-1.000000,-2.000000,1.000000
1306386.701834,3.000000,6.000000,0.000000,-3.000000,1.000000,1.000000,-2.000000,1.000000
1306386.724045,-1.000000,8.000000,-2.000000,-8.000000,-2.000000,-2.000000,-2.000000,2.000000
1306386.724069,-2.000000,-22.000000,-8.000000,-2.000000,-2.000000,-4.000000,1.000000,-1.000000
1306386.731513,-4.000000,-4.000000,5.000000,0.000000,-4.000000,-2.000000,-3.000000,-6.000000
1306386.731550,3.000000,10.000000,-10.000000,-17.000000,-1.000000,1.000000,-1.000000,0.000000
1306386.746519,-3.000000,-14.000000,-3.000000,-2.000000,0.000000,-6.000000,0.000000,0.000000
1306386.746529,1.000000,-2.000000,0.000000,5.000000,1.000000,0.000000,-3.000000,1.000000
1306386.761694,-1.000000,12.000000,3.000000,-1.000000,-3.000000,1.000000,-7.000000,2.000000
1306386.761704,-2.000000,-2.000000,0.000000,3.000000,2.000000,-2.000000,-3.000000,-2.000000
1306386.763583,-2.000000,-4.000000,0.000000,2.000000,0.000000,-4.000000,1.000000,-3.000000
1306386.763607,-3.000000,0.000000,-2.000000,1.000000,3.000000,-1.000000,1.000000,-3.000000
1306386.764116,-2.000000,-15.000000,-6.000000,-4.000000,-3.000000,-4.000000,-2.000000,0.000000
1306386.764126,-5.000000,-11.000000,-2.000000,11.000000,3.000000,-3.000000,1.000000,-4.000000
1306386.765040,0.000000,-2.000000,3.000000,3.000000,1.000000,3.000000,-2.000000,2.000000
1306386.765063,-2.000000,5.000000,-1.000000,-7.000000,0.000000,2.000000,-2.000000,1.000000
1306386.769198,0.000000,-12.000000,1.000000,-4.000000,-2.000000,-4.000000,1.000000,1.000000
1306386.769243,0.000000,-1.000000,2.000000,10.000000,2.000000,2.000000,2.000000,-2.000000
1306386.777223,1.000000,7.000000,-4.000000,-14.000000,-3.000000,0.000000,-1.000000,1.000000
1306386.777232,0.000000,-7.000000,-1.000000,-1.000000,4.000000,0.000000,0.000000,3.000000
1306386.799279,0.000000,4.000000,2.000000,2.000000,0.000000,-2.000000,1.000000,0.000000
1306386.799292,1.000000,13.000000,5.000000,1.000000,-1.000000,-1.000000,0.000000,-1.000000
1306386.800340,-2.000000,-13.000000,-8.000000,-13.000000,-7.000000,3.000000,-1.000000,2.000000
1306386.800348,-1.000000,1.000000,4.000000,14.000000,8.000000,-2.000000,4.000000,-1.000000
1306386.814292,-2.000000,-2.000000,-4.000000,-17.000000,-3.000000,-2.000000,-4.000000,2.000000
1306386.814326,0.000000,-5.000000,-3.000000,-2.000000,2.000000,1.000000,0.000000,2.000000
1306386.836576,-2.000000,-13.000000,-4.000000,-4.000000,1.000000,-5.000000,5.000000,0.000000
1306386.836605,-2.000000,5.000000,2.000000,-1.000000,0.000000,-5.000000,-1.000000,-3.000000
1306386.851538,-1.000000,-4.000000,-2.000000,-7.000000,0.000000,4.000000,1.000000,0.000000
1306386.851548,-3.000000,-10.000000,-8.000000,-6.000000,1.000000,-1.000000,-4.000000,-1.000000
1306386.859683,2.000000,-2.000000,2.000000,9.000000,0.000000,-4.000000,-1.000000,-1.000000
1306386.859694,-1.000000,8.000000,-3.000000,-10.000000,-1.000000,4.000000,0.000000,-2.000000
1306386.860770,0.000000,-6.000000,-1.000000,0.000000,-4.000000,-4.000000,-5.000000,-4.000000
1306386.860788,0.000000,-4.000000,-2.000000,-2.000000,-1.000000,-3.000000,2.000000,-1.000000
1306386.862344,2.000000,10.000000,5.000000,9.000000,2.000000,-2.000000,-2.000000,-4.000000
1306386.862371,-1.000000,7.000000,6.000000,8.000000,0.000000,-1.000000,-2.000000,2.000000
1306386.874232,2.000000,-21.000000,-12.000000,-15.000000,-5.000000,-2.000000,1.000000,-2.000000
1306386.874256,4.000000,13.000000,-1.000000,3.000000,2.000000,-1.000000,-3.000000,0.000000
1306386.882143,1.000000,8.000000,-2.000000,-11.000000,-6.000000,1.000000,1.000000,-1.000000
1306386.882171,-3.000000,-6.000000,1.000000,2.000000,1.000000,-2.000000,-3.000000,2.000000
1306386.889315,0.000000,-5.000000,-5.000000,-7.000000,-7.000000,-1.000000,0.000000,-3.000000
1306386.889326,4.000000,10.000000,0.000000,-6.000000,1.000000,0.000000,-3.000000,-1.000000
1306386.918874,0.000000,0.000000,3.000000,0.000000,-6.000000,-3.000000,-3.000000,1.000000
1306386.918888,2.000000,-10.000000,-1.000000,-3.000000,0.000000,-3.000000,-1.000000,0.000000
1306386.919548,-4.000000,2.000000,-8.000000,-18.000000,0.000000,0.000000,3.000000,-1.000000
1306386.919556,0.000000,-1.000000,-4.000000,2.000000,-5.000000,-3.000000,-3.000000,0.000000
1306386.921013,-2.000000,-16.000000,-2.000000,0.000000,0.000000,-1.000000,3.000000,0.000000
1306386.921035,-3.000000,2.000000,1.000000,-1.000000,-3.000000,-4.000000,-1.000000,-4.000000
1306386.934320,-1.000000,13.000000,-3.000000,-1.000000,0.000000,4.000000,-1.000000,-2.000000
1306386.934331,3.000000,-1.000000,1.000000,7.000000,-3.000000,-1.000000,-1.000000,1.000000
1306386.956561,-5.000000,-3.000000,3.000000,3.000000,-3.000000,-3.000000,-6.000000,-5.000000
1306386.956571,0.000000,8.000000,-4.000000,-10.000000,-1.000000,-2.000000,-3.000000,-2.000000
1306386.979161,0.000000,6.000000,5.000000,5.000000,-3.000000,-2.000000,-1.000000,0.000000
1306386.979197,-3.000000,-6.000000,-3.000000,9.000000,1.000000,2.000000,2.000000,-5.000000
1306387.001553,-2.000000,-1.000000,-4.000000,-2.000000,-2.000000,1.000000,0.000000,1.000000
1306387.001582,3.000000,5.000000,0.000000,-9.000000,-3.000000,-3.000000,-3.000000,1.000000
1306387.016524,0.000000,-12.000000,3.000000,16.000000,4.000000,-1.000000,0.000000,-2.000000
1306387.016535,1.000000,-3.000000,0.000000,-11.000000,-1.000000,-1.000000,-3.000000,-2.000000
1306387.039223,-2.000000,5.000000,4.000000,4.000000,-5.000000,-1.000000,-5.000000,2.000000
1306387.039281,0.000000,-1.000000,0.000000,-4.000000,1.000000,-1.000000,0.000000,2.000000
1306387.054124,0.000000,-1.000000,-3.000000,-5.000000,-1.000000,-1.000000,-3.000000,-1.000000
1306387.054141,0.000000,12.000000,3.000000,8.000000,3.000000,1.000000,-1.000000,2.000000
1306387.077066,-3.000000,-4.000000,-2.000000,4.000000,0.000000,2.000000,3.000000,2.000000
1306387.077076,-2.000000,-5.000000,2.000000,4.000000,-2.000000,1.000000,0.000000,-2.000000
1306387.078272,0.000000,7.000000,0.000000,-3.000000,-2.000000,1.000000,-2.000000,1.000000
1306387.078280,-2.000000,-3.000000,-2.000000,4.000000,1.000000,0.000000,-1.000000,-1.000000
1306387.079776,0.000000,1.000000,2.000000,-6.000000,3.000000,0.000000,1.000000,1.000000
1306387.079784,4.000000,-1.000000,-10.000000,1.000000,-2.000000,-1.000000,-1.000000,-2.000000
1306387.080503,-3.000000,-14.000000,-5.000000,-4.000000,0.000000,-2.000000,3.000000,-1.000000
1306387.080510,1.000000,-6.000000,0.000000,4.000000,0.000000,-3.000000,-1.000000,-2.000000
1306387.091655,3.000000,14.000000,1.000000,2.000000,-5.000000,2.000000,0.000000,1.000000
1306387.091718,-1.000000,-3.000000,2.000000,-3.000000,-1.000000,0.000000,-2.000000,-2.000000
1306387.092289,-2.000000,-5.000000,1.000000,-8.000000,-1.000000,-4.000000,0.000000,-1.000000
1306387.092306,2.000000,12.000000,-5.000000,2.000000,-1.000000,2.000000,-5.000000,2.000000
1306387.114546,-1.000000,-9.000000,-4.000000,-6.000000,0.000000,-2.000000,-2.000000,-1.000000
1306387.114575,-1.000000,-6.000000,-3.000000,-5.000000,-5.000000,-4.000000,-1.000000,-5.000000
1306387.115314,1.000000,5.000000,1.000000,2.000000,-1.000000,-2.000000,-3.000000,2.000000
1306387.115342,-3.000000,-1.000000,-5.000000,3.000000,0.000000,-2.000000,-3.000000,0.000000
1306387.136916,-1.000000,-17.000000,-3.000000,-1.000000,-2.000000,-3.000000,4.000000,-4.000000
1306387.136954,0.000000,11.000000,6.000000,6.000000,3.000000,2.000000,-1.000000,-2.000000
1306387.137626,-6.000000,-4.000000,-5.000000,-18.000000,-6.000000,-1.000000,-5.000000,-1.000000
1306387.137634,-1.000000,-7.000000,2.000000,2.000000,2.000000,-2.000000,0.000000,0.000000
1306387.151520,2.000000,0.000000,-5.000000,-7.000000,0.000000,-7.000000,-1.000000,-3.000000
1306387.151535,-1.000000,14.000000,5.000000,13.000000,-1.000000,0.000000,-3.000000,2.000000
1306387.152156,0.000000,-4.000000,2.000000,-6.000000,1.000000,2.000000,-4.000000,2.000000
1306387.152175,-1.000000,-12.000000,-4.000000,-8.000000,0.000000,-2.000000,1.000000,-2.000000
1306387.159894,4.000000,13.000000,1.000000,2.000000,-6.000000,-2.000000,-6.000000,-6.000000
1306387.159905,2.000000,1.000000,-1.000000,-6.000000,-1.000000,-1.000000,-3.000000,4.000000
1306387.181758,-1.000000,-7.000000,4.000000,0.000000,0.000000,-4.000000,-2.000000,-1.000000
1306387.181771,0.000000,5.000000,1.000000,3.000000,1.000000,-1.000000,-1.000000,-1.000000
1306387.211615,-3.000000,3.000000,-2.000000,-3.000000,-3.000000,4.000000,-4.000000,-5.000000
1306387.211625,0.000000,-6.000000,-2.000000,-4.000000,-2.000000,-1.000000,-1.000000,-1.000000
1306387.219441,3.000000,8.000000,-1.000000,-1.000000,-6.000000,-7.000000,-4.000000,-2.000000
1306387.219452,1.000000,8.000000,1.000000,-5.000000,-1.000000,1.000000,1.000000,1.000000
1306387.234689,-1.000000,-15.000000,-8.000000,-1.000000,5.000000,-1.000000,-2.000000,-1.000000
1306387.234711,-2.000000,-5.000000,-8.000000,-2.000000,-3.000000,-3.000000,-3.000000,-2.000000
1306387.235105,3.000000,15.000000,-5.000000,-12.000000,-5.000000,0.000000,0.000000,1.000000
1306387.235113,-5.000000,-20.000000,-2.000000,27.000000,8.000000,7.000000,-1.000000,-3.000000
1306387.236370,-1.000000,-6.000000,-6.000000,-15.000000,-7.000000,-3.000000,0.000000,0.000000
1306387.236384,2.000000,6.000000,2.000000,2.000000,0.000000,-3.000000,-2.000000,-1.000000
1306387.237330,-2.000000,0.000000,0.000000,-11.000000,-2.000000,-2.000000,-6.000000,0.000000
1306387.237357,-1.000000,-9.000000,0.000000,-3.000000,-5.000000,-4.000000,-4.000000,1.000000
1306387.256850,-1.000000,4.000000,0.000000,-3.000000,-1.000000,1.000000,0.000000,2.000000
1306387.257075,2.000000,10.000000,1.000000,3.000000,1.000000,-2.000000,-1.000000,-1.000000
1306387.257375,1.000000,-1.000000,-2.000000,-3.000000,-1.000000,0.000000,-1.000000,2.000000
1306387.257383,2.000000,-3.000000,-3.000000,-1.000000,0.000000,0.000000,1.000000,0.000000
1306387.271818,-4.000000,4.000000,-4.000000,-2.000000,-1.000000,5.000000,-4.000000,-3.000000
1306387.271847,3.000000,10.000000,6.000000,0.000000,1.000000,0.000000,-2.000000,10.000000
1306387.272429,-1.000000,-18.000000,-8.000000,5.000000,3.000000,-2.000000,-1.000000,-9.000000
1306387.272451,5.000000,5.000000,2.000000,0.000000,4.000000,3.000000,0.000000,-2.000000
1306387.279935,-1.000000,10.000000,0.000000,1.000000,-1.000000,-2.000000,1.000000,-10.000000
1306387.279962,5.000000,-8.000000,-2.000000,-1.000000,0.000000,-2.000000,1.000000,-2.000000
1306387.316760,-1.000000,5.000000,-3.000000,-8.000000,-5.000000,-1.000000,1.000000,4.000000
1306387.316771,-1.000000,10.000000,-6.000000,4.000000,3.000000,-1.000000,-1.000000,1.000000
1306387.331775,0.000000,2.000000,4.000000,9.000000,2.000000,0.000000,0.000000,0.000000
1306387.331793,-1.000000,4.000000,-3.000000,-5.000000,-2.000000,-1.000000,-3.000000,1.000000
1306387.354339,-3.000000,13.000000,1.000000,0.000000,3.000000,2.000000,-4.000000,2.000000
1306387.354354,0.000000,2.000000,0.000000,-1.000000,0.000000,-3.000000,-2.000000,-2.000000
1306387.355237,0.000000,-10.000000,-5.000000,-6.000000,2.000000,-5.000000,3.000000,1.000000
1306387.355249,-4.000000,5.000000,-4.000000,-5.000000,-2.000000,-1.000000,-2.000000,-3.000000
1306387.355772,0.000000,8.000000,3.000000,2.000000,1.000000,-1.000000,-1.000000,0.000000
1306387.355781,-1.000000,-3.000000,-2.000000,-4.000000,-8.000000,-3.000000,-4.000000,-2.000000
1306387.357080,4.000000,8.000000,6.000000,3.000000,-2.000000,0.000000,-6.000000,0.000000
1306387.357090,-3.000000,5.000000,0.000000,-3.000000,1.000000,1.000000,-1.000000,1.000000
1306387.357911,3.000000,-4.000000,0.000000,1.000000,0.000000,-1.000000,-1.000000,1.000000
1306387.357921,-1.000000,-5.000000,-6.000000,-3.000000,-1.000000,-1.000000,0.000000,1.000000
1306387.369514,3.000000,12.000000,3.000000,5.000000,4.000000,6.000000,4.000000,-1.000000
1306387.369531,0.000000,2.000000,7.000000,10.000000,1.000000,-2.000000,-2.000000,-3.000000
1306387.370239,-3.000000,-8.000000,-1.000000,-2.000000,3.000000,-4.000000,2.000000,-2.000000
1306387.370248,0.000000,-3.000000,-5.000000,-3.000000,0.000000,-2.000000,1.000000,2.000000
1306387.391595,-3.000000,1.000000,0.000000,-1.000000,0.000000,0.000000,-4.000000,-1.000000
1306387.391607,1.000000,-14.000000,-3.000000,1.000000,-3.000000,-1.000000,2.000000,4.000000
1306387.392184,5.000000,4.000000,2.000000,12.000000,5.000000,7.000000,3.000000,0.000000
1306387.392194,2.000000,18.000000,0.000000,2.000000,0.000000,1.000000,-2.000000,1.000000
1306387.399901,-3.000000,-9.000000,-1.000000,4.000000,-5.000000,-5.000000,-2.000000,-1.000000
1306387.399912,2.000000,0.000000,0.000000,5.000000,-3.000000,2.000000,3.000000,-4.000000
1306387.414464,-3.000000,4.000000,2.000000,0.000000,1.000000,-2.000000,-4.000000,-2.000000
1306387.414485,2.000000,-2.000000,-1.000000,1.000000,-1.000000,-1.000000,3.000000,5.000000
1306387.436582,0.000000,-9.000000,2.000000,-1.000000,0.000000,-3.000000,1.000000,-5.000000
1306387.436607,-1.000000,-1.000000,-6.000000,-3.000000,-2.000000,0.000000,-3.000000,-4.000000
1306387.444407,-2.000000,-3.000000,-4.000000,-3.000000,0.000000,-4.000000,-4.000000,2.000000
1306387.444417,-3.000000,-12.000000,2.000000,1.000000,-2.000000,-3.000000,-1.000000,-4.000000
1306387.474119,-3.000000,1.000000,1.000000,0.000000,4.000000,2.000000,2.000000,0.000000
1306387.474129,-1.000000,5.000000,-5.000000,0.000000,-1.000000,5.000000,-3.000000,0.000000
1306387.474370,-2.000000,-7.000000,-4.000000,-6.000000,-4.000000,-3.000000,2.000000,-1.000000
1306387.474378,-4.000000,-7.000000,-5.000000,0.000000,6.000000,3.000000,2.000000,1.000000
1306387.476428,-8.000000,-5.000000,-5.000000,2.000000,1.000000,4.000000,-1.000000,-4.000000
1306387.476444,-3.000000,-3.000000,-5.000000,-2.000000,-6.000000,-2.000000,-2.000000,1.000000
1306387.477248,-1.000000,-8.000000,0.000000,2.000000,-5.000000,-4.000000,-2.000000,-4.000000
1306387.477274,-1.000000,7.000000,-3.000000,-16.000000,-1.000000,-1.000000,1.000000,0.000000
1306387.489189,1.000000,-15.000000,-6.000000,-1.000000,2.000000,-1.000000,1.000000,0.000000
1306387.489202,-1.000000,-12.000000,-4.000000,1.000000,2.000000,-2.000000,1.000000,-3.000000
1306387.489915,0.000000,4.000000,5.000000,1.000000,-4.000000,-5.000000,-1.000000,-6.000000
1306387.489923,2.000000,9.000000,-1.000000,-14.000000,-3.000000,2.000000,0.000000,2.000000
1306387.511528,-2.000000,-10.000000,-5.000000,-12.000000,0.000000,-4.000000,1.000000,2.000000
1306387.511539,-5.000000,-11.000000,-2.000000,-1.000000,-2.000000,-3.000000,0.000000,0.000000
1306387.512135,-1.000000,17.000000,2.000000,11.000000,2.000000,0.000000,0.000000,0.000000
1306387.512145,3.000000,-11.000000,-7.000000,-2.000000,-3.000000,2.000000,-5.000000,0.000000
1306387.556567,3.000000,5.000000,2.000000,-7.000000,-1.000000,-1.000000,3.000000,-4.000000
1306387.556588,-2.000000,0.000000,0.000000,5.000000,1.000000,0.000000,2.000000,2.000000
1306387.557016,2.000000,3.000000,1.000000,1.000000,0.000000,0.000000,-2.000000,0.000000
1306387.557025,0.000000,-14.000000,-1.000000,-3.000000,0.000000,-6.000000,-4.000000,-1.000000
1306387.558232,1.000000,7.000000,1.000000,9.000000,6.000000,3.000000,1.000000,1.000000
1306387.558259,-5.000000,0.000000,-6.000000,-18.000000,-1.000000,1.000000,-4.000000,-1.000000
1306387.558840,-5.000000,-8.000000,0.000000,1.000000,-3.000000,-4.000000,-2.000000,-4.000000
1306387.558866,0.000000,1.000000,3.000000,-1.000000,0.000000,-1.000000,0.000000,3.000000
1306387.571432,-6.000000,16.000000,3.000000,9.000000,2.000000,3.000000,1.000000,8.000000
1306387.571442,2.000000,-8.000000,-5.000000,-4.000000,1.000000,-2.000000,-4.000000,-2.000000
1306387.572138,-5.000000,-15.000000,-2.000000,-4.000000,-3.000000,-4.000000,-2.000000,-6.000000
1306387.572197,-2.000000,4.000000,-1.000000,-14.000000,-5.000000,-1.000000,-1.000000,-1.000000
1306387.594889,-1.000000,10.000000,-2.000000,0.000000,-3.000000,-1.000000,-3.000000,-6.000000
1306387.594899,-2.000000,-6.000000,-3.000000,0.000000,0.000000,-5.000000,-1.000000,2.000000
1306387.595694,1.000000,1.000000,1.000000,3.000000,0.000000,3.000000,-1.000000,-1.000000
1306387.595704,-2.000000,3.000000,1.000000,11.000000,0.000000,0.000000,3.000000,-3.000000
1306387.631719,-3.000000,0.000000,-1.000000,-6.000000,0.000000,2.000000,0.000000,-1.000000
1306387.631740,1.000000,3.000000,6.000000,-2.000000,0.000000,-4.000000,-1.000000,-3.000000
1306387.639291,3.000000,3.000000,-2.000000,-3.000000,-5.000000,4.000000,-3.000000,-2.000000
1306387.639302,1.000000,-5.000000,-2.000000,0.000000,6.000000,2.000000,2.000000,2.000000
1306387.654425,-4.000000,-2.000000,-5.000000,1.000000,-1.000000,1.000000,0.000000,-2.000000
1306387.654437,-1.000000,-5.000000,-7.000000,-22.000000,-5.000000,-2.000000,-3.000000,-1.000000
1306387.669256,-5.000000,8.000000,12.000000,6.000000,5.000000,0.000000,0.000000,-1.000000
1306387.669277,-1.000000,-3.000000,-4.000000,-11.000000,3.000000,1.000000,0.000000,-3.000000
1306387.706671,-3.000000,2.000000,-2.000000,6.000000,2.000000,-4.000000,1.000000,-3.000000
1306387.706682,5.000000,3.000000,3.000000,3.000000,-1.000000,2.000000,-2.000000,2.000000
1306387.713962,0.000000,-4.000000,-2.000000,3.000000,-4.000000,2.000000,0.000000,1.000000
1306387.713981,2.000000,-5.000000,-10.000000,-14.000000,-2.000000,-1.000000,0.000000,-2.000000
1306387.715063,-1.000000,12.000000,0.000000,2.000000,1.000000,3.000000,-6.000000,1.000000
1306387.715098,-2.000000,-5.000000,1.000000,6.000000,-3.000000,1.000000,-2.000000,-4.000000
1306387.715701,0.000000,-5.000000,-1.000000,-7.000000,0.000000,-6.000000,1.000000,-1.000000
1306387.715709,-1.000000,6.000000,1.000000,-4.000000,-1.000000,-1.000000,-3.000000,-3.000000
1306387.716259,0.000000,-8.000000,0.000000,9.000000,3.000000,2.000000,-4.000000,-3.000000
1306387.716267,-4.000000,-11.000000,1.000000,3.000000,3.000000,-2.000000,-2.000000,-6.000000
1306387.717210,-3.000000,3.000000,-2.000000,0.000000,-3.000000,0.000000,-3.000000,-3.000000
1306387.717221,-4.000000,-3.000000,3.000000,1.000000,0.000000,-4.000000,-2.000000,-2.000000
1306387.722107,1.000000,-7.000000,-1.000000,-2.000000,0.000000,1.000000,2.000000,0.000000
1306387.722116,-4.000000,1.000000,1.000000,-3.000000,-5.000000,-6.000000,-1.000000,-3.000000
1306387.728907,-1.000000,-10.000000,-6.000000,-5.000000,2.000000,1.000000,1.000000,-1.000000
1306387.728916,0.000000,-9.000000,-5.000000,-6.000000,-5.000000,-4.000000,1.000000,4.000000
1306387.752163,2.000000,7.000000,3.000000,-7.000000,2.000000,2.000000,-2.000000,1.000000
1306387.752174,-2.000000,2.000000,-4.000000,0.000000,0.000000,2.000000,-4.000000,-2.000000
1306387.752899,1.000000,2.000000,8.000000,13.000000,-3.000000,-2.000000,-3.000000,-2.000000
1306387.752907,-4.000000,-5.000000,-5.000000,-10.000000,-2.000000,-3.000000,-4.000000,-5.000000
1306387.766655,1.000000,11.000000,10.000000,4.000000,3.000000,-1.000000,-3.000000,3.000000
1306387.766667,-4.000000,0.000000,-1.000000,2.000000,2.000000,-1.000000,1.000000,0.000000
1306387.774133,1.000000,-1.000000,5.000000,9.000000,0.000000,-3.000000,0.000000,-5.000000
1306387.774149,0.000000,-4.000000,-5.000000,-13.000000,-3.000000,1.000000,-4.000000,2.000000
1306387.811592,1.000000,3.000000,1.000000,-1.000000,-3.000000,-4.000000,-6.000000,1.000000
1306387.811604,-4.000000,-4.000000,-3.000000,-4.000000,-8.000000,-5.000000,-4.000000,-3.000000
1306387.812197,-3.000000,-4.000000,-3.000000,1.000000,-1.000000,-2.000000,-3.000000,0.000000
1306387.812206,2.000000,8.000000,-1.000000,-5.000000,2.000000,2.000000,0.000000,3.000000
1306387.813300,-1.000000,-14.000000,-2.000000,5.000000,-1.000000,-5.000000,0.000000,-2.000000
1306387.813309,0.000000,-1.000000,-5.000000,-5.000000,-6.000000,-3.000000,0.000000,0.000000
1306387.814105,-5.000000,5.000000,4.000000,8.000000,-1.000000,-4.000000,-3.000000,-1.000000
1306387.814114,-1.000000,-8.000000,1.000000,-3.000000,-4.000000,0.000000,0.000000,1.000000
1306387.833933,-3.000000,-9.000000,-3.000000,4.000000,-2.000000,2.000000,3.000000,0.000000
1306387.833948,2.000000,5.000000,0.000000,7.000000,0.000000,0.000000,-2.000000,3.000000
1306387.834752,3.000000,11.000000,2.000000,1.000000,-3.000000,1.000000,-1.000000,2.000000
1306387.834767,-1.000000,-12.000000,-4.000000,3.000000,2.000000,-1.000000,1.000000,-1.000000
1306387.849840,-1.000000,-1.000000,-3.000000,-2.000000,-1.000000,-3.000000,1.000000,-4.000000
1306387.849849,-4.000000,0.000000,1.000000,3.000000,-2.000000,-2.000000,1.000000,3.000000
1306387.871566,-5.000000,-9.000000,-4.000000,2.000000,2.000000,0.000000,2.000000,7.000000
1306387.871577,4.000000,10.000000,5.000000,1.000000,1.000000,0.000000,0.000000,-1.000000
1306387.879530,4.000000,5.000000,0.000000,-6.000000,-1.000000,1.000000,0.000000,-1.000000
1306387.879551,-1.000000,-2.000000,0.000000,4.000000,2.000000,1.000000,2.000000,-4.000000
1306387.887023,-1.000000,-4.000000,2.000000,5.000000,-2.000000,-1.000000,0.000000,-3.000000
1306387.887049,0.000000,5.000000,5.000000,-1.000000,-2.000000,0.000000,-3.000000,0.000000
1306387.916785,-1.000000,-19.000000,-3.000000,-1.000000,0.000000,-2.000000,-2.000000,2.000000
1306387.916811,-2.000000,-12.000000,-6.000000,-8.000000,2.000000,-1.000000,0.000000,-2.000000
1306387.931843,1.000000,5.000000,-4.000000,6.000000,-4.000000,1.000000,1.000000,-1.000000
1306387.931863,1.000000,13.000000,12.000000,3.000000,3.000000,3.000000,-3.000000,-1.000000
1306387.946981,2.000000,-12.000000,-1.000000,-5.000000,-1.000000,-4.000000,-2.000000,0.000000
1306387.946991,0.000000,4.000000,-1.000000,-3.000000,0.000000,0.000000,0.000000,-5.000000
1306387.947780,0.000000,7.000000,1.000000,9.000000,3.000000,0.000000,-1.000000,-3.000000
1306387.947807,-10.000000,-17.000000,4.000000,7.000000,0.000000,-2.000000,-1.000000,-3.000000
1306387.948932,-1.000000,-12.000000,-2.000000,-6.000000,-2.000000,-3.000000,4.000000,-2.000000
1306387.948940,-2.000000,10.000000,0.000000,3.000000,-1.000000,6.000000,-3.000000,0.000000
1306387.950470,-2.000000,-5.000000,1.000000,-3.000000,-3.000000,3.000000,-2.000000,-1.000000
1306387.950479,4.000000,15.000000,-4.000000,-21.000000,-4.000000,-5.000000,-3.000000,0.000000
1306387.969169,-6.000000,-9.000000,2.000000,12.000000,6.000000,-1.000000,2.000000,0.000000
1306387.969187,8.000000,10.000000,8.000000,1.000000,0.000000,0.000000,1.000000,0.000000
1306387.970455,-3.000000,4.000000,-1.000000,2.000000,-1.000000,2.000000,-4.000000,0.000000
1306387.970468,0.000000,-3.000000,-3.000000,-1.000000,-3.000000,-4.000000,0.000000,1.000000
1306387.984914,1.000000,-5.000000,-7.000000,-5.000000,-3.000000,1.000000,1.000000,2.000000
1306387.984952,-6.000000,-3.000000,-8.000000,0.000000,-1.000000,1.000000,0.000000,-1.000000
1306387.986615,0.000000,0.000000,0.000000,1.000000,1.000000,1.000000,-1.000000,-2.000000
1306387.986631,-2.000000,-7.000000,-2.000000,-2.000000,2.000000,-3.000000,1.000000,0.000000
1306387.991584,0.000000,1.000000,-5.000000,-4.000000,-1.000000,-1.000000,-4.000000,-1.000000
1306387.991603,1.000000,3.000000,4.000000,-6.000000,-4.000000,-1.000000,-3.000000,-3.000000
1306388.006943,-6.000000,-11.000000,1.000000,0.000000,-1.000000,-2.000000,3.000000,-8.000000
1306388.006957,3.000000,3.000000,3.000000,4.000000,-1.000000,1.000000,-1.000000,-1.000000
1306388.029359,4.000000,5.000000,-4.000000,-3.000000,-3.000000,1.000000,-1.000000,7.000000
1306388.029380,-6.000000,-1.000000,1.000000,6.000000,-1.000000,4.000000,0.000000,-5.000000
1306388.045226,0.000000,-1.000000,0.000000,8.000000,2.000000,1.000000,0.000000,-2.000000
1306388.045366,-3.000000,11.000000,3.000000,-5.000000,-5.000000,0.000000,-4.000000,-2.000000
1306388.045549,2.000000,-8.000000,-2.000000,-5.000000,-6.000000,-5.000000,-4.000000,-3.000000
1306388.045564,0.000000,-5.000000,2.000000,13.000000,6.000000,1.000000,7.000000,-1.000000
1306388.046565,-5.000000,1.000000,-2.000000,-3.000000,-4.000000,-4.000000,1.000000,-2.000000
1306388.046575,-1.000000,-7.000000,-1.000000,3.000000,-3.000000,1.000000,1.000000,-1.000000
1306388.051550,4.000000,-8.000000,-7.000000,0.000000,-2.000000,3.000000,2.000000,1.000000
1306388.051560,-5.000000,7.000000,11.000000,7.000000,-1.000000,-5.000000,-5.000000,-6.000000
1306388.067074,4.000000,19.000000,0.000000,-4.000000,4.000000,3.000000,2.000000,1.000000
1306388.067102,-4.000000,-8.000000,-6.000000,-2.000000,-3.000000,-1.000000,-1.000000,0.000000
1306388.081681,-1.000000,-4.000000,-3.000000,4.000000,1.000000,-1.000000,3.000000,-1.000000
1306388.081705,0.000000,5.000000,-3.000000,0.000000,-1.000000,4.000000,-1.000000,-2.000000
1306388.089871,-1.000000,-9.000000,-5.000000,-1.000000,-4.000000,-2.000000,-6.000000,-1.000000
1306388.089880,-1.000000,1.000000,-2.000000,-12.000000,0.000000,1.000000,-2.000000,-1.000000
1306388.104249,-1.000000,-6.000000,-4.000000,10.000000,2.000000,-1.000000,2.000000,6.000000
1306388.104260,-1.000000,-17.000000,-5.000000,-4.000000,-2.000000,1.000000,1.000000,0.000000
1306388.105287,-3.000000,1.000000,-1.000000,3.000000,-3.000000,-3.000000,-2.000000,-4.000000
1306388.105309,1.000000,6.000000,-5.000000,-6.000000,0.000000,-1.000000,-2.000000,-2.000000
1306388.112037,-1.000000,14.000000,-1.000000,-5.000000,-4.000000,-1.000000,-5.000000,-5.000000
1306388.112059,10.000000,-9.000000,-7.000000,-3.000000,-7.000000,-5.000000,-5.000000,7.000000
1306388.149275,-24.000000,-15.000000,4.000000,15.000000,1.000000,-3.000000,1.000000,-8.000000
1306388.149285,2.000000,13.000000,-3.000000,7.000000,-3.000000,4.000000,2.000000,-3.000000
1306388.164046,-3.000000,5.000000,-9.000000,-12.000000,-1.000000,-3.000000,1.000000,-1.000000
1306388.164056,-4.000000,1.000000,-1.000000,-12.000000,-7.000000,0.000000,-4.000000,-4.000000
1306388.186956,-1.000000,19.000000,-3.000000,0.000000,2.000000,0.000000,2.000000,1.000000
1306388.186966,-3.000000,-1.000000,10.000000,8.000000,3.000000,2.000000,-4.000000,2.000000
1306388.187669,-2.000000,-9.000000,4.000000,2.000000,1.000000,-3.000000,2.000000,4.000000
1306388.187679,4.000000,20.000000,1.000000,-7.000000,-3.000000,-2.000000,2.000000,3.000000
1306388.188973,0.000000,-9.000000,-6.000000,6.000000,0.000000,2.000000,-1.000000,2.000000
1306388.188984,-5.000000,3.000000,2.000000,0.000000,0.000000,-3.000000,-2.000000,-5.000000
1306388.189654,3.000000,-2.000000,2.000000,12.000000,1.000000,5.000000,2.000000,1.000000
1306388.189668,0.000000,2.000000,-2.000000,-2.000000,-1.000000,2.000000,-2.000000,0.000000
1306388.201443,-1.000000,-2.000000,-1.000000,6.000000,-3.000000,-4.000000,-3.000000,-8.000000
1306388.201457,3.000000,4.000000,3.000000,-14.000000,-2.000000,-1.000000,3.000000,5.000000
1306388.202960,-6.000000,-6.000000,-3.000000,-1.000000,-3.000000,-3.000000,-4.000000,-4.000000
1306388.202970,-1.000000,2.000000,-7.000000,-15.000000,-5.000000,0.000000,1.000000,-2.000000
1306388.216543,3.000000,8.000000,0.000000,-1.000000,-1.000000,-1.000000,-25.000000,0.000000
1306388.216573,-3.000000,-12.000000,-8.000000,-11.000000,-3.000000,-1.000000,22.000000,-4.000000
1306388.224880,-2.000000,4.000000,-7.000000,-5.000000,-2.000000,1.000000,-4.000000,0.000000
1306388.224890,-1.000000,0.000000,2.000000,0.000000,2.000000,-2.000000,-6.000000,-4.000000
1306388.231990,2.000000,6.000000,-2.000000,6.000000,6.000000,3.000000,-2.000000,-6.000000
1306388.232002,17.000000,-4.000000,2.000000,-4.000000,-2.000000,-2.000000,0.000000,-1.000000
1306388.261558,-8.000000,5.000000,-12.000000,3.000000,-1.000000,-1.000000,-1.000000,-6.000000
1306388.261575,-8.000000,-7.000000,10.000000,9.000000,-3.000000,-3.000000,-9.000000,-2.000000
1306388.269285,1.000000,-10.000000,-2.000000,0.000000,1.000000,1.000000,2.000000,-1.000000
1306388.269295,-2.000000,-2.000000,-2.000000,2.000000,2.000000,2.000000,-1.000000,-5.000000
1306388.284589,-1.000000,6.000000,1.000000,5.000000,2.000000,-3.000000,2.000000,-1.000000
1306388.284599,-3.000000,-5.000000,1.000000,-10.000000,-8.000000,-7.000000,-6.000000,-3.000000
1306388.299223,-2.000000,2.000000,-1.000000,-16.000000,-5.000000,-1.000000,-4.000000,-2.000000
1306388.299234,-3.000000,-2.000000,-7.000000,3.000000,0.000000,1.000000,-3.000000,-1.000000
1306388.321735,0.000000,4.000000,0.000000,-1.000000,-2.000000,-6.000000,-2.000000,-2.000000
1306388.321759,-1.000000,7.000000,-4.000000,1.000000,2.000000,-2.000000,-2.000000,5.000000
1306388.329165,0.000000,14.000000,10.000000,7.000000,3.000000,6.000000,1.000000,5.000000
1306388.329176,0.000000,-1.000000,2.000000,3.000000,3.000000,-3.000000,-3.000000,-1.000000
1306388.366831,-1.000000,-1.000000,3.000000,-6.000000,-1.000000,-3.000000,-3.000000,-5.000000
1306388.366844,-5.000000,5.000000,-3.000000,0.000000,-3.000000,1.000000,-2.000000,-3.000000
1306388.367244,4.000000,-2.000000,-2.000000,2.000000,2.000000,3.000000,-25.000000,0.000000
1306388.367254,-2.000000,-15.000000,-8.000000,-8.000000,-7.000000,4.000000,24.000000,-1.000000
1306388.368264,-1.000000,4.000000,-2.000000,3.000000,6.000000,3.000000,-1.000000,-4.000000
1306388.368274,4.000000,3.000000,-1.000000,-1.000000,-2.000000,1.000000,-4.000000,2.000000
1306388.368893,0.000000,2.000000,5.000000,5.000000,0.000000,0.000000,1.000000,2.000000
1306388.368903,3.000000,-13.000000,-10.000000,-6.000000,-3.000000,-1.000000,0.000000,0.000000
1306388.369604,-3.000000,20.000000,20.000000,17.000000,5.000000,-1.000000,-3.000000,-1.000000
1306388.369613,14.000000,-7.000000,2.000000,0.000000,-3.000000,1.000000,1.000000,-4.000000
1306388.381526,3.000000,8.000000,1.000000,-7.000000,-5.000000,-3.000000,-3.000000,-3.000000
1306388.381538,-4.000000,3.000000,-1.000000,37.000000,5.000000,-2.000000,1.000000,1.000000
1306388.382920,-1.000000,10.000000,6.000000,-8.000000,6.000000,0.000000,-1.000000,0.000000
1306388.382928,3.000000,6.000000,4.000000,8.000000,-2.000000,-2.000000,0.000000,1.000000
1306388.403901,3.000000,8.000000,-2.000000,-6.000000,-3.000000,0.000000,0.000000,0.000000
1306388.403928,-2.000000,-4.000000,-5.000000,2.000000,2.000000,1.000000,11.000000,-2.000000
1306388.405712,-1.000000,2.000000,9.000000,13.000000,5.000000,1.000000,0.000000,-1.000000
1306388.405723,3.000000,0.000000,-9.000000,-7.000000,3.000000,4.000000,-2.000000,8.000000
1306388.426520,-1.000000,-3.000000,5.000000,4.000000,-1.000000,-1.000000,-4.000000,-1.000000
1306388.426531,1.000000,-4.000000,-1.000000,-6.000000,-3.000000,-7.000000,1.000000,-1.000000
1306388.428108,-3.000000,6.000000,-4.000000,-17.000000,-1.000000,0.000000,-1.000000,-2.000000
1306388.428125,3.000000,-2.000000,2.000000,6.000000,0.000000,3.000000,-2.000000,4.000000
1306388.441434,-3.000000,-15.000000,-8.000000,-12.000000,-5.000000,1.000000,0.000000,-2.000000
1306388.441452,-3.000000,2.000000,-3.000000,-3.000000,-5.000000,-5.000000,-5.000000,-22.000000
1306388.442689,2.000000,-4.000000,3.000000,-4.000000,-5.000000,-2.000000,-5.000000,11.000000
1306388.442698,4.000000,0.000000,2.000000,5.000000,1.000000,2.000000,1.000000,-3.000000
1306388.464098,-2.000000,-1.000000,1.000000,1.000000,3.000000,-3.000000,1.000000,0.000000
1306388.464108,-4.000000,-7.000000,-2.000000,-2.000000,0.000000,1.000000,-4.000000,-13.000000
1306388.486407,0.000000,-10.000000,-13.000000,-3.000000,0.000000,2.000000,-3.000000,7.000000
1306388.486418,3.000000,3.000000,11.000000,8.000000,5.000000,-3.000000,-1.000000,-3.000000
1306388.501705,2.000000,-1.000000,-1.000000,-6.000000,2.000000,0.000000,1.000000,-3.000000
1306388.501716,9.000000,1.000000,6.000000,14.000000,2.000000,-1.000000,1.000000,-2.000000
1306388.538902,-20.000000,0.000000,-3.000000,-18.000000,-4.000000,2.000000,-1.000000,-5.000000
1306388.538917,0.000000,-4.000000,-3.000000,8.000000,2.000000,-2.000000,0.000000,0.000000
1306388.539457,1.000000,1.000000,2.000000,-19.000000,-3.000000,0.000000,0.000000,-2.000000
1306388.539465,2.000000,9.000000,-1.000000,-2.000000,-4.000000,-2.000000,2.000000,1.000000
1306388.540747,-5.000000,-14.000000,-2.000000,-12.000000,-6.000000,-6.000000,4.000000,-6.000000
1306388.540774,1.000000,-3.000000,1.000000,9.000000,0.000000,-2.000000,-6.000000,-3.000000
1306388.541274,-1.000000,-7.000000,-7.000000,-5.000000,-1.000000,1.000000,-1.000000,-1.000000
1306388.541300,-5.000000,-18.000000,-2.000000,0.000000,1.000000,-2.000000,0.000000,-8.000000
1306388.546588,1.000000,8.000000,4.000000,6.000000,0.000000,-1.000000,-2.000000,-2.000000
1306388.546598,1.000000,6.000000,0.000000,-3.000000,1.000000,-1.000000,-2.000000,0.000000
1306388.554206,3.000000,-5.000000,-4.000000,-4.000000,-4.000000,-1.000000,4.000000,4.000000
1306388.554218,-3.000000,9.000000,11.000000,11.000000,2.000000,-1.000000,-4.000000,-3.000000
1306388.562175,2.000000,2.000000,-1.000000,1.000000,5.000000,-1.000000,-1.000000,-4.000000
1306388.562220,-4.000000,-10.000000,-5.000000,-5.000000,-5.000000,0.000000,2.000000,4.000000
1306388.584197,-5.000000,-4.000000,-8.000000,-1.000000,8.000000,5.000000,0.000000,-4.000000
1306388.584212,7.000000,4.000000,0.000000,1.000000,-3.000000,-3.000000,5.000000,3.000000
1306388.606637,2.000000,-5.000000,-1.000000,-6.000000,-1.000000,-2.000000,4.000000,0.000000
1306388.606648,-1.000000,2.000000,2.000000,-5.000000,-3.000000,3.000000,-4.000000,-1.000000
1306388.621744,-2.000000,7.000000,-1.000000,-1.000000,0.000000,3.000000,-3.000000,-1.000000
1306388.621835,0.000000,-6.000000,-2.000000,-2.000000,2.000000,-3.000000,-2.000000,3.000000
1306388.622726,-2.000000,-8.000000,-9.000000,1.000000,-2.000000,-4.000000,-1.000000,-2.000000
1306388.622742,-30.000000,-8.000000,-4.000000,-7.000000,1.000000,1.000000,-2.000000,-10.000000
1306388.623261,1.000000,9.000000,7.000000,14.000000,6.000000,2.000000,2.000000,1.000000
1306388.623269,0.000000,-1.000000,0.000000,6.000000,0.000000,-6.000000,2.000000,1.000000
1306388.624785,0.000000,7.000000,0.000000,1.000000,2.000000,-3.000000,-2.000000,1.000000
1306388.624794,1.000000,2.000000,5.000000,5.000000,1.000000,-1.000000,-3.000000,-1.000000
1306388.644013,4.000000,-1.000000,3.000000,8.000000,8.000000,2.000000,3.000000,1.000000
1306388.644024,-12.000000,1.000000,-2.000000,-1.000000,-7.000000,-5.000000,-5.000000,-8.000000
1306388.645395,2.000000,5.000000,2.000000,8.000000,3.000000,2.000000,4.000000,11.000000
1306388.645403,2.000000,-7.000000,1.000000,6.000000,4.000000,4.000000,0.000000,3.000000
1306388.659155,1.000000,-2.000000,-2.000000,2.000000,-2.000000,-3.000000,1.000000,-1.000000
1306388.659168,-3.000000,-3.000000,-9.000000,-15.000000,-3.000000,-2.000000,-4.000000,-4.000000
1306388.666496,1.000000,-6.000000,-1.000000,-6.000000,-4.000000,-3.000000,0.000000,2.000000
1306388.666514,-4.000000,-15.000000,-12.000000,-13.000000,-6.000000,-8.000000,-26.000000,-2.000000
1306388.681341,-1.000000,8.000000,3.000000,1.000000,0.000000,0.000000,21.000000,0.000000
1306388.681370,3.000000,-1.000000,-4.000000,-8.000000,-2.000000,-1.000000,-8.000000,2.000000
1306388.682668,-1.000000,-5.000000,-3.000000,-1.000000,-2.000000,-1.000000,-5.000000,0.000000
1306388.682694,3.000000,1.000000,-3.000000,-1.000000,-1.000000,0.000000,2.000000,10.000000
1306388.704297,-1.000000,6.000000,-1.000000,-1.000000,-6.000000,-3.000000,-3.000000,-4.000000
1306388.704313,1.000000,4.000000,0.000000,-2.000000,2.000000,3.000000,4.000000,2.000000
1306388.726659,-5.000000,-2.000000,-2.000000,-5.000000,-3.000000,-2.000000,-3.000000,-4.000000
1306388.726669,0.000000,2.000000,-6.000000,-5.000000,0.000000,2.000000,-1.000000,0.000000
1306388.756923,-1.000000,-6.000000,-4.000000,-8.000000,-4.000000,-1.000000,-3.000000,-2.000000
1306388.756934,0.000000,-6.000000,4.000000,5.000000,0.000000,-2.000000,0.000000,-1.000000
1306388.757550,-1.000000,1.000000,-1.000000,-1.000000,1.000000,-1.000000,2.000000,-1.000000
1306388.757559,-12.000000,5.000000,1.000000,9.000000,-1.000000,-5.000000,-3.000000,-10.000000
1306388.758951,1.000000,-12.000000,-5.000000,-7.000000,-4.000000,0.000000,0.000000,1.000000
1306388.758970,6.000000,11.000000,9.000000,11.000000,0.000000,1.000000,-1.000000,1.000000
1306388.759505,-33.000000,-2.000000,-3.000000,3.000000,2.000000,2.000000,-1.000000,-8.000000
1306388.759514,1.000000,-3.000000,-2.000000,2.000000,0.000000,-3.000000,-4.000000,-1.000000
1306388.763946,0.000000,-4.000000,-2.000000,-3.000000,1.000000,3.000000,-6.000000,2.000000
1306388.763968,-2.000000,-8.000000,1.000000,-2.000000,-1.000000,-1.000000,10.000000,1.000000
1306388.779857,4.000000,0.000000,-5.000000,-4.000000,-1.000000,-3.000000,-2.000000,-3.000000
1306388.779867,0.000000,-2.000000,-1.000000,3.000000,2.000000,-2.000000,-5.000000,-1.000000
1306388.786751,-1.000000,4.000000,3.000000,0.000000,-4.000000,-2.000000,-3.000000,1.000000
1306388.786770,1.000000,5.000000,-3.000000,6.000000,1.000000,0.000000,1.000000,-3.000000
1306388.802163,0.000000,6.000000,5.000000,13.000000,4.000000,5.000000,-5.000000,0.000000
1306388.802179,0.000000,-14.000000,-4.000000,-3.000000,0.000000,0.000000,-1.000000,2.000000
1306388.816714,0.000000,-4.000000,-4.000000,-2.000000,0.000000,4.000000,2.000000,-1.000000
1306388.816724,-2.000000,3.000000,-2.000000,-2.000000,4.000000,0.000000,4.000000,2.000000
1306388.831867,-3.000000,-11.000000,-4.000000,2.000000,-1.000000,1.000000,2.000000,-3.000000
1306388.831879,-4.000000,-1.000000,1.000000,-2.000000,0.000000,1.000000,-1.000000,-7.000000
1306388.839177,1.000000,7.000000,4.000000,-1.000000,1.000000,1.000000,4.000000,8.000000
1306388.839190,-1.000000,-5.000000,-1.000000,-4.000000,1.000000,3.000000,1.000000,0.000000
1306388.862767,0.000000,-11.000000,-1.000000,-8.000000,-1.000000,-2.000000,1.000000,0.000000
1306388.862805,2.000000,11.000000,0.000000,8.000000,3.000000,1.000000,-1.000000,1.000000
1306388.863255,0.000000,3.000000,2.000000,10.000000,-1.000000,-1.000000,-1.000000,-1.000000
1306388.863270,1.000000,-7.000000,-4.000000,-6.000000,-1.000000,0.000000,-2.000000,-1.000000
1306388.864759,-5.000000,8.000000,1.000000,-4.000000,2.000000,-5.000000,-25.000000,-6.000000
1306388.864787,0.000000,-1.000000,-1.000000,-6.000000,-3.000000,1.000000,20.000000,2.000000
1306388.868973,3.000000,-1.000000,-1.000000,5.000000,-5.000000,0.000000,-3.000000,0.000000
1306388.869002,-2.000000,-8.000000,-5.000000,-5.000000,-7.000000,-6.000000,-2.000000,-3.000000
1306388.877337,2.000000,-2.000000,2.000000,8.000000,0.000000,3.000000,-3.000000,2.000000
1306388.877348,0.000000,-3.000000,4.000000,1.000000,0.000000,0.000000,-2.000000,2.000000
1306388.884324,-1.000000,-10.000000,-1.000000,-2.000000,-1.000000,-3.000000,1.000000,-1.000000
1306388.884338,1.000000,7.000000,0.000000,-1.000000,1.000000,-1.000000,0.000000,-1.000000
1306388.921825,-1.000000,8.000000,-1.000000,6.000000,-2.000000,0.000000,-4.000000,-8.000000
1306388.921837,4.000000,-10.000000,-3.000000,12.000000,5.000000,3.000000,0.000000,-4.000000
1306388.936789,-7.000000,-8.000000,-7.000000,-3.000000,1.000000,1.000000,3.000000,1.000000
1306388.936808,-3.000000,11.000000,2.000000,6.000000,4.000000,4.000000,-4.000000,-2.000000
1306388.959142,0.000000,-9.000000,0.000000,6.000000,3.000000,2.000000,3.000000,0.000000
1306388.959153,-1.000000,-12.000000,-6.000000,-7.000000,-1.000000,0.000000,1.000000,-6.000000
1306388.981635,1.000000,13.000000,4.000000,11.000000,-4.000000,1.000000,-2.000000,1.000000
1306388.981648,-31.000000,-1.000000,-2.000000,-12.000000,2.000000,-1.000000,-3.000000,-8.000000
1306388.996492,6.000000,-6.000000,5.000000,-11.000000,-2.000000,-1.000000,0.000000,1.000000
1306388.996503,0.000000,1.000000,-4.000000,1.000000,1.000000,1.000000,0.000000,-2.000000
1306388.996869,-2.000000,-6.000000,-5.000000,-6.000000,-3.000000,1.000000,0.000000,-1.000000
1306388.996877,5.000000,3.000000,9.000000,15.000000,-1.000000,0.000000,-3.000000,-2.000000
1306388.998264,-2.000000,-2.000000,-1.000000,-3.000000,2.000000,1.000000,-2.000000,-1.000000
1306388.998327,-2.000000,7.000000,1.000000,7.000000,1.000000,-2.000000,-5.000000,0.000000
1306388.998958,-4.000000,-3.000000,-2.000000,-6.000000,-3.000000,-1.000000,0.000000,-3.000000
1306388.998976,3.000000,-1.000000,0.000000,1.000000,-1.000000,2.000000,-3.000000,-1.000000
1306389.000295,-3.000000,10.000000,3.000000,5.000000,1.000000,-3.000000,-4.000000,0.000000
1306389.000323,-1.000000,-2.000000,4.000000,-6.000000,0.000000,1.000000,2.000000,-1.000000
1306389.019093,-3.000000,-4.000000,-8.000000,0.000000,0.000000,-3.000000,4.000000,0.000000
1306389.019103,-5.000000,0.000000,0.000000,1.000000,0.000000,1.000000,-3.000000,-8.000000
1306389.020398,3.000000,-7.000000,2.000000,3.000000,0.000000,1.000000,-2.000000,6.000000
1306389.020426,1.000000,-5.000000,1.000000,-5.000000,-1.000000,-2.000000,0.000000,4.000000
1306389.033972,-2.000000,1.000000,-1.000000,7.000000,-1.000000,2.000000,0.000000,-3.000000
1306389.033985,2.000000,-3.000000,2.000000,-4.000000,-1.000000,0.000000,-4.000000,-4.000000
1306389.041615,3.000000,-7.000000,-3.000000,-6.000000,1.000000,1.000000,1.000000,-3.000000
1306389.041625,-2.000000,3.000000,-1.000000,-7.000000,-6.000000,1.000000,-3.000000,-5.000000
1306389.056791,-4.000000,4.000000,3.000000,-1.000000,-4.000000,0.000000,-5.000000,-3.000000
1306389.056802,1.000000,-4.000000,-3.000000,-7.000000,-1.000000,-2.000000,-3.000000,0.000000
1306389.101550,-3.000000,-8.000000,-5.000000,-6.000000,0.000000,-4.000000,1.000000,0.000000
1306389.101579,-7.000000,17.000000,-1.000000,-15.000000,-6.000000,0.000000,-3.000000,-1.000000
1306389.109224,2.000000,-5.000000,2.000000,1.000000,-2.000000,0.000000,1.000000,2.000000
1306389.109236,-4.000000,0.000000,-3.000000,-4.000000,1.000000,0.000000,-22.000000,-1.000000
1306389.110148,-1.000000,3.000000,2.000000,5.000000,0.000000,0.000000,20.000000,-3.000000
1306389.110156,-3.000000,-3.000000,-18.000000,-12.000000,-1.000000,-2.000000,-4.000000,-3.000000
1306389.111035,0.000000,-17.000000,1.000000,10.000000,3.000000,-3.000000,0.000000,-2.000000
1306389.111045,3.000000,10.000000,1.000000,-4.000000,-1.000000,-2.000000,-2.000000,0.000000
1306389.112633,1.000000,15.000000,6.000000,5.000000,3.000000,2.000000,2.000000,0.000000
1306389.112644,16.000000,16.000000,0.000000,-4.000000,-4.000000,-2.000000,0.000000,1.000000
1306389.117422,0.000000,0.000000,-2.000000,-4.000000,0.000000,-3.000000,0.000000,-1.000000
1306389.117440,-1.000000,1.000000,2.000000,9.000000,0.000000,1.000000,0.000000,-2.000000
1306389.139155,3.000000,10.000000,0.000000,-4.000000,-3.000000,1.000000,-3.000000,10.000000
1306389.139165,0.000000,-10.000000,-9.000000,-13.000000,-3.000000,0.000000,2.000000,2.000000
1306389.140242,-7.000000,-6.000000,2.000000,9.000000,-2.000000,-4.000000,-4.000000,-7.000000
1306389.140251,-1.000000,16.000000,3.000000,-3.000000,-5.000000,-1.000000,-2.000000,-1.000000
1306389.154110,1.000000,3.000000,5.000000,3.000000,-2.000000,5.000000,-3.000000,-1.000000
1306389.154124,1.000000,-3.000000,-2.000000,-4.000000,1.000000,-4.000000,0.000000,0.000000
1306389.155466,0.000000,3.000000,-3.000000,-6.000000,1.000000,0.000000,-5.000000,-1.000000
1306389.155476,0.000000,17.000000,1.000000,11.000000,3.000000,3.000000,-2.000000,0.000000
1306389.176816,-1.000000,-9.000000,-5.000000,-15.000000,-2.000000,-2.000000,-1.000000,2.000000
1306389.176849,-1.000000,2.000000,9.000000,5.000000,-2.000000,-4.000000,-1.000000,-2.000000
1306389.214203,4.000000,7.000000,5.000000,2.000000,0.000000,-4.000000,13.000000,0.000000
1306389.214232,2.000000,0.000000,-9.000000,-8.000000,-1.000000,0.000000,1.000000,3.000000
1306389.221451,-3.000000,-3.000000,-3.000000,-4.000000,-4.000000,-2.000000,-4.000000,-3.000000
1306389.221468,2.000000,2.000000,4.000000,-1.000000,-2.000000,2.000000,-3.000000,1.000000
1306389.222663,3.000000,0.000000,1.000000,0.000000,-3.000000,1.000000,-3.000000,-4.000000
1306389.222672,-1.000000,1.000000,-6.000000,1.000000,1.000000,-6.000000,-2.000000,-3.000000
1306389.223319,2.000000,0.000000,1.000000,-9.000000,-6.000000,-1.000000,4.000000,-2.000000
1306389.223341,-2.000000,7.000000,3.000000,5.000000,1.000000,3.000000,0.000000,-2.000000
1306389.224694,-7.000000,-2.000000,-8.000000,-12.000000,-5.000000,-2.000000,-3.000000,-1.000000
1306389.224704,-3.000000,-9.000000,-9.000000,-9.000000,-2.000000,2.000000,2.000000,-5.000000
1306389.236540,3.000000,12.000000,9.000000,28.000000,8.000000,0.000000,1.000000,1.000000
1306389.236561,2.000000,2.000000,1.000000,3.000000,1.000000,1.000000,-1.000000,1.000000
1306389.237703,-1.000000,-7.000000,1.000000,7.000000,2.000000,-1.000000,1.000000,-1.000000
1306389.237712,0.000000,0.000000,-7.000000,-13.000000,0.000000,1.000000,-1.000000,2.000000
1306389.259971,-1.000000,6.000000,-2.000000,3.000000,-2.000000,3.000000,-3.000000,0.000000
1306389.259987,-4.000000,-3.000000,0.000000,1.000000,-3.000000,-6.000000,2.000000,-2.000000
1306389.261420,-1.000000,5.000000,0.000000,-5.000000,0.000000,1.000000,-3.000000,-3.000000
1306389.261449,5.000000,15.000000,7.000000,0.000000,2.000000,3.000000,-5.000000,0.000000
1306389.266849,-10.000000,-27.000000,-11.000000,-4.000000,-6.000000,-2.000000,-2.000000,-5.000000
1306389.266865,-4.000000,-14.000000,-11.000000,-6.000000,0.000000,-3.000000,2.000000,1.000000
1306389.275087,-5.000000,6.000000,-1.000000,9.000000,5.000000,3.000000,-3.000000,1.000000
1306389.275110,19.000000,-2.000000,1.000000,-14.000000,-3.000000,1.000000,1.000000,2.000000
1306389.296979,1.000000,-6.000000,-1.000000,-5.000000,-3.000000,-2.000000,0.000000,3.000000
1306389.297001,2.000000,-4.000000,-2.000000,3.000000,-1.000000,-2.000000,0.000000,-2.000000
1306389.319477,1.000000,4.000000,3.000000,2.000000,0.000000,-1.000000,-10.000000,-2.000000
1306389.319525,-3.000000,-5.000000,-4.000000,1.000000,-2.000000,0.000000,8.000000,1.000000
1306389.334346,10.000000,7.000000,-8.000000,-19.000000,-3.000000,-3.000000,-6.000000,0.000000
1306389.334356,-2.000000,15.000000,10.000000,5.000000,-3.000000,2.000000,-5.000000,7.000000
1306389.356336,-3.000000,-19.000000,-3.000000,-6.000000,2.000000,-1.000000,-5.000000,-10.000000
1306389.356347,2.000000,-3.000000,-10.000000,-7.000000,3.000000,2.000000,3.000000,4.000000
1306389.357047,2.000000,21.000000,3.000000,19.000000,7.000000,5.000000,-2.000000,-2.000000
1306389.357067,-9.000000,-1.000000,7.000000,5.000000,-5.000000,-4.000000,-1.000000,4.000000
1306389.358213,2.000000,-7.000000,-2.000000,-13.000000,-1.000000,-4.000000,0.000000,-2.000000
1306389.358232,-3.000000,6.000000,-6.000000,-7.000000,-5.000000,1.000000,-2.000000,1.000000
1306389.358805,2.000000,4.000000,-1.000000,2.000000,2.000000,1.000000,-3.000000,-2.000000
1306389.358813,-3.000000,-7.000000,0.000000,-3.000000,0.000000,-1.000000,-2.000000,0.000000
1306389.360772,-3.000000,3.000000,2.000000,1.000000,2.000000,-1.000000,-4.000000,-1.000000
1306389.360784,-3.000000,0.000000,-6.000000,-9.000000,-4.000000,2.000000,-1.000000,0.000000
1306389.371740,0.000000,-3.000000,-4.000000,-7.000000,-6.000000,1.000000,-1.000000,-1.000000
1306389.371759,-1.000000,-1.000000,5.000000,-4.000000,1.000000,-3.000000,-3.000000,-6.000000
1306389.379637,-5.000000,0.000000,-9.000000,-7.000000,-3.000000,-1.000000,-1.000000,4.000000
1306389.379646,3.000000,-3.000000,-1.000000,-1.000000,-2.000000,1.000000,0.000000,-1.000000
1306389.386836,0.000000,-12.000000,-3.000000,9.000000,0.000000,-6.000000,-3.000000,0.000000
1306389.386847,-3.000000,9.000000,5.000000,2.000000,4.000000,-1.000000,0.000000,-2.000000
1306389.416525,1.000000,-10.000000,-12.000000,-21.000000,-5.000000,1.000000,-2.000000,3.000000
1306389.416536,-1.000000,-19.000000,-4.000000,4.000000,-6.000000,-5.000000,-2.000000,-3.000000
1306389.424136,-1.000000,3.000000,-3.000000,-2.000000,-1.000000,-1.000000,0.000000,1.000000
1306389.424145,-3.000000,2.000000,-1.000000,-5.000000,-1.000000,0.000000,-2.000000,0.000000
1306389.439314,-9.000000,-7.000000,-11.000000,-11.000000,-3.000000,-1.000000,-3.000000,-7.000000
1306389.439325,4.000000,-6.000000,-5.000000,-13.000000,-6.000000,-5.000000,3.000000,1.000000
1306389.454103,-1.000000,5.000000,1.000000,7.000000,-2.000000,0.000000,-2.000000,0.000000
1306389.454121,-5.000000,-8.000000,-6.000000,-16.000000,-7.000000,-5.000000,-2.000000,-5.000000
1306389.454974,-1.000000,-12.000000,3.000000,-2.000000,0.000000,-5.000000,1.000000,0.000000
1306389.454982,0.000000,-10.000000,0.000000,-8.000000,-3.000000,1.000000,-3.000000,-2.000000
1306389.455627,1.000000,9.000000,11.000000,4.000000,-5.000000,-1.000000,-2.000000,0.000000
1306389.455635,-1.000000,-3.000000,1.000000,0.000000,1.000000,-2.000000,0.000000,1.000000
1306389.457225,-1.000000,-3.000000,-3.000000,-5.000000,1.000000,-1.000000,-2.000000,-2.000000
1306389.457239,2.000000,-6.000000,-4.000000,5.000000,-1.000000,4.000000,0.000000,0.000000
1306389.476530,-2.000000,-2.000000,2.000000,2.000000,0.000000,-3.000000,0.000000,0.000000
1306389.476542,-5.000000,-3.000000,-4.000000,4.000000,3.000000,0.000000,3.000000,-3.000000
1306389.477807,3.000000,6.000000,2.000000,-3.000000,0.000000,0.000000,-1.000000,-3.000000
1306389.477816,5.000000,-3.000000,0.000000,-5.000000,1.000000,-3.000000,-4.000000,-1.000000
1306389.491795,0.000000,-2.000000,0.000000,-7.000000,0.000000,0.000000,2.000000,-1.000000
1306389.491805,-2.000000,0.000000,-8.000000,-14.000000,-1.000000,1.000000,-1.000000,-3.000000
1306389.499656,-1.000000,-3.000000,1.000000,3.000000,-8.000000,-2.000000,-3.000000,-1.000000
1306389.499666,-2.000000,-17.000000,-6.000000,-12.000000,-6.000000,-7.000000,2.000000,-1.000000
1306389.514158,0.000000,1.000000,-2.000000,-2.000000,0.000000,1.000000,0.000000,1.000000
1306389.514172,-2.000000,6.000000,-3.000000,-3.000000,0.000000,1.000000,1.000000,1.000000
1306389.536924,-7.000000,11.000000,6.000000,11.000000,2.000000,-4.000000,-2.000000,-1.000000
1306389.536937,3.000000,-8.000000,-1.000000,1.000000,-2.000000,1.000000,0.000000,0.000000
1306389.551642,0.000000,3.000000,-2.000000,-3.000000,1.000000,3.000000,0.000000,3.000000
1306389.551653,-2.000000,-15.000000,4.000000,4.000000,2.000000,3.000000,-1.000000,0.000000
1306389.574303,-4.000000,-8.000000,-4.000000,-6.000000,2.000000,-2.000000,-1.000000,-3.000000
1306389.574313,-3.000000,0.000000,-3.000000,0.000000,0.000000,-3.000000,-1.000000,-2.000000
1306389.589232,-2.000000,-10.000000,1.000000,5.000000,0.000000,-1.000000,-6.000000,-7.000000
1306389.589243,-8.000000,-10.000000,-8.000000,-10.000000,-7.000000,-6.000000,-2.000000,0.000000
1306389.611543,16.000000,2.000000,-4.000000,-5.000000,2.000000,1.000000,2.000000,5.000000
1306389.611553,-17.000000,-11.000000,-7.000000,0.000000,2.000000,2.000000,-1.000000,-1.000000
1306389.619303,-1.000000,10.000000,0.000000,0.000000,3.000000,-3.000000,-1.000000,-2.000000
1306389.619314,5.000000,1.000000,-1.000000,-2.000000,-4.000000,0.000000,-2.000000,4.000000
1306389.649119,1.000000,-3.000000,-3.000000,1.000000,1.000000,-4.000000,-1.000000,-2.000000
1306389.649142,-1.000000,-5.000000,-8.000000,-6.000000,-1.000000,-3.000000,1.000000,2.000000
1306389.656992,-1.000000,0.000000,-6.000000,2.000000,-1.000000,1.000000,0.000000,0.000000
1306389.657007,2.000000,17.000000,12.000000,-2.000000,3.000000,4.000000,-2.000000,0.000000
1306389.658290,-3.000000,16.000000,6.000000,-3.000000,0.000000,0.000000,-5.000000,-2.000000
1306389.658317,1.000000,3.000000,-4.000000,-2.000000,0.000000,-4.000000,0.000000,2.000000
1306389.664237,0.000000,-4.000000,3.000000,3.000000,-1.000000,2.000000,-1.000000,-1.000000
1306389.664247,-1.000000,-2.000000,0.000000,-2.000000,-2.000000,1.000000,2.000000,-4.000000
1306389.671823,-2.000000,-10.000000,-5.000000,3.000000,-2.000000,-4.000000,-6.000000,-3.000000
1306389.671834,-4.000000,1.000000,-6.000000,-18.000000,-10.000000,-4.000000,-3.000000,-2.000000
1306389.694930,-2.000000,12.000000,1.000000,5.000000,2.000000,2.000000,1.000000,-3.000000
1306389.695033,4.000000,-5.000000,1.000000,-2.000000,-7.000000,-4.000000,0.000000,0.000000
1306389.695266,-1.000000,-13.000000,2.000000,1.000000,1.000000,1.000000,-2.000000,6.000000
1306389.695275,-11.000000,9.000000,4.000000,8.000000,1.000000,-4.000000,-6.000000,-6.000000
1306389.709492,0.000000,0.000000,-4.000000,1.000000,-1.000000,-1.000000,1.000000,3.000000
1306389.709523,17.000000,-18.000000,-2.000000,-4.000000,-3.000000,-5.000000,-2.000000,-4.000000
1306389.710360,-9.000000,1.000000,0.000000,-1.000000,-2.000000,2.000000,2.000000,-5.000000
1306389.710387,1.000000,11.000000,0.000000,-3.000000,-3.000000,-4.000000,-3.000000,3.000000
1306389.717353,2.000000,-7.000000,-1.000000,1.000000,-4.000000,0.000000,-1.000000,6.000000
1306389.717363,0.000000,0.000000,-4.000000,-4.000000,-1.000000,0.000000,0.000000,-1.000000
1306389.731751,3.000000,14.000000,-1.000000,-10.000000,-1.000000,-6.000000,1.000000,-5.000000
1306389.731775,3.000000,4.000000,-1.000000,3.000000,3.000000,2.000000,3.000000,0.000000
1306389.754108,-1.000000,-17.000000,1.000000,-1.000000,-1.000000,-4.000000,1.000000,-2.000000
1306389.754130,1.000000,-3.000000,-4.000000,-4.000000,-1.000000,-1.000000,2.000000,0.000000
1306389.769413,1.000000,-11.000000,-4.000000,-2.000000,0.000000,3.000000,0.000000,0.000000
1306389.769427,-6.000000,-7.000000,0.000000,7.000000,1.000000,-1.000000,-4.000000,-3.000000
1306389.791641,-1.000000,1.000000,-4.000000,0.000000,-2.000000,0.000000,1.000000,3.000000
1306389.791658,1.000000,7.000000,4.000000,12.000000,2.000000,0.000000,0.000000,-2.000000
1306389.814467,-4.000000,6.000000,-1.000000,-3.000000,-2.000000,-4.000000,-3.000000,-2.000000
1306389.814484,-3.000000,7.000000,-5.000000,6.000000,-2.000000,-4.000000,-4.000000,-3.000000
1306389.815464,-1.000000,10.000000,-5.000000,3.000000,2.000000,5.000000,-2.000000,-1.000000
1306389.815473,4.000000,-6.000000,3.000000,3.000000,-3.000000,-1.000000,1.000000,-3.000000
1306389.815798,-6.000000,-8.000000,-4.000000,7.000000,-5.000000,-7.000000,-1.000000,-2.000000
1306389.815806,-4.000000,-4.000000,-3.000000,-5.000000,-4.000000,-4.000000,-2.000000,2.000000
1306389.817197,-2.000000,2.000000,1.000000,5.000000,4.000000,2.000000,1.000000,-1.000000
1306389.817205,-6.000000,-11.000000,2.000000,7.000000,-1.000000,-1.000000,1.000000,0.000000
1306389.818138,-1.000000,4.000000,-4.000000,-5.000000,-2.000000,-2.000000,0.000000,-4.000000
1306389.818146,0.000000,2.000000,-4.000000,1.000000,4.000000,3.000000,0.000000,2.000000
1306389.828908,4.000000,-11.000000,-7.000000,-6.000000,-1.000000,-3.000000,-25.000000,-2.000000
1306389.828918,-1.000000,15.000000,0.000000,-7.000000,0.000000,-2.000000,20.000000,1.000000
1306389.829738,-1.000000,6.000000,-5.000000,20.000000,-3.000000,1.000000,-5.000000,-2.000000
1306389.829748,-6.000000,-7.000000,-8.000000,-7.000000,-1.000000,4.000000,-3.000000,-2.000000
1306389.851927,0.000000,-13.000000,-1.000000,6.000000,1.000000,2.000000,-1.000000,-3.000000
1306389.851936,-33.000000,4.000000,8.000000,4.000000,1.000000,3.000000,-4.000000,-10.000000
1306389.852839,-3.000000,-10.000000,-2.000000,-2.000000,-3.000000,-5.000000,-5.000000,-2.000000
1306389.852847,1.000000,-6.000000,1.000000,-8.000000,-1.000000,-1.000000,-4.000000,4.000000
1306389.867669,8.000000,2.000000,-4.000000,3.000000,3.000000,3.000000,0.000000,7.000000
1306389.867689,-1.000000,2.000000,-3.000000,5.000000,5.000000,3.000000,-1.000000,0.000000
1306389.868022,-2.000000,-3.000000,-1.000000,-2.000000,-6.000000,-4.000000,1.000000,-4.000000
1306389.868029,-4.000000,-3.000000,-6.000000,-5.000000,-4.000000,-6.000000,-1.000000,-6.000000
1306389.889136,3.000000,10.000000,1.000000,-4.000000,0.000000,1.000000,-2.000000,0.000000
1306389.889157,-1.000000,-10.000000,-3.000000,5.000000,2.000000,4.000000,1.000000,1.000000
1306389.926657,-1.000000,-6.000000,5.000000,7.000000,1.000000,-5.000000,0.000000,-1.000000
1306389.926678,3.000000,6.000000,-4.000000,2.000000,-2.000000,2.000000,2.000000,5.000000
1306389.942245,2.000000,4.000000,10.000000,1.000000,0.000000,-1.000000,-1.000000,-3.000000
1306389.942254,-2.000000,-22.000000,-3.000000,0.000000,-2.000000,-3.000000,2.000000,-1.000000
1306389.943032,5.000000,5.000000,6.000000,11.000000,2.000000,-3.000000,0.000000,-1.000000
1306389.943044,0.000000,-4.000000,-14.000000,2.000000,3.000000,2.000000,-1.000000,-3.000000
1306389.944007,-2.000000,4.000000,0.000000,0.000000,-9.000000,-9.000000,-4.000000,-1.000000
1306389.944015,-2.000000,1.000000,2.000000,0.000000,2.000000,-4.000000,0.000000,0.000000
1306389.944652,0.000000,15.000000,4.000000,9.000000,0.000000,3.000000,2.000000,-4.000000
1306389.944659,-3.000000,-10.000000,2.000000,1.000000,-2.000000,-2.000000,-2.000000,-2.000000
1306389.945390,-4.000000,-5.000000,5.000000,14.000000,2.000000,-5.000000,-1.000000,-2.000000
1306389.945398,3.000000,14.000000,5.000000,-9.000000,-1.000000,5.000000,-1.000000,1.000000
1306389.949295,5.000000,-4.000000,-2.000000,3.000000,3.000000,1.000000,1.000000,-2.000000
1306389.949307,-8.000000,-11.000000,-1.000000,-8.000000,-3.000000,-6.000000,-3.000000,-4.000000
1306389.972124,11.000000,-4.000000,0.000000,4.000000,0.000000,-1.000000,0.000000,-1.000000
1306389.972144,0.000000,2.000000,0.000000,-3.000000,-5.000000,-1.000000,-1.000000,1.000000
1306389.972920,3.000000,-2.000000,-2.000000,-3.000000,7.000000,-1.000000,0.000000,0.000000
1306389.972929,1.000000,3.000000,-3.000000,-4.000000,-1.000000,-5.000000,-1.000000,-2.000000
1306389.994234,3.000000,7.000000,1.000000,2.000000,-1.000000,-1.000000,-3.000000,3.000000
1306389.994243,-3.000000,-3.000000,-2.000000,-3.000000,-3.000000,1.000000,-2.000000,-2.000000
1306390.009397,0.000000,-2.000000,-5.000000,1.000000,0.000000,-5.000000,-2.000000,-5.000000
1306390.009410,-1.000000,2.000000,-3.000000,-6.000000,-2.000000,1.000000,-2.000000,-10.000000
1306390.046616,1.000000,7.000000,3.000000,7.000000,2.000000,-3.000000,-2.000000,5.000000
1306390.046626,1.000000,-10.000000,-3.000000,5.000000,-2.000000,-1.000000,-24.000000,-1.000000
1306390.054537,-3.000000,0.000000,0.000000,-7.000000,-1.000000,-1.000000,17.000000,-1.000000
1306390.054554,-4.000000,-4.000000,-5.000000,-1.000000,-1.000000,-2.000000,-6.000000,0.000000
1306390.055605,1.000000,8.000000,4.000000,2.000000,0.000000,1.000000,-7.000000,-2.000000
1306390.055654,-2.000000,-2.000000,-6.000000,5.000000,0.000000,-3.000000,-2.000000,-2.000000
1306390.056077,3.000000,16.000000,1.000000,-3.000000,0.000000,0.000000,2.000000,1.000000
1306390.056094,-7.000000,3.000000,5.000000,0.000000,-5.000000,-7.000000,-3.000000,-6.000000
1306390.057496,3.000000,7.000000,-1.000000,0.000000,0.000000,0.000000,0.000000,2.000000
1306390.057535,1.000000,-12.000000,-2.000000,-3.000000,5.000000,-3.000000,1.000000,-3.000000
1306390.069065,-2.000000,-3.000000,-8.000000,-8.000000,-1.000000,-1.000000,-2.000000,-1.000000
1306390.069079,1.000000,4.000000,5.000000,3.000000,-1.000000,-3.000000,-2.000000,-2.000000
1306390.069715,-4.000000,-9.000000,1.000000,0.000000,-1.000000,1.000000,1.000000,0.000000
1306390.069740,1.000000,1.000000,-3.000000,-7.000000,-4.000000,0.000000,0.000000,-2.000000
1306390.092454,6.000000,11.000000,5.000000,3.000000,-2.000000,2.000000,-2.000000,2.000000
1306390.092475,14.000000,7.000000,5.000000,7.000000,6.000000,-2.000000,-3.000000,1.000000
1306390.093237,-19.000000,-4.000000,-4.000000,-6.000000,-4.000000,-7.000000,-3.000000,-1.000000
1306390.093254,4.000000,16.000000,9.000000,5.000000,-1.000000,1.000000,-3.000000,-1.000000
1306390.106851,8.000000,-1.000000,-5.000000,12.000000,3.000000,1.000000,3.000000,-9.000000
1306390.106872,-8.000000,-11.000000,-1.000000,1.000000,6.000000,-4.000000,-4.000000,-2.000000
1306390.129316,5.000000,1.000000,4.000000,0.000000,0.000000,0.000000,8.000000,-6.000000
1306390.129338,-3.000000,-1.000000,-1.000000,1.000000,-1.000000,2.000000,-5.000000,2.000000
1306390.151797,0.000000,-9.000000,1.000000,-2.000000,-3.000000,-5.000000,-6.000000,-1.000000
1306390.151839,0.000000,4.000000,2.000000,2.000000,0.000000,-1.000000,-2.000000,0.000000
1306390.167044,-4.000000,-2.000000,-3.000000,-1.000000,-5.000000,1.000000,-1.000000,0.000000
1306390.167074,-1.000000,-11.000000,-12.000000,-15.000000,-5.000000,-2.000000,0.000000,-2.000000
1306390.203964,-8.000000,-5.000000,2.000000,1.000000,-1.000000,-3.000000,-1.000000,-5.000000
1306390.204007,2.000000,9.000000,-8.000000,-8.000000,3.000000,2.000000,2.000000,-3.000000
1306390.204547,3.000000,-1.000000,0.000000,-4.000000,-5.000000,-1.000000,1.000000,0.000000
1306390.204562,-2.000000,-12.000000,-1.000000,1.000000,1.000000,-2.000000,1.000000,-3.000000
1306390.205703,-9.000000,8.000000,1.000000,3.000000,2.000000,-3.000000,-2.000000,-6.000000
1306390.205712,5.000000,-1.000000,-2.000000,-7.000000,2.000000,2.000000,0.000000,6.000000
1306390.206336,11.000000,-5.000000,3.000000,-4.000000,-1.000000,0.000000,1.000000,3.000000
1306390.206343,-20.000000,0.000000,6.000000,11.000000,-2.000000,-5.000000,-3.000000,-5.000000
1306390.207157,2.000000,5.000000,-3.000000,-1.000000,-3.000000,-1.000000,-1.000000,1.000000
1306390.207166,-4.000000,-13.000000,-7.000000,-6.000000,-2.000000,1.000000,-2.000000,-5.000000
1306390.211690,1.000000,-3.000000,0.000000,-3.000000,-2.000000,0.000000,19.000000,-2.000000
1306390.211711,-5.000000,7.000000,-12.000000,-11.000000,-1.000000,0.000000,-10.000000,-2.000000
1306390.219831,-2.000000,-9.000000,-4.000000,-1.000000,0.000000,3.000000,0.000000,-3.000000
1306390.219841,0.000000,1.000000,-8.000000,-4.000000,-2.000000,-2.000000,2.000000,2.000000
1306390.249076,2.000000,13.000000,8.000000,1.000000,1.000000,2.000000,-1.000000,4.000000
1306390.249087,-9.000000,-6.000000,-4.000000,-8.000000,-5.000000,1.000000,-2.000000,-6.000000
1306390.271771,1.000000,-5.000000,2.000000,-2.000000,2.000000,2.000000,0.000000,3.000000
1306390.271782,-5.000000,7.000000,-4.000000,-2.000000,0.000000,0.000000,-5.000000,-1.000000
1306390.294043,14.000000,6.000000,1.000000,-9.000000,-2.000000,-4.000000,-1.000000,0.000000
1306390.294053,0.000000,-12.000000,-13.000000,-14.000000,-1.000000,-1.000000,2.000000,-2.000000
1306390.309248,1.000000,-2.000000,-6.000000,-3.000000,-4.000000,-1.000000,-1.000000,1.000000
1306390.309259,-1.000000,2.000000,-8.000000,-23.000000,-4.000000,-1.000000,0.000000,-3.000000
1306390.324275,2.000000,-9.000000,8.000000,12.000000,-2.000000,-8.000000,-2.000000,-3.000000
1306390.324287,1.000000,-4.000000,-5.000000,2.000000,4.000000,6.000000,1.000000,-1.000000
1306390.325301,2.000000,12.000000,-4.000000,-8.000000,-1.000000,1.000000,-1.000000,0.000000
1306390.325309,-6.000000,-9.000000,0.000000,2.000000,1.000000,2.000000,10.000000,-6.000000
1306390.325914,-6.000000,-11.000000,0.000000,-4.000000,-3.000000,-1.000000,0.000000,1.000000
1306390.325927,1.000000,11.000000,1.000000,6.000000,4.000000,1.000000,-4.000000,1.000000
1306390.326644,1.000000,-13.000000,-7.000000,-11.000000,-4.000000,-1.000000,-2.000000,0.000000
1306390.326652,0.000000,-3.000000,1.000000,5.000000,4.000000,-1.000000,-3.000000,-1.000000
1306390.327372,1.000000,6.000000,6.000000,1.000000,-1.000000,4.000000,0.000000,-1.000000
1306390.327399,2.000000,-3.000000,-5.000000,-9.000000,2.000000,1.000000,2.000000,-2.000000
1306390.331716,-2.000000,14.000000,-1.000000,-35.000000,-9.000000,-1.000000,-6.000000,0.000000
1306390.331726,-2.000000,-1.000000,1.000000,8.000000,-3.000000,-3.000000,-3.000000,-2.000000
1306390.354032,3.000000,4.000000,1.000000,-1.000000,2.000000,1.000000,0.000000,-4.000000
1306390.354043,0.000000,11.000000,3.000000,7.000000,3.000000,-1.000000,0.000000,3.000000
1306390.369322,-14.000000,-6.000000,-3.000000,-3.000000,-1.000000,-4.000000,-3.000000,-11.000000
1306390.369333,3.000000,3.000000,4.000000,-7.000000,2.000000,1.000000,3.000000,3.000000
1306390.406616,-1.000000,9.000000,2.000000,-6.000000,-8.000000,-3.000000,-1.000000,0.000000
1306390.406645,1.000000,-9.000000,-2.000000,-3.000000,1.000000,-4.000000,-3.000000,1.000000
1306390.406873,1.000000,-10.000000,-1.000000,-3.000000,3.000000,-2.000000,2.000000,1.000000
1306390.406886,2.000000,3.000000,2.000000,-5.000000,-1.000000,-1.000000,0.000000,1.000000
1306390.408129,-4.000000,2.000000,3.000000,9.000000,-1.000000,-1.000000,8.000000,-2.000000
1306390.408155,4.000000,1.000000,3.000000,-9.000000,1.000000,1.000000,3.000000,0.000000
1306390.408860,0.000000,1.000000,-3.000000,5.000000,-1.000000,-1.000000,0.000000,-5.000000
1306390.408889,2.000000,6.000000,6.000000,10.000000,2.000000,4.000000,-2.000000,4.000000
1306390.410416,-1.000000,-6.000000,-3.000000,-1.000000,-1.000000,-4.000000,-1.000000,-2.000000
1306390.410442,-1.000000,-3.000000,-3.000000,2.000000,-1.000000,-4.000000,0.000000,0.000000
1306390.422544,2.000000,-11.000000,-3.000000,-13.000000,-3.000000,-4.000000,3.000000,0.000000
1306390.422553,3.000000,13.000000,7.000000,4.000000,-4.000000,-1.000000,-1.000000,1.000000
1306390.429127,-3.000000,0.000000,0.000000,10.000000,0.000000,4.000000,0.000000,-2.000000
1306390.429145,-4.000000,-8.000000,-4.000000,-2.000000,4.000000,-4.000000,-1.000000,-2.000000
1306390.444736,5.000000,2.000000,-4.000000,-13.000000,1.000000,0.000000,3.000000,10.000000
1306390.444753,-8.000000,7.000000,-7.000000,-4.000000,-2.000000,0.000000,-3.000000,-3.000000
1306390.466978,-3.000000,4.000000,0.000000,-13.000000,-3.000000,-3.000000,-2.000000,-3.000000
1306390.466991,-3.000000,-7.000000,-6.000000,-6.000000,0.000000,0.000000,0.000000,-1.000000
1306390.489287,-7.000000,-13.000000,-9.000000,0.000000,-2.000000,-1.000000,-2.000000,-6.000000
1306390.489300,3.000000,5.000000,6.000000,5.000000,1.000000,0.000000,0.000000,3.000000
1306390.496538,5.000000,-9.000000,1.000000,7.000000,-1.000000,-4.000000,0.000000,1.000000
1306390.496547,-31.000000,-7.000000,0.000000,4.000000,4.000000,5.000000,-4.000000,-6.000000
1306390.527074,6.000000,16.000000,4.000000,-4.000000,3.000000,5.000000,-3.000000,2.000000
1306390.527095,-3.000000,-8.000000,-4.000000,-15.000000,-6.000000,0.000000,0.000000,-4.000000
1306390.527689,0.000000,-4.000000,-8.000000,-4.000000,-4.000000,0.000000,-3.000000,-3.000000
1306390.527699,0.000000,8.000000,-5.000000,-2.000000,0.000000,0.000000,-3.000000,2.000000
1306390.529025,6.000000,-11.000000,-9.000000,-8.000000,0.000000,-1.000000,-16.000000,1.000000
1306390.529036,-4.000000,-3.000000,3.000000,2.000000,-4.000000,-1.000000,16.000000,2.000000
1306390.529835,4.000000,1.000000,-3.000000,2.000000,-2.000000,-2.000000,-5.000000,-2.000000
1306390.529846,-3.000000,-9.000000,-8.000000,-4.000000,3.000000,0.000000,-2.000000,1.000000
1306390.541756,-5.000000,10.000000,9.000000,3.000000,1.000000,-5.000000,-5.000000,-5.000000
1306390.541767,4.000000,7.000000,-6.000000,-17.000000,-6.000000,0.000000,-6.000000,-1.000000
1306390.549402,-3.000000,-1.000000,2.000000,6.000000,9.000000,5.000000,2.000000,-1.000000
1306390.549419,5.000000,-5.000000,-1.000000,3.000000,-1.000000,-4.000000,1.000000,-1.000000
1306390.564867,-4.000000,-1.000000,-8.000000,-12.000000,-3.000000,1.000000,4.000000,-3.000000
1306390.564882,7.000000,7.000000,1.000000,-7.000000,-3.000000,-2.000000,-1.000000,1.000000
1306390.586881,0.000000,-7.000000,5.000000,-3.000000,-3.000000,-1.000000,-2.000000,1.000000
1306390.586891,-5.000000,-4.000000,-1.000000,0.000000,-2.000000,0.000000,1.000000,-3.000000
1306390.609253,-2.000000,5.000000,-3.000000,-1.000000,-1.000000,-5.000000,-7.000000,-5.000000
1306390.609264,-4.000000,-14.000000,-3.000000,-1.000000,-1.000000,-2.000000,1.000000,2.000000
1306390.624085,0.000000,-1.000000,-5.000000,-13.000000,-3.000000,3.000000,2.000000,1.000000
1306390.624100,-1.000000,14.000000,6.000000,3.000000,0.000000,0.000000,-3.000000,4.000000
1306390.625058,2.000000,-4.000000,-1.000000,-3.000000,-4.000000,0.000000,0.000000,0.000000
1306390.625067,5.000000,3.000000,-3.000000,-6.000000,-3.000000,-3.000000,-1.000000,3.000000
1306390.626126,-3.000000,6.000000,2.000000,17.000000,5.000000,2.000000,-3.000000,2.000000
1306390.626144,3.000000,-3.000000,-3.000000,-2.000000,0.000000,-2.000000,-1.000000,-1.000000
1306390.627330,8.000000,-4.000000,-1.000000,-10.000000,-3.000000,-4.000000,17.000000,-5.000000
1306390.627339,-19.000000,6.000000,2.000000,-4.000000,-5.000000,-4.000000,-5.000000,-2.000000
1306390.646511,1.000000,3.000000,3.000000,5.000000,0.000000,1.000000,-2.000000,1.000000
1306390.646521,0.000000,-11.000000,-6.000000,-2.000000,-5.000000,-8.000000,-3.000000,1.000000
1306390.661794,1.000000,9.000000,-2.000000,-1.000000,2.000000,-3.000000,1.000000,2.000000
1306390.661805,2.000000,8.000000,0.000000,-4.000000,1.000000,0.000000,-4.000000,0.000000
1306390.662270,-1.000000,0.000000,7.000000,4.000000,1.000000,-1.000000,-3.000000,-1.000000
1306390.662278,0.000000,5.000000,6.000000,8.000000,2.000000,0.000000,2.000000,2.000000
1306390.663390,-1.000000,18.000000,-3.000000,-5.000000,1.000000,0.000000,-4.000000,3.000000
1306390.663398,0.000000,5.000000,3.000000,6.000000,2.000000,-1.000000,-3.000000,1.000000
1306390.684210,-4.000000,-10.000000,-5.000000,-7.000000,-2.000000,-2.000000,2.000000,-5.000000
1306390.684228,4.000000,3.000000,1.000000,-7.000000,-9.000000,-6.000000,0.000000,-1.000000
1306390.685343,1.000000,5.000000,-1.000000,-2.000000,1.000000,0.000000,-3.000000,1.000000
1306390.685356,1.000000,5.000000,3.000000,-4.000000,-2.000000,-1.000000,2.000000,4.000000
1306390.699136,0.000000,6.000000,5.000000,9.000000,1.000000,-1.000000,-2.000000,-1.000000
1306390.699146,-4.000000,1.000000,-6.000000,-5.000000,-5.000000,1.000000,-3.000000,1.000000
1306390.721790,5.000000,13.000000,4.000000,7.000000,1.000000,0.000000,-3.000000,-1.000000
1306390.721807,1.000000,7.000000,3.000000,-3.000000,1.000000,0.000000,-2.000000,-3.000000
1306390.744250,-1.000000,14.000000,1.000000,-2.000000,4.000000,1.000000,0.000000,-4.000000
1306390.744260,-1.000000,-7.000000,1.000000,4.000000,0.000000,0.000000,-1.000000,0.000000
1306390.760047,1.000000,-7.000000,-1.000000,-5.000000,-2.000000,2.000000,0.000000,-3.000000
1306390.760076,1.000000,0.000000,-6.000000,-7.000000,-5.000000,-5.000000,-1.000000,0.000000
1306390.760559,2.000000,0.000000,1.000000,2.000000,0.000000,4.000000,1.000000,2.000000
1306390.760586,0.000000,-7.000000,-4.000000,-3.000000,-3.000000,-6.000000,0.000000,0.000000
1306390.761768,-4.000000,-8.000000,-4.000000,8.000000,0.000000,0.000000,-8.000000,-6.000000
1306390.761784,4.000000,16.000000,1.000000,-3.000000,2.000000,1.000000,19.000000,-7.000000
1306390.762375,-34.000000,-4.000000,-3.000000,-4.000000,-3.000000,0.000000,-2.000000,-8.000000
1306390.762392,1.000000,1.000000,0.000000,0.000000,-1.000000,-4.000000,-4.000000,-2.000000
1306390.773917,1.000000,-9.000000,-5.000000,3.000000,1.000000,-4.000000,3.000000,-1.000000
1306390.773968,2.000000,8.000000,-3.000000,-8.000000,-1.000000,-1.000000,0.000000,1.000000
1306390.781675,-4.000000,5.000000,9.000000,-1.000000,-3.000000,-2.000000,-2.000000,-1.000000
1306390.781696,-3.000000,-1.000000,1.000000,-4.000000,2.000000,-3.000000,-2.000000,-4.000000
1306390.804277,1.000000,3.000000,1.000000,6.000000,5.000000,-1.000000,1.000000,0.000000
1306390.804289,1.000000,-1.000000,-10.000000,1.000000,1.000000,5.000000,1.000000,1.000000
1306390.805429,1.000000,-5.000000,2.000000,-4.000000,-3.000000,0.000000,2.000000,0.000000
1306390.805437,-4.000000,-4.000000,-1.000000,0.000000,-2.000000,-1.000000,-1.000000,-3.000000
1306390.811634,0.000000,7.000000,0.000000,-10.000000,-4.000000,0.000000,-2.000000,0.000000
1306390.811645,-3.000000,-9.000000,-5.000000,-3.000000,-3.000000,-1.000000,-1.000000,-1.000000
1306390.826572,0.000000,10.000000,16.000000,-13.000000,-7.000000,-4.000000,4.000000,-2.000000
1306390.826634,1.000000,1.000000,-11.000000,-8.000000,2.000000,1.000000,-2.000000,1.000000
1306390.841828,4.000000,8.000000,3.000000,10.000000,1.000000,5.000000,-1.000000,3.000000
1306390.841840,-2.000000,-8.000000,4.000000,-2.000000,0.000000,-6.000000,1.000000,0.000000
1306390.879181,2.000000,2.000000,-3.000000,-3.000000,0.000000,2.000000,-2.000000,-3.000000
1306390.879192,0.000000,-1.000000,2.000000,0.000000,-2.000000,1.000000,-2.000000,-1.000000
1306390.886780,5.000000,4.000000,0.000000,-9.000000,0.000000,0.000000,-2.000000,1.000000
1306390.886793,-1.000000,-10.000000,-1.000000,9.000000,3.000000,0.000000,2.000000,1.000000
1306390.939324,-3.000000,16.000000,-1.000000,-13.000000,-4.000000,4.000000,-4.000000,-3.000000
1306390.939335,1.000000,-2.000000,-3.000000,3.000000,8.000000,-1.000000,-1.000000,1.000000
1306390.961557,0.000000,-10.000000,-1.000000,2.000000,-4.000000,-5.000000,2.000000,1.000000
1306390.961567,0.000000,1.000000,4.000000,-6.000000,-3.000000,1.000000,-2.000000,-2.000000
1306390.962717,1.000000,-5.000000,-3.000000,-2.000000,-3.000000,0.000000,-4.000000,-1.000000
1306390.962730,3.000000,-1.000000,11.000000,7.000000,1.000000,-2.000000,-1.000000,-6.000000
1306390.963333,-6.000000,-9.000000,-1.000000,11.000000,3.000000,2.000000,-3.000000,-4.000000
1306390.963351,-14.000000,-17.000000,-13.000000,-20.000000,-13.000000,-4.000000,-6.000000,0.000000
1306390.963893,-3.000000,0.000000,0.000000,-2.000000,1.000000,2.000000,1.000000,-2.000000
1306390.963912,0.000000,0.000000,-9.000000,-6.000000,-3.000000,-1.000000,10.000000,2.000000
1306390.965330,1.000000,-4.000000,-1.000000,3.000000,-1.000000,1.000000,-1.000000,0.000000
1306390.965349,-5.000000,-10.000000,-7.000000,1.000000,0.000000,1.000000,-3.000000,-1.000000
1306390.976455,-3.000000,-5.000000,3.000000,11.000000,0.000000,-3.000000,0.000000,-5.000000
1306390.976484,-4.000000,-2.000000,-1.000000,-7.000000,-3.000000,-1.000000,0.000000,1.000000
1306390.984339,-2.000000,-14.000000,2.000000,0.000000,1.000000,-1.000000,-1.000000,0.000000
1306390.984350,2.000000,-8.000000,-2.000000,2.000000,4.000000,0.000000,0.000000,-1.000000
1306390.999015,-5.000000,2.000000,-5.000000,-30.000000,-5.000000,-3.000000,-1.000000,-1.000000
1306390.999025,-1.000000,-1.000000,1.000000,7.000000,0.000000,2.000000,-2.000000,0.000000
1306391.000377,1.000000,-9.000000,-5.000000,-5.000000,-5.000000,-1.000000,2.000000,0.000000
1306391.000393,-2.000000,-4.000000,-3.000000,-2.000000,0.000000,-6.000000,0.000000,-1.000000
1306391.014032,-1.000000,5.000000,-3.000000,-3.000000,-2.000000,2.000000,-3.000000,0.000000
1306391.014042,-6.000000,-6.000000,-6.000000,6.000000,-1.000000,0.000000,-4.000000,1.000000
1306391.021570,19.000000,-10.000000,-6.000000,-16.000000,-1.000000,-4.000000,3.000000,-1.000000
1306391.021626,-3.000000,12.000000,2.000000,2.000000,4.000000,0.000000,1.000000,-3.000000
1306391.036527,-1.000000,-10.000000,-1.000000,7.000000,1.000000,1.000000,15.000000,4.000000
1306391.036556,1.000000,-11.000000,-2.000000,-8.000000,1.000000,-5.000000,1.000000,2.000000
1306391.044145,5.000000,-4.000000,-8.000000,0.000000,1.000000,2.000000,0.000000,3.000000
1306391.044155,0.000000,6.000000,1.000000,0.000000,-2.000000,2.000000,-8.000000,-1.000000
1306391.051494,-2.000000,-4.000000,1.000000,-3.000000,-1.000000,-3.000000,-5.000000,-1.000000
1306391.051507,-3.000000,0.000000,0.000000,-8.000000,0.000000,-2.000000,1.000000,-2.000000
1306391.096634,0.000000,1.000000,-10.000000,1.000000,1.000000,0.000000,-4.000000,-1.000000
1306391.096653,-3.000000,4.000000,4.000000,5.000000,-3.000000,-3.000000,0.000000,-2.000000
1306391.104143,-2.000000,1.000000,1.000000,9.000000,7.000000,2.000000,1.000000,1.000000
1306391.104167,2.000000,1.000000,-4.000000,0.000000,2.000000,0.000000,0.000000,3.000000
1306391.134017,-2.000000,-19.000000,-1.000000,4.000000,-7.000000,0.000000,-2.000000,-1.000000
1306391.134034,-3.000000,-11.000000,-5.000000,-5.000000,3.000000,-4.000000,1.000000,0.000000
1306391.134491,-6.000000,7.000000,-6.000000,-10.000000,-8.000000,-5.000000,-1.000000,-1.000000
1306391.134500,2.000000,1.000000,1.000000,-4.000000,-2.000000,1.000000,2.000000,-3.000000
1306391.142093,-2.000000,-20.000000,1.000000,-5.000000,-3.000000,-1.000000,2.000000,0.000000
1306391.142106,2.000000,14.000000,4.000000,6.000000,1.000000,1.000000,-3.000000,-5.000000
1306391.142882,0.000000,5.000000,3.000000,-2.000000,-4.000000,-5.000000,-1.000000,-5.000000
1306391.142891,2.000000,-4.000000,-1.000000,0.000000,2.000000,0.000000,-3.000000,0.000000
1306391.143877,0.000000,-6.000000,0.000000,1.000000,0.000000,-3.000000,-4.000000,-5.000000
1306391.143886,-2.000000,-17.000000,-4.000000,-5.000000,0.000000,-3.000000,-1.000000,5.000000
1306391.144720,1.000000,-7.000000,-2.000000,-4.000000,2.000000,-1.000000,-1.000000,0.000000
1306391.144763,-1.000000,0.000000,-9.000000,-9.000000,0.000000,0.000000,-1.000000,-1.000000
1306391.156442,0.000000,-5.000000,-3.000000,6.000000,-2.000000,0.000000,1.000000,-2.000000
1306391.156474,3.000000,21.000000,5.000000,-2.000000,-2.000000,-3.000000,1.000000,-2.000000
1306391.164826,-35.000000,3.000000,4.000000,1.000000,-4.000000,-5.000000,-4.000000,-7.000000
1306391.164850,-2.000000,-7.000000,-5.000000,-4.000000,1.000000,0.000000,-1.000000,1.000000
1306391.179510,-1.000000,1.000000,1.000000,-8.000000,0.000000,-1.000000,5.000000,0.000000
1306391.179524,4.000000,16.000000,-2.000000,-4.000000,2.000000,5.000000,1.000000,-2.000000
1306391.216777,-1.000000,-7.000000,-4.000000,-3.000000,0.000000,-2.000000,1.000000,2.000000
1306391.216788,-1.000000,-6.000000,-1.000000,0.000000,-2.000000,-8.000000,12.000000,-5.000000
1306391.238901,-4.000000,4.000000,-2.000000,5.000000,-1.000000,-1.000000,0.000000,0.000000
1306391.238917,-1.000000,2.000000,-1.000000,2.000000,0.000000,1.000000,-4.000000,1.000000
1306391.240168,-6.000000,-5.000000,1.000000,1.000000,4.000000,-2.000000,-2.000000,-3.000000
1306391.240188,0.000000,-6.000000,-5.000000,-7.000000,-4.000000,1.000000,0.000000,0.000000
1306391.240922,-2.000000,12.000000,-2.000000,9.000000,-3.000000,-3.000000,-6.000000,0.000000
1306391.240939,1.000000,-5.000000,-1.000000,1.000000,-1.000000,-7.000000,-2.000000,-1.000000
1306391.242250,-1.000000,1.000000,-8.000000,-16.000000,-4.000000,-1.000000,1.000000,-6.000000
1306391.242284,0.000000,8.000000,1.000000,5.000000,2.000000,0.000000,-3.000000,0.000000
1306391.242890,1.000000,1.000000,0.000000,0.000000,-1.000000,-2.000000,-2.000000,-1.000000
1306391.242898,5.000000,-5.000000,-1.000000,-8.000000,-1.000000,-2.000000,1.000000,4.000000
1306391.254098,-1.000000,-11.000000,5.000000,8.000000,-1.000000,-2.000000,1.000000,1.000000
1306391.254114,-3.000000,3.000000,-5.000000,-7.000000,-1.000000,2.000000,-1.000000,-3.000000
1306391.262217,2.000000,10.000000,0.000000,4.000000,-1.000000,6.000000,-2.000000,1.000000
1306391.262226,5.000000,-4.000000,-3.000000,-7.000000,2.000000,-3.000000,-1.000000,1.000000
1306391.276499,-4.000000,-12.000000,-11.000000,2.000000,-4.000000,-5.000000,0.000000,-3.000000
1306391.276510,-4.000000,12.000000,-2.000000,-8.000000,-2.000000,0.000000,-1.000000,-1.000000
1306391.283962,0.000000,-5.000000,-3.000000,0.000000,1.000000,-4.000000,-1.000000,-3.000000
1306391.283985,-5.000000,-12.000000,-3.000000,-4.000000,-2.000000,-4.000000,-3.000000,-1.000000
1306391.299132,4.000000,10.000000,5.000000,13.000000,1.000000,4.000000,2.000000,3.000000
1306391.299142,1.000000,-5.000000,-12.000000,-11.000000,1.000000,0.000000,-2.000000,1.000000
1306391.321682,0.000000,-3.000000,5.000000,5.000000,0.000000,-2.000000,0.000000,0.000000
1306391.321694,-9.000000,-17.000000,-12.000000,-3.000000,2.000000,2.000000,-2.000000,-4.000000
1306391.329117,5.000000,7.000000,-3.000000,4.000000,2.000000,4.000000,-2.000000,2.000000
1306391.329133,10.000000,-7.000000,-1.000000,-9.000000,-4.000000,-3.000000,-2.000000,-5.000000
1306391.330020,-18.000000,-5.000000,-4.000000,-7.000000,-4.000000,-4.000000,10.000000,0.000000
1306391.330062,4.000000,10.000000,6.000000,-4.000000,-1.000000,-2.000000,-5.000000,1.000000
1306391.330830,-1.000000,-9.000000,-1.000000,-7.000000,0.000000,1.000000,-4.000000,1.000000
1306391.330838,0.000000,-11.000000,-1.000000,-5.000000,-3.000000,-1.000000,0.000000,-3.000000
1306391.359158,2.000000,6.000000,0.000000,3.000000,1.000000,-3.000000,0.000000,6.000000
1306391.359168,-3.000000,-4.000000,0.000000,-3.000000,-4.000000,-3.000000,0.000000,2.000000
1306391.374046,-2.000000,-4.000000,4.000000,-7.000000,-1.000000,-4.000000,-1.000000,-1.000000
1306391.374072,-3.000000,-1.000000,4.000000,2.000000,-5.000000,-2.000000,-1.000000,-6.000000
1306391.375247,-4.000000,5.000000,-1.000000,-1.000000,-3.000000,3.000000,0.000000,-1.000000
1306391.375275,0.000000,-9.000000,-7.000000,-3.000000,4.000000,0.000000,1.000000,-1.000000
1306391.376084,-1.000000,2.000000,-6.000000,-15.000000,-6.000000,-3.000000,-3.000000,-1.000000
1306391.376114,4.000000,14.000000,0.000000,-2.000000,-2.000000,2.000000,-2.000000,-1.000000
1306391.381608,-2.000000,1.000000,6.000000,-2.000000,-1.000000,0.000000,-5.000000,-2.000000
1306391.381617,-1.000000,-10.000000,-2.000000,-2.000000,-1.000000,-6.000000,1.000000,1.000000
1306391.396584,0.000000,1.000000,-6.000000,1.000000,2.000000,-2.000000,0.000000,-2.000000
1306391.396601,-1.000000,-3.000000,0.000000,-4.000000,-2.000000,-3.000000,-3.000000,0.000000
1306391.404318,-2.000000,-6.000000,0.000000,-3.000000,-1.000000,-3.000000,2.000000,-3.000000
1306391.404328,-1.000000,2.000000,2.000000,1.000000,-1.000000,-2.000000,-4.000000,0.000000
1306391.419466,-6.000000,-1.000000,-5.000000,-7.000000,-2.000000,0.000000,-3.000000,-1.000000
1306391.419493,6.000000,-3.000000,-7.000000,-18.000000,1.000000,-2.000000,4.000000,10.000000
1306391.441527,-25.000000,-12.000000,-6.000000,0.000000,-3.000000,-2.000000,-3.000000,-12.000000
1306391.441537,-5.000000,11.000000,8.000000,1.000000,0.000000,0.000000,-3.000000,-3.000000
1306391.456770,1.000000,-6.000000,-4.000000,-4.000000,-1.000000,-3.000000,-1.000000,0.000000
1306391.456789,-7.000000,-10.000000,0.000000,-1.000000,-3.000000,-4.000000,15.000000,-8.000000
1306391.486467,-1.000000,7.000000,1.000000,-9.000000,-4.000000,-6.000000,-1.000000,0.000000
1306391.486483,1.000000,7.000000,5.000000,4.000000,-1.000000,0.000000,-6.000000,2.000000
1306391.487043,3.000000,-8.000000,-2.000000,-13.000000,-4.000000,-6.000000,-3.000000,-1.000000
1306391.487052,2.000000,2.000000,-2.000000,-16.000000,-7.000000,-4.000000,-3.000000,5.000000
1306391.494741,-1.000000,7.000000,8.000000,23.000000,5.000000,4.000000,-3.000000,2.000000
1306391.494750,0.000000,-3.000000,-6.000000,-12.000000,1.000000,1.000000,1.000000,-1.000000
1306391.495279,-3.000000,-3.000000,-4.000000,-1.000000,-4.000000,-1.000000,0.000000,-1.000000
1306391.495289,1.000000,14.000000,5.000000,5.000000,1.000000,3.000000,-1.000000,-1.000000
1306391.496451,19.000000,2.000000,-3.000000,2.000000,1.000000,6.000000,5.000000,6.000000
1306391.496460,7.000000,10.000000,-4.000000,-19.000000,-2.000000,-2.000000,0.000000,2.000000
1306391.516419,-8.000000,-17.000000,-3.000000,6.000000,-10.000000,-8.000000,-3.000000,1.000000
1306391.516433,2.000000,9.000000,2.000000,8.000000,2.000000,-2.000000,-1.000000,-6.000000
1306391.516904,-5.000000,8.000000,0.000000,-2.000000,0.000000,2.000000,16.000000,5.000000
1306391.516952,-2.000000,-11.000000,-9.000000,-8.000000,-5.000000,-3.000000,1.000000,2.000000
1306391.531584,-3.000000,2.000000,-4.000000,0.000000,-1.000000,-2.000000,-4.000000,-2.000000
1306391.531600,-6.000000,7.000000,0.000000,-20.000000,-8.000000,-3.000000,-6.000000,-2.000000
1306391.554499,1.000000,-4.000000,2.000000,5.000000,0.000000,-2.000000,-1.000000,-1.000000
1306391.554511,-1.000000,-8.000000,-4.000000,-13.000000,-3.000000,-6.000000,0.000000,-3.000000
1306391.562308,-6.000000,-15.000000,-10.000000,-8.000000,-4.000000,-3.000000,-4.000000,-1.000000
1306391.562365,0.000000,-3.000000,3.000000,0.000000,1.000000,0.000000,2.000000,-3.000000
1306391.562579,3.000000,-5.000000,2.000000,6.000000,0.000000,-1.000000,1.000000,1.000000
1306391.562632,-6.000000,-1.000000,4.000000,8.000000,2.000000,1.000000,-2.000000,-3.000000
1306391.576325,2.000000,5.000000,7.000000,10.000000,3.000000,1.000000,2.000000,2.000000
1306391.576335,-2.000000,-11.000000,-6.000000,-18.000000,-9.000000,-6.000000,-2.000000,-7.000000
1306391.576973,-1.000000,-1.000000,0.000000,-6.000000,-3.000000,-4.000000,-4.000000,2.000000
1306391.577005,4.000000,8.000000,-4.000000,-12.000000,-3.000000,-1.000000,1.000000,5.000000
1306391.591533,-2.000000,-11.000000,1.000000,3.000000,-1.000000,-1.000000,-1.000000,0.000000
1306391.591544,-13.000000,-17.000000,6.000000,14.000000,1.000000,-3.000000,-3.000000,-9.000000
1306391.592204,1.000000,2.000000,-4.000000,1.000000,2.000000,0.000000,1.000000,2.000000
1306391.592212,-32.000000,-10.000000,1.000000,-10.000000,0.000000,3.000000,-3.000000,-13.000000
1306391.606909,2.000000,-5.000000,2.000000,-2.000000,-3.000000,-3.000000,-1.000000,-5.000000
1306391.606951,6.000000,5.000000,-2.000000,6.000000,2.000000,0.000000,1.000000,-5.000000
1306391.614334,3.000000,4.000000,1.000000,-1.000000,-6.000000,-1.000000,17.000000,1.000000
1306391.614357,-3.000000,0.000000,1.000000,8.000000,-4.000000,-3.000000,-4.000000,1.000000
1306391.636544,2.000000,2.000000,-3.000000,-9.000000,0.000000,0.000000,1.000000,5.000000
1306391.636579,-2.000000,8.000000,-10.000000,-5.000000,-6.000000,4.000000,-4.000000,-1.000000
1306391.637040,5.000000,0.000000,4.000000,-1.000000,5.000000,-3.000000,0.000000,1.000000
1306391.637048,-5.000000,-18.000000,-7.000000,-2.000000,4.000000,1.000000,2.000000,-2.000000
1306391.644322,0.000000,8.000000,9.000000,10.000000,-2.000000,-1.000000,-1.000000,-6.000000
1306391.644333,-1.000000,-2.000000,-4.000000,-6.000000,0.000000,1.000000,2.000000,5.000000
1306391.651749,0.000000,-12.000000,-2.000000,-9.000000,-1.000000,1.000000,-1.000000,-3.000000
1306391.651759,0.000000,1.000000,2.000000,-1.000000,0.000000,-3.000000,-1.000000,0.000000
1306391.674025,2.000000,-1.000000,-3.000000,10.000000,0.000000,3.000000,0.000000,-3.000000
1306391.674035,-4.000000,-3.000000,-2.000000,-4.000000,-3.000000,-1.000000,1.000000,-4.000000
1306391.681642,-2.000000,-3.000000,-8.000000,-7.000000,0.000000,-1.000000,1.000000,-1.000000
1306391.681652,-7.000000,2.000000,-5.000000,-2.000000,-3.000000,-4.000000,-2.000000,-2.000000
1306391.711392,3.000000,-2.000000,2.000000,1.000000,-3.000000,0.000000,1.000000,-1.000000
1306391.711407,-1.000000,-5.000000,-5.000000,-3.000000,-3.000000,-3.000000,1.000000,1.000000
1306391.712030,-3.000000,5.000000,0.000000,2.000000,2.000000,-1.000000,1.000000,-1.000000
1306391.712045,-2.000000,0.000000,6.000000,2.000000,3.000000,1.000000,-2.000000,-3.000000
1306391.713219,11.000000,-4.000000,-7.000000,-14.000000,1.000000,2.000000,3.000000,3.000000
1306391.713228,0.000000,5.000000,-1.000000,-8.000000,3.000000,2.000000,1.000000,0.000000
1306391.713896,-5.000000,-3.000000,-1.000000,2.000000,-1.000000,-3.000000,-4.000000,-6.000000
1306391.713905,-1.000000,-16.000000,-7.000000,-6.000000,2.000000,0.000000,0.000000,-6.000000
1306391.734295,-2.000000,-4.000000,-5.000000,3.000000,-2.000000,-3.000000,-2.000000,-3.000000
1306391.734308,-5.000000,12.000000,3.000000,-9.000000,-1.000000,1.000000,-3.000000,-4.000000
1306391.734735,2.000000,-5.000000,-3.000000,5.000000,4.000000,0.000000,-1.000000,-1.000000
1306391.734743,-1.000000,-4.000000,-2.000000,-8.000000,1.000000,0.000000,0.000000,-1.000000
1306391.756562,3.000000,3.000000,-6.000000,-5.000000,0.000000,-1.000000,0.000000,2.000000
1306391.756573,-6.000000,-7.000000,-5.000000,1.000000,1.000000,0.000000,0.000000,-5.000000
1306391.764283,-1.000000,-9.000000,-1.000000,1.000000,1.000000,1.000000,1.000000,-2.000000
1306391.764301,0.000000,2.000000,0.000000,-1.000000,2.000000,-1.000000,1.000000,-1.000000
1306391.809319,4.000000,5.000000,-1.000000,-8.000000,-3.000000,2.000000,-1.000000,2.000000
1306391.809350,-5.000000,-23.000000,-10.000000,-4.000000,0.000000,5.000000,-12.000000,-2.000000
1306391.816393,2.000000,6.000000,0.000000,2.000000,1.000000,3.000000,13.000000,-3.000000
1306391.816401,-4.000000,4.000000,-1.000000,-4.000000,-2.000000,1.000000,-7.000000,9.000000
1306391.832213,12.000000,-4.000000,-2.000000,5.000000,1.000000,-2.000000,-4.000000,-15.000000
1306391.832222,-1.000000,-1.000000,2.000000,9.000000,0.000000,-3.000000,-1.000000,4.000000
1306391.833207,2.000000,1.000000,-4.000000,-7.000000,1.000000,5.000000,-1.000000,1.000000
1306391.833215,1.000000,-9.000000,-4.000000,-1.000000,0.000000,-2.000000,2.000000,-1.000000
1306391.833778,1.000000,-6.000000,7.000000,-1.000000,-1.000000,-5.000000,-2.000000,-6.000000
1306391.833785,1.000000,5.000000,2.000000,-2.000000,-6.000000,-1.000000,1.000000,-2.000000
1306391.834522,0.000000,-1.000000,-3.000000,5.000000,-6.000000,-4.000000,-1.000000,0.000000
1306391.834530,-1.000000,3.000000,3.000000,2.000000,-1.000000,0.000000,-4.000000,1.000000
1306391.854117,1.000000,5.000000,3.000000,4.000000,-1.000000,-1.000000,0.000000,1.000000
1306391.854207,-4.000000,-1.000000,4.000000,-1.000000,-3.000000,1.000000,-1.000000,-2.000000
1306391.855304,2.000000,-10.000000,1.000000,-3.000000,0.000000,-4.000000,0.000000,0.000000
1306391.855322,4.000000,0.000000,-2.000000,-1.000000,-4.000000,-1.000000,0.000000,-3.000000
1306391.869123,2.000000,6.000000,0.000000,1.000000,-2.000000,-1.000000,-1.000000,1.000000
1306391.869150,7.000000,-9.000000,-3.000000,2.000000,5.000000,0.000000,2.000000,1.000000
1306391.884136,-7.000000,2.000000,-9.000000,0.000000,1.000000,-5.000000,-1.000000,-1.000000
1306391.884146,1.000000,6.000000,0.000000,-2.000000,-3.000000,1.000000,-5.000000,3.000000
1306391.891680,1.000000,-3.000000,1.000000,-3.000000,1.000000,0.000000,1.000000,1.000000
1306391.891738,-6.000000,-9.000000,-9.000000,3.000000,3.000000,0.000000,-24.000000,-3.000000
1306391.914126,-3.000000,9.000000,-2.000000,1.000000,1.000000,0.000000,22.000000,0.000000
1306391.914155,5.000000,-6.000000,5.000000,9.000000,0.000000,0.000000,-3.000000,0.000000
1306391.929318,-9.000000,-2.000000,-1.000000,-5.000000,2.000000,-3.000000,-3.000000,-5.000000
1306391.929328,3.000000,8.000000,-2.000000,-1.000000,-3.000000,-1.000000,-4.000000,2.000000
1306391.937353,-28.000000,-10.000000,-4.000000,-2.000000,-4.000000,-4.000000,-3.000000,-12.000000
1306391.937387,0.000000,-19.000000,-2.000000,4.000000,0.000000,-2.000000,-1.000000,1.000000
1306391.937954,-3.000000,10.000000,5.000000,-11.000000,-4.000000,3.000000,1.000000,-3.000000
1306391.937961,6.000000,10.000000,-1.000000,3.000000,2.000000,3.000000,3.000000,1.000000
1306391.939229,2.000000,-4.000000,7.000000,9.000000,0.000000,-2.000000,-1.000000,0.000000
1306391.939236,2.000000,6.000000,-5.000000,2.000000,3.000000,4.000000,0.000000,2.000000
1306391.951580,-3.000000,7.000000,-5.000000,-5.000000,-1.000000,-1.000000,-1.000000,-1.000000
1306391.951638,-1.000000,-9.000000,-1.000000,8.000000,0.000000,-2.000000,-4.000000,2.000000
1306391.952813,-5.000000,-5.000000,1.000000,-3.000000,3.000000,-2.000000,0.000000,-1.000000
1306391.952821,-3.000000,-6.000000,-4.000000,-1.000000,-2.000000,1.000000,0.000000,-5.000000
1306391.966803,-4.000000,-3.000000,7.000000,19.000000,2.000000,1.000000,-1.000000,1.000000
1306391.966814,-2.000000,-8.000000,2.000000,0.000000,-2.000000,-4.000000,0.000000,0.000000
1306391.974890,-3.000000,-5.000000,-6.000000,0.000000,-1.000000,2.000000,0.000000,-1.000000
1306391.974900,0.000000,9.000000,7.000000,4.000000,-4.000000,2.000000,-1.000000,-5.000000
1306391.989067,-1.000000,0.000000,-1.000000,0.000000,3.000000,-7.000000,-4.000000,-3.000000
1306391.989083,3.000000,-6.000000,-3.000000,3.000000,-2.000000,0.000000,-1.000000,-1.000000
1306392.011716,-4.000000,4.000000,-2.000000,-19.000000,-7.000000,-2.000000,-5.000000,-3.000000
1306392.011726,-3.000000,-2.000000,1.000000,-1.000000,-1.000000,2.000000,-1.000000,0.000000
1306392.034135,-1.000000,-12.000000,-4.000000,4.000000,2.000000,-3.000000,0.000000,-2.000000
1306392.034156,-2.000000,5.000000,-2.000000,-3.000000,0.000000,-3.000000,-3.000000,2.000000
1306392.041878,3.000000,5.000000,0.000000,9.000000,-5.000000,-4.000000,-5.000000,1.000000
1306392.041888,-7.000000,-10.000000,7.000000,-4.000000,-3.000000,-1.000000,3.000000,-3.000000
1306392.042677,-1.000000,5.000000,4.000000,4.000000,0.000000,-3.000000,-2.000000,-1.000000
1306392.042691,4.000000,7.000000,8.000000,19.000000,4.000000,0.000000,-3.000000,1.000000
1306392.043900,-1.000000,-4.000000,-2.000000,-1.000000,0.000000,-1.000000,0.000000,0.000000
1306392.043908,-2.000000,6.000000,-3.000000,-2.000000,-1.000000,-1.000000,-1.000000,1.000000
1306392.044751,1.000000,11.000000,0.000000,-1.000000,1.000000,0.000000,-1.000000,2.000000
1306392.044761,2.000000,0.000000,3.000000,3.000000,1.000000,5.000000,1.000000,0.000000
1306392.072026,5.000000,-10.000000,-5.000000,-15.000000,0.000000,1.000000,3.000000,3.000000
1306392.072043,0.000000,15.000000,6.000000,1.000000,2.000000,1.000000,0.000000,0.000000
1306392.072804,3.000000,-2.000000,-3.000000,-3.000000,0.000000,-1.000000,-3.000000,3.000000
1306392.072814,-1.000000,-13.000000,-2.000000,5.000000,2.000000,-4.000000,0.000000,-3.000000
1306392.086823,-1.000000,3.000000,-5.000000,-14.000000,-2.000000,-1.000000,-5.000000,-4.000000
1306392.086854,-4.000000,0.000000,-2.000000,5.000000,-1.000000,2.000000,-4.000000,0.000000
1306392.094108,-2.000000,3.000000,5.000000,7.000000,-6.000000,-3.000000,1.000000,-2.000000
1306392.094128,-2.000000,1.000000,-2.000000,0.000000,3.000000,2.000000,-1.000000,-3.000000
1306392.116603,4.000000,11.000000,0.000000,3.000000,-4.000000,-1.000000,-4.000000,1.000000
1306392.116613,0.000000,-10.000000,-5.000000,-10.000000,-2.000000,0.000000,-1.000000,0.000000
1306392.131667,1.000000,5.000000,-2.000000,-7.000000,3.000000,-3.000000,1.000000,2.000000
1306392.131685,4.000000,10.000000,5.000000,3.000000,4.000000,1.000000,2.000000,-1.000000
1306392.147109,4.000000,2.000000,3.000000,-1.000000,0.000000,-4.000000,-1.000000,-2.000000
1306392.147122,-6.000000,-23.000000,0.000000,6.000000,-3.000000,2.000000,-2.000000,-6.000000
1306392.147620,-1.000000,-3.000000,-6.000000,-11.000000,3.000000,-1.000000,-5.000000,0.000000
1306392.147627,-1.000000,10.000000,4.000000,10.000000,0.000000,-2.000000,1.000000,6.000000
1306392.161716,0.000000,-1.000000,1.000000,0.000000,-3.000000,0.000000,0.000000,-2.000000
1306392.161726,-2.000000,1.000000,-2.000000,3.000000,1.000000,0.000000,-2.000000,-2.000000
1306392.169511,7.000000,15.000000,6.000000,-2.000000,-2.000000,-3.000000,-2.000000,0.000000
1306392.169535,-36.000000,-6.000000,3.000000,16.000000,0.000000,-2.000000,-4.000000,-9.000000
1306392.199546,-1.000000,-5.000000,0.000000,-4.000000,-1.000000,-6.000000,1.000000,-3.000000
1306392.199576,-1.000000,7.000000,-4.000000,-11.000000,-4.000000,5.000000,-1.000000,-3.000000
1306392.206768,3.000000,-1.000000,-2.000000,1.000000,2.000000,-1.000000,-2.000000,1.000000
1306392.206784,-1.000000,-16.000000,-3.000000,-3.000000,1.000000,0.000000,0.000000,0.000000
1306392.229412,-3.000000,3.000000,-3.000000,-2.000000,0.000000,1.000000,0.000000,0.000000
1306392.229440,3.000000,12.000000,-2.000000,0.000000,-4.000000,1.000000,0.000000,1.000000
1306392.244495,-9.000000,-16.000000,-11.000000,-19.000000,-11.000000,-6.000000,-4.000000,-6.000000
1306392.244541,-1.000000,18.000000,1.000000,11.000000,5.000000,-2.000000,3.000000,1.000000
1306392.275014,1.000000,-4.000000,-3.000000,-6.000000,-4.000000,-2.000000,2.000000,-3.000000
1306392.275024,-2.000000,0.000000,5.000000,6.000000,-5.000000,-2.000000,0.000000,0.000000
1306392.275957,-3.000000,0.000000,-4.000000,-4.000000,-3.000000,-2.000000,-1.000000,-3.000000
1306392.275973,3.000000,7.000000,-3.000000,-3.000000,0.000000,0.000000,1.000000,0.000000
1306392.277172,3.000000,9.000000,5.000000,2.000000,-4.000000,-1.000000,-3.000000,1.000000
1306392.277190,-1.000000,-5.000000,-7.000000,-10.000000,-5.000000,0.000000,-1.000000,-4.000000
1306392.278017,1.000000,-2.000000,10.000000,4.000000,3.000000,1.000000,-3.000000,-1.000000
1306392.278025,1.000000,-18.000000,-3.000000,-7.000000,-6.000000,-8.000000,0.000000,-2.000000
1306392.289159,-2.000000,-6.000000,-2.000000,-3.000000,-1.000000,-3.000000,1.000000,0.000000
1306392.289170,1.000000,1.000000,-3.000000,-3.000000,0.000000,-2.000000,0.000000,-1.000000
1306392.311984,1.000000,5.000000,0.000000,-5.000000,-2.000000,0.000000,-3.000000,1.000000
1306392.312000,-1.000000,2.000000,-4.000000,-13.000000,-1.000000,0.000000,-2.000000,-2.000000
1306392.313195,2.000000,7.000000,-4.000000,-9.000000,-3.000000,-6.000000,1.000000,-1.000000
1306392.313210,-1.000000,12.000000,16.000000,15.000000,1.000000,1.000000,5.000000,0.000000
1306392.326903,-1.000000,-7.000000,2.000000,7.000000,0.000000,-1.000000,0.000000,-1.000000
1306392.326920,-3.000000,-12.000000,-5.000000,-4.000000,1.000000,-1.000000,1.000000,1.000000
1306392.327271,2.000000,-1.000000,-2.000000,-6.000000,-4.000000,-5.000000,0.000000,0.000000
1306392.327317,-3.000000,3.000000,-5.000000,1.000000,-2.000000,-1.000000,0.000000,-3.000000
1306392.356970,2.000000,-5.000000,-1.000000,-5.000000,4.000000,-1.000000,3.000000,1.000000
1306392.357014,0.000000,4.000000,4.000000,-1.000000,0.000000,-1.000000,-1.000000,0.000000
1306392.364209,-1.000000,3.000000,-1.000000,3.000000,-2.000000,-1.000000,-4.000000,-2.000000
1306392.364261,-1.000000,-5.000000,-6.000000,-7.000000,-3.000000,-4.000000,-2.000000,3.000000
1306392.386824,-1.000000,-6.000000,-3.000000,-3.000000,0.000000,-4.000000,-1.000000,-3.000000
1306392.386834,-5.000000,13.000000,1.000000,3.000000,1.000000,2.000000,-3.000000,-2.000000
1306392.409166,0.000000,-4.000000,2.000000,-9.000000,-1.000000,3.000000,1.000000,-1.000000
1306392.409176,-1.000000,-12.000000,-1.000000,-12.000000,-5.000000,-3.000000,0.000000,0.000000
1306392.424568,-1.000000,-4.000000,0.000000,3.000000,-1.000000,-5.000000,-1.000000,-2.000000
1306392.424603,-4.000000,-7.000000,-16.000000,-35.000000,-13.000000,-5.000000,-1.000000,-3.000000
1306392.425110,-2.000000,-12.000000,0.000000,-1.000000,0.000000,-2.000000,3.000000,-3.000000
1306392.425152,0.000000,1.000000,-7.000000,-15.000000,-4.000000,0.000000,-1.000000,1.000000
1306392.426537,0.000000,7.000000,-1.000000,0.000000,0.000000,0.000000,-1.000000,1.000000
1306392.426550,-4.000000,-10.000000,-4.000000,0.000000,4.000000,-5.000000,0.000000,-3.000000
1306392.427040,-4.000000,-13.000000,-5.000000,1.000000,1.000000,-2.000000,-1.000000,0.000000
1306392.427066,-4.000000,3.000000,-6.000000,5.000000,0.000000,-3.000000,-3.000000,-2.000000
1306392.427883,-5.000000,1.000000,2.000000,9.000000,3.000000,0.000000,-1.000000,-4.000000
1306392.427891,0.000000,2.000000,0.000000,-6.000000,2.000000,-3.000000,-3.000000,-2.000000
1306392.476673,-2.000000,-17.000000,1.000000,0.000000,-2.000000,-1.000000,-1.000000,-2.000000
1306392.476685,-3.000000,6.000000,-4.000000,-6.000000,-2.000000,-1.000000,0.000000,-1.000000
1306392.484435,-2.000000,5.000000,-3.000000,1.000000,3.000000,1.000000,-2.000000,1.000000
1306392.484448,3.000000,-2.000000,-3.000000,-3.000000,-3.000000,0.000000,2.000000,-1.000000
1306392.506578,-6.000000,-8.000000,3.000000,0.000000,0.000000,-1.000000,-1.000000,-2.000000
1306392.506598,-5.000000,5.000000,0.000000,-21.000000,-6.000000,0.000000,-1.000000,-4.000000
1306392.521443,0.000000,-10.000000,-1.000000,-1.000000,-2.000000,-4.000000,-1.000000,0.000000
1306392.521452,-2.000000,-8.000000,1.000000,5.000000,0.000000,-5.000000,-1.000000,-1.000000
1306392.529696,-2.000000,-10.000000,2.000000,6.000000,4.000000,-2.000000,-2.000000,-2.000000
1306392.529708,-3.000000,2.000000,5.000000,2.000000,2.000000,3.000000,-2.000000,-3.000000
1306392.530728,-6.000000,9.000000,-1.000000,-1.000000,-1.000000,-4.000000,-2.000000,-4.000000
1306392.530736,-3.000000,-9.000000,-5.000000,-5.000000,0.000000,1.000000,0.000000,-4.000000
1306392.531372,-4.000000,-7.000000,-8.000000,4.000000,1.000000,-2.000000,2.000000,-2.000000
1306392.531379,1.000000,18.000000,4.000000,-7.000000,1.000000,0.000000,-3.000000,-1.000000
1306392.532312,-8.000000,5.000000,-10.000000,-13.000000,-6.000000,0.000000,0.000000,0.000000
1306392.532320,0.000000,-8.000000,4.000000,8.000000,-1.000000,-3.000000,-4.000000,1.000000
1306392.544530,2.000000,-10.000000,-6.000000,-10.000000,1.000000,0.000000,3.000000,-4.000000
1306392.544560,2.000000,0.000000,0.000000,2.000000,0.000000,0.000000,1.000000,-2.000000
1306392.545297,2.000000,12.000000,4.000000,2.000000,1.000000,2.000000,-3.000000,2.000000
1306392.545306,0.000000,-6.000000,-7.000000,-1.000000,-2.000000,0.000000,-2.000000,-3.000000
1306392.567040,0.000000,2.000000,-4.000000,-7.000000,0.000000,-3.000000,1.000000,-1.000000
1306392.567049,-3.000000,-2.000000,-2.000000,-3.000000,-1.000000,-4.000000,-2.000000,-2.000000
1306392.567744,-4.000000,3.000000,1.000000,11.000000,1.000000,-4.000000,-2.000000,-3.000000
1306392.567753,-2.000000,-11.000000,-5.000000,-3.000000,-1.000000,-6.000000,1.000000,1.000000
1306392.581629,-3.000000,1.000000,-3.000000,1.000000,-7.000000,0.000000,-4.000000,-7.000000
1306392.581639,1.000000,-3.000000,-1.000000,1.000000,-2.000000,-2.000000,-2.000000,1.000000
1306392.589017,2.000000,-21.000000,-3.000000,7.000000,-3.000000,-2.000000,1.000000,1.000000
1306392.589028,3.000000,4.000000,0.000000,0.000000,-4.000000,1.000000,1.000000,0.000000
1306392.626965,-3.000000,6.000000,4.000000,-4.000000,2.000000,0.000000,-6.000000,-1.000000
1306392.626991,-1.000000,-12.000000,0.000000,21.000000,2.000000,-2.000000,3.000000,3.000000
1306392.642400,0.000000,5.000000,0.000000,-18.000000,-2.000000,-5.000000,0.000000,2.000000
1306392.642562,0.000000,15.000000,0.000000,-4.000000,-3.000000,-1.000000,-4.000000,-2.000000
1306392.643245,-1.000000,-6.000000,-1.000000,5.000000,2.000000,1.000000,3.000000,1.000000
1306392.643305,-4.000000,-12.000000,-4.000000,9.000000,-1.000000,-3.000000,2.000000,-5.000000
1306392.643408,0.000000,6.000000,-4.000000,0.000000,1.000000,1.000000,-2.000000,-2.000000
1306392.643416,-1.000000,0.000000,0.000000,-1.000000,-1.000000,-1.000000,-2.000000,-4.000000
1306392.645050,-3.000000,-15.000000,-4.000000,2.000000,1.000000,-3.000000,0.000000,1.000000
1306392.645067,-3.000000,-4.000000,-6.000000,0.000000,-3.000000,-3.000000,1.000000,-1.000000
1306392.649084,-5.000000,-2.000000,-1.000000,-13.000000,0.000000,1.000000,-1.000000,-1.000000
1306392.649093,0.000000,-8.000000,-5.000000,2.000000,2.000000,-1.000000,3.000000,-1.000000
1306392.664384,0.000000,0.000000,-2.000000,-2.000000,2.000000,-2.000000,-3.000000,0.000000
1306392.664392,-2.000000,7.000000,1.000000,-1.000000,0.000000,2.000000,0.000000,-1.000000
1306392.665509,2.000000,1.000000,5.000000,-5.000000,-2.000000,0.000000,-4.000000,0.000000
1306392.665519,-3.000000,-8.000000,-4.000000,5.000000,-2.000000,-5.000000,-3.000000,-1.000000
1306392.687100,-3.000000,-1.000000,-5.000000,-5.000000,1.000000,4.000000,-3.000000,-2.000000
1306392.687117,2.000000,-7.000000,-4.000000,-12.000000,-1.000000,-1.000000,-2.000000,-1.000000
1306392.687908,-1.000000,-13.000000,-5.000000,-6.000000,-3.000000,-5.000000,0.000000,-1.000000
1306392.687925,0.000000,2.000000,-4.000000,-6.000000,-2.000000,1.000000,0.000000,-2.000000
1306392.716823,4.000000,3.000000,3.000000,2.000000,-2.000000,0.000000,1.000000,-1.000000
1306392.716834,0.000000,-7.000000,0.000000,-5.000000,4.000000,-3.000000,1.000000,-1.000000
1306392.746716,0.000000,0.000000,-2.000000,-4.000000,1.000000,0.000000,-3.000000,1.000000
1306392.746726,0.000000,4.000000,-3.000000,6.000000,1.000000,1.000000,-3.000000,1.000000
1306392.784023,2.000000,0.000000,-1.000000,-12.000000,-3.000000,2.000000,0.000000,1.000000
1306392.784041,2.000000,-16.000000,-6.000000,5.000000,0.000000,-2.000000,0.000000,-2.000000
1306392.791502,0.000000,13.000000,3.000000,-3.000000,-3.000000,2.000000,-5.000000,-4.000000
1306392.791512,1.000000,2.000000,2.000000,5.000000,-5.000000,-4.000000,-2.000000,-2.000000
1306392.806726,-1.000000,-14.000000,-2.000000,0.000000,0.000000,0.000000,0.000000,-2.000000
1306392.806737,-5.000000,-7.000000,2.000000,7.000000,0.000000,1.000000,-1.000000,-1.000000
1306392.807009,-1.000000,0.000000,0.000000,10.000000,1.000000,-1.000000,-2.000000,-2.000000
1306392.807016,-5.000000,-9.000000,0.000000,-2.000000,-1.000000,-5.000000,-2.000000,2.000000
1306392.807800,-1.000000,0.000000,-1.000000,1.000000,-1.000000,0.000000,0.000000,1.000000
1306392.807809,-6.000000,-5.000000,2.000000,0.000000,-6.000000,-6.000000,0.000000,-5.000000
1306392.808212,-1.000000,-8.000000,-3.000000,-6.000000,2.000000,1.000000,2.000000,-3.000000
1306392.808220,3.000000,2.000000,-2.000000,2.000000,-3.000000,0.000000,-1.000000,0.000000
1306392.808837,3.000000,11.000000,0.000000,0.000000,-1.000000,1.000000,-4.000000,-2.000000
1306392.808845,-7.000000,-28.000000,-1.000000,6.000000,0.000000,1.000000,1.000000,-3.000000
1306392.809727,-4.000000,3.000000,-1.000000,-5.000000,1.000000,-2.000000,0.000000,-2.000000
1306392.809736,0.000000,10.000000,-3.000000,-6.000000,-1.000000,2.000000,-3.000000,3.000000
1306392.829128,2.000000,-2.000000,-1.000000,4.000000,2.000000,0.000000,0.000000,-2.000000
1306392.829138,-3.000000,-9.000000,-3.000000,6.000000,5.000000,-4.000000,1.000000,-1.000000
1306392.844331,-3.000000,10.000000,-10.000000,-5.000000,-1.000000,5.000000,0.000000,-2.000000
1306392.844342,0.000000,-1.000000,-3.000000,4.000000,1.000000,3.000000,0.000000,0.000000
1306392.881642,0.000000,-10.000000,-1.000000,-1.000000,-4.000000,-4.000000,0.000000,-2.000000
1306392.881662,3.000000,-4.000000,-2.000000,0.000000,1.000000,0.000000,-3.000000,-4.000000
1306392.904287,0.000000,16.000000,4.000000,-8.000000,-2.000000,0.000000,-2.000000,-4.000000
1306392.904299,0.000000,-10.000000,-4.000000,-4.000000,-3.000000,-3.000000,-1.000000,2.000000
1306392.905129,1.000000,4.000000,-6.000000,-4.000000,-1.000000,2.000000,2.000000,1.000000
1306392.905137,0.000000,8.000000,5.000000,2.000000,3.000000,0.000000,-2.000000,1.000000
1306392.905742,1.000000,1.000000,1.000000,7.000000,2.000000,3.000000,2.000000,-1.000000
1306392.905760,-2.000000,-10.000000,-4.000000,-5.000000,-2.000000,0.000000,1.000000,-3.000000
1306392.907227,-1.000000,-5.000000,-3.000000,-5.000000,-3.000000,-1.000000,-2.000000,-4.000000
1306392.907242,-6.000000,-6.000000,-5.000000,-8.000000,-5.000000,-5.000000,-4.000000,-4.000000
1306392.919643,1.000000,-7.000000,-1.000000,-4.000000,4.000000,1.000000,1.000000,1.000000
1306392.919652,-6.000000,4.000000,0.000000,-5.000000,-2.000000,-5.000000,-2.000000,-7.000000
1306392.926563,-3.000000,4.000000,-9.000000,6.000000,0.000000,0.000000,0.000000,-1.000000
1306392.926584,0.000000,-6.000000,-4.000000,-9.000000,0.000000,-2.000000,-1.000000,-2.000000
1306392.934577,-2.000000,-9.000000,2.000000,0.000000,-2.000000,-3.000000,2.000000,-1.000000
1306392.934586,-2.000000,0.000000,-1.000000,4.000000,-1.000000,-4.000000,-1.000000,-1.000000
1306392.949347,1.000000,1.000000,-1.000000,2.000000,4.000000,2.000000,1.000000,0.000000
1306392.949359,1.000000,-7.000000,-2.000000,-16.000000,-1.000000,1.000000,1.000000,0.000000
1306392.986670,1.000000,3.000000,-3.000000,-7.000000,-2.000000,2.000000,0.000000,-1.000000
1306392.986685,1.000000,3.000000,-2.000000,0.000000,-1.000000,-4.000000,-2.000000,1.000000
1306392.987002,2.000000,-3.000000,1.000000,-1.000000,-1.000000,1.000000,-5.000000,-1.000000
1306392.987012,0.000000,-3.000000,2.000000,1.000000,2.000000,-1.000000,2.000000,-1.000000
1306392.989024,-2.000000,10.000000,4.000000,-1.000000,-2.000000,-3.000000,-1.000000,-4.000000
1306392.989036,1.000000,-3.000000,-8.000000,-1.000000,-1.000000,1.000000,1.000000,0.000000
1306392.990158,-3.000000,-10.000000,-2.000000,-10.000000,-5.000000,-6.000000,-6.000000,-2.000000
1306392.990171,1.000000,5.000000,3.000000,-3.000000,0.000000,-4.000000,-2.000000,2.000000
1306392.994755,1.000000,-1.000000,-9.000000,-12.000000,1.000000,2.000000,-4.000000,-3.000000
