# participant_id: P6
# gesture: soft
# trial_number: 1
# stream_name: Myo_EMG
# stream_type: emg
# timestamp: 20260420_141928
# samples: 7530
# duration_sec: 41.619
# nominal_sample_rate: 200.0
# effective_sample_rate: 180.90
#
timestamp,emg_1,emg_2,emg_3,emg_4,emg_5,emg_6,emg_7,emg_8
1299449.092477,-56.000000,-8.000000,48.000000,1.000000,-6.000000,2.000000,25.000000,-10.000000
1299449.092511,39.000000,23.000000,-19.000000,4.000000,6.000000,-5.000000,-26.000000,5.000000
1299449.122791,3.000000,4.000000,-8.000000,-6.000000,-5.000000,3.000000,1.000000,1.000000
1299449.122844,7.000000,-18.000000,37.000000,7.000000,-4.000000,-5.000000,-1.000000,5.000000
1299449.124034,-3.000000,14.000000,-17.000000,7.000000,7.000000,5.000000,19.000000,0.000000
1299449.124051,30.000000,23.000000,-45.000000,-6.000000,5.000000,1.000000,-19.000000,-3.000000
1299449.125027,-15.000000,-27.000000,33.000000,-1.000000,-6.000000,-7.000000,12.000000,1.000000
1299449.125245,-38.000000,-4.000000,32.000000,5.000000,2.000000,-3.000000,4.000000,-9.000000
1299449.126172,17.000000,22.000000,-17.000000,3.000000,2.000000,8.000000,1.000000,4.000000
1299449.126204,16.000000,-1.000000,-37.000000,5.000000,1.000000,1.000000,20.000000,8.000000
1299449.130042,-17.000000,-12.000000,72.000000,2.000000,-14.000000,-9.000000,-12.000000,-21.000000
1299449.130117,-19.000000,29.000000,-58.000000,-10.000000,6.000000,1.000000,-15.000000,-1.000000
1299449.160397,47.000000,10.000000,-6.000000,-26.000000,5.000000,11.000000,26.000000,20.000000
1299449.160430,-44.000000,-36.000000,19.000000,-13.000000,-9.000000,-20.000000,-19.000000,-17.000000
1299449.167710,35.000000,15.000000,10.000000,8.000000,4.000000,8.000000,19.000000,10.000000
1299449.167728,-9.000000,18.000000,-53.000000,-8.000000,0.000000,-2.000000,-42.000000,-11.000000
1299449.197501,23.000000,-10.000000,46.000000,5.000000,-4.000000,1.000000,12.000000,8.000000
1299449.197527,-49.000000,-13.000000,-7.000000,0.000000,0.000000,-14.000000,-5.000000,-1.000000
1299449.198191,-2.000000,51.000000,-64.000000,32.000000,8.000000,7.000000,2.000000,-2.000000
1299449.198208,27.000000,-9.000000,21.000000,-23.000000,-6.000000,-2.000000,-1.000000,4.000000
1299449.199441,-8.000000,-16.000000,63.000000,-16.000000,-6.000000,-3.000000,4.000000,-5.000000
1299449.199473,-5.000000,17.000000,-54.000000,4.000000,16.000000,7.000000,3.000000,1.000000
1299449.200169,14.000000,-7.000000,-2.000000,-6.000000,-9.000000,0.000000,-1.000000,1.000000
1299449.200202,-12.000000,-20.000000,73.000000,18.000000,-9.000000,-8.000000,2.000000,3.000000
1299449.201536,-17.000000,4.000000,-34.000000,-9.000000,0.000000,5.000000,-7.000000,-10.000000
1299449.201552,29.000000,17.000000,-10.000000,12.000000,2.000000,2.000000,5.000000,-4.000000
1299449.205191,-4.000000,-18.000000,28.000000,11.000000,-10.000000,-6.000000,-22.000000,14.000000
1299449.205215,-14.000000,6.000000,18.000000,-4.000000,-8.000000,-7.000000,19.000000,1.000000
1299449.235224,47.000000,37.000000,-18.000000,23.000000,5.000000,1.000000,-17.000000,-10.000000
1299449.235258,-7.000000,-18.000000,-20.000000,-54.000000,-3.000000,6.000000,18.000000,12.000000
1299449.242568,-17.000000,-32.000000,30.000000,8.000000,-1.000000,0.000000,3.000000,-4.000000
1299449.242601,-20.000000,20.000000,0.000000,-8.000000,8.000000,7.000000,6.000000,-3.000000
1299449.257670,24.000000,-33.000000,-7.000000,-5.000000,3.000000,-1.000000,-4.000000,4.000000
1299449.257703,-47.000000,-43.000000,17.000000,8.000000,-5.000000,-4.000000,-4.000000,0.000000
1299449.280205,-54.000000,-6.000000,-8.000000,-17.000000,-6.000000,0.000000,3.000000,2.000000
1299449.280474,50.000000,5.000000,-38.000000,-1.000000,11.000000,12.000000,-1.000000,8.000000
1299449.281669,-12.000000,-35.000000,44.000000,0.000000,-15.000000,-9.000000,13.000000,-10.000000
1299449.281830,-18.000000,-5.000000,10.000000,7.000000,5.000000,1.000000,-4.000000,-8.000000
1299449.282612,-8.000000,38.000000,-34.000000,-15.000000,-3.000000,-6.000000,-24.000000,3.000000
1299449.282816,-1.000000,-13.000000,-1.000000,8.000000,-2.000000,5.000000,4.000000,-4.000000
1299449.283880,18.000000,-25.000000,43.000000,9.000000,-8.000000,3.000000,21.000000,0.000000
1299449.283898,-52.000000,44.000000,-31.000000,-25.000000,0.000000,2.000000,-34.000000,-18.000000
1299449.287363,41.000000,-9.000000,-1.000000,18.000000,6.000000,-5.000000,-1.000000,13.000000
1299449.287377,-25.000000,-23.000000,17.000000,-9.000000,-10.000000,1.000000,9.000000,-5.000000
1299449.310739,-20.000000,17.000000,-21.000000,1.000000,2.000000,4.000000,3.000000,2.000000
1299449.310767,16.000000,14.000000,-17.000000,-4.000000,6.000000,5.000000,0.000000,7.000000
1299449.311340,-11.000000,-19.000000,19.000000,23.000000,-4.000000,-1.000000,14.000000,5.000000
1299449.311373,-10.000000,5.000000,42.000000,19.000000,4.000000,5.000000,-13.000000,-3.000000
1299449.318226,8.000000,35.000000,-26.000000,-20.000000,5.000000,-2.000000,1.000000,2.000000
1299449.318256,26.000000,-4.000000,7.000000,-6.000000,2.000000,6.000000,11.000000,-3.000000
1299449.324869,-18.000000,-9.000000,34.000000,16.000000,-12.000000,-2.000000,-4.000000,-4.000000
1299449.324886,11.000000,16.000000,-61.000000,-26.000000,6.000000,6.000000,5.000000,16.000000
1299449.340067,28.000000,-12.000000,-16.000000,23.000000,-5.000000,-8.000000,-24.000000,-8.000000
1299449.340085,21.000000,-35.000000,50.000000,20.000000,-6.000000,-9.000000,2.000000,-11.000000
1299449.355098,-11.000000,31.000000,-47.000000,-1.000000,4.000000,5.000000,9.000000,6.000000
1299449.355131,28.000000,22.000000,-32.000000,-12.000000,1.000000,2.000000,11.000000,6.000000
1299449.370371,-5.000000,-23.000000,-6.000000,-19.000000,-6.000000,-5.000000,-1.000000,-4.000000
1299449.370437,-13.000000,26.000000,13.000000,6.000000,1.000000,0.000000,-1.000000,-1.000000
1299449.400052,24.000000,41.000000,-36.000000,-4.000000,-1.000000,5.000000,7.000000,6.000000
1299449.400193,19.000000,-16.000000,11.000000,58.000000,-3.000000,-7.000000,-19.000000,-3.000000
1299449.401061,-40.000000,-10.000000,27.000000,-57.000000,-11.000000,-5.000000,18.000000,2.000000
1299449.401086,15.000000,19.000000,-34.000000,0.000000,3.000000,-1.000000,-7.000000,1.000000
1299449.401785,12.000000,-21.000000,23.000000,8.000000,0.000000,2.000000,-3.000000,7.000000
1299449.401816,-52.000000,-25.000000,22.000000,-5.000000,-10.000000,-3.000000,16.000000,-9.000000
1299449.403220,-25.000000,21.000000,0.000000,-21.000000,7.000000,-1.000000,-29.000000,-10.000000
1299449.403249,27.000000,-10.000000,-25.000000,0.000000,4.000000,3.000000,4.000000,13.000000
1299449.407733,4.000000,-21.000000,24.000000,-2.000000,-7.000000,-5.000000,6.000000,-2.000000
1299449.407768,-29.000000,10.000000,29.000000,-4.000000,-2.000000,1.000000,1.000000,1.000000
1299449.437543,33.000000,47.000000,-31.000000,-1.000000,6.000000,7.000000,-2.000000,3.000000
1299449.437583,0.000000,-24.000000,-9.000000,-5.000000,-1.000000,3.000000,4.000000,0.000000
1299449.438090,-15.000000,2.000000,36.000000,22.000000,-11.000000,-1.000000,22.000000,1.000000
1299449.438125,-11.000000,20.000000,-24.000000,-15.000000,11.000000,-7.000000,-29.000000,-10.000000
1299449.444901,-8.000000,-16.000000,-28.000000,-33.000000,-7.000000,2.000000,17.000000,-2.000000
1299449.444919,-25.000000,-14.000000,27.000000,17.000000,-6.000000,-6.000000,-2.000000,-5.000000
1299449.452668,-2.000000,38.000000,-4.000000,-11.000000,-2.000000,-2.000000,-20.000000,-11.000000
1299449.452702,9.000000,20.000000,-20.000000,-4.000000,3.000000,8.000000,13.000000,8.000000
1299449.482689,-1.000000,-25.000000,16.000000,1.000000,-10.000000,-9.000000,7.000000,-7.000000
1299449.482721,-38.000000,-11.000000,20.000000,17.000000,4.000000,-2.000000,-26.000000,4.000000
1299449.489965,59.000000,12.000000,-37.000000,23.000000,15.000000,10.000000,15.000000,10.000000
1299449.489982,-24.000000,-24.000000,31.000000,-13.000000,-7.000000,-3.000000,2.000000,3.000000
1299449.491211,16.000000,-21.000000,-6.000000,-43.000000,-11.000000,-5.000000,-7.000000,-3.000000
1299449.491238,8.000000,17.000000,2.000000,-14.000000,10.000000,2.000000,14.000000,9.000000
1299449.491913,32.000000,2.000000,-6.000000,-7.000000,-2.000000,-1.000000,-4.000000,11.000000
1299449.491945,-9.000000,-15.000000,37.000000,15.000000,-6.000000,-6.000000,-6.000000,-12.000000
1299449.513447,-18.000000,25.000000,-15.000000,-16.000000,9.000000,8.000000,27.000000,-4.000000
1299449.513515,33.000000,0.000000,-23.000000,10.000000,2.000000,8.000000,21.000000,13.000000
1299449.514103,-41.000000,-37.000000,29.000000,-25.000000,-17.000000,-17.000000,-76.000000,-22.000000
1299449.514444,-23.000000,2.000000,12.000000,30.000000,-2.000000,1.000000,7.000000,-2.000000
1299449.520137,33.000000,43.000000,-37.000000,40.000000,17.000000,12.000000,32.000000,-6.000000
1299449.520154,26.000000,-50.000000,6.000000,-12.000000,4.000000,-1.000000,8.000000,26.000000
1299449.527432,-91.000000,-11.000000,24.000000,6.000000,-4.000000,-16.000000,-12.000000,-14.000000
1299449.527464,19.000000,15.000000,-44.000000,-1.000000,1.000000,1.000000,-10.000000,-16.000000
1299449.542590,37.000000,5.000000,-3.000000,-12.000000,-7.000000,0.000000,19.000000,20.000000
1299449.542624,9.000000,-16.000000,54.000000,20.000000,-8.000000,-7.000000,-5.000000,1.000000
1299449.557609,-44.000000,48.000000,-3.000000,-10.000000,5.000000,-4.000000,-5.000000,-16.000000
1299449.557643,13.000000,9.000000,-31.000000,-5.000000,4.000000,9.000000,7.000000,7.000000
1299449.580089,0.000000,-16.000000,38.000000,-37.000000,-10.000000,-9.000000,9.000000,4.000000
1299449.580122,-15.000000,34.000000,2.000000,-3.000000,4.000000,-7.000000,-28.000000,-14.000000
1299449.595109,6.000000,17.000000,-61.000000,0.000000,2.000000,1.000000,-5.000000,9.000000
1299449.595128,7.000000,-37.000000,40.000000,-1.000000,-5.000000,-4.000000,16.000000,5.000000
1299449.610293,-20.000000,-14.000000,1.000000,5.000000,-4.000000,2.000000,31.000000,4.000000
1299449.610327,0.000000,33.000000,-16.000000,11.000000,1.000000,1.000000,-41.000000,-13.000000
1299449.632780,12.000000,6.000000,-11.000000,-2.000000,-3.000000,0.000000,12.000000,11.000000
1299449.632810,-14.000000,-21.000000,65.000000,6.000000,2.000000,-8.000000,8.000000,-14.000000
1299449.641030,-16.000000,50.000000,-57.000000,-3.000000,-1.000000,5.000000,0.000000,16.000000
1299449.641058,23.000000,-7.000000,-5.000000,20.000000,7.000000,2.000000,1.000000,1.000000
1299449.641337,-36.000000,-7.000000,55.000000,-1.000000,-10.000000,-4.000000,7.000000,-7.000000
1299449.641361,-22.000000,2.000000,-14.000000,-24.000000,7.000000,6.000000,11.000000,1.000000
1299449.642964,17.000000,5.000000,-41.000000,34.000000,6.000000,6.000000,2.000000,-6.000000
1299449.642996,28.000000,-41.000000,34.000000,3.000000,-5.000000,-6.000000,-11.000000,9.000000
1299449.643586,-15.000000,31.000000,18.000000,6.000000,-5.000000,-9.000000,10.000000,-13.000000
1299449.643620,5.000000,20.000000,-25.000000,-4.000000,8.000000,7.000000,-14.000000,-3.000000
1299449.647773,6.000000,26.000000,-28.000000,7.000000,10.000000,2.000000,-12.000000,-9.000000
1299449.647792,20.000000,11.000000,0.000000,15.000000,0.000000,0.000000,-4.000000,7.000000
1299449.677685,-3.000000,0.000000,-22.000000,-20.000000,-4.000000,-3.000000,9.000000,2.000000
1299449.677763,-12.000000,17.000000,0.000000,5.000000,3.000000,-2.000000,4.000000,-2.000000
1299449.685078,-12.000000,10.000000,-23.000000,1.000000,7.000000,5.000000,-1.000000,-12.000000
1299449.685095,30.000000,-48.000000,37.000000,-5.000000,-16.000000,-7.000000,0.000000,25.000000
1299449.715456,-9.000000,-22.000000,12.000000,2.000000,3.000000,-11.000000,-30.000000,-8.000000
1299449.715603,-3.000000,18.000000,-38.000000,26.000000,7.000000,6.000000,6.000000,1.000000
1299449.722852,26.000000,3.000000,22.000000,-14.000000,-5.000000,2.000000,14.000000,10.000000
1299449.722887,-21.000000,7.000000,15.000000,1.000000,-3.000000,0.000000,9.000000,-8.000000
1299449.752945,3.000000,26.000000,4.000000,-24.000000,3.000000,2.000000,-27.000000,-15.000000
1299449.752981,33.000000,3.000000,-20.000000,18.000000,8.000000,4.000000,5.000000,18.000000
1299449.760175,-23.000000,-18.000000,29.000000,-15.000000,-9.000000,-6.000000,0.000000,-1.000000
1299449.760191,-9.000000,-4.000000,-2.000000,2.000000,-1.000000,-4.000000,-1.000000,-4.000000
1299449.775166,22.000000,27.000000,-27.000000,-11.000000,3.000000,6.000000,1.000000,2.000000
1299449.775185,10.000000,-14.000000,36.000000,0.000000,-7.000000,-1.000000,9.000000,1.000000
1299449.790026,-13.000000,-3.000000,21.000000,34.000000,3.000000,-4.000000,3.000000,-3.000000
1299449.790161,26.000000,14.000000,-28.000000,-25.000000,10.000000,9.000000,5.000000,0.000000
1299449.790490,15.000000,-2.000000,6.000000,26.000000,4.000000,0.000000,-14.000000,9.000000
1299449.790507,-75.000000,-28.000000,26.000000,-16.000000,-10.000000,-8.000000,2.000000,-17.000000
1299449.791296,3.000000,27.000000,-19.000000,-2.000000,9.000000,6.000000,0.000000,-2.000000
1299449.791324,22.000000,3.000000,-13.000000,3.000000,3.000000,4.000000,-3.000000,8.000000
1299449.792065,8.000000,40.000000,-24.000000,-11.000000,12.000000,3.000000,-19.000000,13.000000
1299449.792166,-5.000000,-34.000000,19.000000,-20.000000,0.000000,-4.000000,-6.000000,-19.000000
1299449.793472,16.000000,-5.000000,10.000000,16.000000,-2.000000,2.000000,13.000000,2.000000
1299449.793572,-23.000000,-22.000000,23.000000,1.000000,0.000000,-1.000000,8.000000,-1.000000
1299449.805456,-5.000000,23.000000,-25.000000,-14.000000,9.000000,2.000000,-12.000000,-2.000000
1299449.805490,32.000000,-1.000000,-14.000000,15.000000,2.000000,1.000000,-18.000000,8.000000
1299449.828229,5.000000,-18.000000,19.000000,-2.000000,-11.000000,-4.000000,6.000000,-1.000000
1299449.828256,-16.000000,8.000000,1.000000,-5.000000,-1.000000,1.000000,0.000000,-5.000000
1299449.850036,13.000000,-5.000000,-57.000000,-6.000000,4.000000,4.000000,-2.000000,-2.000000
1299449.850177,13.000000,-10.000000,23.000000,-1.000000,-4.000000,-1.000000,19.000000,10.000000
1299449.850615,-1.000000,-3.000000,18.000000,23.000000,0.000000,-3.000000,-19.000000,-6.000000
1299449.850635,-38.000000,43.000000,-36.000000,-38.000000,8.000000,1.000000,-12.000000,-10.000000
1299449.866180,33.000000,3.000000,-10.000000,2.000000,-6.000000,-4.000000,-3.000000,0.000000
1299449.866207,-27.000000,-17.000000,27.000000,-25.000000,-10.000000,-6.000000,-13.000000,-3.000000
1299449.866402,-21.000000,18.000000,-35.000000,8.000000,8.000000,3.000000,6.000000,4.000000
1299449.866429,55.000000,-4.000000,-21.000000,-20.000000,4.000000,17.000000,42.000000,9.000000
1299449.867500,-25.000000,-32.000000,24.000000,-26.000000,-17.000000,-23.000000,-31.000000,-5.000000
1299449.867527,-45.000000,-128.000000,73.000000,8.000000,-21.000000,-16.000000,-31.000000,-18.000000
1299449.872729,29.000000,38.000000,-99.000000,-16.000000,-3.000000,15.000000,17.000000,5.000000
1299449.872755,5.000000,-21.000000,20.000000,-11.000000,-8.000000,0.000000,8.000000,-2.000000
1299449.880245,-7.000000,-1.000000,24.000000,13.000000,-5.000000,-1.000000,20.000000,5.000000
1299449.880280,7.000000,28.000000,-29.000000,-27.000000,4.000000,1.000000,-11.000000,-10.000000
1299449.887785,15.000000,-25.000000,-18.000000,6.000000,9.000000,-4.000000,-27.000000,-4.000000
1299449.887814,-28.000000,-8.000000,38.000000,15.000000,-8.000000,-5.000000,13.000000,-1.000000
1299449.909962,33.000000,34.000000,-25.000000,-16.000000,0.000000,11.000000,14.000000,13.000000
1299449.910005,14.000000,2.000000,-3.000000,2.000000,14.000000,12.000000,7.000000,10.000000
1299449.910664,-77.000000,-77.000000,33.000000,-1.000000,2.000000,-8.000000,-22.000000,-15.000000
1299449.910694,-16.000000,29.000000,-106.000000,-8.000000,-6.000000,-7.000000,-7.000000,-8.000000
1299449.925243,48.000000,11.000000,20.000000,9.000000,7.000000,5.000000,7.000000,13.000000
1299449.925262,15.000000,-3.000000,32.000000,10.000000,-10.000000,-3.000000,4.000000,-3.000000
1299449.940254,-14.000000,-4.000000,17.000000,18.000000,-1.000000,1.000000,-21.000000,-1.000000
1299449.940272,-11.000000,34.000000,-45.000000,-20.000000,6.000000,-12.000000,-34.000000,-24.000000
1299449.962395,22.000000,-29.000000,12.000000,1.000000,-4.000000,11.000000,9.000000,7.000000
1299449.962413,-21.000000,-14.000000,32.000000,-4.000000,-5.000000,-4.000000,10.000000,4.000000
1299449.992852,-3.000000,18.000000,-31.000000,-7.000000,5.000000,11.000000,16.000000,2.000000
1299449.992870,1.000000,-21.000000,-23.000000,-16.000000,0.000000,0.000000,-34.000000,-11.000000
1299449.994080,-40.000000,-47.000000,30.000000,29.000000,1.000000,-9.000000,-7.000000,-4.000000
1299449.994221,-23.000000,24.000000,5.000000,-11.000000,-3.000000,3.000000,4.000000,-14.000000
1299449.994514,48.000000,29.000000,-10.000000,13.000000,-1.000000,-2.000000,9.000000,13.000000
1299449.994547,-9.000000,-34.000000,6.000000,-12.000000,-1.000000,-5.000000,-17.000000,-3.000000
1299449.995654,-66.000000,5.000000,30.000000,11.000000,-6.000000,-11.000000,-3.000000,-13.000000
1299449.995682,38.000000,31.000000,-47.000000,8.000000,7.000000,11.000000,0.000000,4.000000
1299449.996574,6.000000,-17.000000,8.000000,-5.000000,-3.000000,-4.000000,8.000000,4.000000
1299449.996591,-27.000000,-4.000000,43.000000,7.000000,-1.000000,-5.000000,-20.000000,-7.000000
1299450.000153,1.000000,14.000000,-11.000000,2.000000,4.000000,0.000000,-12.000000,-1.000000
1299450.000187,-1.000000,-6.000000,-44.000000,-3.000000,-4.000000,2.000000,7.000000,3.000000
1299450.007486,-5.000000,-29.000000,55.000000,-1.000000,-10.000000,-8.000000,3.000000,-3.000000
1299450.007502,-16.000000,22.000000,-12.000000,-13.000000,1.000000,2.000000,-3.000000,-14.000000
1299450.030337,36.000000,-10.000000,-27.000000,6.000000,2.000000,4.000000,-24.000000,1.000000
1299450.030370,-27.000000,-23.000000,30.000000,7.000000,-4.000000,-5.000000,-20.000000,-4.000000
1299450.037495,6.000000,-10.000000,13.000000,0.000000,-4.000000,-8.000000,5.000000,5.000000
1299450.037511,-6.000000,32.000000,-101.000000,-21.000000,10.000000,6.000000,-4.000000,-2.000000
1299450.052657,6.000000,-23.000000,37.000000,11.000000,3.000000,-3.000000,-2.000000,-21.000000
1299450.052690,7.000000,9.000000,0.000000,28.000000,-7.000000,-5.000000,20.000000,27.000000
1299450.067762,1.000000,30.000000,2.000000,8.000000,6.000000,5.000000,-21.000000,-7.000000
1299450.067800,39.000000,5.000000,-13.000000,15.000000,0.000000,2.000000,13.000000,10.000000
1299450.082678,-56.000000,-27.000000,22.000000,-17.000000,-12.000000,-10.000000,-23.000000,-19.000000
1299450.082718,6.000000,19.000000,-2.000000,3.000000,0.000000,2.000000,-1.000000,-4.000000
1299450.112662,20.000000,17.000000,-31.000000,1.000000,4.000000,7.000000,-3.000000,5.000000
1299450.112680,-5.000000,-23.000000,29.000000,-1.000000,-5.000000,-5.000000,7.000000,3.000000
1299450.120731,-13.000000,8.000000,-2.000000,12.000000,-4.000000,-1.000000,6.000000,-2.000000
1299450.120849,40.000000,9.000000,-10.000000,-19.000000,4.000000,1.000000,1.000000,8.000000
1299450.121166,-12.000000,-40.000000,-45.000000,-17.000000,-7.000000,-9.000000,-18.000000,-11.000000
1299450.121197,-51.000000,0.000000,53.000000,9.000000,-5.000000,-3.000000,-1.000000,-3.000000
1299450.122690,21.000000,35.000000,-21.000000,18.000000,6.000000,3.000000,-4.000000,5.000000
1299450.122729,21.000000,-1.000000,-29.000000,12.000000,-8.000000,2.000000,15.000000,9.000000
1299450.123373,-36.000000,-26.000000,34.000000,16.000000,-6.000000,-6.000000,-19.000000,-7.000000
1299450.123400,-14.000000,22.000000,-8.000000,-9.000000,2.000000,-3.000000,0.000000,-11.000000
1299450.127413,-8.000000,10.000000,32.000000,24.000000,6.000000,3.000000,14.000000,8.000000
1299450.127429,16.000000,16.000000,-109.000000,-33.000000,10.000000,-3.000000,-9.000000,1.000000
1299450.143173,3.000000,-32.000000,21.000000,-10.000000,-7.000000,-6.000000,3.000000,0.000000
1299450.143203,-32.000000,-15.000000,33.000000,10.000000,-8.000000,-3.000000,-6.000000,-9.000000
1299450.150313,15.000000,26.000000,-26.000000,3.000000,8.000000,6.000000,13.000000,6.000000
1299450.150332,17.000000,-10.000000,-3.000000,-16.000000,-3.000000,-2.000000,-12.000000,2.000000
1299450.180192,-24.000000,-5.000000,40.000000,15.000000,-4.000000,-12.000000,-3.000000,0.000000
1299450.180227,-2.000000,25.000000,-14.000000,-10.000000,2.000000,5.000000,3.000000,3.000000
1299450.187574,20.000000,10.000000,-53.000000,-6.000000,8.000000,1.000000,11.000000,-10.000000
1299450.187591,-1.000000,-29.000000,37.000000,18.000000,-4.000000,-1.000000,-2.000000,13.000000
1299450.202633,-15.000000,2.000000,14.000000,-32.000000,2.000000,0.000000,2.000000,0.000000
1299450.202651,29.000000,24.000000,-47.000000,-48.000000,3.000000,1.000000,-4.000000,2.000000
1299450.225112,-7.000000,-40.000000,-20.000000,-13.000000,-10.000000,-4.000000,12.000000,3.000000
1299450.225149,-26.000000,-12.000000,52.000000,7.000000,-2.000000,-7.000000,-19.000000,-4.000000
1299450.233095,19.000000,34.000000,-60.000000,-13.000000,0.000000,8.000000,8.000000,9.000000
1299450.233133,36.000000,-14.000000,-8.000000,20.000000,-1.000000,8.000000,42.000000,25.000000
1299450.233784,-11.000000,-7.000000,46.000000,13.000000,-2.000000,-9.000000,-17.000000,-10.000000
1299450.233812,-38.000000,22.000000,-54.000000,4.000000,6.000000,-5.000000,-26.000000,-21.000000
1299450.235195,40.000000,3.000000,-27.000000,-4.000000,1.000000,8.000000,10.000000,4.000000
1299450.235229,-15.000000,-20.000000,43.000000,-11.000000,-4.000000,0.000000,12.000000,10.000000
1299450.236001,-5.000000,6.000000,7.000000,-1.000000,-4.000000,-3.000000,7.000000,-11.000000
1299450.236023,16.000000,9.000000,-29.000000,-10.000000,10.000000,3.000000,2.000000,0.000000
1299450.240048,-13.000000,-39.000000,7.000000,10.000000,-12.000000,-6.000000,-4.000000,-7.000000
1299450.240081,-29.000000,-30.000000,13.000000,-13.000000,-4.000000,-4.000000,4.000000,-8.000000
1299450.262440,21.000000,35.000000,-25.000000,32.000000,10.000000,7.000000,-5.000000,-1.000000
1299450.262475,38.000000,-7.000000,2.000000,1.000000,0.000000,-3.000000,5.000000,8.000000
1299450.277548,-46.000000,-22.000000,36.000000,-38.000000,-20.000000,-11.000000,-5.000000,2.000000
1299450.277569,-27.000000,28.000000,-65.000000,-20.000000,3.000000,-3.000000,0.000000,-19.000000
1299450.285122,16.000000,-2.000000,10.000000,1.000000,2.000000,5.000000,-18.000000,3.000000
1299450.285155,-2.000000,-47.000000,38.000000,12.000000,-10.000000,-9.000000,-1.000000,-8.000000
1299450.307542,4.000000,14.000000,-8.000000,-28.000000,4.000000,4.000000,0.000000,3.000000
1299450.307560,-14.000000,12.000000,-27.000000,12.000000,4.000000,-1.000000,-10.000000,-3.000000
1299450.315186,-3.000000,-53.000000,11.000000,-26.000000,-6.000000,-10.000000,-20.000000,-5.000000
1299450.315203,-9.000000,-14.000000,14.000000,-8.000000,-3.000000,-3.000000,15.000000,0.000000
1299450.330190,20.000000,14.000000,-30.000000,7.000000,5.000000,6.000000,6.000000,4.000000
1299450.330237,19.000000,-4.000000,0.000000,-1.000000,-6.000000,1.000000,8.000000,4.000000
1299450.345366,-14.000000,-20.000000,43.000000,23.000000,1.000000,-3.000000,-3.000000,-6.000000
1299450.345386,-11.000000,31.000000,-42.000000,-25.000000,8.000000,-2.000000,0.000000,-7.000000
1299450.360102,-13.000000,12.000000,-20.000000,-29.000000,-6.000000,-6.000000,-2.000000,2.000000
1299450.360125,2.000000,-18.000000,41.000000,-15.000000,-13.000000,-4.000000,0.000000,-4.000000
1299450.382580,0.000000,18.000000,3.000000,23.000000,7.000000,8.000000,9.000000,2.000000
1299450.382736,27.000000,21.000000,-28.000000,-21.000000,12.000000,6.000000,18.000000,18.000000
1299450.390217,0.000000,-31.000000,19.000000,31.000000,-15.000000,-11.000000,-15.000000,-8.000000
1299450.390234,-33.000000,-10.000000,7.000000,-4.000000,-4.000000,-8.000000,-13.000000,-6.000000
1299450.397585,-23.000000,16.000000,-45.000000,-10.000000,4.000000,10.000000,10.000000,3.000000
1299450.397618,11.000000,-31.000000,14.000000,-12.000000,-6.000000,-1.000000,-11.000000,4.000000
1299450.435383,-46.000000,-15.000000,26.000000,-12.000000,-11.000000,-10.000000,-12.000000,-12.000000
1299450.435400,3.000000,29.000000,-20.000000,17.000000,4.000000,3.000000,3.000000,-3.000000
1299450.442557,18.000000,15.000000,-19.000000,2.000000,5.000000,7.000000,7.000000,7.000000
1299450.442574,0.000000,-8.000000,35.000000,-2.000000,-5.000000,-11.000000,-8.000000,-3.000000
1299450.465109,-10.000000,-32.000000,23.000000,3.000000,-10.000000,0.000000,10.000000,0.000000
1299450.465126,-13.000000,2.000000,17.000000,39.000000,4.000000,2.000000,-1.000000,-1.000000
1299450.480191,-66.000000,-9.000000,32.000000,6.000000,-9.000000,-10.000000,11.000000,-20.000000
1299450.480210,27.000000,22.000000,10.000000,12.000000,5.000000,5.000000,-9.000000,7.000000
1299450.496167,20.000000,24.000000,-28.000000,12.000000,2.000000,-1.000000,-5.000000,6.000000
1299450.496186,5.000000,-14.000000,2.000000,4.000000,0.000000,-7.000000,-5.000000,2.000000
1299450.496444,-23.000000,-21.000000,26.000000,16.000000,-6.000000,-2.000000,-4.000000,-9.000000
1299450.496460,16.000000,27.000000,-19.000000,-23.000000,4.000000,5.000000,9.000000,4.000000
1299450.497006,26.000000,-4.000000,-23.000000,10.000000,4.000000,4.000000,-3.000000,-5.000000
1299450.497030,-24.000000,-18.000000,28.000000,0.000000,-10.000000,-7.000000,-3.000000,6.000000
1299450.497522,-25.000000,4.000000,19.000000,6.000000,-3.000000,-5.000000,-5.000000,-4.000000
1299450.497535,35.000000,11.000000,-60.000000,-36.000000,9.000000,5.000000,13.000000,5.000000
1299450.498008,-47.000000,-33.000000,51.000000,10.000000,-3.000000,-1.000000,7.000000,-6.000000
1299450.498040,-15.000000,-5.000000,2.000000,8.000000,3.000000,-7.000000,-32.000000,-7.000000
1299450.517583,19.000000,27.000000,-18.000000,-10.000000,7.000000,-2.000000,-3.000000,0.000000
1299450.517601,5.000000,3.000000,13.000000,10.000000,2.000000,5.000000,10.000000,2.000000
1299450.547817,-4.000000,-23.000000,31.000000,1.000000,-9.000000,-3.000000,26.000000,4.000000
1299450.547852,2.000000,11.000000,-22.000000,33.000000,8.000000,5.000000,-10.000000,-8.000000
1299450.562821,2.000000,-49.000000,-44.000000,-55.000000,7.000000,2.000000,0.000000,5.000000
1299450.562839,-21.000000,-31.000000,36.000000,11.000000,-1.000000,-1.000000,7.000000,-6.000000
1299450.570141,-4.000000,9.000000,-5.000000,13.000000,-5.000000,2.000000,5.000000,-7.000000
1299450.570175,32.000000,22.000000,-31.000000,-27.000000,6.000000,6.000000,4.000000,23.000000
1299450.592436,-7.000000,-29.000000,19.000000,8.000000,-6.000000,-11.000000,-27.000000,-1.000000
1299450.592464,-82.000000,9.000000,3.000000,7.000000,-4.000000,-5.000000,4.000000,-15.000000
1299450.593079,27.000000,40.000000,-19.000000,-10.000000,6.000000,10.000000,11.000000,4.000000
1299450.593112,17.000000,-12.000000,-6.000000,-34.000000,-9.000000,-8.000000,-7.000000,-4.000000
1299450.593766,-42.000000,-19.000000,51.000000,1.000000,-3.000000,-7.000000,-22.000000,-12.000000
1299450.593795,14.000000,34.000000,-16.000000,-2.000000,4.000000,3.000000,0.000000,0.000000
1299450.594344,10.000000,6.000000,8.000000,1.000000,0.000000,4.000000,12.000000,4.000000
1299450.594371,-9.000000,-45.000000,-14.000000,-14.000000,-6.000000,-2.000000,7.000000,-2.000000
1299450.594950,-9.000000,15.000000,3.000000,-8.000000,5.000000,0.000000,-9.000000,2.000000
1299450.594968,20.000000,18.000000,-10.000000,9.000000,3.000000,-4.000000,-16.000000,0.000000
1299450.595657,5.000000,-17.000000,20.000000,-3.000000,-6.000000,-1.000000,13.000000,6.000000
1299450.595689,-12.000000,8.000000,33.000000,19.000000,3.000000,-4.000000,-8.000000,-7.000000
1299450.600278,33.000000,35.000000,-27.000000,-54.000000,9.000000,9.000000,8.000000,5.000000
1299450.600311,8.000000,-26.000000,10.000000,1.000000,-9.000000,-5.000000,8.000000,-7.000000
1299450.622692,-45.000000,-13.000000,22.000000,10.000000,-3.000000,-5.000000,-10.000000,-10.000000
1299450.622732,13.000000,16.000000,-34.000000,2.000000,6.000000,7.000000,23.000000,2.000000
1299450.653318,16.000000,-12.000000,-10.000000,6.000000,-3.000000,-1.000000,-26.000000,9.000000
1299450.653371,-18.000000,-27.000000,41.000000,-8.000000,-6.000000,-7.000000,6.000000,-2.000000
1299450.668208,-38.000000,4.000000,4.000000,27.000000,1.000000,2.000000,12.000000,3.000000
1299450.668232,12.000000,13.000000,-22.000000,13.000000,4.000000,1.000000,-2.000000,1.000000
1299450.705844,4.000000,-31.000000,27.000000,-25.000000,-10.000000,-8.000000,5.000000,2.000000
1299450.705898,-1.000000,6.000000,22.000000,14.000000,-5.000000,3.000000,2.000000,4.000000
1299450.707433,-4.000000,35.000000,-59.000000,4.000000,7.000000,4.000000,-17.000000,0.000000
1299450.707456,32.000000,-7.000000,24.000000,38.000000,8.000000,-1.000000,11.000000,6.000000
1299450.708987,-6.000000,4.000000,-25.000000,-11.000000,-1.000000,-2.000000,-11.000000,8.000000
1299450.709193,-22.000000,-34.000000,16.000000,18.000000,-13.000000,-13.000000,-14.000000,-11.000000
1299450.709470,-44.000000,-4.000000,28.000000,-25.000000,-11.000000,-3.000000,-12.000000,-17.000000
1299450.709516,9.000000,24.000000,-19.000000,-2.000000,1.000000,5.000000,-8.000000,5.000000
1299450.710115,7.000000,7.000000,15.000000,3.000000,4.000000,-2.000000,-1.000000,8.000000
1299450.710171,30.000000,23.000000,-22.000000,6.000000,1.000000,6.000000,12.000000,5.000000
1299450.710592,-38.000000,-26.000000,27.000000,-5.000000,-11.000000,0.000000,12.000000,-4.000000
1299450.710636,-18.000000,-14.000000,14.000000,-11.000000,0.000000,-5.000000,-4.000000,-10.000000
1299450.712937,-21.000000,-7.000000,23.000000,-2.000000,-5.000000,-8.000000,-1.000000,-8.000000
1299450.712988,14.000000,30.000000,-20.000000,-22.000000,16.000000,10.000000,7.000000,7.000000
1299450.720779,36.000000,-1.000000,-7.000000,32.000000,-1.000000,3.000000,4.000000,9.000000
1299450.720805,-48.000000,-30.000000,45.000000,-9.000000,-13.000000,-8.000000,-7.000000,-10.000000
1299450.735654,14.000000,40.000000,2.000000,2.000000,0.000000,-1.000000,-27.000000,1.000000
1299450.735684,13.000000,-10.000000,-34.000000,-17.000000,4.000000,4.000000,10.000000,-3.000000
1299450.742932,3.000000,-24.000000,34.000000,21.000000,-6.000000,-5.000000,-3.000000,0.000000
1299450.742956,-30.000000,-6.000000,20.000000,-7.000000,-4.000000,2.000000,8.000000,-2.000000
1299450.750512,24.000000,15.000000,-31.000000,1.000000,4.000000,3.000000,0.000000,4.000000
1299450.750561,5.000000,-31.000000,0.000000,-18.000000,-4.000000,-1.000000,1.000000,-4.000000
1299450.788211,-27.000000,1.000000,26.000000,-12.000000,-5.000000,-14.000000,-1.000000,-3.000000
1299450.788279,-15.000000,5.000000,-10.000000,-11.000000,5.000000,0.000000,-9.000000,-6.000000
1299450.795455,25.000000,-14.000000,-1.000000,1.000000,0.000000,3.000000,2.000000,1.000000
1299450.795505,-28.000000,-20.000000,-32.000000,-11.000000,-6.000000,0.000000,13.000000,-3.000000
1299450.817945,6.000000,23.000000,14.000000,-8.000000,-7.000000,-2.000000,9.000000,21.000000
1299450.817998,40.000000,1.000000,-4.000000,10.000000,10.000000,-4.000000,-63.000000,-18.000000
1299450.827169,-15.000000,-25.000000,5.000000,-11.000000,-8.000000,-5.000000,16.000000,3.000000
1299450.827564,-15.000000,13.000000,25.000000,0.000000,-2.000000,2.000000,16.000000,1.000000
1299450.829805,-22.000000,-1.000000,24.000000,-34.000000,-5.000000,-4.000000,-8.000000,-9.000000
1299450.830161,1.000000,12.000000,-76.000000,22.000000,4.000000,3.000000,11.000000,4.000000
1299450.830917,5.000000,-5.000000,0.000000,-4.000000,2.000000,8.000000,8.000000,3.000000
1299450.831006,-31.000000,-9.000000,45.000000,4.000000,-6.000000,-9.000000,0.000000,-9.000000
1299450.831368,46.000000,14.000000,-44.000000,-1.000000,3.000000,5.000000,0.000000,0.000000
1299450.831398,-6.000000,-25.000000,20.000000,0.000000,-11.000000,-5.000000,7.000000,5.000000
1299450.833481,15.000000,34.000000,-6.000000,8.000000,6.000000,2.000000,-21.000000,-2.000000
1299450.833516,11.000000,-5.000000,-24.000000,-10.000000,-3.000000,6.000000,-11.000000,-5.000000
1299450.841332,-20.000000,-27.000000,40.000000,-3.000000,-7.000000,-11.000000,2.000000,-1.000000
1299450.841354,-5.000000,5.000000,5.000000,-25.000000,0.000000,-3.000000,8.000000,0.000000
1299450.863675,11.000000,15.000000,-35.000000,13.000000,8.000000,3.000000,-9.000000,3.000000
1299450.863860,-1.000000,-33.000000,30.000000,-8.000000,-13.000000,-8.000000,-14.000000,-17.000000
1299450.878547,-20.000000,-8.000000,-47.000000,-22.000000,-6.000000,-3.000000,16.000000,13.000000
1299450.878600,-2.000000,9.000000,-27.000000,2.000000,15.000000,7.000000,-7.000000,-9.000000
1299450.886595,24.000000,-4.000000,12.000000,14.000000,3.000000,5.000000,16.000000,7.000000
1299450.886658,-37.000000,-27.000000,57.000000,-4.000000,-6.000000,-6.000000,-16.000000,-10.000000
1299450.908261,-23.000000,31.000000,-27.000000,12.000000,12.000000,5.000000,-7.000000,-3.000000
1299450.908315,24.000000,4.000000,-14.000000,-20.000000,4.000000,1.000000,-2.000000,2.000000
1299450.915827,-3.000000,-20.000000,5.000000,37.000000,2.000000,-8.000000,-10.000000,-8.000000
1299450.915891,-14.000000,26.000000,12.000000,-7.000000,3.000000,-3.000000,13.000000,-6.000000
1299450.946065,35.000000,20.000000,-31.000000,-8.000000,5.000000,4.000000,-13.000000,5.000000
1299450.946121,-4.000000,-38.000000,11.000000,-16.000000,-11.000000,-2.000000,10.000000,3.000000
1299450.949085,3.000000,-4.000000,10.000000,-5.000000,-10.000000,-4.000000,-12.000000,-11.000000
1299450.949146,-8.000000,18.000000,-22.000000,4.000000,7.000000,9.000000,14.000000,8.000000
1299450.949407,4.000000,-8.000000,-5.000000,-12.000000,-1.000000,-3.000000,-4.000000,6.000000
1299450.949823,4.000000,-24.000000,35.000000,-1.000000,-5.000000,-3.000000,-16.000000,-10.000000
1299450.950711,-6.000000,22.000000,7.000000,-18.000000,8.000000,2.000000,-10.000000,-14.000000
1299450.950760,14.000000,28.000000,-42.000000,1.000000,-3.000000,5.000000,2.000000,-5.000000
1299450.953677,20.000000,13.000000,-18.000000,12.000000,5.000000,4.000000,-13.000000,-2.000000
1299450.953727,18.000000,-34.000000,12.000000,4.000000,-10.000000,-2.000000,5.000000,1.000000
1299450.960636,-6.000000,16.000000,15.000000,7.000000,-1.000000,-5.000000,-4.000000,1.000000
1299450.960727,23.000000,26.000000,-18.000000,-13.000000,-1.000000,3.000000,11.000000,7.000000
1299450.990344,22.000000,-24.000000,-4.000000,29.000000,-5.000000,-1.000000,-4.000000,4.000000
1299450.990389,-34.000000,-23.000000,36.000000,0.000000,-6.000000,-9.000000,-18.000000,-7.000000
1299450.998627,19.000000,25.000000,-7.000000,15.000000,5.000000,8.000000,12.000000,8.000000
1299450.998656,15.000000,16.000000,-25.000000,-12.000000,-1.000000,4.000000,10.000000,4.000000
1299451.020750,-35.000000,-31.000000,31.000000,19.000000,-1.000000,-6.000000,5.000000,-6.000000
1299451.020799,3.000000,7.000000,8.000000,26.000000,2.000000,-6.000000,-4.000000,2.000000
1299451.028139,15.000000,16.000000,-37.000000,-34.000000,7.000000,4.000000,-2.000000,-1.000000
1299451.028191,-1.000000,-20.000000,33.000000,6.000000,-12.000000,-5.000000,-4.000000,-5.000000
1299451.043293,4.000000,-15.000000,55.000000,26.000000,1.000000,-1.000000,8.000000,14.000000
1299451.043354,1.000000,2.000000,-85.000000,-36.000000,5.000000,3.000000,-14.000000,-4.000000
1299451.058355,21.000000,0.000000,-29.000000,-6.000000,-4.000000,-1.000000,4.000000,-3.000000
1299451.058409,-72.000000,-20.000000,39.000000,-7.000000,-9.000000,-9.000000,7.000000,-5.000000
1299451.073876,10.000000,26.000000,-5.000000,23.000000,8.000000,-1.000000,-15.000000,-3.000000
1299451.073911,27.000000,-5.000000,-6.000000,-10.000000,3.000000,-5.000000,-42.000000,-9.000000
1299451.074748,3.000000,-22.000000,24.000000,7.000000,-11.000000,-5.000000,27.000000,0.000000
1299451.074790,-11.000000,25.000000,-13.000000,-4.000000,2.000000,4.000000,-7.000000,-1.000000
1299451.075857,42.000000,22.000000,-17.000000,6.000000,10.000000,8.000000,-2.000000,0.000000
1299451.075883,-6.000000,-17.000000,24.000000,-11.000000,-12.000000,-7.000000,4.000000,-3.000000
1299451.077141,-41.000000,1.000000,-18.000000,-5.000000,-3.000000,-5.000000,0.000000,-4.000000
1299451.077196,14.000000,29.000000,-7.000000,3.000000,5.000000,2.000000,-1.000000,2.000000
1299451.089151,-3.000000,13.000000,-25.000000,-37.000000,8.000000,-1.000000,-7.000000,3.000000
1299451.089217,8.000000,-7.000000,-57.000000,-2.000000,-3.000000,8.000000,2.000000,9.000000
1299451.103110,29.000000,-17.000000,29.000000,34.000000,-1.000000,-8.000000,8.000000,11.000000
1299451.103166,-1.000000,18.000000,19.000000,-29.000000,4.000000,-6.000000,-17.000000,-11.000000
1299451.118482,28.000000,15.000000,-51.000000,-17.000000,-1.000000,4.000000,-6.000000,-17.000000
1299451.118508,5.000000,-16.000000,30.000000,-9.000000,-15.000000,-17.000000,-20.000000,13.000000
1299451.140766,-5.000000,6.000000,3.000000,14.000000,0.000000,-6.000000,-11.000000,-12.000000
1299451.140818,-8.000000,26.000000,-35.000000,-4.000000,5.000000,3.000000,16.000000,-1.000000
1299451.148107,15.000000,-31.000000,-8.000000,4.000000,-2.000000,2.000000,12.000000,8.000000
1299451.148135,-33.000000,-27.000000,42.000000,7.000000,-2.000000,-5.000000,2.000000,-8.000000
1299451.163062,15.000000,26.000000,-12.000000,7.000000,7.000000,5.000000,-2.000000,3.000000
1299451.163111,27.000000,-10.000000,-23.000000,-21.000000,1.000000,1.000000,-4.000000,5.000000
1299451.178463,-25.000000,-42.000000,30.000000,23.000000,1.000000,-8.000000,-1.000000,-6.000000
1299451.178739,-9.000000,4.000000,10.000000,-6.000000,2.000000,0.000000,-4.000000,-3.000000
1299451.180427,19.000000,10.000000,-33.000000,-11.000000,-1.000000,2.000000,8.000000,0.000000
1299451.180455,5.000000,-30.000000,25.000000,22.000000,-16.000000,-1.000000,-18.000000,5.000000
1299451.181503,-6.000000,4.000000,-1.000000,-40.000000,3.000000,-1.000000,3.000000,-7.000000
1299451.181553,12.000000,38.000000,-22.000000,8.000000,9.000000,7.000000,-3.000000,7.000000
1299451.182974,17.000000,-5.000000,48.000000,-11.000000,-9.000000,0.000000,6.000000,-4.000000
1299451.183005,-35.000000,-6.000000,-22.000000,9.000000,-5.000000,-8.000000,-10.000000,-5.000000
1299451.185730,-8.000000,18.000000,-27.000000,3.000000,11.000000,-5.000000,-8.000000,-5.000000
1299451.185778,13.000000,3.000000,13.000000,-9.000000,3.000000,7.000000,-1.000000,4.000000
1299451.193947,-10.000000,-46.000000,13.000000,0.000000,-9.000000,-6.000000,13.000000,-4.000000
1299451.193993,-4.000000,6.000000,-9.000000,3.000000,3.000000,6.000000,10.000000,2.000000
1299451.208273,3.000000,14.000000,-28.000000,-6.000000,-1.000000,2.000000,-15.000000,-1.000000
1299451.208298,1.000000,-23.000000,20.000000,2.000000,-8.000000,-6.000000,-1.000000,-4.000000
1299451.230879,-7.000000,11.000000,20.000000,8.000000,-5.000000,-9.000000,-3.000000,0.000000
1299451.230993,23.000000,38.000000,-28.000000,-16.000000,4.000000,6.000000,-1.000000,-3.000000
1299451.237814,-5.000000,-20.000000,-5.000000,12.000000,4.000000,1.000000,-14.000000,2.000000
1299451.237838,-34.000000,-22.000000,41.000000,2.000000,-10.000000,-11.000000,-16.000000,-11.000000
1299451.268027,-7.000000,23.000000,-63.000000,-23.000000,5.000000,12.000000,15.000000,3.000000
1299451.268467,51.000000,1.000000,0.000000,5.000000,-3.000000,0.000000,-5.000000,5.000000
1299451.269429,-81.000000,-32.000000,13.000000,-15.000000,-4.000000,-10.000000,-51.000000,-22.000000
1299451.269486,-44.000000,21.000000,-5.000000,-10.000000,-4.000000,-8.000000,-13.000000,-20.000000
1299451.270889,38.000000,10.000000,-29.000000,-2.000000,3.000000,7.000000,7.000000,9.000000
1299451.270935,-15.000000,-10.000000,8.000000,8.000000,-10.000000,-5.000000,8.000000,3.000000
1299451.271297,-40.000000,-5.000000,17.000000,-41.000000,-9.000000,-6.000000,-5.000000,-16.000000
1299451.271343,18.000000,25.000000,-46.000000,-12.000000,13.000000,2.000000,-4.000000,0.000000
1299451.298940,3.000000,-26.000000,11.000000,4.000000,-7.000000,-3.000000,1.000000,3.000000
1299451.299003,-3.000000,-8.000000,25.000000,3.000000,-7.000000,-8.000000,-15.000000,-10.000000
1299451.299623,8.000000,18.000000,-27.000000,-3.000000,15.000000,8.000000,10.000000,5.000000
1299451.300128,13.000000,9.000000,-4.000000,3.000000,2.000000,7.000000,8.000000,6.000000
1299451.301005,-19.000000,-42.000000,67.000000,-5.000000,-11.000000,-12.000000,-9.000000,-9.000000
1299451.301049,0.000000,31.000000,-79.000000,-13.000000,-3.000000,-11.000000,-9.000000,-5.000000
1299451.305660,-5.000000,-2.000000,-41.000000,12.000000,17.000000,6.000000,0.000000,0.000000
1299451.305720,-12.000000,-24.000000,42.000000,-13.000000,-10.000000,2.000000,19.000000,5.000000
1299451.314334,-1.000000,18.000000,5.000000,-1.000000,2.000000,-3.000000,2.000000,-11.000000
1299451.314384,-5.000000,9.000000,15.000000,10.000000,12.000000,3.000000,-9.000000,-19.000000
1299451.320567,39.000000,-36.000000,-26.000000,-55.000000,-3.000000,-2.000000,-6.000000,25.000000
1299451.320593,-16.000000,-7.000000,-26.000000,-4.000000,-11.000000,-1.000000,13.000000,-5.000000
1299451.380765,3.000000,14.000000,-4.000000,10.000000,8.000000,3.000000,-1.000000,-8.000000
1299451.380795,19.000000,-31.000000,23.000000,0.000000,-6.000000,-3.000000,-3.000000,7.000000
1299451.388264,-28.000000,-33.000000,-3.000000,14.000000,-10.000000,-5.000000,10.000000,0.000000
1299451.388291,14.000000,15.000000,1.000000,-16.000000,5.000000,-1.000000,-4.000000,-1.000000
1299451.403384,26.000000,12.000000,-42.000000,-4.000000,7.000000,6.000000,-22.000000,3.000000
1299451.403409,-3.000000,-1.000000,-25.000000,-4.000000,-14.000000,-10.000000,28.000000,-4.000000
1299451.403693,-29.000000,-16.000000,29.000000,20.000000,-6.000000,-6.000000,-25.000000,-10.000000
1299451.403708,-12.000000,47.000000,-7.000000,-8.000000,6.000000,-2.000000,-25.000000,-7.000000
1299451.418984,15.000000,14.000000,-16.000000,-9.000000,2.000000,0.000000,2.000000,6.000000
1299451.419018,24.000000,-6.000000,13.000000,11.000000,2.000000,4.000000,-2.000000,1.000000
1299451.420002,21.000000,5.000000,11.000000,12.000000,1.000000,3.000000,2.000000,15.000000
1299451.420400,-6.000000,-15.000000,-30.000000,-21.000000,-3.000000,-10.000000,-1.000000,-4.000000
1299451.421981,6.000000,13.000000,-18.000000,-6.000000,-5.000000,0.000000,5.000000,2.000000
1299451.422032,16.000000,2.000000,-21.000000,-4.000000,3.000000,3.000000,-7.000000,5.000000
1299451.425432,15.000000,-22.000000,20.000000,70.000000,1.000000,3.000000,20.000000,9.000000
1299451.425481,-32.000000,3.000000,9.000000,-27.000000,1.000000,-10.000000,-20.000000,-13.000000
1299451.433895,-3.000000,28.000000,-43.000000,-21.000000,1.000000,-1.000000,3.000000,-11.000000
1299451.433947,26.000000,-21.000000,4.000000,9.000000,-5.000000,12.000000,24.000000,18.000000
1299451.456226,-29.000000,-14.000000,30.000000,-1.000000,-10.000000,-1.000000,3.000000,5.000000
1299451.456275,2.000000,32.000000,13.000000,15.000000,4.000000,-2.000000,-13.000000,-10.000000
1299451.470558,-4.000000,-7.000000,-128.000000,-9.000000,2.000000,-1.000000,-12.000000,0.000000
1299451.470604,-2.000000,-23.000000,51.000000,5.000000,-14.000000,-6.000000,8.000000,0.000000
1299451.485541,-19.000000,9.000000,27.000000,0.000000,-4.000000,-1.000000,-4.000000,-5.000000
1299451.485566,32.000000,22.000000,-30.000000,-10.000000,12.000000,2.000000,-16.000000,3.000000
1299451.507946,15.000000,-32.000000,42.000000,-4.000000,-3.000000,1.000000,11.000000,3.000000
1299451.507970,-21.000000,-8.000000,-57.000000,22.000000,4.000000,0.000000,6.000000,4.000000
1299451.515668,-29.000000,27.000000,-10.000000,-10.000000,6.000000,6.000000,15.000000,4.000000
1299451.515715,7.000000,-8.000000,24.000000,4.000000,2.000000,-4.000000,-17.000000,-16.000000
1299451.517129,-1.000000,-10.000000,19.000000,6.000000,-4.000000,-2.000000,11.000000,5.000000
1299451.517188,6.000000,36.000000,-2.000000,-1.000000,3.000000,-3.000000,-7.000000,8.000000
1299451.518071,46.000000,12.000000,-11.000000,-13.000000,1.000000,6.000000,8.000000,-4.000000
1299451.518120,-22.000000,-13.000000,26.000000,12.000000,-6.000000,1.000000,9.000000,1.000000
1299451.540243,-5.000000,14.000000,9.000000,-3.000000,-3.000000,-1.000000,-11.000000,-5.000000
1299451.540293,-10.000000,42.000000,-80.000000,13.000000,8.000000,10.000000,10.000000,3.000000
1299451.540611,13.000000,-23.000000,51.000000,11.000000,-10.000000,-3.000000,5.000000,2.000000
1299451.540635,7.000000,9.000000,17.000000,-17.000000,-5.000000,-2.000000,-8.000000,6.000000
1299451.541946,-10.000000,26.000000,-51.000000,5.000000,4.000000,2.000000,-10.000000,-11.000000
1299451.541971,21.000000,6.000000,24.000000,27.000000,-1.000000,0.000000,6.000000,1.000000
1299451.545586,-40.000000,-2.000000,11.000000,-15.000000,-12.000000,-4.000000,22.000000,4.000000
1299451.545635,23.000000,22.000000,1.000000,4.000000,4.000000,5.000000,-14.000000,1.000000
1299451.554121,-25.000000,-7.000000,-28.000000,-20.000000,4.000000,-1.000000,-44.000000,-11.000000
1299451.554169,9.000000,-11.000000,38.000000,7.000000,-10.000000,-3.000000,17.000000,3.000000
1299451.575888,-57.000000,-21.000000,5.000000,-16.000000,-4.000000,-4.000000,7.000000,-10.000000
1299451.575938,32.000000,22.000000,-24.000000,7.000000,-1.000000,1.000000,4.000000,8.000000
1299451.590619,5.000000,-42.000000,2.000000,4.000000,-11.000000,-8.000000,3.000000,4.000000
1299451.590643,-37.000000,4.000000,22.000000,-1.000000,-8.000000,-9.000000,-10.000000,-13.000000
1299451.605623,9.000000,24.000000,-45.000000,2.000000,6.000000,4.000000,13.000000,-4.000000
1299451.605674,35.000000,-6.000000,17.000000,-34.000000,-5.000000,9.000000,2.000000,16.000000
1299451.628078,-21.000000,-13.000000,46.000000,12.000000,-4.000000,-14.000000,-15.000000,-5.000000
1299451.628103,-9.000000,28.000000,-31.000000,-21.000000,18.000000,1.000000,-6.000000,-20.000000
1299451.658113,43.000000,20.000000,-9.000000,4.000000,0.000000,10.000000,14.000000,21.000000
1299451.658140,-19.000000,-8.000000,25.000000,8.000000,-9.000000,-5.000000,-4.000000,-9.000000
1299451.673175,-13.000000,9.000000,8.000000,13.000000,6.000000,3.000000,23.000000,-4.000000
1299451.673230,8.000000,8.000000,-29.000000,2.000000,12.000000,-1.000000,-51.000000,-16.000000
1299451.674600,-43.000000,-25.000000,30.000000,-10.000000,-16.000000,-12.000000,-4.000000,-5.000000
1299451.674713,-6.000000,-2.000000,-12.000000,-9.000000,-4.000000,0.000000,27.000000,-1.000000
1299451.675565,23.000000,47.000000,-8.000000,0.000000,5.000000,5.000000,9.000000,3.000000
1299451.675616,-7.000000,-7.000000,20.000000,4.000000,-5.000000,-2.000000,-39.000000,-6.000000
1299451.676038,12.000000,-6.000000,-3.000000,-15.000000,-10.000000,-3.000000,3.000000,-3.000000
1299451.676086,-11.000000,25.000000,-2.000000,-3.000000,3.000000,0.000000,4.000000,1.000000
1299451.703369,-27.000000,24.000000,-42.000000,-9.000000,10.000000,-1.000000,-29.000000,3.000000
1299451.703397,20.000000,-20.000000,6.000000,-8.000000,-2.000000,-7.000000,6.000000,4.000000
1299451.733522,-21.000000,-13.000000,41.000000,1.000000,-7.000000,0.000000,12.000000,-1.000000
1299451.733549,10.000000,11.000000,-30.000000,-9.000000,8.000000,-5.000000,8.000000,2.000000
1299451.740834,20.000000,-1.000000,-12.000000,1.000000,-1.000000,4.000000,-9.000000,-2.000000
1299451.740890,4.000000,-28.000000,18.000000,-18.000000,-7.000000,-5.000000,-13.000000,4.000000
1299451.771182,-13.000000,6.000000,8.000000,-7.000000,2.000000,-3.000000,5.000000,-1.000000
1299451.771242,33.000000,15.000000,-32.000000,16.000000,8.000000,6.000000,7.000000,-1.000000
1299451.785843,13.000000,-16.000000,35.000000,2.000000,-8.000000,-3.000000,-5.000000,-8.000000
1299451.785900,-57.000000,-11.000000,1.000000,1.000000,-1.000000,-2.000000,-2.000000,-4.000000
1299451.795816,13.000000,22.000000,-12.000000,5.000000,9.000000,7.000000,10.000000,9.000000
1299451.795862,0.000000,-5.000000,15.000000,5.000000,-5.000000,-2.000000,-15.000000,-5.000000
1299451.796107,-1.000000,4.000000,38.000000,7.000000,-5.000000,-8.000000,-23.000000,1.000000
1299451.796134,5.000000,25.000000,-11.000000,1.000000,10.000000,10.000000,28.000000,3.000000
1299451.797237,-3.000000,-1.000000,-5.000000,-20.000000,0.000000,-4.000000,12.000000,-3.000000
1299451.797270,9.000000,4.000000,-63.000000,-5.000000,10.000000,5.000000,7.000000,7.000000
1299451.808194,23.000000,-6.000000,-21.000000,-6.000000,0.000000,0.000000,5.000000,-1.000000
1299451.808247,-11.000000,-40.000000,27.000000,-14.000000,-9.000000,0.000000,1.000000,5.000000
1299451.823403,6.000000,7.000000,16.000000,-2.000000,4.000000,-7.000000,-9.000000,-3.000000
1299451.823460,21.000000,13.000000,-25.000000,-2.000000,10.000000,8.000000,-5.000000,0.000000
1299451.831375,15.000000,-20.000000,11.000000,-19.000000,-13.000000,-4.000000,5.000000,0.000000
1299451.831601,-1.000000,10.000000,47.000000,36.000000,-2.000000,-1.000000,-3.000000,-4.000000
1299451.853654,22.000000,47.000000,-38.000000,-1.000000,15.000000,8.000000,-3.000000,1.000000
1299451.853707,22.000000,-17.000000,15.000000,9.000000,-5.000000,2.000000,3.000000,15.000000
1299451.861200,-29.000000,-7.000000,20.000000,-9.000000,-5.000000,-4.000000,3.000000,-5.000000
1299451.861250,21.000000,33.000000,-24.000000,8.000000,3.000000,6.000000,7.000000,2.000000
1299451.869909,20.000000,6.000000,-16.000000,4.000000,3.000000,1.000000,-8.000000,7.000000
1299451.869958,-6.000000,-35.000000,57.000000,-7.000000,-8.000000,-2.000000,12.000000,4.000000
1299451.871172,-23.000000,14.000000,-11.000000,-7.000000,5.000000,0.000000,-6.000000,-1.000000
1299451.871198,38.000000,10.000000,-93.000000,-9.000000,3.000000,-3.000000,5.000000,-1.000000
1299451.886151,51.000000,19.000000,-37.000000,-6.000000,13.000000,5.000000,-3.000000,5.000000
1299451.886321,-16.000000,-22.000000,20.000000,16.000000,8.000000,-2.000000,9.000000,-4.000000
1299451.886875,-16.000000,-24.000000,63.000000,-2.000000,-11.000000,-4.000000,-4.000000,0.000000
1299451.886922,-18.000000,13.000000,27.000000,1.000000,4.000000,3.000000,-13.000000,-3.000000
1299451.898209,-50.000000,2.000000,34.000000,0.000000,-9.000000,-9.000000,0.000000,-8.000000
1299451.898258,9.000000,22.000000,-36.000000,-13.000000,14.000000,2.000000,-11.000000,-1.000000
1299451.906150,24.000000,1.000000,-4.000000,-4.000000,-8.000000,0.000000,6.000000,3.000000
1299451.906213,-8.000000,-37.000000,35.000000,-14.000000,-11.000000,-7.000000,9.000000,0.000000
1299451.935953,-37.000000,3.000000,-56.000000,-2.000000,7.000000,1.000000,-13.000000,-16.000000
1299451.935980,45.000000,10.000000,-17.000000,-2.000000,-1.000000,6.000000,7.000000,3.000000
1299451.943380,-76.000000,-26.000000,41.000000,9.000000,-11.000000,-4.000000,-8.000000,-4.000000
1299451.943409,9.000000,4.000000,21.000000,-3.000000,-1.000000,1.000000,17.000000,6.000000
1299451.973220,34.000000,36.000000,-51.000000,1.000000,8.000000,6.000000,17.000000,13.000000
1299451.973274,-26.000000,-17.000000,-1.000000,11.000000,-3.000000,-10.000000,-31.000000,-18.000000
1299451.981140,-36.000000,-17.000000,42.000000,-5.000000,-12.000000,-3.000000,3.000000,-9.000000
1299451.981409,9.000000,26.000000,-22.000000,-9.000000,14.000000,9.000000,15.000000,-1.000000
1299451.983893,14.000000,-10.000000,-64.000000,2.000000,-6.000000,-2.000000,4.000000,9.000000
1299451.983919,-18.000000,-26.000000,53.000000,2.000000,-12.000000,0.000000,10.000000,-8.000000
1299451.984330,-6.000000,26.000000,14.000000,44.000000,5.000000,-1.000000,-10.000000,-1.000000
1299451.984354,34.000000,0.000000,-59.000000,-37.000000,2.000000,3.000000,6.000000,2.000000
1299451.984653,-12.000000,-27.000000,28.000000,-3.000000,-14.000000,-6.000000,4.000000,-2.000000
1299451.984705,-21.000000,11.000000,24.000000,4.000000,-4.000000,-4.000000,-4.000000,-5.000000
1299451.988282,38.000000,39.000000,-39.000000,1.000000,8.000000,7.000000,2.000000,5.000000
1299451.988308,-30.000000,-29.000000,-8.000000,8.000000,5.000000,0.000000,11.000000,-7.000000
1299452.012780,4.000000,-5.000000,26.000000,-8.000000,-6.000000,-10.000000,-5.000000,5.000000
1299452.012803,24.000000,27.000000,3.000000,-2.000000,6.000000,6.000000,3.000000,-11.000000
1299452.012927,28.000000,-4.000000,4.000000,23.000000,2.000000,0.000000,-4.000000,17.000000
1299452.012953,-35.000000,-23.000000,47.000000,-3.000000,-6.000000,-12.000000,-11.000000,-5.000000
1299452.018421,-89.000000,23.000000,-6.000000,-3.000000,-1.000000,-4.000000,-5.000000,-17.000000
1299452.018479,38.000000,19.000000,-42.000000,-7.000000,4.000000,10.000000,15.000000,2.000000
1299452.026313,7.000000,-28.000000,42.000000,1.000000,-5.000000,-4.000000,-11.000000,8.000000
1299452.026366,-22.000000,4.000000,15.000000,-18.000000,0.000000,1.000000,3.000000,-3.000000
1299452.056012,32.000000,25.000000,-47.000000,-15.000000,16.000000,6.000000,-3.000000,1.000000
1299452.056063,7.000000,-37.000000,32.000000,2.000000,-7.000000,-3.000000,0.000000,-3.000000
1299452.063708,-27.000000,-9.000000,-7.000000,-15.000000,-8.000000,-13.000000,-18.000000,-13.000000
1299452.063765,-15.000000,24.000000,-10.000000,15.000000,0.000000,7.000000,4.000000,-4.000000
1299452.100927,17.000000,-5.000000,-12.000000,-26.000000,-5.000000,1.000000,-18.000000,0.000000
1299452.101010,-9.000000,-20.000000,49.000000,6.000000,-8.000000,0.000000,27.000000,14.000000
1299452.108294,15.000000,37.000000,-29.000000,2.000000,4.000000,-4.000000,-31.000000,-13.000000
1299452.108322,-40.000000,-6.000000,-45.000000,-5.000000,-1.000000,0.000000,11.000000,-5.000000
1299452.126106,29.000000,30.000000,-87.000000,-10.000000,9.000000,4.000000,-1.000000,4.000000
1299452.126169,16.000000,-32.000000,27.000000,15.000000,-12.000000,2.000000,15.000000,8.000000
1299452.126458,-4.000000,-28.000000,41.000000,42.000000,-7.000000,1.000000,10.000000,11.000000
1299452.126517,-31.000000,12.000000,3.000000,2.000000,-2.000000,-10.000000,-6.000000,-11.000000
1299452.127541,35.000000,-5.000000,-1.000000,13.000000,-4.000000,0.000000,4.000000,5.000000
1299452.127596,7.000000,-13.000000,48.000000,1.000000,2.000000,-7.000000,3.000000,-1.000000
1299452.128731,-14.000000,-28.000000,40.000000,-7.000000,-6.000000,-10.000000,-9.000000,-2.000000
1299452.128885,4.000000,10.000000,-3.000000,-19.000000,6.000000,-1.000000,25.000000,7.000000
1299452.138625,36.000000,8.000000,-37.000000,-1.000000,-1.000000,8.000000,12.000000,2.000000
1299452.138690,4.000000,-23.000000,25.000000,-7.000000,-4.000000,-2.000000,-21.000000,-1.000000
1299452.145923,-28.000000,-9.000000,43.000000,0.000000,-7.000000,-5.000000,-19.000000,-11.000000
1299452.145977,31.000000,9.000000,-34.000000,2.000000,5.000000,-1.000000,4.000000,3.000000
1299452.183340,21.000000,-1.000000,-41.000000,-22.000000,3.000000,6.000000,16.000000,9.000000
1299452.183391,-28.000000,-21.000000,50.000000,21.000000,-4.000000,-2.000000,-4.000000,-2.000000
1299452.213787,-7.000000,37.000000,-9.000000,-24.000000,4.000000,5.000000,-9.000000,-6.000000
1299452.213855,35.000000,2.000000,-19.000000,-8.000000,-2.000000,-1.000000,1.000000,6.000000
1299452.228564,-2.000000,-13.000000,44.000000,2.000000,-13.000000,0.000000,6.000000,-3.000000
1299452.229041,-8.000000,9.000000,6.000000,9.000000,0.000000,0.000000,4.000000,5.000000
1299452.229543,25.000000,17.000000,-14.000000,-4.000000,1.000000,-4.000000,-8.000000,1.000000
1299452.230383,-9.000000,-29.000000,-1.000000,19.000000,-6.000000,-4.000000,0.000000,-5.000000
1299452.231184,-17.000000,-5.000000,49.000000,16.000000,-3.000000,1.000000,24.000000,1.000000
1299452.231236,4.000000,5.000000,7.000000,-22.000000,7.000000,-1.000000,-49.000000,-10.000000
1299452.231828,10.000000,-10.000000,12.000000,4.000000,-5.000000,-2.000000,-5.000000,6.000000
1299452.231873,-31.000000,-11.000000,33.000000,-6.000000,-8.000000,-1.000000,19.000000,4.000000
1299452.232596,-17.000000,-14.000000,5.000000,12.000000,-12.000000,-13.000000,-21.000000,-2.000000
1299452.232640,-5.000000,-1.000000,11.000000,-16.000000,-2.000000,0.000000,21.000000,-6.000000
1299452.250972,22.000000,23.000000,-33.000000,2.000000,12.000000,5.000000,4.000000,1.000000
1299452.251027,11.000000,-19.000000,10.000000,4.000000,-4.000000,-2.000000,3.000000,9.000000
1299452.258140,-23.000000,-24.000000,22.000000,-13.000000,-9.000000,-3.000000,2.000000,-7.000000
1299452.258271,7.000000,10.000000,-19.000000,6.000000,9.000000,6.000000,8.000000,4.000000
1299452.288423,-9.000000,-22.000000,-54.000000,-45.000000,4.000000,0.000000,-9.000000,0.000000
1299452.288576,-11.000000,-23.000000,39.000000,18.000000,-14.000000,-9.000000,5.000000,-4.000000
1299452.295549,21.000000,32.000000,8.000000,7.000000,7.000000,6.000000,8.000000,4.000000
1299452.295575,-15.000000,-4.000000,-43.000000,-15.000000,-3.000000,1.000000,12.000000,0.000000
1299452.333562,12.000000,-12.000000,56.000000,4.000000,-6.000000,-6.000000,1.000000,-9.000000
1299452.333627,-14.000000,5.000000,24.000000,-45.000000,9.000000,5.000000,-13.000000,-8.000000
1299452.335406,0.000000,-12.000000,-58.000000,-1.000000,12.000000,6.000000,7.000000,7.000000
1299452.335954,4.000000,-19.000000,1.000000,6.000000,-11.000000,1.000000,12.000000,15.000000
1299452.337273,-9.000000,-1.000000,-12.000000,4.000000,-4.000000,-1.000000,8.000000,-13.000000
1299452.337564,37.000000,15.000000,-42.000000,-30.000000,3.000000,1.000000,-9.000000,10.000000
1299452.337843,13.000000,-33.000000,22.000000,-7.000000,6.000000,3.000000,-4.000000,12.000000
1299452.337864,-24.000000,-1.000000,-4.000000,7.000000,-9.000000,-3.000000,-4.000000,-9.000000
1299452.337983,9.000000,24.000000,-14.000000,-12.000000,7.000000,7.000000,3.000000,2.000000
1299452.337996,14.000000,34.000000,-22.000000,9.000000,7.000000,2.000000,17.000000,10.000000
1299452.348235,-10.000000,2.000000,30.000000,0.000000,-11.000000,-9.000000,0.000000,-5.000000
1299452.348287,25.000000,21.000000,-5.000000,54.000000,4.000000,8.000000,11.000000,3.000000
1299452.370870,-16.000000,-11.000000,-11.000000,-39.000000,-1.000000,4.000000,11.000000,4.000000
1299452.371386,-16.000000,-12.000000,48.000000,-11.000000,-13.000000,-5.000000,10.000000,0.000000
1299452.372063,10.000000,24.000000,-6.000000,10.000000,3.000000,2.000000,-3.000000,-1.000000
1299452.372129,13.000000,-1.000000,-22.000000,-2.000000,1.000000,6.000000,14.000000,2.000000
1299452.385912,-8.000000,-34.000000,17.000000,5.000000,-8.000000,-14.000000,-17.000000,6.000000
1299452.385971,-33.000000,24.000000,14.000000,9.000000,2.000000,-1.000000,-10.000000,-4.000000
1299452.386991,16.000000,10.000000,-43.000000,-22.000000,4.000000,2.000000,5.000000,3.000000
1299452.387026,6.000000,-20.000000,37.000000,-25.000000,-12.000000,-1.000000,28.000000,1.000000
1299452.407827,-44.000000,-4.000000,-6.000000,0.000000,1.000000,-9.000000,-39.000000,-14.000000
1299452.407876,-6.000000,21.000000,-39.000000,-21.000000,0.000000,-1.000000,-7.000000,4.000000
1299452.415518,30.000000,-10.000000,8.000000,-4.000000,-5.000000,-7.000000,-6.000000,0.000000
1299452.415568,-58.000000,-14.000000,54.000000,15.000000,-9.000000,-6.000000,6.000000,-10.000000
1299452.430508,37.000000,18.000000,-9.000000,-4.000000,4.000000,6.000000,7.000000,15.000000
1299452.430560,-32.000000,-4.000000,-1.000000,-1.000000,3.000000,0.000000,3.000000,3.000000
1299452.453238,8.000000,-36.000000,26.000000,10.000000,-2.000000,-3.000000,6.000000,1.000000
1299452.453562,-21.000000,1.000000,34.000000,-7.000000,-4.000000,3.000000,-13.000000,-7.000000
1299452.455193,0.000000,19.000000,-49.000000,7.000000,9.000000,3.000000,8.000000,3.000000
1299452.455659,34.000000,-9.000000,48.000000,-1.000000,-10.000000,-6.000000,-3.000000,4.000000
1299452.456995,-48.000000,19.000000,14.000000,13.000000,-4.000000,-5.000000,-8.000000,-12.000000
1299452.457033,13.000000,29.000000,-24.000000,6.000000,9.000000,5.000000,-3.000000,0.000000
1299452.457263,10.000000,5.000000,-3.000000,14.000000,-3.000000,-1.000000,2.000000,8.000000
1299452.457304,-10.000000,-29.000000,55.000000,-20.000000,-9.000000,-5.000000,20.000000,6.000000
1299452.490724,-8.000000,19.000000,-56.000000,2.000000,2.000000,-5.000000,-11.000000,-6.000000
1299452.490750,-7.000000,5.000000,-8.000000,-8.000000,4.000000,-1.000000,-56.000000,-7.000000
1299452.492535,-24.000000,-23.000000,22.000000,-20.000000,-16.000000,-13.000000,10.000000,4.000000
1299452.492568,5.000000,14.000000,0.000000,-7.000000,6.000000,6.000000,0.000000,-5.000000
1299452.493443,9.000000,17.000000,-39.000000,-12.000000,1.000000,3.000000,-1.000000,2.000000
1299452.493596,9.000000,-17.000000,-42.000000,1.000000,-9.000000,-7.000000,-9.000000,0.000000
1299452.498060,-34.000000,6.000000,37.000000,-18.000000,-3.000000,-4.000000,6.000000,-4.000000
1299452.498083,16.000000,18.000000,-9.000000,1.000000,6.000000,7.000000,1.000000,2.000000
1299452.505590,9.000000,-22.000000,-25.000000,-19.000000,0.000000,-4.000000,2.000000,1.000000
1299452.505650,-21.000000,-14.000000,54.000000,4.000000,1.000000,-5.000000,0.000000,-5.000000
1299452.535830,14.000000,3.000000,-9.000000,28.000000,9.000000,6.000000,-4.000000,5.000000
1299452.535868,23.000000,-9.000000,-17.000000,6.000000,1.000000,3.000000,-5.000000,5.000000
1299452.543054,-26.000000,-30.000000,18.000000,-3.000000,-10.000000,-4.000000,7.000000,-8.000000
1299452.543105,-6.000000,16.000000,-45.000000,-3.000000,2.000000,6.000000,15.000000,-6.000000
1299452.580530,-24.000000,5.000000,-43.000000,-16.000000,-4.000000,-15.000000,-16.000000,2.000000
1299452.580559,-64.000000,-15.000000,31.000000,4.000000,0.000000,-3.000000,-5.000000,-16.000000
1299452.581728,15.000000,12.000000,22.000000,-7.000000,-1.000000,3.000000,18.000000,9.000000
1299452.581769,1.000000,24.000000,-47.000000,4.000000,8.000000,1.000000,-3.000000,1.000000
1299452.583457,8.000000,-15.000000,8.000000,18.000000,-9.000000,-6.000000,8.000000,-5.000000
1299452.583482,-47.000000,-15.000000,34.000000,-24.000000,-2.000000,-7.000000,19.000000,5.000000
1299452.584218,3.000000,25.000000,-81.000000,11.000000,8.000000,-3.000000,-14.000000,-3.000000
1299452.584331,-9.000000,-4.000000,-4.000000,4.000000,-7.000000,4.000000,-5.000000,-5.000000
1299452.588677,12.000000,15.000000,-128.000000,-17.000000,9.000000,0.000000,-6.000000,-2.000000
1299452.588717,-11.000000,-28.000000,58.000000,17.000000,-11.000000,-2.000000,3.000000,1.000000
1299452.604048,-14.000000,14.000000,26.000000,17.000000,4.000000,-1.000000,-7.000000,-7.000000
1299452.604095,24.000000,45.000000,-26.000000,-1.000000,4.000000,8.000000,20.000000,9.000000
1299452.610735,-2.000000,-37.000000,2.000000,-19.000000,-2.000000,-3.000000,-3.000000,-5.000000
1299452.610940,-67.000000,-21.000000,50.000000,15.000000,-13.000000,-26.000000,-54.000000,-14.000000
1299452.618277,54.000000,26.000000,-47.000000,-5.000000,7.000000,10.000000,16.000000,7.000000
1299452.618323,-25.000000,0.000000,-26.000000,-19.000000,-1.000000,8.000000,15.000000,-7.000000
1299452.625779,-1.000000,-24.000000,38.000000,8.000000,-12.000000,-5.000000,2.000000,3.000000
1299452.625827,-20.000000,7.000000,10.000000,14.000000,1.000000,-3.000000,5.000000,-6.000000
1299452.648148,-11.000000,16.000000,-41.000000,-43.000000,2.000000,0.000000,6.000000,1.000000
1299452.648176,16.000000,-28.000000,-35.000000,8.000000,-9.000000,-4.000000,-15.000000,-8.000000
1299452.655541,-15.000000,16.000000,30.000000,4.000000,-3.000000,-2.000000,3.000000,1.000000
1299452.655568,25.000000,25.000000,-80.000000,22.000000,9.000000,1.000000,8.000000,8.000000
1299452.678040,13.000000,-33.000000,33.000000,6.000000,2.000000,-3.000000,-7.000000,-2.000000
1299452.678091,-46.000000,-5.000000,16.000000,0.000000,-5.000000,-2.000000,5.000000,-6.000000
1299452.685669,4.000000,25.000000,-26.000000,0.000000,6.000000,1.000000,18.000000,5.000000
1299452.685722,28.000000,-7.000000,-7.000000,-15.000000,-2.000000,0.000000,-23.000000,2.000000
1299452.694431,-13.000000,-26.000000,38.000000,4.000000,-7.000000,-8.000000,8.000000,-6.000000
1299452.694485,-2.000000,31.000000,-23.000000,-10.000000,3.000000,-1.000000,-5.000000,-3.000000
1299452.695069,-58.000000,-5.000000,-31.000000,5.000000,8.000000,3.000000,-7.000000,-1.000000
1299452.695089,16.000000,-17.000000,17.000000,-2.000000,-6.000000,0.000000,17.000000,6.000000
1299452.700828,-6.000000,25.000000,3.000000,3.000000,5.000000,5.000000,4.000000,-8.000000
1299452.700854,15.000000,24.000000,-22.000000,10.000000,4.000000,-3.000000,-24.000000,-6.000000
1299452.730561,23.000000,-30.000000,-2.000000,-29.000000,4.000000,6.000000,11.000000,5.000000
1299452.730599,-50.000000,-5.000000,23.000000,-5.000000,-3.000000,-2.000000,-3.000000,-1.000000
1299452.738964,32.000000,19.000000,-10.000000,27.000000,1.000000,-5.000000,-3.000000,-1.000000
1299452.739089,18.000000,-22.000000,-14.000000,0.000000,-10.000000,0.000000,-5.000000,-5.000000
1299452.739554,-24.000000,-15.000000,37.000000,18.000000,2.000000,1.000000,28.000000,4.000000
1299452.739580,27.000000,44.000000,-9.000000,21.000000,4.000000,-1.000000,4.000000,0.000000
1299452.741109,-3.000000,-17.000000,-8.000000,2.000000,3.000000,-5.000000,-63.000000,-16.000000
1299452.741132,14.000000,-29.000000,29.000000,-5.000000,-9.000000,2.000000,28.000000,16.000000
1299452.768046,-27.000000,8.000000,-20.000000,-1.000000,-1.000000,-4.000000,-5.000000,-12.000000
1299452.768094,36.000000,6.000000,-16.000000,-6.000000,9.000000,4.000000,2.000000,10.000000
1299452.783394,32.000000,-29.000000,23.000000,-1.000000,-8.000000,-4.000000,7.000000,2.000000
1299452.783470,-45.000000,8.000000,28.000000,32.000000,0.000000,-3.000000,-9.000000,-16.000000
1299452.790746,11.000000,-8.000000,-36.000000,5.000000,5.000000,-1.000000,-15.000000,0.000000
1299452.790772,22.000000,0.000000,2.000000,-12.000000,-2.000000,3.000000,-1.000000,-3.000000
1299452.807031,-4.000000,4.000000,37.000000,15.000000,-14.000000,-4.000000,-19.000000,-4.000000
1299452.807059,18.000000,33.000000,-7.000000,-13.000000,16.000000,4.000000,4.000000,5.000000
1299452.807250,-26.000000,4.000000,-18.000000,2.000000,2.000000,6.000000,3.000000,1.000000
1299452.807271,-12.000000,-27.000000,37.000000,11.000000,-12.000000,-8.000000,-6.000000,-10.000000
1299452.808973,-20.000000,22.000000,5.000000,4.000000,5.000000,-1.000000,4.000000,-5.000000
1299452.809022,42.000000,19.000000,-55.000000,-3.000000,11.000000,12.000000,7.000000,9.000000
1299452.809541,22.000000,-29.000000,30.000000,-1.000000,-7.000000,-6.000000,-8.000000,-3.000000
1299452.809592,-95.000000,-7.000000,52.000000,-15.000000,-10.000000,-3.000000,-24.000000,-20.000000
1299452.820516,24.000000,23.000000,-54.000000,-12.000000,1.000000,-5.000000,-27.000000,11.000000
1299452.820542,28.000000,-11.000000,-5.000000,11.000000,-2.000000,0.000000,15.000000,-7.000000
1299452.828278,-15.000000,-6.000000,42.000000,-2.000000,-9.000000,-6.000000,-7.000000,-4.000000
1299452.828328,-10.000000,37.000000,2.000000,41.000000,12.000000,1.000000,10.000000,2.000000
1299452.844137,41.000000,-7.000000,-7.000000,-2.000000,-6.000000,1.000000,7.000000,8.000000
1299452.844179,-17.000000,-7.000000,-6.000000,-1.000000,4.000000,-2.000000,12.000000,2.000000
1299452.851032,-34.000000,8.000000,-1.000000,-2.000000,-5.000000,-2.000000,-5.000000,-8.000000
1299452.851073,18.000000,17.000000,-12.000000,3.000000,3.000000,2.000000,6.000000,8.000000
1299452.860189,27.000000,-32.000000,31.000000,3.000000,-9.000000,-7.000000,-13.000000,4.000000
1299452.860260,-31.000000,-13.000000,12.000000,21.000000,-2.000000,-4.000000,0.000000,-12.000000
1299452.881104,-3.000000,20.000000,-40.000000,-26.000000,4.000000,10.000000,14.000000,4.000000
1299452.881158,23.000000,-13.000000,-4.000000,-15.000000,1.000000,0.000000,-2.000000,3.000000
1299452.895761,-17.000000,-23.000000,18.000000,5.000000,-4.000000,-12.000000,1.000000,-3.000000
1299452.895818,8.000000,42.000000,-4.000000,1.000000,2.000000,-2.000000,1.000000,3.000000
1299452.903364,-6.000000,-5.000000,-48.000000,10.000000,5.000000,-2.000000,-55.000000,-39.000000
1299452.903424,-29.000000,-23.000000,6.000000,-18.000000,-11.000000,-2.000000,17.000000,1.000000
1299452.933190,26.000000,13.000000,-16.000000,-5.000000,3.000000,-1.000000,4.000000,-1.000000
1299452.933247,16.000000,26.000000,-23.000000,21.000000,6.000000,10.000000,-3.000000,7.000000
1299452.940779,-13.000000,-22.000000,37.000000,2.000000,-10.000000,-11.000000,-23.000000,-16.000000
1299452.940828,-30.000000,-11.000000,20.000000,-15.000000,-2.000000,4.000000,25.000000,14.000000
1299452.963420,7.000000,5.000000,-19.000000,23.000000,10.000000,2.000000,-16.000000,-9.000000
1299452.963574,2.000000,-5.000000,-15.000000,-22.000000,-7.000000,-4.000000,-8.000000,1.000000
1299452.971309,-23.000000,-7.000000,36.000000,-3.000000,-13.000000,-7.000000,11.000000,-6.000000
1299452.971359,-5.000000,17.000000,-11.000000,11.000000,7.000000,4.000000,5.000000,3.000000
1299452.973007,27.000000,42.000000,-5.000000,3.000000,7.000000,13.000000,12.000000,5.000000
1299452.973047,-20.000000,-18.000000,37.000000,-6.000000,-8.000000,-22.000000,-64.000000,-9.000000
1299452.974709,32.000000,13.000000,38.000000,9.000000,2.000000,3.000000,14.000000,6.000000
1299452.974747,-3.000000,15.000000,-52.000000,-1.000000,13.000000,7.000000,6.000000,-4.000000
1299452.974957,-6.000000,26.000000,-40.000000,6.000000,2.000000,1.000000,-5.000000,-7.000000
1299452.974999,24.000000,2.000000,-4.000000,8.000000,0.000000,4.000000,-14.000000,-1.000000
1299452.977936,-17.000000,-33.000000,29.000000,-16.000000,-11.000000,1.000000,14.000000,7.000000
1299452.977971,-10.000000,15.000000,-2.000000,0.000000,1.000000,-3.000000,-2.000000,-8.000000
1299452.985760,27.000000,10.000000,-52.000000,6.000000,8.000000,5.000000,-7.000000,5.000000
1299452.985797,-32.000000,-14.000000,1.000000,-4.000000,-7.000000,0.000000,6.000000,-8.000000
1299453.008341,-23.000000,5.000000,18.000000,-22.000000,-5.000000,-2.000000,-8.000000,-6.000000
1299453.008393,11.000000,28.000000,-25.000000,16.000000,6.000000,5.000000,2.000000,4.000000
1299453.015667,15.000000,-12.000000,24.000000,-3.000000,-7.000000,-6.000000,4.000000,15.000000
1299453.015717,-29.000000,-3.000000,5.000000,-15.000000,-2.000000,-5.000000,-14.000000,-15.000000
1299453.045862,-44.000000,32.000000,-12.000000,16.000000,12.000000,11.000000,-16.000000,-15.000000
1299453.045889,28.000000,-30.000000,0.000000,4.000000,-3.000000,-7.000000,-2.000000,22.000000
1299453.053082,12.000000,-11.000000,30.000000,4.000000,-9.000000,-1.000000,20.000000,14.000000
1299453.053111,8.000000,25.000000,-22.000000,-1.000000,9.000000,8.000000,0.000000,14.000000
1299453.067842,8.000000,15.000000,-5.000000,-4.000000,-4.000000,1.000000,1.000000,-3.000000
1299453.067888,1.000000,-15.000000,36.000000,13.000000,2.000000,-4.000000,10.000000,-2.000000
1299453.083274,-52.000000,3.000000,7.000000,-6.000000,1.000000,-2.000000,-17.000000,-11.000000
1299453.083324,64.000000,18.000000,-15.000000,-19.000000,6.000000,4.000000,16.000000,38.000000
1299453.098155,-5.000000,-32.000000,9.000000,7.000000,-13.000000,-7.000000,-4.000000,-5.000000
1299453.098205,-22.000000,-5.000000,-10.000000,-51.000000,-6.000000,-7.000000,-10.000000,-23.000000
1299453.105934,7.000000,19.000000,-30.000000,-14.000000,14.000000,10.000000,1.000000,-8.000000
1299453.105963,11.000000,-12.000000,-29.000000,-3.000000,-1.000000,-1.000000,3.000000,6.000000
1299453.122621,-18.000000,-8.000000,13.000000,-5.000000,-4.000000,-10.000000,-19.000000,-14.000000
1299453.122683,-10.000000,6.000000,-16.000000,19.000000,12.000000,1.000000,6.000000,4.000000
1299453.123009,37.000000,9.000000,-13.000000,-2.000000,4.000000,8.000000,6.000000,-5.000000
1299453.123057,-32.000000,-30.000000,20.000000,6.000000,-8.000000,-9.000000,-25.000000,3.000000
1299453.124410,11.000000,1.000000,-4.000000,19.000000,1.000000,-2.000000,17.000000,6.000000
1299453.124464,2.000000,6.000000,-23.000000,13.000000,10.000000,6.000000,-16.000000,3.000000
1299453.124782,38.000000,-12.000000,23.000000,-11.000000,-13.000000,-3.000000,13.000000,-3.000000
1299453.124799,3.000000,7.000000,10.000000,10.000000,0.000000,2.000000,22.000000,34.000000
1299453.125786,28.000000,41.000000,-23.000000,-5.000000,10.000000,3.000000,8.000000,1.000000
1299453.125831,-25.000000,-11.000000,4.000000,8.000000,-1.000000,-9.000000,-18.000000,-8.000000
1299453.127954,-12.000000,-26.000000,3.000000,1.000000,-2.000000,-8.000000,-5.000000,-7.000000
1299453.127978,5.000000,30.000000,-13.000000,15.000000,5.000000,6.000000,4.000000,4.000000
1299453.136627,16.000000,-20.000000,-31.000000,-41.000000,1.000000,1.000000,1.000000,-2.000000
1299453.136760,10.000000,-29.000000,29.000000,0.000000,-9.000000,-11.000000,-30.000000,-4.000000
1299453.150855,-48.000000,0.000000,-9.000000,-20.000000,3.000000,-5.000000,1.000000,-3.000000
1299453.151022,21.000000,-4.000000,-64.000000,-2.000000,7.000000,8.000000,13.000000,3.000000
1299453.166367,1.000000,-19.000000,25.000000,36.000000,9.000000,3.000000,9.000000,0.000000
1299453.166400,12.000000,5.000000,38.000000,-7.000000,-7.000000,-9.000000,-15.000000,-12.000000
1299453.167032,-18.000000,39.000000,-59.000000,3.000000,5.000000,1.000000,-5.000000,-1.000000
1299453.167083,27.000000,-6.000000,13.000000,5.000000,-7.000000,1.000000,8.000000,4.000000
1299453.195867,-28.000000,-16.000000,72.000000,6.000000,-1.000000,-7.000000,-3.000000,-2.000000
1299453.195900,22.000000,-7.000000,-41.000000,2.000000,-3.000000,0.000000,-1.000000,2.000000
1299453.203598,32.000000,1.000000,9.000000,10.000000,8.000000,3.000000,-2.000000,0.000000
1299453.203645,-12.000000,-36.000000,23.000000,-46.000000,-6.000000,-6.000000,10.000000,8.000000
1299453.204974,1.000000,6.000000,-21.000000,21.000000,3.000000,2.000000,2.000000,-5.000000
1299453.205025,23.000000,-2.000000,-18.000000,2.000000,4.000000,3.000000,-10.000000,-1.000000
1299453.210706,-4.000000,-26.000000,11.000000,-15.000000,-7.000000,-7.000000,13.000000,9.000000
1299453.210742,-22.000000,-4.000000,2.000000,-8.000000,-3.000000,-3.000000,-18.000000,-27.000000
1299453.233252,26.000000,38.000000,-37.000000,-14.000000,-1.000000,3.000000,4.000000,-15.000000
1299453.233279,18.000000,-15.000000,13.000000,-10.000000,-15.000000,-6.000000,-14.000000,4.000000
1299453.247995,-34.000000,-39.000000,47.000000,5.000000,0.000000,-8.000000,-29.000000,-29.000000
1299453.248044,-50.000000,25.000000,-66.000000,0.000000,10.000000,-1.000000,6.000000,-15.000000
1299453.271151,28.000000,0.000000,10.000000,-1.000000,-1.000000,6.000000,7.000000,6.000000
1299453.271194,-22.000000,-26.000000,14.000000,-12.000000,-10.000000,-3.000000,8.000000,-8.000000
1299453.271441,-20.000000,13.000000,-13.000000,3.000000,5.000000,-2.000000,-15.000000,-2.000000
1299453.271486,27.000000,10.000000,-83.000000,-37.000000,4.000000,2.000000,10.000000,4.000000
1299453.272865,-8.000000,-26.000000,48.000000,-10.000000,-9.000000,-6.000000,-19.000000,-1.000000
1299453.272916,-17.000000,-5.000000,2.000000,-8.000000,5.000000,-3.000000,18.000000,3.000000
1299453.286286,3.000000,27.000000,-26.000000,6.000000,4.000000,0.000000,-41.000000,-10.000000
1299453.286343,14.000000,-17.000000,12.000000,5.000000,-11.000000,-1.000000,6.000000,7.000000
1299453.287683,-13.000000,-8.000000,8.000000,-14.000000,-12.000000,-9.000000,7.000000,-11.000000
1299453.287819,12.000000,20.000000,-27.000000,7.000000,14.000000,-8.000000,-23.000000,-4.000000
1299453.288093,-24.000000,-15.000000,-2.000000,-15.000000,-7.000000,3.000000,0.000000,4.000000
1299453.288132,-17.000000,-38.000000,35.000000,17.000000,-3.000000,-7.000000,-17.000000,-16.000000
1299453.323436,3.000000,33.000000,19.000000,-6.000000,-3.000000,-1.000000,2.000000,-20.000000
1299453.323858,23.000000,11.000000,-41.000000,11.000000,-4.000000,3.000000,2.000000,8.000000
1299453.324483,3.000000,-32.000000,42.000000,0.000000,-10.000000,-10.000000,3.000000,-4.000000
1299453.324509,-21.000000,3.000000,7.000000,18.000000,4.000000,0.000000,-6.000000,-2.000000
1299453.338082,10.000000,53.000000,-59.000000,-10.000000,14.000000,10.000000,0.000000,-2.000000
1299453.338131,4.000000,-22.000000,26.000000,8.000000,-8.000000,0.000000,6.000000,2.000000
1299453.346076,-28.000000,-23.000000,37.000000,-21.000000,-10.000000,-6.000000,-3.000000,-4.000000
1299453.346121,1.000000,28.000000,-45.000000,0.000000,14.000000,7.000000,8.000000,4.000000
1299453.368766,33.000000,6.000000,37.000000,25.000000,-3.000000,-4.000000,-26.000000,1.000000
1299453.368853,-78.000000,-28.000000,10.000000,-42.000000,-19.000000,-7.000000,1.000000,-16.000000
1299453.375663,10.000000,31.000000,2.000000,-33.000000,6.000000,9.000000,4.000000,13.000000
1299453.375713,18.000000,-5.000000,-40.000000,21.000000,15.000000,-2.000000,-28.000000,-8.000000
1299453.398432,6.000000,-8.000000,38.000000,14.000000,-7.000000,-11.000000,-23.000000,5.000000
1299453.398470,-45.000000,-3.000000,10.000000,-1.000000,2.000000,0.000000,13.000000,-9.000000
1299453.399603,39.000000,35.000000,-17.000000,-7.000000,9.000000,7.000000,-32.000000,-59.000000
1299453.399631,4.000000,-30.000000,4.000000,21.000000,-2.000000,3.000000,17.000000,24.000000
1299453.401430,-51.000000,-10.000000,30.000000,-19.000000,-4.000000,-10.000000,-9.000000,-11.000000
1299453.401481,30.000000,27.000000,-46.000000,20.000000,4.000000,4.000000,-7.000000,-5.000000
1299453.401736,30.000000,1.000000,-2.000000,-14.000000,1.000000,3.000000,14.000000,9.000000
1299453.401783,-13.000000,-25.000000,12.000000,10.000000,-10.000000,-3.000000,4.000000,-6.000000
1299453.405533,3.000000,-31.000000,29.000000,8.000000,-10.000000,-5.000000,0.000000,0.000000
1299453.405589,-37.000000,13.000000,-1.000000,-10.000000,1.000000,0.000000,4.000000,-8.000000
1299453.435532,21.000000,9.000000,-12.000000,3.000000,9.000000,5.000000,-12.000000,-10.000000
1299453.435588,37.000000,-24.000000,46.000000,22.000000,-11.000000,-9.000000,-50.000000,-11.000000
1299453.442974,-66.000000,5.000000,-32.000000,14.000000,5.000000,-5.000000,7.000000,-5.000000
1299453.443022,46.000000,30.000000,-46.000000,-4.000000,9.000000,8.000000,-3.000000,-8.000000
1299453.473127,4.000000,-19.000000,-2.000000,-7.000000,-2.000000,2.000000,26.000000,12.000000
1299453.473154,2.000000,-16.000000,58.000000,-11.000000,-10.000000,-8.000000,3.000000,6.000000
1299453.480863,-28.000000,16.000000,-12.000000,10.000000,16.000000,3.000000,-17.000000,-13.000000
1299453.480908,40.000000,14.000000,-17.000000,19.000000,3.000000,8.000000,18.000000,16.000000
1299453.495979,10.000000,-14.000000,29.000000,-5.000000,-5.000000,-8.000000,3.000000,2.000000
1299453.496008,-12.000000,9.000000,-3.000000,3.000000,3.000000,-1.000000,5.000000,1.000000
1299453.520353,27.000000,27.000000,-38.000000,4.000000,8.000000,5.000000,16.000000,8.000000
1299453.520397,10.000000,-31.000000,27.000000,-2.000000,-6.000000,-11.000000,-22.000000,-3.000000
1299453.520966,-38.000000,-10.000000,26.000000,1.000000,-3.000000,-2.000000,-30.000000,-14.000000
1299453.520994,-6.000000,23.000000,-22.000000,2.000000,3.000000,8.000000,7.000000,-12.000000
1299453.521206,34.000000,-5.000000,-17.000000,-16.000000,-8.000000,0.000000,18.000000,14.000000
1299453.521233,-25.000000,-15.000000,51.000000,8.000000,-5.000000,-7.000000,-5.000000,15.000000
1299453.522566,-7.000000,-31.000000,26.000000,-11.000000,-6.000000,-5.000000,7.000000,-3.000000
1299453.522932,-9.000000,20.000000,20.000000,-9.000000,5.000000,3.000000,2.000000,0.000000
1299453.523222,7.000000,42.000000,-30.000000,0.000000,4.000000,-2.000000,-8.000000,-2.000000
1299453.523274,26.000000,-6.000000,-48.000000,7.000000,12.000000,10.000000,6.000000,8.000000
1299453.525859,-81.000000,-16.000000,44.000000,-28.000000,-7.000000,-12.000000,-23.000000,-34.000000
1299453.525916,-6.000000,8.000000,-41.000000,-3.000000,11.000000,7.000000,8.000000,7.000000
1299453.563021,25.000000,-3.000000,-2.000000,5.000000,-10.000000,2.000000,-2.000000,0.000000
1299453.563069,-2.000000,-16.000000,34.000000,33.000000,-3.000000,-6.000000,-22.000000,-3.000000
1299453.570622,-13.000000,27.000000,-11.000000,-14.000000,9.000000,3.000000,14.000000,4.000000
1299453.570648,27.000000,1.000000,-42.000000,5.000000,5.000000,1.000000,4.000000,1.000000
1299453.600751,-30.000000,-23.000000,20.000000,3.000000,-13.000000,-10.000000,-1.000000,-3.000000
1299453.600798,-35.000000,-10.000000,-10.000000,-25.000000,1.000000,4.000000,0.000000,-10.000000
1299453.615725,20.000000,10.000000,-11.000000,10.000000,6.000000,-3.000000,-7.000000,-9.000000
1299453.615772,4.000000,-28.000000,-44.000000,-14.000000,-11.000000,-1.000000,-2.000000,-1.000000
1299453.639042,-1.000000,-7.000000,28.000000,-3.000000,-3.000000,2.000000,5.000000,-1.000000
1299453.639082,12.000000,25.000000,-14.000000,11.000000,10.000000,1.000000,-12.000000,-9.000000
1299453.640239,1.000000,-14.000000,-2.000000,-2.000000,-3.000000,-1.000000,14.000000,3.000000
1299453.640273,-65.000000,-43.000000,17.000000,3.000000,-8.000000,-4.000000,19.000000,52.000000
1299453.641613,34.000000,32.000000,-30.000000,-36.000000,1.000000,-3.000000,-38.000000,-21.000000
1299453.641636,37.000000,-4.000000,-24.000000,6.000000,9.000000,9.000000,19.000000,5.000000
1299453.641746,-9.000000,0.000000,38.000000,11.000000,-4.000000,-3.000000,-17.000000,-1.000000
1299453.641760,7.000000,22.000000,-11.000000,3.000000,6.000000,-1.000000,0.000000,7.000000
1299453.642702,18.000000,-7.000000,-21.000000,-5.000000,-1.000000,-1.000000,3.000000,-1.000000
1299453.642746,-24.000000,-6.000000,29.000000,5.000000,-9.000000,-5.000000,11.000000,-1.000000
1299453.653445,-28.000000,24.000000,-21.000000,2.000000,0.000000,4.000000,-1.000000,-5.000000
1299453.653676,58.000000,-2.000000,-20.000000,1.000000,4.000000,-1.000000,-4.000000,7.000000
1299453.676179,-5.000000,-7.000000,38.000000,12.000000,-5.000000,-7.000000,12.000000,-8.000000
1299453.676222,-16.000000,-5.000000,-1.000000,-7.000000,2.000000,4.000000,-4.000000,-19.000000
1299453.677032,47.000000,7.000000,-34.000000,5.000000,1.000000,3.000000,-48.000000,14.000000
1299453.677081,-28.000000,-22.000000,10.000000,-12.000000,-16.000000,-10.000000,11.000000,-9.000000
1299453.683058,-10.000000,-5.000000,23.000000,9.000000,-4.000000,-1.000000,-6.000000,-6.000000
1299453.683104,32.000000,19.000000,-24.000000,-28.000000,13.000000,6.000000,8.000000,2.000000
1299453.690823,21.000000,-8.000000,-12.000000,-4.000000,0.000000,1.000000,12.000000,17.000000
1299453.690869,-23.000000,-15.000000,12.000000,0.000000,-8.000000,-7.000000,-10.000000,-6.000000
1299453.721124,3.000000,31.000000,0.000000,48.000000,5.000000,7.000000,10.000000,4.000000
1299453.721173,31.000000,-2.000000,-27.000000,-27.000000,13.000000,2.000000,-12.000000,-1.000000
1299453.728451,-32.000000,-21.000000,30.000000,25.000000,-11.000000,-7.000000,8.000000,-2.000000
1299453.728481,23.000000,19.000000,-27.000000,-13.000000,0.000000,5.000000,22.000000,-3.000000
1299453.750773,35.000000,18.000000,-3.000000,17.000000,6.000000,6.000000,-5.000000,6.000000
1299453.750801,-35.000000,-35.000000,25.000000,-22.000000,-5.000000,-6.000000,-15.000000,-11.000000
1299453.758580,-38.000000,5.000000,5.000000,-11.000000,0.000000,-5.000000,7.000000,2.000000
1299453.758955,15.000000,34.000000,-34.000000,1.000000,7.000000,4.000000,1.000000,4.000000
1299453.760520,18.000000,-5.000000,-8.000000,4.000000,1.000000,-4.000000,8.000000,-16.000000
1299453.760567,-6.000000,-17.000000,36.000000,19.000000,-3.000000,-4.000000,0.000000,15.000000
1299453.760865,9.000000,23.000000,-28.000000,-2.000000,8.000000,2.000000,-4.000000,-1.000000
1299453.761060,40.000000,3.000000,-8.000000,-1.000000,3.000000,8.000000,12.000000,18.000000
1299453.762351,-37.000000,-38.000000,33.000000,-11.000000,-19.000000,-12.000000,-3.000000,-9.000000
1299453.762377,-16.000000,18.000000,-53.000000,8.000000,-3.000000,0.000000,-3.000000,-6.000000
1299453.773317,34.000000,15.000000,-36.000000,-6.000000,3.000000,4.000000,6.000000,9.000000
1299453.773346,-27.000000,-13.000000,48.000000,-31.000000,-10.000000,-9.000000,-2.000000,-18.000000
1299453.788416,-33.000000,-4.000000,23.000000,12.000000,-4.000000,-4.000000,3.000000,7.000000
1299453.788756,27.000000,42.000000,-62.000000,-6.000000,1.000000,2.000000,21.000000,2.000000
1299453.789581,-9.000000,1.000000,24.000000,-28.000000,5.000000,-3.000000,-28.000000,0.000000
1299453.789606,-38.000000,-26.000000,24.000000,17.000000,3.000000,-8.000000,6.000000,-3.000000
1299453.810748,-4.000000,21.000000,-19.000000,0.000000,6.000000,2.000000,0.000000,-10.000000
1299453.810775,39.000000,6.000000,-24.000000,-14.000000,-1.000000,4.000000,24.000000,7.000000
1299453.848110,5.000000,-25.000000,-3.000000,3.000000,-10.000000,-5.000000,-12.000000,-9.000000
1299453.848154,-49.000000,12.000000,13.000000,-1.000000,-3.000000,-7.000000,-12.000000,6.000000
1299453.878596,45.000000,22.000000,-30.000000,25.000000,14.000000,5.000000,9.000000,3.000000
1299453.878667,6.000000,-20.000000,36.000000,-9.000000,-1.000000,0.000000,5.000000,1.000000
1299453.880147,-13.000000,12.000000,23.000000,2.000000,-3.000000,-2.000000,-2.000000,-6.000000
1299453.880197,6.000000,38.000000,-31.000000,-21.000000,3.000000,5.000000,0.000000,2.000000
1299453.880817,-6.000000,-15.000000,13.000000,8.000000,-4.000000,-5.000000,-2.000000,-2.000000
1299453.880856,-13.000000,-12.000000,29.000000,-6.000000,-6.000000,-7.000000,-46.000000,-18.000000
1299453.882294,-9.000000,-41.000000,14.000000,48.000000,-3.000000,3.000000,11.000000,-1.000000
1299453.882407,-10.000000,11.000000,21.000000,-10.000000,-6.000000,-4.000000,-30.000000,6.000000
1299453.882676,16.000000,28.000000,-20.000000,4.000000,9.000000,6.000000,7.000000,0.000000
1299453.882699,15.000000,-5.000000,-20.000000,3.000000,4.000000,1.000000,9.000000,7.000000
1299453.882876,6.000000,7.000000,-63.000000,0.000000,0.000000,-6.000000,-2.000000,3.000000
1299453.882891,1.000000,-12.000000,32.000000,-17.000000,-13.000000,-3.000000,11.000000,4.000000
1299453.893642,25.000000,-22.000000,11.000000,9.000000,-7.000000,-5.000000,-26.000000,1.000000
1299453.893812,-51.000000,-4.000000,25.000000,7.000000,-9.000000,-7.000000,-6.000000,-11.000000
1299453.900945,22.000000,16.000000,-25.000000,-51.000000,13.000000,5.000000,8.000000,7.000000
1299453.900993,-10.000000,-4.000000,-19.000000,16.000000,-1.000000,-1.000000,-5.000000,-16.000000
1299453.915941,-42.000000,-51.000000,50.000000,-5.000000,-14.000000,-7.000000,15.000000,-10.000000
1299453.915971,30.000000,16.000000,-12.000000,9.000000,-2.000000,2.000000,-6.000000,17.000000
1299453.931007,43.000000,18.000000,9.000000,18.000000,15.000000,5.000000,1.000000,5.000000
1299453.931061,-53.000000,-15.000000,-7.000000,-23.000000,-15.000000,-6.000000,9.000000,-2.000000
1299453.968176,10.000000,15.000000,-3.000000,9.000000,-3.000000,-4.000000,-22.000000,-14.000000
1299453.968288,41.000000,23.000000,-12.000000,10.000000,4.000000,3.000000,-24.000000,6.000000
1299453.975537,-23.000000,-13.000000,6.000000,-15.000000,3.000000,2.000000,9.000000,-6.000000
1299453.975588,-11.000000,-12.000000,32.000000,-4.000000,-14.000000,-10.000000,-10.000000,-5.000000
1299453.999438,-10.000000,8.000000,-32.000000,-14.000000,-3.000000,0.000000,14.000000,-1.000000
1299453.999477,17.000000,-3.000000,-43.000000,-28.000000,2.000000,1.000000,-10.000000,7.000000
1299454.000918,-13.000000,-21.000000,48.000000,17.000000,-14.000000,-2.000000,8.000000,5.000000
1299454.001202,-6.000000,16.000000,6.000000,28.000000,12.000000,2.000000,-23.000000,-8.000000
1299454.001879,28.000000,14.000000,-11.000000,-7.000000,1.000000,-1.000000,0.000000,-9.000000
1299454.001929,-11.000000,-37.000000,21.000000,40.000000,0.000000,2.000000,15.000000,9.000000
1299454.002328,-15.000000,6.000000,-13.000000,-18.000000,-5.000000,-7.000000,-23.000000,-7.000000
1299454.002351,20.000000,33.000000,-19.000000,1.000000,5.000000,3.000000,-5.000000,4.000000
1299454.028627,-18.000000,-18.000000,23.000000,-6.000000,-17.000000,-13.000000,-14.000000,-9.000000
1299454.028677,-1.000000,25.000000,1.000000,3.000000,2.000000,5.000000,19.000000,6.000000
1299454.035660,23.000000,9.000000,-18.000000,26.000000,2.000000,3.000000,-13.000000,5.000000
1299454.035706,-25.000000,-16.000000,14.000000,-1.000000,1.000000,-6.000000,-16.000000,-3.000000
1299454.065782,-3.000000,9.000000,-3.000000,-22.000000,-3.000000,-4.000000,9.000000,-2.000000
1299454.065809,21.000000,27.000000,-34.000000,5.000000,3.000000,2.000000,4.000000,2.000000
1299454.081068,5.000000,-25.000000,13.000000,-4.000000,-5.000000,-4.000000,7.000000,17.000000
1299454.081120,-34.000000,-10.000000,-3.000000,2.000000,1.000000,-10.000000,-11.000000,-17.000000
1299454.096520,-6.000000,23.000000,-15.000000,-22.000000,5.000000,12.000000,-2.000000,0.000000
1299454.096566,9.000000,0.000000,-28.000000,-5.000000,-5.000000,-5.000000,-5.000000,7.000000
1299454.104039,2.000000,-43.000000,52.000000,-21.000000,-7.000000,-7.000000,-14.000000,-5.000000
1299454.104078,-5.000000,31.000000,-11.000000,-16.000000,5.000000,4.000000,9.000000,-8.000000
1299454.118664,5.000000,6.000000,-45.000000,-5.000000,2.000000,-2.000000,-8.000000,-1.000000
1299454.119109,3.000000,-18.000000,31.000000,20.000000,-4.000000,-11.000000,-2.000000,-9.000000
1299454.120435,-1.000000,-31.000000,6.000000,-10.000000,-15.000000,-8.000000,0.000000,7.000000
1299454.120476,-27.000000,6.000000,32.000000,-9.000000,-11.000000,-5.000000,0.000000,-15.000000
1299454.122321,-17.000000,-23.000000,35.000000,-20.000000,-7.000000,-3.000000,10.000000,-3.000000
1299454.122376,-13.000000,39.000000,-33.000000,-4.000000,-2.000000,-2.000000,8.000000,-5.000000
1299454.123014,-1.000000,21.000000,-23.000000,8.000000,7.000000,7.000000,6.000000,9.000000
1299454.123045,14.000000,-2.000000,-9.000000,37.000000,9.000000,1.000000,-14.000000,1.000000
1299454.123333,24.000000,-7.000000,-10.000000,-2.000000,3.000000,-1.000000,-28.000000,5.000000
1299454.123435,1.000000,-11.000000,23.000000,-13.000000,-9.000000,-1.000000,16.000000,-2.000000
1299454.140801,-23.000000,17.000000,0.000000,39.000000,15.000000,-3.000000,-8.000000,-3.000000
1299454.141051,25.000000,17.000000,-17.000000,-14.000000,0.000000,3.000000,4.000000,-4.000000
1299454.141562,40.000000,-34.000000,-39.000000,-11.000000,-9.000000,-4.000000,1.000000,12.000000
1299454.141584,-41.000000,13.000000,27.000000,30.000000,-9.000000,-5.000000,10.000000,-4.000000
1299454.163393,-2.000000,10.000000,-1.000000,11.000000,-1.000000,6.000000,1.000000,-1.000000
1299454.163514,-26.000000,-16.000000,-10.000000,2.000000,8.000000,0.000000,-6.000000,-10.000000
1299454.170616,-7.000000,-11.000000,31.000000,10.000000,-7.000000,-9.000000,-19.000000,-7.000000
1299454.170643,-11.000000,7.000000,-19.000000,0.000000,6.000000,0.000000,20.000000,7.000000
1299454.193464,23.000000,7.000000,-32.000000,4.000000,0.000000,0.000000,-4.000000,1.000000
1299454.193577,-7.000000,-22.000000,35.000000,15.000000,-10.000000,-3.000000,11.000000,4.000000
1299454.200689,1.000000,-1.000000,15.000000,11.000000,-2.000000,0.000000,-2.000000,-8.000000
1299454.200722,31.000000,14.000000,-58.000000,-26.000000,4.000000,1.000000,5.000000,18.000000
1299454.215556,3.000000,-32.000000,20.000000,3.000000,-5.000000,1.000000,6.000000,-15.000000
1299454.215595,-24.000000,-5.000000,20.000000,-9.000000,-8.000000,-9.000000,-20.000000,-3.000000
1299454.230537,15.000000,23.000000,-5.000000,-5.000000,9.000000,2.000000,-19.000000,5.000000
1299454.230583,5.000000,-9.000000,-15.000000,22.000000,-14.000000,-4.000000,6.000000,-2.000000
1299454.245975,-30.000000,-14.000000,45.000000,-46.000000,-1.000000,1.000000,17.000000,-9.000000
1299454.246004,12.000000,25.000000,-19.000000,9.000000,1.000000,-3.000000,7.000000,11.000000
1299454.268324,16.000000,1.000000,-25.000000,-15.000000,5.000000,0.000000,-26.000000,-5.000000
1299454.268381,-53.000000,-23.000000,31.000000,12.000000,-7.000000,-8.000000,-4.000000,-15.000000
1299454.283393,-15.000000,14.000000,-8.000000,12.000000,-1.000000,4.000000,7.000000,1.000000
1299454.283430,5.000000,10.000000,-19.000000,-12.000000,8.000000,-2.000000,15.000000,2.000000
1299454.305801,8.000000,-39.000000,-12.000000,7.000000,-9.000000,-3.000000,-23.000000,2.000000
1299454.305829,-29.000000,-8.000000,44.000000,-1.000000,-3.000000,-7.000000,-1.000000,-7.000000
1299454.320636,20.000000,26.000000,-38.000000,4.000000,2.000000,4.000000,6.000000,-2.000000
1299454.320682,6.000000,-25.000000,11.000000,21.000000,-8.000000,-1.000000,11.000000,3.000000
1299454.328589,-10.000000,-29.000000,38.000000,-2.000000,-1.000000,-9.000000,0.000000,-6.000000
1299454.328618,-10.000000,23.000000,-43.000000,-6.000000,3.000000,3.000000,-18.000000,-7.000000
1299454.350921,-68.000000,3.000000,-2.000000,-4.000000,1.000000,-4.000000,-11.000000,-14.000000
1299454.350983,24.000000,12.000000,-24.000000,-12.000000,10.000000,5.000000,-14.000000,4.000000
1299454.365810,-14.000000,-1.000000,-56.000000,28.000000,6.000000,5.000000,3.000000,0.000000
1299454.365863,26.000000,-5.000000,-7.000000,-30.000000,9.000000,0.000000,1.000000,8.000000
1299454.440697,-12.000000,-22.000000,-35.000000,11.000000,-1.000000,-2.000000,15.000000,4.000000
1299454.440727,-7.000000,4.000000,37.000000,-7.000000,-2.000000,2.000000,12.000000,-1.000000
1299454.472594,38.000000,-2.000000,-20.000000,28.000000,8.000000,5.000000,8.000000,7.000000
1299454.472649,-37.000000,-11.000000,31.000000,9.000000,-17.000000,-11.000000,1.000000,-5.000000
1299454.473677,2.000000,12.000000,9.000000,-8.000000,1.000000,-5.000000,-7.000000,-13.000000
1299454.473726,10.000000,30.000000,-34.000000,-7.000000,8.000000,6.000000,4.000000,-2.000000
1299454.474273,40.000000,-13.000000,-9.000000,8.000000,-5.000000,-3.000000,30.000000,11.000000
1299454.474317,-27.000000,-25.000000,29.000000,0.000000,-6.000000,-3.000000,4.000000,-2.000000
1299454.476053,10.000000,-14.000000,38.000000,7.000000,-7.000000,-4.000000,-7.000000,-1.000000
1299454.476091,-9.000000,51.000000,-41.000000,-24.000000,19.000000,4.000000,9.000000,-8.000000
1299454.478532,-32.000000,8.000000,-7.000000,7.000000,8.000000,0.000000,9.000000,-6.000000
1299454.478560,39.000000,19.000000,-22.000000,-10.000000,7.000000,4.000000,13.000000,9.000000
1299454.508306,8.000000,-22.000000,38.000000,41.000000,-4.000000,-4.000000,-3.000000,-13.000000
1299454.508380,-41.000000,-11.000000,-3.000000,-32.000000,-4.000000,-2.000000,2.000000,12.000000
1299454.515831,8.000000,24.000000,-11.000000,21.000000,7.000000,4.000000,6.000000,1.000000
1299454.515882,-3.000000,-6.000000,-15.000000,-9.000000,-5.000000,-2.000000,7.000000,1.000000
1299454.553343,-27.000000,-23.000000,34.000000,0.000000,-9.000000,-6.000000,5.000000,-1.000000
1299454.553371,-10.000000,5.000000,-16.000000,-14.000000,7.000000,0.000000,-6.000000,-6.000000
1299454.560817,11.000000,-9.000000,-20.000000,-18.000000,-8.000000,1.000000,2.000000,0.000000
1299454.560863,-27.000000,-40.000000,39.000000,12.000000,-7.000000,-4.000000,-12.000000,-1.000000
1299454.591396,-18.000000,9.000000,-9.000000,-9.000000,0.000000,0.000000,-3.000000,-5.000000
1299454.591731,43.000000,20.000000,-37.000000,-54.000000,0.000000,-3.000000,8.000000,-2.000000
1299454.592375,-38.000000,-29.000000,18.000000,15.000000,-5.000000,-3.000000,-3.000000,4.000000
1299454.592416,-21.000000,13.000000,23.000000,-2.000000,-7.000000,-9.000000,-20.000000,-3.000000
1299454.594020,-10.000000,39.000000,-25.000000,8.000000,2.000000,2.000000,-27.000000,-15.000000
1299454.594076,29.000000,-15.000000,15.000000,42.000000,-1.000000,-1.000000,22.000000,6.000000
1299454.595930,-8.000000,7.000000,-21.000000,-15.000000,7.000000,2.000000,-3.000000,-10.000000
1299454.595984,35.000000,2.000000,-26.000000,-1.000000,1.000000,-1.000000,-19.000000,0.000000
1299454.605691,17.000000,25.000000,-38.000000,3.000000,24.000000,10.000000,-8.000000,-4.000000
1299454.605888,-6.000000,-21.000000,5.000000,-13.000000,-10.000000,-1.000000,8.000000,-4.000000
1299454.621741,8.000000,-13.000000,5.000000,6.000000,-6.000000,2.000000,18.000000,-5.000000
1299454.621765,-33.000000,18.000000,-17.000000,-2.000000,5.000000,0.000000,-27.000000,5.000000
1299454.622278,36.000000,-12.000000,-5.000000,6.000000,6.000000,2.000000,18.000000,2.000000
1299454.622304,12.000000,-10.000000,38.000000,5.000000,-14.000000,-13.000000,-14.000000,-11.000000
1299454.635946,-10.000000,31.000000,-7.000000,3.000000,7.000000,10.000000,22.000000,5.000000
1299454.635975,12.000000,13.000000,-42.000000,-6.000000,8.000000,4.000000,6.000000,0.000000
1299454.643281,0.000000,-18.000000,16.000000,-1.000000,-14.000000,-6.000000,8.000000,0.000000
1299454.643306,-40.000000,4.000000,30.000000,-7.000000,1.000000,4.000000,5.000000,5.000000
1299454.672990,37.000000,23.000000,-55.000000,3.000000,8.000000,5.000000,3.000000,1.000000
1299454.673039,33.000000,-4.000000,27.000000,-5.000000,-7.000000,-6.000000,0.000000,0.000000
1299454.680954,-26.000000,-7.000000,12.000000,15.000000,3.000000,1.000000,0.000000,-4.000000
1299454.680998,-1.000000,23.000000,-35.000000,-15.000000,-2.000000,6.000000,3.000000,-5.000000
1299454.710826,32.000000,30.000000,-12.000000,-14.000000,3.000000,-1.000000,-8.000000,8.000000
1299454.710868,-13.000000,-27.000000,44.000000,12.000000,2.000000,-4.000000,10.000000,11.000000
1299454.711696,-12.000000,34.000000,12.000000,-2.000000,0.000000,-4.000000,-19.000000,-9.000000
1299454.711744,27.000000,16.000000,-33.000000,5.000000,3.000000,0.000000,-10.000000,6.000000
1299454.713073,-4.000000,-15.000000,32.000000,25.000000,-4.000000,2.000000,7.000000,2.000000
1299454.713125,14.000000,0.000000,8.000000,-16.000000,-1.000000,-5.000000,-5.000000,12.000000
1299454.714125,-9.000000,30.000000,-25.000000,-2.000000,9.000000,12.000000,25.000000,12.000000
1299454.714467,6.000000,-22.000000,12.000000,7.000000,-1.000000,-9.000000,-28.000000,-4.000000
1299454.715066,-13.000000,0.000000,12.000000,-5.000000,-6.000000,-6.000000,10.000000,-3.000000
1299454.715109,9.000000,23.000000,-42.000000,-3.000000,0.000000,6.000000,7.000000,1.000000
1299454.725993,27.000000,-11.000000,2.000000,1.000000,-3.000000,-1.000000,6.000000,22.000000
1299454.726019,-13.000000,-20.000000,36.000000,4.000000,-5.000000,-9.000000,-14.000000,-7.000000
1299454.755585,-32.000000,34.000000,-37.000000,-4.000000,17.000000,15.000000,10.000000,-6.000000
1299454.755674,32.000000,8.000000,-33.000000,-16.000000,-3.000000,-3.000000,-9.000000,2.000000
1299454.762972,4.000000,-30.000000,33.000000,7.000000,-12.000000,0.000000,15.000000,13.000000
1299454.762997,-33.000000,0.000000,20.000000,42.000000,-1.000000,-9.000000,-10.000000,-9.000000
1299454.793215,19.000000,26.000000,-51.000000,-20.000000,7.000000,-3.000000,-33.000000,-4.000000
1299454.793269,-3.000000,-22.000000,22.000000,-11.000000,1.000000,-1.000000,13.000000,6.000000
1299454.800692,-11.000000,-3.000000,21.000000,7.000000,-10.000000,-7.000000,0.000000,-14.000000
1299454.800743,47.000000,30.000000,-44.000000,17.000000,9.000000,2.000000,-10.000000,3.000000
1299454.830591,-20.000000,-3.000000,2.000000,5.000000,0.000000,-6.000000,5.000000,-5.000000
1299454.830634,-18.000000,-25.000000,40.000000,11.000000,-7.000000,2.000000,5.000000,10.000000
1299454.838043,16.000000,40.000000,-26.000000,-2.000000,1.000000,0.000000,2.000000,-4.000000
1299454.838094,28.000000,8.000000,-7.000000,-7.000000,1.000000,-1.000000,0.000000,-1.000000
1299454.868315,20.000000,21.000000,-22.000000,-19.000000,-4.000000,-3.000000,-23.000000,-6.000000
1299454.868369,6.000000,-21.000000,6.000000,3.000000,-9.000000,-2.000000,5.000000,3.000000
1299454.883533,-17.000000,1.000000,50.000000,-14.000000,-5.000000,0.000000,17.000000,0.000000
1299454.883590,-2.000000,14.000000,-42.000000,-2.000000,2.000000,-3.000000,-28.000000,-14.000000
1299454.898740,-15.000000,-25.000000,31.000000,-36.000000,-11.000000,-5.000000,-6.000000,-4.000000
1299454.898808,-38.000000,15.000000,-12.000000,-8.000000,3.000000,-1.000000,1.000000,-5.000000
1299454.913669,30.000000,15.000000,-38.000000,-8.000000,6.000000,4.000000,-11.000000,2.000000
1299454.913716,11.000000,-34.000000,7.000000,-11.000000,-1.000000,2.000000,7.000000,13.000000
1299454.920996,12.000000,-3.000000,-11.000000,-2.000000,-8.000000,-8.000000,-6.000000,-3.000000
1299454.921127,-14.000000,-8.000000,42.000000,13.000000,-5.000000,-7.000000,6.000000,-2.000000
1299454.935620,-3.000000,32.000000,-9.000000,2.000000,6.000000,3.000000,-4.000000,-1.000000
1299454.936081,23.000000,10.000000,-13.000000,7.000000,2.000000,5.000000,5.000000,4.000000
1299454.937445,-26.000000,3.000000,-27.000000,18.000000,18.000000,3.000000,3.000000,-8.000000
1299454.937469,15.000000,-23.000000,10.000000,3.000000,-7.000000,1.000000,18.000000,-8.000000
1299454.952796,24.000000,-2.000000,-23.000000,-37.000000,-2.000000,5.000000,11.000000,0.000000
1299454.952820,-15.000000,-9.000000,38.000000,4.000000,-13.000000,-4.000000,4.000000,5.000000
1299454.953990,16.000000,22.000000,-31.000000,33.000000,8.000000,6.000000,-7.000000,-8.000000
1299454.954054,0.000000,10.000000,-34.000000,1.000000,6.000000,8.000000,11.000000,13.000000
1299454.954308,-12.000000,-13.000000,18.000000,-15.000000,-11.000000,-16.000000,-18.000000,-6.000000
1299454.954363,-12.000000,-1.000000,-5.000000,-12.000000,2.000000,-4.000000,9.000000,-3.000000
1299454.955779,16.000000,11.000000,-30.000000,7.000000,8.000000,3.000000,-36.000000,-1.000000
1299454.955803,-6.000000,-22.000000,40.000000,8.000000,-10.000000,-4.000000,5.000000,0.000000
1299454.995940,-31.000000,-19.000000,-7.000000,-32.000000,5.000000,-7.000000,-28.000000,-7.000000
1299454.995984,-5.000000,8.000000,-45.000000,19.000000,12.000000,5.000000,6.000000,-6.000000
1299455.025597,14.000000,23.000000,2.000000,-18.000000,-4.000000,4.000000,3.000000,-8.000000
1299455.025645,-11.000000,-16.000000,35.000000,6.000000,-2.000000,-9.000000,-4.000000,-11.000000
1299455.033110,9.000000,30.000000,-27.000000,-27.000000,6.000000,9.000000,11.000000,23.000000
1299455.033165,39.000000,-4.000000,-14.000000,1.000000,1.000000,-3.000000,-6.000000,3.000000
1299455.063778,-37.000000,-31.000000,13.000000,-8.000000,-6.000000,-8.000000,-6.000000,-9.000000
1299455.064282,-22.000000,3.000000,6.000000,18.000000,0.000000,2.000000,5.000000,-2.000000
1299455.065349,36.000000,20.000000,-27.000000,-16.000000,1.000000,2.000000,1.000000,6.000000
1299455.065378,-4.000000,-28.000000,27.000000,42.000000,0.000000,-1.000000,11.000000,-1.000000
1299455.066725,23.000000,-5.000000,10.000000,33.000000,3.000000,1.000000,17.000000,5.000000
1299455.066751,-10.000000,-33.000000,21.000000,-8.000000,-5.000000,-3.000000,0.000000,-2.000000
1299455.067170,-30.000000,-32.000000,30.000000,-2.000000,-8.000000,-1.000000,6.000000,-4.000000
1299455.067189,-19.000000,8.000000,8.000000,12.000000,5.000000,3.000000,3.000000,2.000000
1299455.068097,31.000000,19.000000,-38.000000,-24.000000,4.000000,1.000000,-3.000000,-7.000000
1299455.068146,-22.000000,-11.000000,20.000000,16.000000,-10.000000,-5.000000,-8.000000,-12.000000
1299455.071394,15.000000,-16.000000,1.000000,-14.000000,-4.000000,1.000000,19.000000,9.000000
1299455.071419,-24.000000,-26.000000,38.000000,22.000000,-7.000000,-12.000000,-12.000000,-17.000000
1299455.100646,3.000000,20.000000,-42.000000,-21.000000,9.000000,7.000000,-2.000000,5.000000
1299455.100696,30.000000,-2.000000,-27.000000,-42.000000,-4.000000,3.000000,8.000000,3.000000
1299455.115627,2.000000,-24.000000,30.000000,-3.000000,-15.000000,-7.000000,16.000000,7.000000
1299455.115690,5.000000,9.000000,9.000000,13.000000,-3.000000,3.000000,1.000000,1.000000
1299455.123134,12.000000,1.000000,-28.000000,7.000000,-2.000000,-3.000000,-29.000000,-7.000000
1299455.123185,-21.000000,-5.000000,27.000000,-38.000000,-3.000000,0.000000,3.000000,0.000000
1299455.146192,-14.000000,2.000000,8.000000,7.000000,-6.000000,0.000000,17.000000,3.000000
1299455.146231,34.000000,31.000000,-30.000000,5.000000,11.000000,10.000000,-18.000000,-4.000000
1299455.153141,24.000000,-19.000000,25.000000,-8.000000,-12.000000,-12.000000,-1.000000,26.000000
1299455.153190,-57.000000,-35.000000,27.000000,28.000000,8.000000,2.000000,-3.000000,-5.000000
1299455.161868,21.000000,25.000000,-25.000000,-4.000000,4.000000,7.000000,6.000000,-2.000000
1299455.161907,27.000000,-1.000000,-24.000000,-12.000000,3.000000,-2.000000,-2.000000,4.000000
1299455.162111,-28.000000,-36.000000,35.000000,10.000000,-6.000000,-6.000000,-2.000000,-2.000000
1299455.162139,0.000000,9.000000,6.000000,-4.000000,0.000000,0.000000,12.000000,-6.000000
1299455.164590,-26.000000,-8.000000,12.000000,-14.000000,-3.000000,-2.000000,0.000000,-18.000000
1299455.164634,-27.000000,30.000000,-52.000000,6.000000,4.000000,2.000000,1.000000,-3.000000
1299455.164837,40.000000,20.000000,-18.000000,-5.000000,6.000000,6.000000,-18.000000,10.000000
1299455.164854,-5.000000,-23.000000,22.000000,12.000000,3.000000,-6.000000,0.000000,1.000000
1299455.184564,4.000000,-12.000000,12.000000,14.000000,-6.000000,2.000000,6.000000,3.000000
1299455.184610,-13.000000,-17.000000,28.000000,40.000000,-3.000000,0.000000,9.000000,-1.000000
1299455.184858,35.000000,28.000000,-8.000000,-31.000000,11.000000,-3.000000,-51.000000,7.000000
1299455.184910,-3.000000,13.000000,-40.000000,17.000000,-5.000000,-3.000000,-1.000000,-2.000000
1299455.191404,-36.000000,-50.000000,41.000000,-14.000000,-15.000000,-7.000000,0.000000,-12.000000
1299455.191428,-17.000000,14.000000,-13.000000,10.000000,0.000000,6.000000,13.000000,-5.000000
1299455.228620,16.000000,2.000000,-32.000000,-1.000000,0.000000,-1.000000,-9.000000,-13.000000
1299455.228667,1.000000,-24.000000,26.000000,-22.000000,-7.000000,-9.000000,1.000000,8.000000
1299455.251039,10.000000,-19.000000,14.000000,11.000000,1.000000,1.000000,5.000000,-2.000000
1299455.251079,-7.000000,33.000000,-53.000000,-9.000000,1.000000,9.000000,-5.000000,2.000000
1299455.266168,18.000000,-37.000000,13.000000,0.000000,-4.000000,-3.000000,-16.000000,3.000000
1299455.266196,-22.000000,-18.000000,26.000000,-9.000000,-4.000000,1.000000,8.000000,-6.000000
1299455.280821,19.000000,24.000000,-37.000000,-4.000000,3.000000,1.000000,3.000000,1.000000
1299455.280871,5.000000,-20.000000,-3.000000,-10.000000,6.000000,-1.000000,-8.000000,-2.000000
1299455.288441,-4.000000,-34.000000,34.000000,8.000000,-9.000000,-5.000000,-14.000000,-4.000000
1299455.288789,-3.000000,6.000000,37.000000,-3.000000,-3.000000,2.000000,13.000000,0.000000
1299455.290148,19.000000,-6.000000,-39.000000,-10.000000,3.000000,-1.000000,-1.000000,7.000000
1299455.290185,9.000000,-11.000000,25.000000,2.000000,-9.000000,-10.000000,-18.000000,-7.000000
1299455.290752,-29.000000,3.000000,9.000000,-11.000000,-8.000000,3.000000,5.000000,-2.000000
1299455.290782,14.000000,35.000000,-30.000000,4.000000,10.000000,6.000000,8.000000,-2.000000
1299455.291558,-1.000000,14.000000,-25.000000,8.000000,11.000000,3.000000,5.000000,-6.000000
1299455.291611,22.000000,11.000000,-16.000000,-20.000000,-1.000000,3.000000,7.000000,6.000000
1299455.295779,-25.000000,-32.000000,28.000000,-5.000000,-14.000000,-5.000000,4.000000,4.000000
1299455.295835,-11.000000,37.000000,-7.000000,1.000000,9.000000,2.000000,3.000000,-5.000000
1299455.303576,48.000000,21.000000,-13.000000,-10.000000,1.000000,6.000000,6.000000,12.000000
1299455.303621,0.000000,-16.000000,38.000000,25.000000,-6.000000,-11.000000,-21.000000,-15.000000
1299455.312380,-35.000000,10.000000,-24.000000,-26.000000,-1.000000,-2.000000,-5.000000,-9.000000
1299455.312411,23.000000,37.000000,-7.000000,-12.000000,2.000000,2.000000,14.000000,5.000000
1299455.325994,-1.000000,-31.000000,25.000000,4.000000,-5.000000,-3.000000,-12.000000,-6.000000
1299455.326024,-24.000000,-24.000000,21.000000,-21.000000,-6.000000,-7.000000,-23.000000,-13.000000
1299455.348019,7.000000,19.000000,-31.000000,-12.000000,6.000000,5.000000,21.000000,8.000000
1299455.348072,30.000000,-3.000000,-9.000000,7.000000,2.000000,2.000000,-26.000000,-4.000000
1299455.370606,-58.000000,-24.000000,25.000000,6.000000,-16.000000,-10.000000,5.000000,-8.000000
1299455.370658,-2.000000,11.000000,-10.000000,-15.000000,3.000000,4.000000,10.000000,5.000000
1299455.393273,22.000000,2.000000,-23.000000,9.000000,6.000000,2.000000,-4.000000,-1.000000
1299455.393320,-10.000000,-16.000000,16.000000,-3.000000,-8.000000,-8.000000,4.000000,3.000000
1299455.423217,-29.000000,12.000000,12.000000,3.000000,-3.000000,-2.000000,0.000000,4.000000
1299455.423245,-17.000000,12.000000,-61.000000,6.000000,15.000000,3.000000,-7.000000,-1.000000
1299455.431560,13.000000,-33.000000,9.000000,20.000000,-2.000000,-2.000000,14.000000,7.000000
1299455.431848,-28.000000,-9.000000,32.000000,-7.000000,-8.000000,-1.000000,-20.000000,-10.000000
1299455.433197,13.000000,35.000000,-7.000000,3.000000,8.000000,5.000000,8.000000,3.000000
1299455.433233,44.000000,-12.000000,-53.000000,-27.000000,1.000000,0.000000,-7.000000,2.000000
1299455.434275,37.000000,-8.000000,-38.000000,-25.000000,10.000000,-2.000000,2.000000,2.000000
1299455.434431,-2.000000,-24.000000,35.000000,-10.000000,-16.000000,-5.000000,3.000000,-1.000000
1299455.453131,-40.000000,-35.000000,27.000000,4.000000,-10.000000,-6.000000,3.000000,-6.000000
1299455.453181,5.000000,38.000000,6.000000,3.000000,10.000000,6.000000,-10.000000,-2.000000
1299455.468192,25.000000,2.000000,-26.000000,-5.000000,-4.000000,1.000000,15.000000,12.000000
1299455.468241,-8.000000,-17.000000,42.000000,22.000000,-5.000000,-4.000000,10.000000,-2.000000
1299455.475566,-18.000000,10.000000,19.000000,6.000000,4.000000,-5.000000,-29.000000,-9.000000
1299455.475602,15.000000,17.000000,-35.000000,-6.000000,8.000000,5.000000,11.000000,8.000000
1299455.528209,5.000000,-38.000000,15.000000,8.000000,-11.000000,-3.000000,6.000000,-1.000000
1299455.528236,-25.000000,-2.000000,21.000000,0.000000,2.000000,1.000000,-3.000000,-7.000000
1299455.543330,18.000000,18.000000,-27.000000,0.000000,4.000000,8.000000,5.000000,13.000000
1299455.543406,24.000000,-24.000000,3.000000,1.000000,-5.000000,-5.000000,-10.000000,-6.000000
1299455.552446,24.000000,-14.000000,-32.000000,-2.000000,1.000000,2.000000,1.000000,0.000000
1299455.552487,-24.000000,-23.000000,25.000000,4.000000,-7.000000,1.000000,14.000000,-8.000000
1299455.552706,-34.000000,-16.000000,20.000000,-8.000000,-8.000000,1.000000,15.000000,7.000000
1299455.552754,-5.000000,36.000000,-15.000000,-12.000000,3.000000,-2.000000,-9.000000,-17.000000
1299455.554528,-48.000000,-19.000000,38.000000,6.000000,-9.000000,-5.000000,-3.000000,-9.000000
1299455.554577,0.000000,23.000000,-22.000000,-10.000000,10.000000,-3.000000,-6.000000,2.000000
1299455.558111,21.000000,-7.000000,-30.000000,-18.000000,4.000000,0.000000,-3.000000,7.000000
1299455.558159,-11.000000,-22.000000,38.000000,4.000000,-8.000000,-6.000000,-1.000000,-10.000000
1299455.565852,-9.000000,8.000000,3.000000,-1.000000,1.000000,6.000000,-5.000000,5.000000
1299455.565902,-9.000000,10.000000,-37.000000,-3.000000,7.000000,-1.000000,0.000000,-6.000000
1299455.588266,22.000000,-22.000000,26.000000,-14.000000,-10.000000,-1.000000,-7.000000,10.000000
1299455.588301,-37.000000,-1.000000,6.000000,6.000000,-4.000000,-4.000000,6.000000,-4.000000
1299455.595599,10.000000,17.000000,-34.000000,5.000000,8.000000,6.000000,7.000000,6.000000
1299455.595660,-1.000000,3.000000,0.000000,-11.000000,-4.000000,-1.000000,-14.000000,0.000000
1299455.633332,5.000000,-20.000000,32.000000,-1.000000,-10.000000,-7.000000,0.000000,-7.000000
1299455.633359,-42.000000,17.000000,3.000000,9.000000,2.000000,0.000000,-19.000000,-11.000000
1299455.656179,19.000000,-8.000000,-44.000000,-37.000000,3.000000,1.000000,6.000000,5.000000
1299455.656209,6.000000,-26.000000,24.000000,13.000000,-12.000000,-10.000000,-14.000000,-6.000000
1299455.657778,-39.000000,5.000000,4.000000,-15.000000,9.000000,2.000000,15.000000,-6.000000
1299455.657828,32.000000,8.000000,-18.000000,28.000000,3.000000,0.000000,-26.000000,-1.000000
1299455.658209,-34.000000,-28.000000,21.000000,-48.000000,-14.000000,-3.000000,10.000000,1.000000
1299455.658254,-4.000000,-18.000000,32.000000,36.000000,-3.000000,2.000000,17.000000,1.000000
1299455.664353,3.000000,-13.000000,37.000000,3.000000,-9.000000,-6.000000,5.000000,-6.000000
1299455.664410,-1.000000,28.000000,-29.000000,1.000000,4.000000,1.000000,-5.000000,-7.000000
1299455.665617,0.000000,15.000000,0.000000,2.000000,5.000000,-2.000000,-1.000000,2.000000
1299455.665641,4.000000,6.000000,-32.000000,-13.000000,7.000000,4.000000,-8.000000,-5.000000
1299455.677922,-12.000000,-19.000000,31.000000,35.000000,1.000000,-5.000000,-26.000000,-12.000000
1299455.677972,5.000000,-12.000000,25.000000,-6.000000,-1.000000,-1.000000,18.000000,16.000000
1299455.700715,4.000000,34.000000,-29.000000,11.000000,2.000000,5.000000,11.000000,-2.000000
1299455.700765,35.000000,-5.000000,17.000000,45.000000,-13.000000,-18.000000,-34.000000,-2.000000
1299455.715797,-7.000000,-32.000000,56.000000,-21.000000,1.000000,-3.000000,12.000000,2.000000
1299455.715822,-46.000000,24.000000,-57.000000,-20.000000,9.000000,8.000000,13.000000,1.000000
1299455.738274,23.000000,3.000000,-5.000000,8.000000,-4.000000,4.000000,4.000000,0.000000
1299455.738322,-8.000000,-20.000000,31.000000,9.000000,-11.000000,-11.000000,-14.000000,-4.000000
1299455.753073,20.000000,5.000000,-5.000000,-10.000000,11.000000,7.000000,13.000000,4.000000
1299455.753121,-16.000000,21.000000,-30.000000,2.000000,8.000000,4.000000,-23.000000,-4.000000
1299455.768001,9.000000,-18.000000,24.000000,19.000000,-2.000000,0.000000,6.000000,6.000000
1299455.768049,0.000000,11.000000,15.000000,-5.000000,0.000000,-2.000000,12.000000,-6.000000
1299455.783549,13.000000,23.000000,-31.000000,8.000000,15.000000,8.000000,-8.000000,0.000000
1299455.783602,38.000000,-10.000000,11.000000,-1.000000,-9.000000,-7.000000,4.000000,-7.000000
1299455.784338,-67.000000,-18.000000,42.000000,-9.000000,-9.000000,-12.000000,-3.000000,-10.000000
1299455.784725,8.000000,23.000000,-23.000000,14.000000,6.000000,6.000000,11.000000,1.000000
1299455.785824,-25.000000,1.000000,-20.000000,7.000000,-1.000000,-2.000000,-17.000000,-16.000000
1299455.786128,14.000000,18.000000,-4.000000,0.000000,6.000000,7.000000,9.000000,4.000000
1299455.786757,19.000000,-19.000000,27.000000,-9.000000,-9.000000,-1.000000,0.000000,6.000000
1299455.786800,-7.000000,2.000000,7.000000,-14.000000,-4.000000,1.000000,19.000000,-2.000000
1299455.820834,-40.000000,5.000000,38.000000,25.000000,1.000000,-2.000000,-15.000000,-2.000000
1299455.820881,4.000000,18.000000,-24.000000,-2.000000,5.000000,-1.000000,-27.000000,-9.000000
1299455.827970,22.000000,2.000000,-4.000000,1.000000,-6.000000,-2.000000,8.000000,7.000000
1299455.828022,-31.000000,-24.000000,2.000000,6.000000,-11.000000,-5.000000,17.000000,2.000000
1299455.843149,7.000000,16.000000,-10.000000,-20.000000,4.000000,-1.000000,-27.000000,3.000000
1299455.843199,10.000000,24.000000,-24.000000,1.000000,1.000000,-1.000000,1.000000,7.000000
1299455.858340,1.000000,-28.000000,28.000000,14.000000,-7.000000,-3.000000,14.000000,-10.000000
1299455.858369,-35.000000,7.000000,-19.000000,-33.000000,8.000000,1.000000,-4.000000,7.000000
1299455.873752,11.000000,51.000000,-22.000000,21.000000,4.000000,9.000000,4.000000,3.000000
1299455.873784,14.000000,-5.000000,-7.000000,24.000000,-10.000000,-6.000000,-28.000000,-16.000000
1299455.874312,-26.000000,0.000000,39.000000,-1.000000,-5.000000,1.000000,11.000000,-7.000000
1299455.874801,4.000000,34.000000,-29.000000,2.000000,3.000000,4.000000,5.000000,-3.000000
1299455.876608,31.000000,2.000000,-1.000000,-2.000000,-4.000000,0.000000,19.000000,25.000000
1299455.876634,-34.000000,-36.000000,-31.000000,18.000000,4.000000,-17.000000,-16.000000,-23.000000
1299455.876754,2.000000,11.000000,26.000000,8.000000,10.000000,7.000000,0.000000,0.000000
1299455.876771,-10.000000,20.000000,-21.000000,-13.000000,5.000000,7.000000,25.000000,12.000000
1299455.896200,14.000000,34.000000,-58.000000,-8.000000,5.000000,10.000000,11.000000,7.000000
1299455.896464,-17.000000,-17.000000,1.000000,3.000000,-3.000000,-3.000000,1.000000,-11.000000
1299455.897267,-26.000000,-26.000000,16.000000,-29.000000,-13.000000,-2.000000,8.000000,-1.000000
1299455.897289,-19.000000,8.000000,-8.000000,9.000000,13.000000,0.000000,-30.000000,-2.000000
1299455.903185,33.000000,-12.000000,-42.000000,0.000000,2.000000,-2.000000,-24.000000,-3.000000
1299455.903245,-26.000000,-29.000000,26.000000,-5.000000,-10.000000,-2.000000,7.000000,-3.000000
1299455.933255,-2.000000,12.000000,-8.000000,-8.000000,0.000000,-1.000000,3.000000,1.000000
1299455.933285,28.000000,12.000000,-35.000000,-7.000000,12.000000,7.000000,4.000000,2.000000
1299455.940691,-16.000000,-29.000000,23.000000,-25.000000,-4.000000,-5.000000,1.000000,-10.000000
1299455.940745,-8.000000,-5.000000,15.000000,33.000000,4.000000,-3.000000,-28.000000,-7.000000
1299455.978596,16.000000,44.000000,-25.000000,-4.000000,4.000000,4.000000,6.000000,1.000000
1299455.978623,32.000000,-13.000000,-2.000000,2.000000,-7.000000,-2.000000,25.000000,9.000000
1299455.986257,-62.000000,-11.000000,45.000000,4.000000,-6.000000,-10.000000,-18.000000,-19.000000
1299455.986311,26.000000,37.000000,-22.000000,5.000000,4.000000,-1.000000,-4.000000,1.000000
1299455.995695,43.000000,-3.000000,-17.000000,6.000000,4.000000,2.000000,8.000000,3.000000
1299455.996067,-12.000000,-33.000000,19.000000,-16.000000,-9.000000,-6.000000,3.000000,1.000000
1299455.996976,-48.000000,5.000000,8.000000,5.000000,1.000000,-3.000000,-13.000000,-26.000000
1299455.997014,30.000000,29.000000,-25.000000,-3.000000,-2.000000,2.000000,6.000000,12.000000
1299455.997535,-36.000000,-30.000000,49.000000,11.000000,-1.000000,-4.000000,-16.000000,-8.000000
1299455.997568,-24.000000,0.000000,-8.000000,-9.000000,-6.000000,-6.000000,-4.000000,-15.000000
1299456.008261,46.000000,13.000000,-8.000000,-7.000000,-4.000000,-9.000000,-2.000000,11.000000
1299456.008322,-35.000000,-44.000000,34.000000,-7.000000,-14.000000,-9.000000,13.000000,-11.000000
1299456.016756,1.000000,-9.000000,-9.000000,28.000000,2.000000,4.000000,10.000000,4.000000
1299456.016808,19.000000,5.000000,-24.000000,-21.000000,9.000000,6.000000,13.000000,4.000000
1299456.023309,-27.000000,-21.000000,22.000000,-3.000000,-13.000000,-12.000000,-11.000000,-8.000000
1299456.023365,-17.000000,12.000000,15.000000,-4.000000,-2.000000,-2.000000,2.000000,3.000000
1299456.060857,28.000000,17.000000,-47.000000,-12.000000,5.000000,4.000000,9.000000,18.000000
1299456.060900,37.000000,-17.000000,20.000000,5.000000,4.000000,1.000000,-2.000000,2.000000
1299456.068207,-70.000000,-11.000000,19.000000,0.000000,-5.000000,-8.000000,-13.000000,-8.000000
1299456.068234,11.000000,27.000000,-10.000000,-18.000000,3.000000,-1.000000,-38.000000,5.000000
1299456.098636,35.000000,-7.000000,-6.000000,12.000000,5.000000,5.000000,13.000000,0.000000
1299456.098663,-18.000000,-26.000000,40.000000,10.000000,-7.000000,-3.000000,10.000000,-5.000000
1299456.105778,-4.000000,33.000000,-4.000000,-30.000000,-1.000000,4.000000,-2.000000,1.000000
1299456.105843,-1.000000,0.000000,-52.000000,12.000000,-1.000000,-6.000000,-36.000000,-13.000000
1299456.120942,13.000000,-26.000000,34.000000,34.000000,-7.000000,0.000000,14.000000,8.000000
1299456.120998,-23.000000,12.000000,8.000000,-45.000000,-2.000000,-1.000000,5.000000,8.000000
1299456.136683,22.000000,32.000000,-31.000000,2.000000,22.000000,6.000000,-11.000000,-16.000000
1299456.136723,-42.000000,-29.000000,10.000000,-2.000000,-4.000000,0.000000,9.000000,-13.000000
1299456.157931,26.000000,3.000000,23.000000,13.000000,-6.000000,0.000000,11.000000,10.000000
1299456.157989,0.000000,20.000000,-17.000000,7.000000,17.000000,3.000000,-23.000000,-15.000000
1299456.180447,-22.000000,-39.000000,31.000000,1.000000,-9.000000,-7.000000,-24.000000,-13.000000
1299456.180497,-28.000000,-22.000000,5.000000,-11.000000,-5.000000,-2.000000,-23.000000,-12.000000
1299456.210867,11.000000,25.000000,-21.000000,1.000000,15.000000,2.000000,12.000000,-3.000000
1299456.210894,2.000000,-33.000000,20.000000,14.000000,-9.000000,1.000000,19.000000,7.000000
1299456.218596,-21.000000,20.000000,-11.000000,6.000000,6.000000,3.000000,-5.000000,-2.000000
1299456.218615,29.000000,-2.000000,-19.000000,-27.000000,-4.000000,-5.000000,-10.000000,-8.000000
1299456.220123,-4.000000,6.000000,-54.000000,3.000000,5.000000,-1.000000,-2.000000,-7.000000
1299456.220161,-9.000000,-31.000000,40.000000,-17.000000,-6.000000,-17.000000,-84.000000,-18.000000
1299456.221325,-11.000000,-1.000000,34.000000,7.000000,-2.000000,1.000000,28.000000,3.000000
1299456.221371,4.000000,13.000000,-26.000000,-4.000000,0.000000,-1.000000,-9.000000,-10.000000
1299456.221860,10.000000,-15.000000,3.000000,-5.000000,-11.000000,3.000000,14.000000,4.000000
1299456.221885,-1.000000,-25.000000,35.000000,6.000000,-5.000000,-3.000000,3.000000,6.000000
1299456.225649,4.000000,-26.000000,27.000000,22.000000,-2.000000,-4.000000,2.000000,5.000000
1299456.225674,-4.000000,4.000000,18.000000,-10.000000,-4.000000,-4.000000,-6.000000,-4.000000
1299456.233824,42.000000,38.000000,-75.000000,-14.000000,8.000000,4.000000,10.000000,11.000000
1299456.233849,-15.000000,-40.000000,57.000000,27.000000,-11.000000,-7.000000,-30.000000,-7.000000
1299456.247864,-30.000000,-4.000000,29.000000,-30.000000,-7.000000,-8.000000,-23.000000,-9.000000
