# participant_id: P6
# gesture: soft
# trial_number: 2
# stream_name: Myo_EMG
# stream_type: emg
# timestamp: 20260420_145448
# samples: 5430
# duration_sec: 30.468
# nominal_sample_rate: 200.0
# effective_sample_rate: 178.19
#
timestamp,emg_1,emg_2,emg_3,emg_4,emg_5,emg_6,emg_7,emg_8
1301580.649601,19.000000,-2.000000,37.000000,3.000000,5.000000,0.000000,-30.000000,-8.000000
1301580.649669,0.000000,-2.000000,-22.000000,-21.000000,11.000000,17.000000,-11.000000,-8.000000
1301580.657462,-10.000000,4.000000,41.000000,-23.000000,-24.000000,-29.000000,23.000000,-3.000000
1301580.657492,3.000000,2.000000,-30.000000,21.000000,-4.000000,-31.000000,12.000000,14.000000
1301580.687446,-12.000000,-4.000000,-12.000000,9.000000,-2.000000,8.000000,-4.000000,-8.000000
1301580.687462,-13.000000,-6.000000,30.000000,-30.000000,-12.000000,-8.000000,-46.000000,-14.000000
1301580.687667,-8.000000,0.000000,-120.000000,-13.000000,2.000000,9.000000,20.000000,-3.000000
1301580.687712,-2.000000,4.000000,127.000000,63.000000,7.000000,-7.000000,-5.000000,3.000000
1301580.688514,-18.000000,12.000000,37.000000,16.000000,-5.000000,-4.000000,-13.000000,4.000000
1301580.688533,-27.000000,-4.000000,-15.000000,-19.000000,1.000000,15.000000,32.000000,0.000000
1301580.694286,5.000000,3.000000,7.000000,-3.000000,-3.000000,-24.000000,11.000000,-3.000000
1301580.694306,4.000000,3.000000,7.000000,-17.000000,-4.000000,6.000000,13.000000,9.000000
1301580.695499,18.000000,4.000000,11.000000,-40.000000,-4.000000,2.000000,11.000000,-3.000000
1301580.695511,-5.000000,5.000000,-64.000000,62.000000,14.000000,0.000000,-3.000000,5.000000
1301580.701692,5.000000,-2.000000,3.000000,-30.000000,-13.000000,-8.000000,-17.000000,-3.000000
1301580.701704,-1.000000,-6.000000,-8.000000,-16.000000,-5.000000,0.000000,-4.000000,3.000000
1301580.709646,-15.000000,0.000000,-4.000000,4.000000,3.000000,7.000000,12.000000,1.000000
1301580.709656,4.000000,6.000000,40.000000,-17.000000,-9.000000,0.000000,-8.000000,0.000000
1301580.747357,-19.000000,2.000000,-82.000000,12.000000,11.000000,3.000000,-7.000000,-7.000000
1301580.747395,2.000000,1.000000,20.000000,-40.000000,-15.000000,-9.000000,2.000000,9.000000
1301580.777115,-6.000000,0.000000,-11.000000,45.000000,9.000000,-3.000000,-28.000000,-1.000000
1301580.777135,-2.000000,-4.000000,46.000000,-5.000000,-3.000000,4.000000,56.000000,3.000000
1301580.792180,-11.000000,1.000000,-4.000000,-51.000000,-14.000000,-19.000000,-17.000000,4.000000
1301580.792224,8.000000,3.000000,3.000000,11.000000,0.000000,-3.000000,-10.000000,-6.000000
1301580.793489,1.000000,-4.000000,7.000000,9.000000,11.000000,18.000000,-6.000000,-3.000000
1301580.793540,-12.000000,5.000000,-6.000000,-35.000000,-10.000000,1.000000,-29.000000,11.000000
1301580.807956,24.000000,1.000000,-64.000000,25.000000,8.000000,4.000000,24.000000,6.000000
1301580.808159,-15.000000,6.000000,19.000000,-13.000000,-1.000000,0.000000,2.000000,-8.000000
1301580.809133,-3.000000,-9.000000,70.000000,-1.000000,7.000000,-5.000000,-13.000000,3.000000
1301580.809248,-28.000000,1.000000,-106.000000,-19.000000,-12.000000,-4.000000,-26.000000,-18.000000
1301580.809893,-14.000000,-1.000000,24.000000,27.000000,8.000000,-9.000000,41.000000,-10.000000
1301580.809912,-17.000000,6.000000,-21.000000,-29.000000,-24.000000,-13.000000,15.000000,-2.000000
1301580.830320,4.000000,-6.000000,-27.000000,-23.000000,-1.000000,2.000000,-11.000000,-5.000000
1301580.830392,7.000000,2.000000,-16.000000,-1.000000,2.000000,7.000000,-4.000000,-1.000000
1301580.830766,-34.000000,-7.000000,11.000000,-2.000000,6.000000,6.000000,21.000000,0.000000
1301580.830809,-5.000000,-2.000000,-73.000000,-21.000000,-14.000000,-16.000000,-10.000000,-7.000000
1301580.832154,17.000000,-1.000000,-21.000000,-1.000000,-8.000000,-14.000000,-28.000000,-2.000000
1301580.832198,8.000000,4.000000,24.000000,-9.000000,-4.000000,5.000000,8.000000,5.000000
1301580.844664,-6.000000,4.000000,98.000000,58.000000,8.000000,1.000000,-43.000000,5.000000
1301580.844701,3.000000,-8.000000,-41.000000,-18.000000,-5.000000,-22.000000,19.000000,-9.000000
1301580.867605,-52.000000,3.000000,-1.000000,-11.000000,-5.000000,2.000000,25.000000,-2.000000
1301580.867649,5.000000,0.000000,-30.000000,-17.000000,0.000000,13.000000,-26.000000,7.000000
1301580.889942,-15.000000,-4.000000,29.000000,19.000000,10.000000,-1.000000,3.000000,-10.000000
1301580.889964,0.000000,4.000000,-8.000000,-1.000000,-2.000000,0.000000,24.000000,-4.000000
1301580.912419,-17.000000,1.000000,11.000000,-21.000000,2.000000,3.000000,-10.000000,-2.000000
1301580.912440,-6.000000,0.000000,64.000000,-37.000000,-11.000000,-1.000000,-11.000000,-1.000000
1301580.912696,8.000000,3.000000,-47.000000,46.000000,-1.000000,-16.000000,-23.000000,-4.000000
1301580.912736,1.000000,6.000000,10.000000,4.000000,1.000000,-8.000000,5.000000,6.000000
1301580.913894,13.000000,-3.000000,18.000000,12.000000,-6.000000,2.000000,-17.000000,-3.000000
1301580.913929,14.000000,5.000000,-53.000000,27.000000,3.000000,0.000000,-16.000000,0.000000
1301580.914522,-5.000000,3.000000,72.000000,-17.000000,0.000000,10.000000,11.000000,0.000000
1301580.914558,-20.000000,7.000000,73.000000,58.000000,6.000000,-20.000000,-12.000000,4.000000
1301580.927224,17.000000,-1.000000,-23.000000,-31.000000,-18.000000,-22.000000,-20.000000,16.000000
1301580.927245,-11.000000,2.000000,0.000000,4.000000,5.000000,-1.000000,9.000000,-11.000000
1301580.949924,-5.000000,-18.000000,2.000000,-28.000000,-11.000000,0.000000,-17.000000,-1.000000
1301580.949970,3.000000,-5.000000,-12.000000,17.000000,-1.000000,-3.000000,1.000000,-13.000000
1301580.950971,2.000000,4.000000,7.000000,-1.000000,-5.000000,-3.000000,4.000000,-20.000000
1301580.951001,0.000000,0.000000,-19.000000,-32.000000,-2.000000,12.000000,-27.000000,7.000000
1301580.951956,44.000000,-8.000000,-1.000000,14.000000,-3.000000,-7.000000,-20.000000,-9.000000
1301580.951996,-51.000000,-1.000000,-20.000000,-19.000000,0.000000,-7.000000,24.000000,0.000000
1301580.964627,16.000000,3.000000,-21.000000,13.000000,-9.000000,-2.000000,-7.000000,4.000000
1301580.964664,5.000000,1.000000,43.000000,-16.000000,-8.000000,1.000000,-4.000000,1.000000
1301580.987426,-2.000000,2.000000,-52.000000,26.000000,1.000000,-15.000000,-6.000000,-7.000000
1301580.987448,0.000000,3.000000,-4.000000,-51.000000,-2.000000,8.000000,-18.000000,3.000000
1301581.009955,0.000000,2.000000,-27.000000,36.000000,-3.000000,-16.000000,23.000000,-6.000000
1301581.009995,-17.000000,-7.000000,50.000000,16.000000,8.000000,2.000000,-5.000000,-3.000000
1301581.048855,2.000000,-3.000000,-19.000000,-30.000000,-10.000000,3.000000,-48.000000,-2.000000
1301581.049857,-1.000000,-1.000000,-2.000000,29.000000,10.000000,11.000000,59.000000,10.000000
1301581.050307,11.000000,15.000000,42.000000,-7.000000,-10.000000,-18.000000,-6.000000,11.000000
1301581.050362,-9.000000,-3.000000,44.000000,-8.000000,1.000000,-1.000000,-28.000000,-17.000000
1301581.052018,5.000000,2.000000,21.000000,49.000000,20.000000,15.000000,-20.000000,-3.000000
1301581.052155,3.000000,0.000000,-13.000000,4.000000,-6.000000,-18.000000,42.000000,13.000000
1301581.052447,-15.000000,6.000000,26.000000,-10.000000,-5.000000,-14.000000,-30.000000,-12.000000
1301581.052501,5.000000,-4.000000,-17.000000,-15.000000,4.000000,5.000000,-6.000000,0.000000
1301581.053122,3.000000,-4.000000,28.000000,-20.000000,1.000000,-3.000000,-12.000000,4.000000
1301581.053167,-8.000000,-4.000000,49.000000,24.000000,6.000000,1.000000,3.000000,3.000000
1301581.063454,1.000000,-1.000000,-20.000000,2.000000,-3.000000,-2.000000,-29.000000,-18.000000
1301581.063517,7.000000,-6.000000,35.000000,-13.000000,-1.000000,-2.000000,41.000000,8.000000
1301581.063985,-10.000000,2.000000,-46.000000,20.000000,2.000000,0.000000,17.000000,21.000000
1301581.064015,-3.000000,-1.000000,29.000000,-47.000000,3.000000,15.000000,-17.000000,-9.000000
1301581.071417,-14.000000,3.000000,-82.000000,44.000000,5.000000,-2.000000,-39.000000,-4.000000
1301581.071486,11.000000,-4.000000,-18.000000,-20.000000,-3.000000,21.000000,84.000000,12.000000
1301581.108686,3.000000,-4.000000,5.000000,-26.000000,-15.000000,-24.000000,-19.000000,2.000000
1301581.108738,2.000000,-2.000000,-9.000000,-6.000000,-4.000000,0.000000,-12.000000,3.000000
1301581.110640,6.000000,-6.000000,5.000000,-2.000000,1.000000,6.000000,-2.000000,-5.000000
1301581.110693,-2.000000,-2.000000,36.000000,-26.000000,-6.000000,-6.000000,3.000000,-2.000000
1301581.110975,-2.000000,10.000000,-39.000000,84.000000,26.000000,-2.000000,9.000000,-8.000000
1301581.111027,7.000000,-5.000000,16.000000,1.000000,-7.000000,2.000000,20.000000,16.000000
1301581.115125,-3.000000,-2.000000,-14.000000,-16.000000,7.000000,4.000000,-34.000000,-10.000000
1301581.115179,-2.000000,-3.000000,22.000000,-4.000000,1.000000,9.000000,1.000000,-1.000000
1301581.123077,-4.000000,4.000000,-43.000000,28.000000,4.000000,-5.000000,18.000000,-2.000000
1301581.123109,-12.000000,4.000000,-8.000000,4.000000,14.000000,11.000000,-3.000000,-3.000000
1301581.137655,-9.000000,-6.000000,30.000000,-41.000000,3.000000,15.000000,-14.000000,-3.000000
1301581.137713,22.000000,2.000000,-128.000000,5.000000,-4.000000,-9.000000,23.000000,20.000000
1301581.145494,-4.000000,-1.000000,38.000000,-4.000000,-1.000000,-5.000000,2.000000,3.000000
1301581.145531,-27.000000,-3.000000,-8.000000,-67.000000,-10.000000,0.000000,-5.000000,-12.000000
1301581.182752,-13.000000,-1.000000,-34.000000,83.000000,19.000000,11.000000,-32.000000,-16.000000
1301581.182782,1.000000,-5.000000,-3.000000,-28.000000,-14.000000,-8.000000,25.000000,10.000000
1301581.190367,0.000000,-3.000000,42.000000,-14.000000,-7.000000,-4.000000,-26.000000,-10.000000
1301581.191192,-19.000000,-7.000000,30.000000,75.000000,35.000000,18.000000,27.000000,14.000000
1301581.192512,-10.000000,-5.000000,21.000000,-11.000000,-6.000000,7.000000,-5.000000,-2.000000
1301581.192533,4.000000,-3.000000,-33.000000,-19.000000,-3.000000,5.000000,-25.000000,-3.000000
1301581.192637,-28.000000,-6.000000,7.000000,-32.000000,-20.000000,-27.000000,15.000000,-8.000000
1301581.192653,-5.000000,3.000000,-6.000000,28.000000,4.000000,1.000000,-17.000000,-2.000000
1301581.194320,13.000000,7.000000,-21.000000,-2.000000,-3.000000,3.000000,5.000000,11.000000
1301581.194375,2.000000,4.000000,35.000000,-14.000000,3.000000,15.000000,10.000000,-3.000000
1301581.205370,4.000000,2.000000,1.000000,18.000000,2.000000,-2.000000,-20.000000,-7.000000
1301581.205425,8.000000,0.000000,-11.000000,47.000000,16.000000,7.000000,1.000000,8.000000
1301581.227932,2.000000,-4.000000,29.000000,-6.000000,-3.000000,-13.000000,56.000000,4.000000
1301581.228010,6.000000,0.000000,11.000000,-42.000000,-11.000000,-19.000000,3.000000,0.000000
1301581.242877,27.000000,1.000000,-28.000000,-16.000000,-1.000000,13.000000,-24.000000,-7.000000
1301581.242908,8.000000,-6.000000,-36.000000,52.000000,12.000000,-1.000000,-9.000000,6.000000
1301581.265400,9.000000,4.000000,-5.000000,-22.000000,-13.000000,-8.000000,15.000000,0.000000
1301581.265447,7.000000,1.000000,-13.000000,-41.000000,-11.000000,-2.000000,-19.000000,1.000000
1301581.266898,4.000000,-8.000000,-68.000000,-45.000000,1.000000,4.000000,4.000000,-3.000000
1301581.266929,-37.000000,-9.000000,22.000000,66.000000,13.000000,1.000000,0.000000,-7.000000
1301581.267351,-7.000000,5.000000,3.000000,-13.000000,-5.000000,1.000000,-14.000000,1.000000
1301581.267405,-9.000000,-6.000000,7.000000,-10.000000,1.000000,-2.000000,26.000000,-6.000000
1301581.268495,5.000000,2.000000,31.000000,-8.000000,-1.000000,2.000000,-7.000000,-4.000000
1301581.268545,6.000000,2.000000,-28.000000,5.000000,3.000000,6.000000,18.000000,0.000000
1301581.289448,-20.000000,8.000000,44.000000,4.000000,-10.000000,-23.000000,20.000000,-2.000000
1301581.289817,12.000000,1.000000,-3.000000,-22.000000,-1.000000,-5.000000,-23.000000,2.000000
1301581.290321,1.000000,10.000000,-35.000000,4.000000,4.000000,11.000000,-2.000000,-8.000000
1301581.290368,0.000000,-15.000000,63.000000,-20.000000,-5.000000,18.000000,-8.000000,0.000000
1301581.303272,-24.000000,18.000000,-14.000000,105.000000,8.000000,0.000000,67.000000,19.000000
1301581.303313,21.000000,-7.000000,-9.000000,-21.000000,-2.000000,-8.000000,-8.000000,8.000000
1301581.304333,-1.000000,-3.000000,-25.000000,6.000000,1.000000,0.000000,-40.000000,-3.000000
1301581.304384,-6.000000,1.000000,16.000000,-11.000000,-8.000000,-5.000000,8.000000,-11.000000
1301581.340496,14.000000,-1.000000,-2.000000,5.000000,2.000000,-4.000000,-5.000000,9.000000
1301581.340526,1.000000,3.000000,28.000000,7.000000,4.000000,7.000000,-11.000000,-3.000000
1301581.347949,-3.000000,-1.000000,-26.000000,-27.000000,-13.000000,4.000000,-16.000000,-5.000000
1301581.348013,-7.000000,3.000000,13.000000,21.000000,1.000000,-1.000000,10.000000,1.000000
1301581.385327,8.000000,7.000000,21.000000,-8.000000,-13.000000,-4.000000,24.000000,-9.000000
1301581.385358,7.000000,3.000000,6.000000,-4.000000,0.000000,2.000000,-2.000000,-1.000000
1301581.394060,-6.000000,-4.000000,-9.000000,-28.000000,-3.000000,2.000000,-8.000000,-4.000000
1301581.394124,-6.000000,-1.000000,1.000000,64.000000,11.000000,10.000000,-12.000000,-4.000000
1301581.394963,-1.000000,-7.000000,31.000000,-15.000000,-2.000000,-8.000000,31.000000,10.000000
1301581.394991,8.000000,0.000000,-35.000000,-32.000000,-2.000000,13.000000,-13.000000,8.000000
1301581.396306,-16.000000,2.000000,-25.000000,12.000000,-29.000000,-54.000000,29.000000,-27.000000
1301581.396687,4.000000,0.000000,-55.000000,-35.000000,-6.000000,6.000000,-11.000000,13.000000
1301581.397322,-25.000000,-1.000000,21.000000,22.000000,9.000000,6.000000,-26.000000,-4.000000
1301581.397369,0.000000,0.000000,0.000000,0.000000,-7.000000,-4.000000,23.000000,4.000000
1301581.400126,-3.000000,1.000000,-49.000000,19.000000,15.000000,13.000000,22.000000,0.000000
1301581.400153,22.000000,8.000000,63.000000,16.000000,-6.000000,-8.000000,34.000000,22.000000
1301581.422996,-26.000000,-10.000000,0.000000,-57.000000,-17.000000,-5.000000,12.000000,-7.000000
1301581.423320,6.000000,-8.000000,-103.000000,-24.000000,3.000000,9.000000,-36.000000,2.000000
1301581.423928,2.000000,-1.000000,127.000000,32.000000,7.000000,12.000000,-7.000000,-1.000000
1301581.423953,-26.000000,4.000000,-128.000000,79.000000,6.000000,-13.000000,30.000000,-20.000000
1301581.460796,5.000000,-7.000000,45.000000,-16.000000,0.000000,3.000000,-11.000000,30.000000
1301581.461160,9.000000,-5.000000,-11.000000,-31.000000,-14.000000,-3.000000,-33.000000,-13.000000
1301581.462118,9.000000,-8.000000,-21.000000,-19.000000,-2.000000,-11.000000,12.000000,6.000000
1301581.462427,-8.000000,-1.000000,-13.000000,-11.000000,-3.000000,4.000000,-7.000000,-3.000000
1301581.463053,-11.000000,1.000000,-5.000000,-3.000000,-1.000000,5.000000,-5.000000,-5.000000
1301581.463107,-4.000000,1.000000,-1.000000,2.000000,0.000000,0.000000,-2.000000,-1.000000
1301581.463530,0.000000,-5.000000,-3.000000,7.000000,2.000000,2.000000,3.000000,4.000000
1301581.463581,4.000000,-3.000000,-9.000000,1.000000,1.000000,-1.000000,-2.000000,-3.000000
1301581.483322,15.000000,2.000000,4.000000,-15.000000,-15.000000,-14.000000,-13.000000,1.000000
1301581.483352,0.000000,6.000000,-39.000000,-22.000000,2.000000,1.000000,7.000000,-3.000000
1301581.497983,1.000000,-6.000000,68.000000,67.000000,6.000000,8.000000,-54.000000,-9.000000
1301581.498034,3.000000,-3.000000,56.000000,-1.000000,-8.000000,-13.000000,51.000000,18.000000
1301581.513213,-1.000000,2.000000,-109.000000,-26.000000,-17.000000,-3.000000,46.000000,-5.000000
1301581.513407,1.000000,-4.000000,40.000000,-21.000000,2.000000,2.000000,-39.000000,-13.000000
1301581.520600,-17.000000,2.000000,-56.000000,33.000000,20.000000,6.000000,2.000000,0.000000
1301581.520703,-23.000000,-14.000000,2.000000,-36.000000,-21.000000,-12.000000,-26.000000,-25.000000
1301581.543725,3.000000,-3.000000,0.000000,-10.000000,0.000000,-1.000000,-6.000000,0.000000
1301581.543807,0.000000,-1.000000,30.000000,6.000000,4.000000,3.000000,8.000000,2.000000
1301581.544081,-1.000000,-10.000000,-41.000000,-5.000000,-8.000000,1.000000,-1.000000,2.000000
1301581.544143,0.000000,3.000000,-9.000000,60.000000,11.000000,1.000000,-2.000000,-8.000000
1301581.545431,-5.000000,-2.000000,55.000000,16.000000,6.000000,-2.000000,-12.000000,-1.000000
1301581.545457,-6.000000,-5.000000,-19.000000,-18.000000,1.000000,6.000000,14.000000,-1.000000
1301581.546051,5.000000,-3.000000,-14.000000,-18.000000,-10.000000,-19.000000,-25.000000,-7.000000
1301581.546078,18.000000,-3.000000,26.000000,-11.000000,4.000000,7.000000,17.000000,22.000000
1301581.565795,-4.000000,7.000000,-23.000000,14.000000,-6.000000,-11.000000,16.000000,-1.000000
1301581.565849,-27.000000,4.000000,10.000000,-12.000000,-3.000000,-3.000000,-18.000000,1.000000
1301581.580391,5.000000,-1.000000,12.000000,15.000000,11.000000,2.000000,-19.000000,-1.000000
1301581.580432,-1.000000,-4.000000,8.000000,-10.000000,-4.000000,2.000000,38.000000,-1.000000
1301581.602883,-6.000000,-2.000000,20.000000,17.000000,4.000000,-2.000000,-19.000000,-3.000000
1301581.602911,-12.000000,-6.000000,36.000000,-17.000000,-5.000000,-1.000000,-17.000000,-5.000000
1301581.619123,3.000000,-2.000000,-35.000000,10.000000,5.000000,2.000000,22.000000,-5.000000
1301581.619180,-4.000000,10.000000,127.000000,117.000000,17.000000,0.000000,4.000000,-2.000000
1301581.621791,1.000000,3.000000,-121.000000,-17.000000,8.000000,4.000000,7.000000,-6.000000
1301581.621850,4.000000,7.000000,85.000000,29.000000,4.000000,15.000000,4.000000,-3.000000
1301581.622133,6.000000,1.000000,-8.000000,-15.000000,-6.000000,-7.000000,-4.000000,4.000000
1301581.622176,-3.000000,-8.000000,-16.000000,-33.000000,-3.000000,-3.000000,-11.000000,-4.000000
1301581.622568,1.000000,5.000000,18.000000,-40.000000,-13.000000,-19.000000,26.000000,12.000000
1301581.622614,33.000000,6.000000,-63.000000,12.000000,-2.000000,-11.000000,13.000000,31.000000
1301581.625879,-26.000000,-10.000000,12.000000,-2.000000,9.000000,16.000000,-11.000000,-14.000000
1301581.625929,-45.000000,-5.000000,-27.000000,-13.000000,-2.000000,0.000000,7.000000,-31.000000
1301581.640619,-8.000000,-2.000000,55.000000,14.000000,6.000000,-4.000000,-18.000000,5.000000
1301581.640668,12.000000,5.000000,-23.000000,-27.000000,-3.000000,-1.000000,18.000000,-1.000000
1301581.671457,-5.000000,-5.000000,2.000000,7.000000,0.000000,-2.000000,-11.000000,-4.000000
1301581.671624,6.000000,4.000000,10.000000,41.000000,3.000000,5.000000,16.000000,4.000000
1301581.673283,-4.000000,0.000000,39.000000,14.000000,9.000000,5.000000,-2.000000,6.000000
1301581.673312,9.000000,-6.000000,-47.000000,-16.000000,-2.000000,-3.000000,-4.000000,-1.000000
1301581.673568,-4.000000,1.000000,14.000000,18.000000,3.000000,9.000000,-57.000000,-12.000000
1301581.673597,6.000000,7.000000,81.000000,8.000000,13.000000,5.000000,41.000000,1.000000
1301581.685727,-22.000000,-3.000000,-110.000000,54.000000,6.000000,-8.000000,1.000000,12.000000
1301581.685780,20.000000,3.000000,10.000000,-21.000000,-5.000000,0.000000,-10.000000,-1.000000
1301581.700859,-22.000000,-6.000000,-37.000000,-19.000000,-9.000000,-15.000000,-38.000000,-12.000000
1301581.700895,-4.000000,-7.000000,33.000000,-50.000000,-12.000000,-1.000000,-16.000000,-14.000000
1301581.738194,8.000000,10.000000,-26.000000,7.000000,0.000000,14.000000,80.000000,17.000000
1301581.738641,-3.000000,1.000000,48.000000,64.000000,10.000000,-6.000000,-25.000000,11.000000
1301581.738992,3.000000,-11.000000,36.000000,2.000000,8.000000,7.000000,-12.000000,3.000000
1301581.739055,-35.000000,4.000000,-47.000000,-17.000000,0.000000,0.000000,-20.000000,-16.000000
1301581.740280,-10.000000,-2.000000,34.000000,-21.000000,-8.000000,-13.000000,18.000000,-1.000000
1301581.740305,6.000000,5.000000,-47.000000,9.000000,5.000000,2.000000,-16.000000,-4.000000
1301581.741831,-5.000000,-3.000000,19.000000,-10.000000,-8.000000,-1.000000,-4.000000,-2.000000
1301581.741861,9.000000,4.000000,5.000000,-5.000000,-1.000000,5.000000,1.000000,2.000000
1301581.743048,14.000000,1.000000,0.000000,-60.000000,-3.000000,-3.000000,6.000000,-1.000000
1301581.743123,11.000000,3.000000,-19.000000,39.000000,3.000000,7.000000,-25.000000,-9.000000
1301581.745083,4.000000,-4.000000,53.000000,19.000000,8.000000,8.000000,36.000000,19.000000
1301581.745138,14.000000,6.000000,18.000000,-5.000000,-3.000000,-14.000000,23.000000,15.000000
1301581.782904,-10.000000,3.000000,-30.000000,-15.000000,-2.000000,5.000000,-28.000000,-26.000000
1301581.782933,-8.000000,6.000000,38.000000,-10.000000,-7.000000,0.000000,-3.000000,-5.000000
1301581.797566,0.000000,1.000000,-32.000000,25.000000,-1.000000,-1.000000,25.000000,1.000000
1301581.797616,10.000000,2.000000,-18.000000,-19.000000,-5.000000,-13.000000,1.000000,14.000000
1301581.813058,-20.000000,-3.000000,33.000000,-9.000000,-1.000000,-1.000000,-18.000000,-7.000000
1301581.813136,2.000000,-4.000000,-62.000000,-8.000000,4.000000,4.000000,-11.000000,-3.000000
1301581.820280,9.000000,2.000000,48.000000,-28.000000,5.000000,5.000000,-7.000000,5.000000
1301581.820315,-6.000000,-3.000000,-2.000000,63.000000,-1.000000,3.000000,3.000000,0.000000
1301581.859288,-1.000000,5.000000,-12.000000,-13.000000,-9.000000,-4.000000,15.000000,16.000000
1301581.859356,-30.000000,-4.000000,-27.000000,-24.000000,3.000000,6.000000,-2.000000,-9.000000
1301581.859705,11.000000,-3.000000,12.000000,6.000000,8.000000,-1.000000,-28.000000,-1.000000
1301581.860164,2.000000,2.000000,11.000000,-21.000000,-24.000000,-10.000000,2.000000,-5.000000
1301581.861241,2.000000,-10.000000,-62.000000,11.000000,12.000000,10.000000,33.000000,11.000000
1301581.861783,12.000000,0.000000,6.000000,-6.000000,-1.000000,-11.000000,48.000000,24.000000
1301581.862439,25.000000,-7.000000,-5.000000,-6.000000,-5.000000,2.000000,-24.000000,-8.000000
1301581.862516,3.000000,-4.000000,4.000000,-28.000000,-4.000000,3.000000,-22.000000,-10.000000
1301581.863430,14.000000,11.000000,11.000000,4.000000,-1.000000,7.000000,29.000000,11.000000
1301581.863459,-12.000000,-2.000000,-36.000000,-22.000000,-11.000000,-11.000000,17.000000,-11.000000
1301581.863608,-4.000000,4.000000,-59.000000,-4.000000,7.000000,3.000000,-22.000000,-7.000000
1301581.863623,17.000000,5.000000,8.000000,31.000000,5.000000,2.000000,4.000000,9.000000
1301581.880478,-8.000000,-9.000000,-30.000000,-42.000000,-11.000000,-9.000000,-30.000000,-13.000000
1301581.880917,-5.000000,2.000000,59.000000,-2.000000,1.000000,6.000000,-19.000000,-3.000000
1301581.882564,5.000000,-2.000000,14.000000,116.000000,14.000000,0.000000,13.000000,7.000000
1301581.882587,21.000000,3.000000,2.000000,-44.000000,-16.000000,-5.000000,12.000000,6.000000
1301581.896080,6.000000,4.000000,-8.000000,-13.000000,0.000000,7.000000,13.000000,1.000000
1301581.896108,6.000000,-10.000000,-19.000000,-48.000000,-8.000000,1.000000,-14.000000,-1.000000
1301581.897552,3.000000,-3.000000,-16.000000,43.000000,16.000000,9.000000,21.000000,7.000000
1301581.897701,12.000000,7.000000,21.000000,-9.000000,-4.000000,2.000000,-6.000000,1.000000
1301581.902540,1.000000,3.000000,13.000000,-11.000000,-5.000000,-5.000000,-3.000000,-3.000000
1301581.902599,5.000000,-6.000000,-48.000000,-2.000000,-1.000000,6.000000,1.000000,8.000000
1301581.940487,-2.000000,-1.000000,12.000000,-6.000000,6.000000,5.000000,-16.000000,-6.000000
1301581.940535,3.000000,2.000000,6.000000,-8.000000,-2.000000,-3.000000,12.000000,-6.000000
1301581.947818,2.000000,-2.000000,76.000000,64.000000,8.000000,2.000000,18.000000,2.000000
1301581.947848,-2.000000,4.000000,-79.000000,-2.000000,2.000000,6.000000,-83.000000,9.000000
1301581.970017,24.000000,3.000000,-6.000000,-23.000000,4.000000,-2.000000,61.000000,12.000000
1301581.970045,-17.000000,-3.000000,56.000000,62.000000,5.000000,5.000000,37.000000,-2.000000
1301581.977550,-3.000000,1.000000,69.000000,19.000000,8.000000,3.000000,-6.000000,10.000000
1301581.977576,13.000000,3.000000,-15.000000,-27.000000,4.000000,5.000000,-21.000000,-15.000000
1301582.001972,-5.000000,-7.000000,-32.000000,-19.000000,0.000000,-4.000000,-1.000000,2.000000
1301582.002016,1.000000,3.000000,-6.000000,-7.000000,2.000000,5.000000,1.000000,1.000000
1301582.003683,8.000000,-5.000000,-3.000000,-3.000000,-9.000000,-1.000000,-8.000000,1.000000
1301582.003711,-30.000000,8.000000,19.000000,15.000000,6.000000,9.000000,0.000000,1.000000
1301582.005235,15.000000,-2.000000,17.000000,3.000000,4.000000,3.000000,-10.000000,8.000000
1301582.005286,0.000000,-16.000000,-11.000000,-10.000000,-5.000000,-5.000000,25.000000,16.000000
1301582.005564,6.000000,7.000000,-32.000000,-27.000000,-6.000000,-6.000000,-6.000000,-8.000000
1301582.005619,-14.000000,-4.000000,3.000000,13.000000,1.000000,0.000000,12.000000,-5.000000
1301582.005862,-7.000000,-2.000000,18.000000,-18.000000,-1.000000,-5.000000,-35.000000,-6.000000
1301582.005883,12.000000,2.000000,-60.000000,0.000000,0.000000,-6.000000,19.000000,-9.000000
1301582.015751,-4.000000,4.000000,81.000000,33.000000,7.000000,3.000000,-12.000000,-11.000000
1301582.015810,-9.000000,-10.000000,4.000000,-25.000000,-3.000000,7.000000,17.000000,1.000000
1301582.016945,0.000000,1.000000,-3.000000,12.000000,-5.000000,-4.000000,-21.000000,4.000000
1301582.016995,15.000000,-5.000000,21.000000,-1.000000,8.000000,12.000000,-15.000000,1.000000
1301582.022872,-15.000000,1.000000,-102.000000,10.000000,-1.000000,-26.000000,-14.000000,-15.000000
1301582.022926,22.000000,-3.000000,15.000000,-2.000000,-5.000000,4.000000,54.000000,30.000000
1301582.075535,-12.000000,0.000000,-16.000000,-8.000000,1.000000,1.000000,-22.000000,-10.000000
1301582.075564,-9.000000,1.000000,12.000000,-8.000000,-1.000000,6.000000,-20.000000,-10.000000
1301582.082637,4.000000,5.000000,-9.000000,-14.000000,-4.000000,3.000000,4.000000,-9.000000
1301582.082688,6.000000,1.000000,1.000000,26.000000,6.000000,7.000000,11.000000,14.000000
1301582.099899,12.000000,2.000000,23.000000,-4.000000,-10.000000,-7.000000,-6.000000,13.000000
1301582.100277,-22.000000,-1.000000,-5.000000,-14.000000,-2.000000,6.000000,-8.000000,-16.000000
1301582.100570,5.000000,1.000000,-16.000000,-21.000000,-7.000000,-21.000000,14.000000,-2.000000
1301582.100622,3.000000,-3.000000,-63.000000,-1.000000,1.000000,17.000000,-23.000000,13.000000
1301582.101669,5.000000,8.000000,51.000000,-31.000000,-18.000000,-30.000000,2.000000,3.000000
1301582.101806,-8.000000,8.000000,32.000000,93.000000,30.000000,16.000000,-15.000000,-8.000000
1301582.102443,21.000000,-7.000000,-28.000000,-44.000000,-1.000000,4.000000,-3.000000,-13.000000
1301582.102491,-10.000000,14.000000,0.000000,30.000000,1.000000,-2.000000,-20.000000,-10.000000
1301582.120259,12.000000,-6.000000,10.000000,-5.000000,-6.000000,-5.000000,27.000000,11.000000
1301582.120330,8.000000,8.000000,-32.000000,-36.000000,-12.000000,-1.000000,-3.000000,11.000000
1301582.122318,18.000000,3.000000,-21.000000,33.000000,13.000000,3.000000,-3.000000,-7.000000
1301582.122367,-2.000000,1.000000,47.000000,19.000000,-5.000000,-10.000000,-34.000000,3.000000
1301582.135881,3.000000,-5.000000,30.000000,-33.000000,2.000000,11.000000,33.000000,-2.000000
1301582.135916,-8.000000,1.000000,-125.000000,-14.000000,-4.000000,-13.000000,29.000000,-3.000000
1301582.137643,-24.000000,8.000000,50.000000,14.000000,-2.000000,-4.000000,-18.000000,-2.000000
1301582.137695,9.000000,-5.000000,11.000000,-16.000000,2.000000,8.000000,-29.000000,-5.000000
1301582.158012,-7.000000,3.000000,-52.000000,-55.000000,-5.000000,6.000000,6.000000,1.000000
1301582.158071,2.000000,-3.000000,24.000000,29.000000,3.000000,-11.000000,-9.000000,-26.000000
1301582.180046,1.000000,-1.000000,8.000000,3.000000,1.000000,4.000000,10.000000,16.000000
1301582.180094,11.000000,3.000000,-1.000000,2.000000,-3.000000,1.000000,-8.000000,1.000000
1301582.195442,6.000000,1.000000,2.000000,3.000000,1.000000,3.000000,-3.000000,-2.000000
1301582.195489,-8.000000,-4.000000,-12.000000,-5.000000,-7.000000,-4.000000,-6.000000,-3.000000
1301582.210452,-8.000000,2.000000,4.000000,0.000000,0.000000,-7.000000,14.000000,2.000000
1301582.210505,1.000000,-1.000000,-12.000000,-9.000000,-4.000000,-2.000000,-29.000000,-6.000000
1301582.217636,9.000000,-4.000000,43.000000,-10.000000,8.000000,16.000000,6.000000,3.000000
1301582.217668,-5.000000,3.000000,-90.000000,23.000000,-2.000000,-27.000000,42.000000,2.000000
1301582.219083,6.000000,-3.000000,17.000000,-16.000000,-10.000000,-32.000000,-32.000000,0.000000
1301582.219140,-2.000000,9.000000,108.000000,60.000000,22.000000,11.000000,-12.000000,-7.000000
1301582.220783,4.000000,-4.000000,-11.000000,-14.000000,-7.000000,-1.000000,-16.000000,1.000000
1301582.220814,-18.000000,7.000000,2.000000,-17.000000,-5.000000,2.000000,-28.000000,-1.000000
1301582.222335,8.000000,-1.000000,17.000000,11.000000,-2.000000,-7.000000,35.000000,-20.000000
1301582.222386,-4.000000,8.000000,1.000000,-10.000000,1.000000,3.000000,0.000000,5.000000
1301582.225315,9.000000,-2.000000,-57.000000,5.000000,10.000000,11.000000,-25.000000,4.000000
1301582.225342,0.000000,8.000000,37.000000,-3.000000,-16.000000,-16.000000,65.000000,2.000000
1301582.232564,9.000000,-5.000000,24.000000,-8.000000,-6.000000,-7.000000,-35.000000,3.000000
1301582.232616,-24.000000,-3.000000,17.000000,-36.000000,5.000000,7.000000,-16.000000,-14.000000
1301582.256113,12.000000,-3.000000,-61.000000,65.000000,13.000000,11.000000,-8.000000,-5.000000
1301582.256162,-6.000000,-5.000000,19.000000,15.000000,0.000000,-5.000000,5.000000,7.000000
1301582.257959,-4.000000,-2.000000,3.000000,-21.000000,-4.000000,-1.000000,2.000000,-5.000000
1301582.257987,12.000000,3.000000,-5.000000,-20.000000,-4.000000,2.000000,2.000000,4.000000
1301582.277719,-31.000000,0.000000,-3.000000,3.000000,-3.000000,0.000000,-25.000000,-13.000000
1301582.277772,10.000000,2.000000,-8.000000,-13.000000,-3.000000,-11.000000,19.000000,8.000000
1301582.300890,4.000000,1.000000,-2.000000,-28.000000,-9.000000,-1.000000,-18.000000,-13.000000
1301582.300962,2.000000,-2.000000,-62.000000,40.000000,6.000000,5.000000,4.000000,17.000000
1301582.315536,-6.000000,1.000000,21.000000,-14.000000,-3.000000,-5.000000,-14.000000,-8.000000
1301582.315580,-1.000000,6.000000,8.000000,-35.000000,-22.000000,-10.000000,39.000000,-7.000000
1301582.340369,2.000000,-4.000000,-25.000000,24.000000,0.000000,-2.000000,-46.000000,-12.000000
1301582.340421,9.000000,0.000000,0.000000,15.000000,4.000000,2.000000,11.000000,-11.000000
1301582.340651,-13.000000,7.000000,5.000000,-12.000000,-4.000000,-10.000000,-5.000000,0.000000
1301582.340687,-10.000000,5.000000,-9.000000,-10.000000,-4.000000,7.000000,-12.000000,1.000000
1301582.342590,26.000000,0.000000,-85.000000,-37.000000,-13.000000,-2.000000,19.000000,14.000000
1301582.342700,-11.000000,4.000000,46.000000,24.000000,-2.000000,11.000000,7.000000,-26.000000
1301582.343273,5.000000,-4.000000,5.000000,0.000000,-6.000000,-6.000000,-25.000000,-13.000000
1301582.343309,14.000000,-1.000000,4.000000,-9.000000,0.000000,-9.000000,23.000000,11.000000
1301582.353352,5.000000,3.000000,32.000000,30.000000,-3.000000,1.000000,-2.000000,2.000000
1301582.353850,-12.000000,13.000000,-18.000000,-12.000000,4.000000,8.000000,-3.000000,-15.000000
1301582.354811,0.000000,-15.000000,-1.000000,-1.000000,7.000000,0.000000,26.000000,4.000000
1301582.354864,-4.000000,3.000000,-15.000000,-6.000000,-19.000000,-15.000000,9.000000,5.000000
1301582.375855,6.000000,-2.000000,53.000000,10.000000,4.000000,2.000000,-22.000000,-6.000000
1301582.376084,-21.000000,4.000000,-57.000000,1.000000,-7.000000,2.000000,-1.000000,-3.000000
1301582.376913,6.000000,-12.000000,-17.000000,-41.000000,-4.000000,-1.000000,8.000000,1.000000
1301582.376962,-19.000000,1.000000,-9.000000,52.000000,7.000000,11.000000,4.000000,2.000000
1301582.397929,-11.000000,-8.000000,56.000000,-23.000000,-13.000000,-10.000000,-19.000000,-17.000000
1301582.397964,1.000000,-3.000000,-47.000000,27.000000,2.000000,-23.000000,32.000000,16.000000
1301582.412868,2.000000,2.000000,13.000000,-27.000000,-9.000000,-4.000000,-9.000000,-11.000000
1301582.412898,-10.000000,-2.000000,-41.000000,4.000000,-1.000000,4.000000,-46.000000,-10.000000
1301582.435002,13.000000,6.000000,18.000000,-17.000000,-15.000000,-13.000000,-5.000000,-3.000000
1301582.435054,-3.000000,1.000000,-12.000000,7.000000,3.000000,6.000000,9.000000,4.000000
1301582.457608,-2.000000,2.000000,-7.000000,-2.000000,-1.000000,4.000000,6.000000,-5.000000
1301582.457659,3.000000,-8.000000,33.000000,-5.000000,4.000000,-2.000000,0.000000,-5.000000
1301582.472975,13.000000,-6.000000,-78.000000,-6.000000,-3.000000,-4.000000,-4.000000,8.000000
1301582.473029,4.000000,5.000000,-7.000000,-6.000000,-5.000000,5.000000,-21.000000,0.000000
1301582.495867,-22.000000,4.000000,49.000000,-32.000000,4.000000,1.000000,9.000000,-6.000000
1301582.495909,8.000000,1.000000,-60.000000,93.000000,16.000000,0.000000,3.000000,1.000000
1301582.502915,0.000000,0.000000,127.000000,-8.000000,-6.000000,12.000000,12.000000,10.000000
1301582.502974,-7.000000,4.000000,-68.000000,28.000000,3.000000,-27.000000,11.000000,-7.000000
1301582.518164,-5.000000,2.000000,-15.000000,-7.000000,-5.000000,2.000000,7.000000,-6.000000
1301582.518620,-1.000000,5.000000,-44.000000,-7.000000,-1.000000,-9.000000,1.000000,4.000000
1301582.519426,1.000000,2.000000,73.000000,28.000000,6.000000,14.000000,-9.000000,8.000000
1301582.519476,0.000000,-5.000000,-29.000000,-17.000000,-5.000000,-8.000000,16.000000,-13.000000
1301582.521516,10.000000,-4.000000,-48.000000,31.000000,3.000000,-4.000000,-12.000000,-4.000000
1301582.521654,-13.000000,6.000000,4.000000,-9.000000,-3.000000,-7.000000,-8.000000,3.000000
1301582.521953,-2.000000,-4.000000,-13.000000,-22.000000,-4.000000,1.000000,-1.000000,-10.000000
1301582.522006,-14.000000,4.000000,29.000000,12.000000,4.000000,7.000000,-15.000000,3.000000
1301582.522490,9.000000,-3.000000,127.000000,31.000000,9.000000,11.000000,19.000000,5.000000
1301582.522514,-1.000000,-9.000000,-105.000000,70.000000,11.000000,-9.000000,-30.000000,17.000000
1301582.532970,0.000000,-4.000000,5.000000,32.000000,-2.000000,-5.000000,6.000000,0.000000
1301582.533452,4.000000,1.000000,-3.000000,-29.000000,-10.000000,1.000000,10.000000,-2.000000
1301582.555645,-4.000000,12.000000,4.000000,-29.000000,0.000000,0.000000,-47.000000,-1.000000
1301582.555931,-12.000000,4.000000,-22.000000,5.000000,6.000000,3.000000,18.000000,-5.000000
1301582.557864,5.000000,5.000000,31.000000,30.000000,6.000000,5.000000,-13.000000,0.000000
1301582.557978,-13.000000,-2.000000,2.000000,-11.000000,1.000000,-3.000000,11.000000,3.000000
1301582.558372,3.000000,-2.000000,-4.000000,-19.000000,-8.000000,-5.000000,32.000000,3.000000
1301582.558421,0.000000,-3.000000,-28.000000,-9.000000,5.000000,9.000000,-23.000000,0.000000
1301582.570792,7.000000,-1.000000,0.000000,-11.000000,-5.000000,-4.000000,9.000000,6.000000
1301582.571382,0.000000,1.000000,8.000000,-20.000000,-7.000000,-4.000000,0.000000,14.000000
1301582.578088,4.000000,5.000000,-57.000000,5.000000,0.000000,2.000000,10.000000,1.000000
1301582.578206,-5.000000,-5.000000,18.000000,-10.000000,-2.000000,-4.000000,-24.000000,-7.000000
1301582.593421,6.000000,3.000000,19.000000,-21.000000,-1.000000,8.000000,23.000000,-1.000000
1301582.593448,2.000000,0.000000,-95.000000,12.000000,-1.000000,-2.000000,-43.000000,6.000000
1301582.615543,-4.000000,2.000000,55.000000,22.000000,-2.000000,-1.000000,27.000000,1.000000
1301582.615596,-13.000000,-1.000000,2.000000,-9.000000,-7.000000,1.000000,12.000000,-1.000000
1301582.630871,-1.000000,0.000000,-21.000000,-88.000000,-18.000000,-17.000000,8.000000,-3.000000
1301582.630898,11.000000,-4.000000,22.000000,94.000000,13.000000,15.000000,-17.000000,-1.000000
1301582.652964,6.000000,-1.000000,90.000000,24.000000,5.000000,-6.000000,4.000000,16.000000
1301582.653011,2.000000,-18.000000,-28.000000,-21.000000,-1.000000,4.000000,0.000000,5.000000
1301582.675298,15.000000,4.000000,-11.000000,-20.000000,-13.000000,-6.000000,-4.000000,-2.000000
1301582.675325,10.000000,5.000000,14.000000,3.000000,0.000000,5.000000,-19.000000,-2.000000
1301582.692685,5.000000,3.000000,-14.000000,-23.000000,0.000000,4.000000,42.000000,-4.000000
1301582.693376,2.000000,3.000000,8.000000,31.000000,3.000000,3.000000,0.000000,8.000000
1301582.694951,-5.000000,-1.000000,3.000000,1.000000,-6.000000,-11.000000,-17.000000,4.000000
1301582.695001,-11.000000,-4.000000,-18.000000,-9.000000,5.000000,8.000000,-10.000000,1.000000
1301582.695341,4.000000,-5.000000,33.000000,6.000000,-5.000000,-8.000000,-21.000000,-20.000000
1301582.695398,-13.000000,4.000000,-21.000000,15.000000,-13.000000,-19.000000,73.000000,7.000000
1301582.713363,2.000000,-3.000000,26.000000,-33.000000,-6.000000,4.000000,-6.000000,-3.000000
1301582.713814,5.000000,3.000000,-42.000000,15.000000,-1.000000,-4.000000,-8.000000,-3.000000
1301582.714484,23.000000,-4.000000,62.000000,20.000000,-1.000000,-6.000000,20.000000,-4.000000
1301582.714506,-10.000000,-3.000000,-24.000000,-16.000000,2.000000,2.000000,-7.000000,5.000000
1301582.720444,-4.000000,6.000000,-11.000000,4.000000,-4.000000,0.000000,-1.000000,-6.000000
1301582.720508,-5.000000,-5.000000,12.000000,-23.000000,-15.000000,-19.000000,26.000000,0.000000
1301582.729078,9.000000,-1.000000,6.000000,-11.000000,-6.000000,-7.000000,-7.000000,-14.000000
1301582.729106,-12.000000,0.000000,6.000000,3.000000,-4.000000,-4.000000,-17.000000,-14.000000
1301582.735463,3.000000,-4.000000,-15.000000,-16.000000,-5.000000,5.000000,-3.000000,7.000000
1301582.735512,11.000000,0.000000,42.000000,-15.000000,-1.000000,8.000000,0.000000,0.000000
1301582.773310,-19.000000,0.000000,-60.000000,17.000000,2.000000,-8.000000,-11.000000,-14.000000
1301582.773359,4.000000,-5.000000,15.000000,-2.000000,5.000000,7.000000,-9.000000,-2.000000
1301582.780270,2.000000,-1.000000,11.000000,-14.000000,-4.000000,6.000000,-8.000000,8.000000
1301582.780309,2.000000,-1.000000,-57.000000,21.000000,4.000000,-9.000000,38.000000,-11.000000
1301582.795331,0.000000,0.000000,20.000000,-13.000000,-5.000000,-1.000000,-23.000000,-8.000000
1301582.795360,0.000000,-1.000000,19.000000,20.000000,6.000000,7.000000,12.000000,-1.000000
1301582.802855,11.000000,7.000000,4.000000,-19.000000,-13.000000,-24.000000,12.000000,12.000000
1301582.802905,4.000000,0.000000,12.000000,-25.000000,-1.000000,-3.000000,-15.000000,1.000000
1301582.832961,-18.000000,0.000000,-93.000000,-1.000000,-1.000000,4.000000,-5.000000,-17.000000
1301582.833296,1.000000,4.000000,52.000000,7.000000,-6.000000,-2.000000,7.000000,1.000000
1301582.834346,-2.000000,-1.000000,5.000000,4.000000,4.000000,10.000000,-14.000000,-13.000000
1301582.834407,5.000000,-3.000000,-11.000000,-5.000000,-2.000000,-14.000000,-22.000000,-3.000000
1301582.836681,-16.000000,-10.000000,0.000000,-20.000000,0.000000,3.000000,-48.000000,-11.000000
1301582.836745,19.000000,3.000000,14.000000,-15.000000,-4.000000,-12.000000,25.000000,9.000000
1301582.837077,-5.000000,1.000000,70.000000,-18.000000,-13.000000,-1.000000,29.000000,15.000000
1301582.837135,-2.000000,0.000000,-22.000000,78.000000,21.000000,10.000000,11.000000,4.000000
1301582.838747,4.000000,-4.000000,19.000000,-4.000000,3.000000,1.000000,4.000000,7.000000
1301582.838821,10.000000,7.000000,-40.000000,-8.000000,-1.000000,-5.000000,-27.000000,-12.000000
1301582.848048,-6.000000,0.000000,15.000000,5.000000,6.000000,8.000000,20.000000,5.000000
1301582.848106,-3.000000,4.000000,71.000000,-13.000000,-2.000000,-5.000000,-10.000000,-10.000000
1301582.878086,-3.000000,1.000000,-109.000000,97.000000,23.000000,5.000000,-2.000000,9.000000
1301582.878146,-9.000000,-1.000000,27.000000,-31.000000,-16.000000,-2.000000,-8.000000,5.000000
1301582.893307,4.000000,4.000000,0.000000,-49.000000,-14.000000,-6.000000,5.000000,-8.000000
1301582.893507,3.000000,-3.000000,-16.000000,4.000000,3.000000,11.000000,11.000000,2.000000
1301582.916176,-27.000000,3.000000,-64.000000,2.000000,1.000000,0.000000,-7.000000,8.000000
1301582.916798,3.000000,-8.000000,-12.000000,4.000000,-9.000000,-2.000000,2.000000,-2.000000
1301582.917240,-8.000000,-4.000000,40.000000,-14.000000,-1.000000,7.000000,15.000000,-4.000000
1301582.917293,5.000000,-5.000000,-23.000000,29.000000,-3.000000,-2.000000,11.000000,10.000000
1301582.918779,-10.000000,-2.000000,6.000000,-6.000000,6.000000,19.000000,22.000000,11.000000
1301582.918819,-5.000000,-9.000000,-24.000000,-9.000000,-1.000000,-7.000000,-31.000000,-37.000000
1301582.919066,0.000000,-5.000000,-8.000000,-2.000000,-5.000000,-13.000000,32.000000,20.000000
1301582.919102,5.000000,5.000000,15.000000,4.000000,4.000000,7.000000,1.000000,-5.000000
1301582.930992,-45.000000,-8.000000,55.000000,2.000000,-1.000000,-1.000000,5.000000,-2.000000
1301582.931043,3.000000,4.000000,-52.000000,49.000000,8.000000,-5.000000,-19.000000,-15.000000
1301582.968084,-1.000000,-6.000000,-11.000000,-55.000000,-5.000000,3.000000,15.000000,7.000000
1301582.968113,-5.000000,-4.000000,-33.000000,21.000000,-3.000000,-8.000000,-7.000000,-5.000000
1301583.005423,-6.000000,-1.000000,53.000000,12.000000,3.000000,0.000000,-19.000000,-1.000000
1301583.005477,-2.000000,-1.000000,-6.000000,-22.000000,-15.000000,-9.000000,5.000000,-5.000000
1301583.012551,8.000000,-2.000000,-13.000000,-35.000000,-7.000000,-7.000000,21.000000,6.000000
1301583.012579,-20.000000,-8.000000,-87.000000,10.000000,0.000000,0.000000,-11.000000,-14.000000
1301583.057816,4.000000,1.000000,75.000000,30.000000,-1.000000,1.000000,-13.000000,3.000000
1301583.057844,28.000000,0.000000,-18.000000,-29.000000,-13.000000,-15.000000,-10.000000,0.000000
1301583.065026,-7.000000,-5.000000,28.000000,-4.000000,1.000000,3.000000,7.000000,2.000000
1301583.065072,2.000000,0.000000,-77.000000,5.000000,12.000000,6.000000,-5.000000,-5.000000
1301583.075166,-7.000000,-1.000000,20.000000,27.000000,5.000000,-2.000000,0.000000,-2.000000
1301583.075297,-2.000000,0.000000,-51.000000,-15.000000,-3.000000,5.000000,-4.000000,0.000000
1301583.087860,-3.000000,4.000000,-22.000000,34.000000,10.000000,9.000000,-17.000000,-2.000000
1301583.087886,17.000000,5.000000,-17.000000,-40.000000,-12.000000,-8.000000,0.000000,1.000000
1301583.125138,-4.000000,-2.000000,-118.000000,24.000000,0.000000,6.000000,7.000000,5.000000
1301583.125188,-13.000000,6.000000,41.000000,34.000000,-2.000000,-11.000000,2.000000,-5.000000
1301583.147662,6.000000,-3.000000,18.000000,-12.000000,-2.000000,6.000000,-7.000000,4.000000
1301583.147703,-7.000000,-1.000000,13.000000,-11.000000,-4.000000,2.000000,10.000000,-6.000000
1301583.186050,17.000000,-6.000000,-11.000000,-3.000000,-3.000000,-7.000000,-8.000000,5.000000
1301583.186099,-3.000000,1.000000,11.000000,13.000000,2.000000,3.000000,-14.000000,-6.000000
1301583.186928,-3.000000,-2.000000,-44.000000,-29.000000,-5.000000,-6.000000,-18.000000,-7.000000
1301583.187140,0.000000,5.000000,-4.000000,-18.000000,0.000000,-6.000000,20.000000,11.000000
1301583.189088,1.000000,5.000000,94.000000,68.000000,8.000000,-1.000000,13.000000,0.000000
1301583.189111,-20.000000,8.000000,1.000000,-24.000000,-4.000000,-3.000000,5.000000,3.000000
1301583.189232,4.000000,-1.000000,-4.000000,-17.000000,-3.000000,5.000000,-18.000000,-3.000000
1301583.189246,7.000000,10.000000,-34.000000,-14.000000,-10.000000,-15.000000,14.000000,8.000000
1301583.200143,1.000000,-4.000000,52.000000,-33.000000,-12.000000,0.000000,12.000000,-12.000000
1301583.200190,-12.000000,-4.000000,11.000000,102.000000,20.000000,0.000000,4.000000,-13.000000
1301583.230616,-9.000000,-4.000000,6.000000,-40.000000,-8.000000,-2.000000,-19.000000,4.000000
1301583.230679,-6.000000,12.000000,-21.000000,-26.000000,-17.000000,-3.000000,40.000000,1.000000
1301583.245594,10.000000,-4.000000,-15.000000,-10.000000,0.000000,-10.000000,-38.000000,-8.000000
1301583.245655,10.000000,-1.000000,-6.000000,-20.000000,-2.000000,5.000000,18.000000,-6.000000
1301583.274955,-9.000000,-3.000000,8.000000,23.000000,5.000000,7.000000,-3.000000,3.000000
1301583.275005,1.000000,-4.000000,10.000000,-3.000000,-6.000000,-3.000000,-8.000000,-3.000000
1301583.282566,-8.000000,-1.000000,-3.000000,-8.000000,1.000000,-4.000000,-2.000000,-6.000000
1301583.282626,-4.000000,-7.000000,16.000000,-6.000000,1.000000,6.000000,-39.000000,-5.000000
1301583.284968,6.000000,-3.000000,-74.000000,-4.000000,-7.000000,-15.000000,45.000000,14.000000
1301583.285228,3.000000,5.000000,59.000000,32.000000,5.000000,-8.000000,4.000000,2.000000
1301583.285491,5.000000,6.000000,-13.000000,-35.000000,-3.000000,6.000000,-14.000000,-4.000000
1301583.285521,8.000000,-1.000000,18.000000,3.000000,4.000000,5.000000,-19.000000,-5.000000
1301583.291042,15.000000,2.000000,3.000000,2.000000,3.000000,5.000000,11.000000,6.000000
1301583.291099,-3.000000,-3.000000,-37.000000,-13.000000,-7.000000,2.000000,-8.000000,0.000000
1301583.305810,-24.000000,-2.000000,110.000000,76.000000,6.000000,-5.000000,-4.000000,-7.000000
1301583.305843,-5.000000,-1.000000,11.000000,-10.000000,-7.000000,-4.000000,-10.000000,-4.000000
1301583.307351,5.000000,-1.000000,0.000000,-4.000000,3.000000,-3.000000,3.000000,0.000000
1301583.307396,-4.000000,-4.000000,-8.000000,-11.000000,-6.000000,-9.000000,11.000000,6.000000
1301583.335313,5.000000,-9.000000,-7.000000,-6.000000,-8.000000,-7.000000,-16.000000,2.000000
1301583.335367,-8.000000,0.000000,4.000000,10.000000,6.000000,11.000000,-4.000000,5.000000
1301583.350754,-5.000000,-3.000000,9.000000,9.000000,3.000000,11.000000,-8.000000,-23.000000
1301583.350816,-8.000000,-7.000000,-7.000000,-10.000000,-10.000000,-14.000000,2.000000,5.000000
1301583.366238,0.000000,2.000000,22.000000,57.000000,22.000000,14.000000,19.000000,5.000000
1301583.366280,-2.000000,-2.000000,-21.000000,-29.000000,-23.000000,-23.000000,-32.000000,-18.000000
1301583.389453,-5.000000,-2.000000,-14.000000,7.000000,7.000000,7.000000,-1.000000,9.000000
1301583.389495,-6.000000,-9.000000,16.000000,-1.000000,-2.000000,3.000000,-1.000000,-2.000000
1301583.389795,29.000000,4.000000,3.000000,0.000000,-9.000000,-8.000000,-33.000000,-1.000000
1301583.389818,1.000000,-2.000000,25.000000,20.000000,15.000000,12.000000,39.000000,11.000000
1301583.391983,-14.000000,1.000000,-27.000000,-8.000000,-14.000000,-26.000000,5.000000,-10.000000
1301583.392030,5.000000,-3.000000,60.000000,64.000000,15.000000,5.000000,23.000000,4.000000
1301583.392302,9.000000,-5.000000,-17.000000,-9.000000,0.000000,4.000000,-24.000000,4.000000
1301583.392365,-14.000000,-5.000000,23.000000,-7.000000,-6.000000,5.000000,-15.000000,-10.000000
1301583.403721,-15.000000,2.000000,6.000000,4.000000,6.000000,0.000000,-3.000000,-11.000000
1301583.403761,6.000000,-3.000000,-5.000000,-3.000000,-4.000000,0.000000,-10.000000,3.000000
1301583.425933,1.000000,3.000000,1.000000,-12.000000,0.000000,0.000000,-18.000000,-13.000000
1301583.426164,7.000000,-4.000000,31.000000,32.000000,9.000000,9.000000,37.000000,11.000000
1301583.426415,-10.000000,-1.000000,17.000000,5.000000,3.000000,-11.000000,-16.000000,6.000000
1301583.426470,9.000000,9.000000,-12.000000,37.000000,6.000000,3.000000,18.000000,-5.000000
1301583.432868,-21.000000,4.000000,28.000000,1.000000,5.000000,8.000000,-19.000000,-6.000000
1301583.433038,-8.000000,-9.000000,-43.000000,-2.000000,2.000000,1.000000,-11.000000,-10.000000
1301583.447742,-10.000000,11.000000,37.000000,19.000000,-5.000000,-7.000000,-2.000000,3.000000
1301583.447796,7.000000,-19.000000,-5.000000,-22.000000,-8.000000,4.000000,3.000000,6.000000
1301583.470426,2.000000,3.000000,-48.000000,-26.000000,-4.000000,-7.000000,-2.000000,-2.000000
1301583.470454,4.000000,4.000000,-9.000000,-16.000000,-4.000000,2.000000,-12.000000,-8.000000
1301583.485217,-16.000000,-6.000000,106.000000,84.000000,5.000000,-5.000000,19.000000,4.000000
1301583.485248,-16.000000,-9.000000,12.000000,-12.000000,0.000000,-4.000000,-30.000000,-16.000000
1301583.509307,7.000000,33.000000,-8.000000,2.000000,0.000000,4.000000,39.000000,5.000000
1301583.509993,-35.000000,-3.000000,-17.000000,-13.000000,-12.000000,-25.000000,-47.000000,0.000000
1301583.511669,14.000000,-10.000000,8.000000,9.000000,11.000000,19.000000,24.000000,7.000000
1301583.511697,-7.000000,-5.000000,-40.000000,-19.000000,-11.000000,-12.000000,-33.000000,-15.000000
1301583.511872,-8.000000,3.000000,32.000000,16.000000,4.000000,12.000000,5.000000,9.000000
1301583.511897,-3.000000,-6.000000,14.000000,21.000000,5.000000,1.000000,-12.000000,-6.000000
1301583.513473,-9.000000,11.000000,15.000000,14.000000,-1.000000,-8.000000,17.000000,-3.000000
1301583.513527,-22.000000,1.000000,7.000000,-10.000000,-4.000000,-5.000000,-5.000000,-5.000000
1301583.523508,11.000000,7.000000,33.000000,5.000000,-3.000000,-6.000000,-8.000000,4.000000
1301583.523647,-8.000000,3.000000,-106.000000,1.000000,2.000000,3.000000,-13.000000,-11.000000
1301583.545995,9.000000,8.000000,46.000000,19.000000,-1.000000,-6.000000,18.000000,4.000000
1301583.546509,-3.000000,-1.000000,-4.000000,45.000000,3.000000,-2.000000,-23.000000,-5.000000
1301583.547326,-6.000000,1.000000,3.000000,-10.000000,-7.000000,-1.000000,48.000000,12.000000
1301583.547387,5.000000,-1.000000,0.000000,-9.000000,5.000000,0.000000,-10.000000,-4.000000
1301583.560680,-19.000000,-6.000000,-38.000000,-1.000000,-2.000000,1.000000,-3.000000,-5.000000
1301583.560733,7.000000,0.000000,22.000000,11.000000,-1.000000,-4.000000,40.000000,5.000000
1301583.567867,-2.000000,-6.000000,-14.000000,19.000000,7.000000,-10.000000,-30.000000,-6.000000
1301583.567931,13.000000,6.000000,-28.000000,-3.000000,2.000000,6.000000,32.000000,-1.000000
1301583.605340,-28.000000,-5.000000,34.000000,-15.000000,-5.000000,-2.000000,-4.000000,-23.000000
1301583.605394,-22.000000,-5.000000,-42.000000,3.000000,-3.000000,-1.000000,-28.000000,-6.000000
1301583.612933,12.000000,1.000000,18.000000,-7.000000,-2.000000,-1.000000,-1.000000,8.000000
1301583.613109,1.000000,0.000000,-31.000000,-11.000000,-6.000000,-1.000000,-4.000000,-8.000000
1301583.622122,3.000000,-2.000000,42.000000,18.000000,9.000000,1.000000,-11.000000,0.000000
1301583.622153,0.000000,4.000000,120.000000,49.000000,4.000000,-4.000000,9.000000,6.000000
1301583.622626,4.000000,-1.000000,13.000000,-27.000000,1.000000,1.000000,-4.000000,5.000000
1301583.622686,-8.000000,-8.000000,-41.000000,-16.000000,2.000000,6.000000,-16.000000,-2.000000
1301583.624466,0.000000,-5.000000,16.000000,2.000000,-4.000000,2.000000,7.000000,-4.000000
1301583.624495,-3.000000,1.000000,45.000000,-7.000000,-5.000000,-8.000000,40.000000,0.000000
1301583.624813,9.000000,4.000000,-85.000000,11.000000,8.000000,-7.000000,-7.000000,8.000000
1301583.624835,-9.000000,3.000000,22.000000,-21.000000,1.000000,6.000000,-29.000000,-26.000000
1301583.635637,-1.000000,-2.000000,-8.000000,19.000000,3.000000,1.000000,3.000000,-4.000000
1301583.635668,2.000000,2.000000,10.000000,-3.000000,-2.000000,7.000000,6.000000,8.000000
1301583.642867,1.000000,0.000000,-16.000000,-4.000000,4.000000,4.000000,-8.000000,-7.000000
1301583.642924,-13.000000,6.000000,59.000000,36.000000,7.000000,2.000000,-5.000000,0.000000
1301583.667381,11.000000,-2.000000,8.000000,-6.000000,-11.000000,-10.000000,16.000000,6.000000
1301583.667432,3.000000,1.000000,-22.000000,-25.000000,-3.000000,-6.000000,-19.000000,-14.000000
1301583.669326,-1.000000,-10.000000,-43.000000,-6.000000,4.000000,8.000000,-8.000000,-4.000000
1301583.669386,7.000000,-2.000000,-6.000000,4.000000,9.000000,11.000000,13.000000,7.000000
1301583.673469,-15.000000,8.000000,45.000000,9.000000,-8.000000,-15.000000,24.000000,-1.000000
1301583.673554,10.000000,2.000000,40.000000,-4.000000,6.000000,5.000000,-26.000000,-1.000000
1301583.681883,-25.000000,-3.000000,-34.000000,-9.000000,8.000000,12.000000,8.000000,-12.000000
1301583.681939,8.000000,3.000000,-53.000000,0.000000,-3.000000,-15.000000,80.000000,19.000000
1301583.725575,-11.000000,2.000000,-21.000000,18.000000,0.000000,-11.000000,-37.000000,-22.000000
1301583.725641,-12.000000,-3.000000,-3.000000,-14.000000,1.000000,6.000000,-21.000000,-9.000000
1301583.741305,3.000000,4.000000,10.000000,0.000000,2.000000,4.000000,3.000000,4.000000
1301583.741361,7.000000,-3.000000,-14.000000,-15.000000,-4.000000,4.000000,-1.000000,0.000000
1301583.786032,-1.000000,-10.000000,32.000000,20.000000,-4.000000,3.000000,-2.000000,-8.000000
1301583.786086,-4.000000,-2.000000,-30.000000,14.000000,7.000000,2.000000,18.000000,14.000000
1301583.787099,-6.000000,4.000000,11.000000,0.000000,1.000000,2.000000,-4.000000,2.000000
1301583.787687,-2.000000,-9.000000,-6.000000,-4.000000,6.000000,13.000000,-8.000000,-1.000000
1301583.788941,-5.000000,-2.000000,25.000000,-19.000000,-18.000000,-26.000000,-4.000000,-9.000000
1301583.788980,-15.000000,-4.000000,-19.000000,9.000000,8.000000,7.000000,23.000000,-15.000000
1301583.789363,9.000000,-1.000000,-4.000000,31.000000,9.000000,12.000000,11.000000,6.000000
1301583.790186,-3.000000,0.000000,35.000000,-30.000000,-6.000000,0.000000,-17.000000,5.000000
1301583.790973,5.000000,1.000000,-17.000000,-20.000000,-3.000000,-8.000000,-3.000000,-5.000000
1301583.791027,-12.000000,-15.000000,11.000000,-38.000000,-11.000000,-4.000000,-7.000000,-5.000000
1301583.791252,1.000000,-7.000000,-16.000000,-19.000000,-10.000000,-4.000000,3.000000,-6.000000
1301583.791284,-12.000000,2.000000,1.000000,-20.000000,-11.000000,0.000000,2.000000,-13.000000
1301583.800601,5.000000,5.000000,27.000000,33.000000,9.000000,1.000000,0.000000,5.000000
1301583.800667,-1.000000,-10.000000,6.000000,-2.000000,7.000000,9.000000,3.000000,11.000000
1301583.823190,-21.000000,-1.000000,-19.000000,-13.000000,-4.000000,-11.000000,33.000000,9.000000
1301583.823243,-9.000000,-10.000000,3.000000,7.000000,-3.000000,-2.000000,-40.000000,-23.000000
1301583.845393,5.000000,-3.000000,11.000000,3.000000,-5.000000,7.000000,-5.000000,-5.000000
1301583.845446,-17.000000,-1.000000,6.000000,-7.000000,-1.000000,-2.000000,-9.000000,-10.000000
1301583.860418,-8.000000,14.000000,-10.000000,15.000000,3.000000,-4.000000,-25.000000,-3.000000
1301583.860472,6.000000,4.000000,102.000000,0.000000,0.000000,0.000000,3.000000,5.000000
1301583.883416,-5.000000,2.000000,-33.000000,12.000000,1.000000,0.000000,19.000000,0.000000
1301583.883861,-3.000000,1.000000,-33.000000,-25.000000,1.000000,0.000000,-15.000000,0.000000
1301583.884954,-6.000000,-8.000000,1.000000,-8.000000,-12.000000,-4.000000,-12.000000,-4.000000
1301583.885007,-13.000000,-6.000000,14.000000,-8.000000,4.000000,-1.000000,2.000000,3.000000
1301583.886204,7.000000,3.000000,-31.000000,7.000000,0.000000,0.000000,-2.000000,4.000000
1301583.886588,-12.000000,-8.000000,4.000000,-11.000000,0.000000,-3.000000,-30.000000,-4.000000
1301583.887281,4.000000,6.000000,-13.000000,-22.000000,-11.000000,-1.000000,12.000000,-2.000000
1301583.887311,5.000000,3.000000,-29.000000,-7.000000,-9.000000,-3.000000,48.000000,12.000000
1301583.887621,7.000000,-7.000000,41.000000,-7.000000,3.000000,9.000000,-4.000000,5.000000
1301583.887643,21.000000,-8.000000,-67.000000,-32.000000,-11.000000,-12.000000,4.000000,3.000000
1301583.892372,5.000000,-4.000000,67.000000,42.000000,-6.000000,-10.000000,39.000000,1.000000
1301583.892424,0.000000,2.000000,14.000000,22.000000,16.000000,6.000000,-24.000000,10.000000
1301583.897726,3.000000,-3.000000,-1.000000,-16.000000,-8.000000,-5.000000,12.000000,-7.000000
1301583.897754,6.000000,-2.000000,-35.000000,-27.000000,-8.000000,3.000000,-14.000000,-2.000000
1301583.920511,-17.000000,-6.000000,2.000000,-1.000000,2.000000,-3.000000,4.000000,-8.000000
1301583.920571,2.000000,2.000000,0.000000,4.000000,0.000000,-1.000000,10.000000,6.000000
1301583.944704,-4.000000,-10.000000,34.000000,-3.000000,-3.000000,-3.000000,6.000000,-5.000000
1301583.944761,-9.000000,2.000000,-69.000000,11.000000,-4.000000,-3.000000,-8.000000,4.000000
1301583.965798,-2.000000,-14.000000,9.000000,-28.000000,-1.000000,2.000000,-9.000000,-11.000000
1301583.965845,6.000000,2.000000,20.000000,10.000000,6.000000,0.000000,6.000000,1.000000
1301583.981707,-9.000000,2.000000,-28.000000,-6.000000,-6.000000,-2.000000,-5.000000,0.000000
1301583.982105,14.000000,-8.000000,-23.000000,-34.000000,2.000000,10.000000,25.000000,16.000000
1301583.983646,-1.000000,-3.000000,-55.000000,-2.000000,-5.000000,-4.000000,-13.000000,-11.000000
1301583.983706,-13.000000,4.000000,67.000000,57.000000,14.000000,-3.000000,1.000000,-2.000000
1301583.984145,24.000000,2.000000,57.000000,0.000000,0.000000,-5.000000,25.000000,4.000000
1301583.984780,-2.000000,-5.000000,-102.000000,-42.000000,-9.000000,-3.000000,-9.000000,9.000000
1301583.985656,7.000000,13.000000,20.000000,19.000000,6.000000,2.000000,4.000000,6.000000
1301583.985703,-13.000000,9.000000,60.000000,21.000000,6.000000,18.000000,-10.000000,-10.000000
1301583.986291,16.000000,12.000000,67.000000,-19.000000,-7.000000,-30.000000,-10.000000,3.000000
1301583.986321,-22.000000,-1.000000,-84.000000,9.000000,-3.000000,2.000000,10.000000,9.000000
1301583.996153,-10.000000,5.000000,-1.000000,-19.000000,-7.000000,4.000000,-12.000000,-6.000000
1301583.996207,2.000000,0.000000,-13.000000,-6.000000,0.000000,5.000000,3.000000,7.000000
1301584.001937,-13.000000,0.000000,-3.000000,-4.000000,1.000000,-3.000000,-8.000000,0.000000
1301584.001986,20.000000,12.000000,-7.000000,-16.000000,-11.000000,-6.000000,5.000000,-11.000000
1301584.017503,-9.000000,-11.000000,-5.000000,-11.000000,-2.000000,-4.000000,-5.000000,-13.000000
1301584.017557,-1.000000,11.000000,-14.000000,11.000000,6.000000,4.000000,30.000000,7.000000
1301584.018084,2.000000,9.000000,48.000000,20.000000,-2.000000,-9.000000,-19.000000,8.000000
1301584.018104,-10.000000,1.000000,-1.000000,-8.000000,1.000000,14.000000,9.000000,13.000000
1301584.031788,-9.000000,-7.000000,-8.000000,-20.000000,-3.000000,-8.000000,-1.000000,-13.000000
1301584.031801,-8.000000,11.000000,20.000000,7.000000,-5.000000,-3.000000,-8.000000,-4.000000
1301584.039293,3.000000,10.000000,-30.000000,-20.000000,3.000000,-4.000000,4.000000,5.000000
1301584.039304,2.000000,-16.000000,63.000000,8.000000,5.000000,10.000000,-13.000000,-7.000000
1301584.062630,7.000000,10.000000,-33.000000,28.000000,3.000000,-8.000000,26.000000,4.000000
1301584.062650,7.000000,-4.000000,-21.000000,-35.000000,-2.000000,9.000000,-11.000000,11.000000
1301584.063692,-8.000000,-4.000000,31.000000,19.000000,2.000000,2.000000,-10.000000,-10.000000
1301584.063708,4.000000,2.000000,-51.000000,3.000000,-3.000000,7.000000,12.000000,-10.000000
1301584.084493,-6.000000,11.000000,7.000000,-27.000000,-4.000000,-30.000000,51.000000,1.000000
1301584.084548,-7.000000,1.000000,77.000000,22.000000,6.000000,6.000000,-24.000000,2.000000
1301584.099360,0.000000,-6.000000,-11.000000,-25.000000,-12.000000,-4.000000,-18.000000,-7.000000
1301584.099373,3.000000,-11.000000,-10.000000,-2.000000,9.000000,14.000000,3.000000,-7.000000
1301584.114433,-10.000000,-6.000000,-3.000000,-5.000000,-3.000000,-3.000000,-4.000000,3.000000
1301584.114494,3.000000,4.000000,47.000000,2.000000,4.000000,6.000000,11.000000,2.000000
1301584.122659,-4.000000,10.000000,-41.000000,26.000000,1.000000,-10.000000,-3.000000,-5.000000
1301584.122688,7.000000,-2.000000,6.000000,3.000000,2.000000,7.000000,4.000000,12.000000
1301584.137539,5.000000,-4.000000,-10.000000,-14.000000,-11.000000,-6.000000,9.000000,-2.000000
1301584.137617,-8.000000,0.000000,-12.000000,-17.000000,-7.000000,-22.000000,3.000000,-7.000000
1301584.137772,0.000000,-9.000000,23.000000,-4.000000,0.000000,-3.000000,-8.000000,0.000000
1301584.137780,6.000000,3.000000,49.000000,-4.000000,-4.000000,7.000000,-4.000000,3.000000
1301584.139352,-2.000000,-4.000000,-51.000000,39.000000,14.000000,8.000000,7.000000,4.000000
1301584.139370,1.000000,17.000000,7.000000,-8.000000,-13.000000,-18.000000,15.000000,1.000000
1301584.140224,-4.000000,1.000000,3.000000,-12.000000,0.000000,6.000000,9.000000,1.000000
1301584.140234,-12.000000,-7.000000,25.000000,-9.000000,3.000000,3.000000,-42.000000,-18.000000
1301584.166927,8.000000,-1.000000,8.000000,59.000000,11.000000,-6.000000,22.000000,1.000000
1301584.166955,-3.000000,3.000000,36.000000,-5.000000,-5.000000,-1.000000,-2.000000,7.000000
1301584.174444,-1.000000,-8.000000,-15.000000,-19.000000,-6.000000,-1.000000,7.000000,-1.000000
1301584.174459,-2.000000,-7.000000,-23.000000,-18.000000,-5.000000,-9.000000,-1.000000,-1.000000
1301584.196713,3.000000,-5.000000,-16.000000,-11.000000,-8.000000,-5.000000,-13.000000,-4.000000
1301584.196723,1.000000,2.000000,49.000000,-27.000000,0.000000,-7.000000,-23.000000,8.000000
1301584.219302,-1.000000,1.000000,-128.000000,47.000000,8.000000,2.000000,11.000000,1.000000
1301584.219313,-1.000000,-1.000000,58.000000,3.000000,3.000000,-4.000000,35.000000,7.000000
1301584.220177,-11.000000,0.000000,-4.000000,-9.000000,0.000000,6.000000,-30.000000,-10.000000
1301584.220249,0.000000,-12.000000,-7.000000,-1.000000,5.000000,-3.000000,9.000000,-12.000000
1301584.220908,-8.000000,-3.000000,-23.000000,-17.000000,-11.000000,-2.000000,-14.000000,-2.000000
1301584.220920,-30.000000,1.000000,13.000000,-4.000000,-1.000000,-10.000000,8.000000,-3.000000
1301584.222167,8.000000,-2.000000,13.000000,13.000000,6.000000,4.000000,0.000000,3.000000
1301584.222176,10.000000,-8.000000,-41.000000,-1.000000,-4.000000,3.000000,-14.000000,-7.000000
1301584.223043,-26.000000,7.000000,22.000000,22.000000,-3.000000,-12.000000,-19.000000,-13.000000
1301584.223059,-4.000000,1.000000,5.000000,-52.000000,-11.000000,-5.000000,14.000000,0.000000
1301584.234583,6.000000,6.000000,-101.000000,31.000000,0.000000,-6.000000,-13.000000,1.000000
1301584.234607,8.000000,-13.000000,46.000000,-20.000000,-6.000000,-5.000000,-7.000000,1.000000
1301584.249408,12.000000,-4.000000,-34.000000,-16.000000,-2.000000,-5.000000,4.000000,-1.000000
1301584.249424,-11.000000,-5.000000,3.000000,-2.000000,3.000000,5.000000,10.000000,-3.000000
1301584.257529,3.000000,9.000000,-44.000000,-27.000000,-8.000000,0.000000,7.000000,-2.000000
1301584.257543,1.000000,-4.000000,3.000000,-12.000000,-2.000000,-2.000000,-15.000000,9.000000
1301584.258278,-3.000000,11.000000,45.000000,30.000000,4.000000,7.000000,8.000000,-1.000000
1301584.258286,3.000000,-2.000000,-28.000000,-14.000000,-6.000000,-18.000000,26.000000,1.000000
1301584.294107,-3.000000,12.000000,-23.000000,-11.000000,-6.000000,-7.000000,-14.000000,-2.000000
1301584.294118,-3.000000,-8.000000,3.000000,-7.000000,-6.000000,-3.000000,-14.000000,0.000000
1301584.301857,-1.000000,-1.000000,4.000000,-29.000000,-5.000000,-18.000000,13.000000,2.000000
1301584.301869,5.000000,10.000000,-5.000000,38.000000,12.000000,-1.000000,-13.000000,8.000000
1301584.316653,5.000000,0.000000,21.000000,21.000000,2.000000,1.000000,4.000000,-1.000000
1301584.316670,2.000000,-24.000000,8.000000,-15.000000,-5.000000,4.000000,-3.000000,-4.000000
1301584.339276,-2.000000,-1.000000,-3.000000,-1.000000,-4.000000,3.000000,-29.000000,-4.000000
1301584.339286,9.000000,-3.000000,-22.000000,-37.000000,-6.000000,0.000000,-2.000000,-7.000000
1301584.361700,6.000000,0.000000,6.000000,-6.000000,-7.000000,-5.000000,20.000000,1.000000
1301584.361718,0.000000,11.000000,62.000000,39.000000,8.000000,9.000000,-2.000000,11.000000
1301584.376627,8.000000,3.000000,4.000000,-14.000000,0.000000,-4.000000,-15.000000,-6.000000
1301584.376644,-8.000000,3.000000,-18.000000,-21.000000,-12.000000,-2.000000,23.000000,5.000000
1301584.399984,8.000000,0.000000,-2.000000,-32.000000,-8.000000,-1.000000,-14.000000,7.000000
1301584.400001,8.000000,-1.000000,-47.000000,40.000000,6.000000,-11.000000,6.000000,-21.000000
1301584.400668,-15.000000,1.000000,107.000000,34.000000,1.000000,3.000000,-8.000000,-7.000000
1301584.400683,4.000000,-2.000000,-4.000000,-7.000000,6.000000,3.000000,-27.000000,11.000000
1301584.401038,8.000000,-8.000000,-4.000000,4.000000,3.000000,5.000000,-11.000000,-6.000000
1301584.401054,-5.000000,-7.000000,15.000000,7.000000,3.000000,5.000000,-13.000000,-3.000000
1301584.402264,-2.000000,-5.000000,6.000000,8.000000,-5.000000,-11.000000,16.000000,-7.000000
1301584.402276,-5.000000,1.000000,-4.000000,3.000000,3.000000,1.000000,-20.000000,7.000000
1301584.403153,5.000000,7.000000,-17.000000,-32.000000,-1.000000,-3.000000,-8.000000,-5.000000
1301584.403175,-19.000000,-5.000000,-70.000000,0.000000,3.000000,11.000000,-6.000000,-11.000000
1301584.414570,6.000000,-12.000000,27.000000,8.000000,-4.000000,-11.000000,22.000000,4.000000
1301584.414579,-3.000000,3.000000,37.000000,17.000000,9.000000,8.000000,2.000000,2.000000
1301584.436715,-4.000000,-4.000000,-11.000000,-15.000000,-9.000000,1.000000,-13.000000,-5.000000
1301584.436729,6.000000,-1.000000,-10.000000,-13.000000,-2.000000,-3.000000,-12.000000,-1.000000
1301584.438144,2.000000,0.000000,23.000000,16.000000,-1.000000,-3.000000,-4.000000,-2.000000
1301584.438175,-4.000000,10.000000,-21.000000,-8.000000,-3.000000,-7.000000,7.000000,2.000000
1301584.444817,-4.000000,-12.000000,-14.000000,1.000000,3.000000,5.000000,-16.000000,-4.000000
1301584.444949,-3.000000,6.000000,5.000000,-17.000000,-14.000000,-6.000000,-10.000000,-3.000000
1301584.451921,3.000000,3.000000,13.000000,15.000000,11.000000,4.000000,12.000000,-2.000000
1301584.451941,1.000000,2.000000,-76.000000,12.000000,0.000000,3.000000,-11.000000,6.000000
1301584.459315,-9.000000,-6.000000,71.000000,-8.000000,-11.000000,-17.000000,-14.000000,-4.000000
1301584.459338,3.000000,1.000000,8.000000,-6.000000,-3.000000,-3.000000,5.000000,-8.000000
1301584.474714,5.000000,-6.000000,-24.000000,-16.000000,-3.000000,8.000000,-16.000000,8.000000
1301584.474723,3.000000,2.000000,20.000000,4.000000,-5.000000,-2.000000,14.000000,4.000000
1301584.497601,-15.000000,-9.000000,2.000000,0.000000,2.000000,-5.000000,0.000000,-5.000000
1301584.497641,1.000000,-4.000000,7.000000,-7.000000,-2.000000,-4.000000,-3.000000,2.000000
1301584.519299,4.000000,-3.000000,-61.000000,11.000000,3.000000,4.000000,-8.000000,4.000000
1301584.519339,-1.000000,8.000000,-10.000000,2.000000,1.000000,-14.000000,20.000000,2.000000
1301584.534220,-4.000000,-2.000000,28.000000,-10.000000,1.000000,1.000000,-19.000000,-12.000000
1301584.534237,4.000000,8.000000,-26.000000,31.000000,12.000000,5.000000,-3.000000,-7.000000
1301584.557110,-25.000000,-12.000000,65.000000,13.000000,5.000000,12.000000,8.000000,25.000000
1301584.557123,6.000000,-5.000000,26.000000,-31.000000,-15.000000,-13.000000,13.000000,-15.000000
1301584.557593,12.000000,-3.000000,-14.000000,9.000000,17.000000,6.000000,-44.000000,8.000000
1301584.557602,-6.000000,-3.000000,-17.000000,-20.000000,-11.000000,-19.000000,38.000000,-10.000000
1301584.559008,-1.000000,-20.000000,-31.000000,-34.000000,-2.000000,-2.000000,-26.000000,-14.000000
1301584.559024,-2.000000,10.000000,57.000000,68.000000,13.000000,9.000000,-20.000000,3.000000
1301584.559737,4.000000,3.000000,10.000000,3.000000,4.000000,3.000000,18.000000,1.000000
1301584.559746,-4.000000,8.000000,4.000000,-17.000000,-13.000000,-19.000000,22.000000,5.000000
1301584.571677,2.000000,-7.000000,-15.000000,2.000000,4.000000,4.000000,4.000000,-3.000000
1301584.571736,10.000000,7.000000,49.000000,0.000000,1.000000,0.000000,0.000000,0.000000
1301584.573034,0.000000,24.000000,-6.000000,-14.000000,-9.000000,1.000000,-3.000000,0.000000
1301584.573052,9.000000,0.000000,34.000000,31.000000,9.000000,-1.000000,3.000000,5.000000
1301584.579475,10.000000,-3.000000,66.000000,56.000000,13.000000,6.000000,-30.000000,-1.000000
1301584.579488,-1.000000,-6.000000,28.000000,-31.000000,-6.000000,-17.000000,-14.000000,-3.000000
1301584.594852,-2.000000,4.000000,-128.000000,4.000000,-13.000000,-21.000000,35.000000,11.000000
1301584.594872,-6.000000,-10.000000,20.000000,-16.000000,-7.000000,-11.000000,-29.000000,-15.000000
1301584.616628,-31.000000,-10.000000,4.000000,6.000000,14.000000,21.000000,-5.000000,-3.000000
1301584.616646,9.000000,4.000000,10.000000,3.000000,-14.000000,-28.000000,-8.000000,-9.000000
1301584.647284,5.000000,9.000000,-13.000000,-7.000000,-2.000000,-1.000000,-47.000000,5.000000
1301584.647324,0.000000,2.000000,-5.000000,0.000000,7.000000,1.000000,25.000000,-13.000000
1301584.654535,6.000000,-5.000000,7.000000,1.000000,-1.000000,2.000000,1.000000,3.000000
1301584.654546,0.000000,7.000000,-10.000000,-14.000000,-4.000000,-3.000000,6.000000,4.000000
1301584.676616,-5.000000,5.000000,30.000000,-26.000000,-2.000000,-4.000000,-1.000000,-11.000000
1301584.676626,5.000000,0.000000,-61.000000,68.000000,25.000000,8.000000,-3.000000,2.000000
1301584.677269,-18.000000,-9.000000,-52.000000,-51.000000,-14.000000,0.000000,5.000000,-1.000000
1301584.677279,2.000000,8.000000,33.000000,29.000000,6.000000,-6.000000,-2.000000,-5.000000
1301584.678458,0.000000,-3.000000,22.000000,-1.000000,-11.000000,-5.000000,31.000000,4.000000
1301584.678468,-1.000000,3.000000,-33.000000,-50.000000,-9.000000,1.000000,-8.000000,-7.000000
1301584.679047,-1.000000,-9.000000,8.000000,15.000000,-12.000000,-15.000000,-7.000000,1.000000
1301584.679059,9.000000,3.000000,63.000000,24.000000,4.000000,-1.000000,-11.000000,2.000000
1301584.691595,6.000000,-5.000000,59.000000,0.000000,3.000000,-3.000000,20.000000,9.000000
1301584.691631,-2.000000,-3.000000,6.000000,17.000000,-3.000000,0.000000,-4.000000,-13.000000
1301584.693137,2.000000,-5.000000,-44.000000,-66.000000,-7.000000,1.000000,-4.000000,3.000000
1301584.693156,10.000000,1.000000,6.000000,-6.000000,-3.000000,6.000000,-3.000000,-1.000000
1301584.714451,-17.000000,-3.000000,5.000000,15.000000,6.000000,9.000000,9.000000,4.000000
1301584.714544,-4.000000,20.000000,127.000000,88.000000,8.000000,-12.000000,-6.000000,-3.000000
1301584.715290,9.000000,-2.000000,-7.000000,-40.000000,-4.000000,-1.000000,-4.000000,-6.000000
1301584.715299,-1.000000,-12.000000,-25.000000,-30.000000,-5.000000,10.000000,17.000000,-2.000000
1301584.721648,-17.000000,10.000000,-12.000000,5.000000,-1.000000,-20.000000,0.000000,-10.000000
1301584.721665,-1.000000,1.000000,31.000000,-1.000000,-12.000000,-12.000000,2.000000,-5.000000
1301584.736806,-4.000000,-6.000000,4.000000,33.000000,12.000000,-5.000000,-11.000000,1.000000
1301584.736827,10.000000,-6.000000,-3.000000,3.000000,5.000000,6.000000,7.000000,1.000000
1301584.751864,9.000000,2.000000,14.000000,-37.000000,-6.000000,8.000000,-3.000000,0.000000
1301584.751876,-17.000000,-6.000000,-128.000000,34.000000,9.000000,0.000000,-8.000000,-25.000000
1301584.790548,14.000000,5.000000,107.000000,25.000000,7.000000,6.000000,4.000000,8.000000
1301584.790591,-11.000000,-1.000000,-19.000000,-17.000000,-7.000000,-4.000000,-11.000000,-4.000000
1301584.797814,4.000000,2.000000,-6.000000,-1.000000,5.000000,2.000000,2.000000,-3.000000
1301584.797965,1.000000,-1.000000,-26.000000,-11.000000,2.000000,11.000000,27.000000,7.000000
1301584.814753,-6.000000,-6.000000,-8.000000,2.000000,2.000000,5.000000,15.000000,4.000000
1301584.815011,0.000000,4.000000,-7.000000,-16.000000,-9.000000,7.000000,2.000000,-10.000000
1301584.815301,0.000000,10.000000,17.000000,-10.000000,-10.000000,-1.000000,-35.000000,-7.000000
1301584.815345,-16.000000,5.000000,65.000000,13.000000,8.000000,-2.000000,6.000000,-1.000000
1301584.816664,-5.000000,8.000000,9.000000,-12.000000,-9.000000,-14.000000,9.000000,10.000000
1301584.816889,-5.000000,-1.000000,23.000000,44.000000,11.000000,3.000000,-18.000000,-4.000000
1301584.817287,-11.000000,-5.000000,-4.000000,0.000000,-5.000000,-4.000000,-15.000000,-4.000000
1301584.817330,-9.000000,-9.000000,52.000000,-36.000000,-7.000000,3.000000,-14.000000,-19.000000
1301584.817539,8.000000,3.000000,16.000000,-4.000000,1.000000,3.000000,32.000000,1.000000
1301584.817564,21.000000,-3.000000,37.000000,5.000000,-2.000000,-10.000000,-3.000000,7.000000
1301584.820296,-6.000000,1.000000,-81.000000,26.000000,4.000000,1.000000,10.000000,6.000000
1301584.820333,-3.000000,-12.000000,36.000000,5.000000,6.000000,-9.000000,-4.000000,11.000000
1301584.835244,4.000000,2.000000,25.000000,6.000000,2.000000,4.000000,-3.000000,-7.000000
1301584.835295,-5.000000,-8.000000,-39.000000,-26.000000,-5.000000,-3.000000,-30.000000,-4.000000
1301584.850306,0.000000,7.000000,28.000000,-4.000000,-7.000000,-15.000000,30.000000,1.000000
1301584.850354,6.000000,7.000000,-11.000000,47.000000,12.000000,4.000000,24.000000,21.000000
1301584.895215,1.000000,-11.000000,-9.000000,-17.000000,1.000000,4.000000,-22.000000,-8.000000
1301584.895334,-13.000000,-3.000000,0.000000,-8.000000,-6.000000,-4.000000,-3.000000,-10.000000
1301584.910642,6.000000,-3.000000,-30.000000,-31.000000,-6.000000,-4.000000,-4.000000,-6.000000
1301584.910985,-2.000000,-4.000000,25.000000,41.000000,6.000000,5.000000,12.000000,-2.000000
1301584.913050,-6.000000,-3.000000,40.000000,-12.000000,-10.000000,-24.000000,-13.000000,6.000000
1301584.913296,0.000000,-8.000000,-57.000000,8.000000,7.000000,5.000000,2.000000,3.000000
1301584.913546,-7.000000,7.000000,23.000000,7.000000,4.000000,3.000000,-17.000000,-25.000000
1301584.913596,7.000000,-8.000000,35.000000,-28.000000,-8.000000,-4.000000,4.000000,5.000000
1301584.914872,-16.000000,6.000000,-128.000000,16.000000,-1.000000,1.000000,0.000000,-18.000000
1301584.914915,-8.000000,-5.000000,65.000000,-29.000000,-2.000000,2.000000,7.000000,-8.000000
1301584.915407,10.000000,5.000000,-5.000000,-16.000000,-1.000000,-8.000000,5.000000,-2.000000
1301584.915441,-50.000000,-8.000000,-16.000000,-8.000000,10.000000,10.000000,51.000000,4.000000
1301584.934082,2.000000,-9.000000,15.000000,30.000000,-4.000000,-1.000000,-20.000000,-2.000000
1301584.934123,0.000000,2.000000,23.000000,-6.000000,-1.000000,5.000000,-48.000000,-2.000000
1301584.935315,-1.000000,-1.000000,14.000000,17.000000,6.000000,6.000000,24.000000,-15.000000
1301584.935528,-10.000000,5.000000,-5.000000,-8.000000,-9.000000,6.000000,54.000000,20.000000
1301584.947628,-8.000000,-1.000000,-12.000000,-7.000000,0.000000,-3.000000,-1.000000,-7.000000
1301584.947674,23.000000,-7.000000,16.000000,-9.000000,4.000000,5.000000,-6.000000,-6.000000
1301584.955896,-8.000000,-8.000000,72.000000,17.000000,-1.000000,1.000000,6.000000,-6.000000
1301584.955923,12.000000,12.000000,-2.000000,10.000000,13.000000,17.000000,-11.000000,16.000000
1301584.970806,8.000000,8.000000,74.000000,31.000000,3.000000,-13.000000,30.000000,15.000000
1301584.970844,5.000000,-5.000000,-15.000000,-6.000000,-6.000000,-1.000000,8.000000,2.000000
1301585.000454,-1.000000,4.000000,2.000000,-8.000000,-1.000000,1.000000,-24.000000,-4.000000
1301585.000503,-6.000000,-4.000000,-17.000000,-27.000000,0.000000,-6.000000,5.000000,-8.000000
1301585.008664,-8.000000,6.000000,43.000000,17.000000,2.000000,1.000000,-8.000000,-5.000000
1301585.008764,5.000000,16.000000,-78.000000,110.000000,33.000000,12.000000,7.000000,11.000000
1301585.031115,-2.000000,-1.000000,56.000000,-10.000000,-14.000000,-4.000000,-11.000000,-1.000000
1301585.031143,-2.000000,-8.000000,-50.000000,-65.000000,-9.000000,-6.000000,-10.000000,-4.000000
1301585.052347,0.000000,9.000000,-14.000000,4.000000,5.000000,-2.000000,6.000000,-5.000000
1301585.052364,8.000000,5.000000,21.000000,27.000000,-13.000000,-6.000000,19.000000,12.000000
1301585.066847,-19.000000,-8.000000,-26.000000,-22.000000,-12.000000,-10.000000,-16.000000,-16.000000
1301585.066870,5.000000,1.000000,-38.000000,-30.000000,7.000000,6.000000,-1.000000,2.000000
1301585.067325,-15.000000,-4.000000,52.000000,11.000000,1.000000,0.000000,-31.000000,-13.000000
1301585.067364,5.000000,5.000000,-90.000000,-5.000000,2.000000,1.000000,23.000000,-2.000000
1301585.068682,12.000000,7.000000,34.000000,8.000000,-2.000000,3.000000,-4.000000,7.000000
1301585.068692,-6.000000,-4.000000,1.000000,-8.000000,2.000000,1.000000,1.000000,3.000000
1301585.069013,1.000000,8.000000,5.000000,-1.000000,0.000000,10.000000,-5.000000,8.000000
1301585.069021,6.000000,1.000000,-40.000000,-26.000000,-4.000000,-2.000000,10.000000,-12.000000
1301585.074294,-17.000000,3.000000,68.000000,20.000000,0.000000,3.000000,-5.000000,0.000000
1301585.074314,9.000000,0.000000,18.000000,54.000000,-8.000000,-14.000000,-5.000000,6.000000
1301585.089258,0.000000,-2.000000,2.000000,-18.000000,1.000000,3.000000,-9.000000,-5.000000
1301585.089276,-13.000000,-2.000000,-10.000000,-35.000000,-13.000000,-14.000000,7.000000,-12.000000
1301585.111707,21.000000,-4.000000,-7.000000,-24.000000,-3.000000,0.000000,-11.000000,1.000000
1301585.111749,-6.000000,-8.000000,-17.000000,-23.000000,-3.000000,-2.000000,-4.000000,-3.000000
1301585.126732,4.000000,-4.000000,-45.000000,3.000000,7.000000,7.000000,-3.000000,-3.000000
1301585.126745,3.000000,4.000000,53.000000,17.000000,2.000000,11.000000,11.000000,11.000000
1301585.141619,-4.000000,1.000000,-6.000000,6.000000,1.000000,10.000000,6.000000,6.000000
1301585.141633,10.000000,-4.000000,-1.000000,-33.000000,-9.000000,-23.000000,-18.000000,-19.000000
1301585.149425,0.000000,-9.000000,-29.000000,76.000000,15.000000,4.000000,51.000000,23.000000
1301585.149526,3.000000,-13.000000,15.000000,-8.000000,3.000000,3.000000,-7.000000,-7.000000
1301585.150155,1.000000,-1.000000,-31.000000,-27.000000,-13.000000,-20.000000,3.000000,-6.000000
1301585.150164,-1.000000,10.000000,54.000000,32.000000,6.000000,2.000000,8.000000,6.000000
1301585.151156,-11.000000,-1.000000,-47.000000,-20.000000,-20.000000,-3.000000,-19.000000,-15.000000
1301585.151207,-10.000000,-4.000000,37.000000,50.000000,17.000000,10.000000,-2.000000,-3.000000
1301585.152503,8.000000,-6.000000,58.000000,26.000000,1.000000,-1.000000,-7.000000,1.000000
1301585.152512,7.000000,7.000000,-25.000000,-30.000000,-11.000000,-12.000000,-4.000000,3.000000
1301585.171683,-5.000000,-3.000000,17.000000,-17.000000,0.000000,0.000000,1.000000,-7.000000
1301585.171703,-5.000000,7.000000,-28.000000,-14.000000,3.000000,2.000000,0.000000,-3.000000
1301585.173066,1.000000,-4.000000,11.000000,-10.000000,-6.000000,-3.000000,-1.000000,-1.000000
1301585.173077,-14.000000,11.000000,40.000000,77.000000,9.000000,0.000000,-8.000000,-2.000000
1301585.186540,-5.000000,1.000000,3.000000,-41.000000,-6.000000,6.000000,-17.000000,2.000000
1301585.186557,-5.000000,4.000000,-68.000000,19.000000,6.000000,11.000000,36.000000,0.000000
1301585.209184,9.000000,-13.000000,65.000000,-37.000000,-9.000000,-13.000000,33.000000,9.000000
1301585.209223,-4.000000,9.000000,-95.000000,26.000000,0.000000,-10.000000,-29.000000,9.000000
1301585.224621,1.000000,-7.000000,21.000000,-14.000000,1.000000,0.000000,-1.000000,-10.000000
1301585.224661,-18.000000,0.000000,-6.000000,-25.000000,-17.000000,-5.000000,13.000000,-23.000000
1301585.269366,10.000000,-6.000000,-28.000000,-3.000000,3.000000,1.000000,1.000000,-1.000000
1301585.269473,12.000000,1.000000,25.000000,26.000000,17.000000,8.000000,5.000000,4.000000
1301585.269899,-8.000000,3.000000,-27.000000,17.000000,1.000000,-2.000000,17.000000,2.000000
1301585.269918,9.000000,0.000000,-3.000000,-18.000000,-9.000000,-9.000000,-15.000000,0.000000
1301585.271096,2.000000,-6.000000,16.000000,-8.000000,2.000000,-1.000000,-5.000000,-7.000000
1301585.271148,-5.000000,3.000000,16.000000,71.000000,12.000000,6.000000,-7.000000,-1.000000
1301585.272073,3.000000,1.000000,-91.000000,-24.000000,7.000000,10.000000,6.000000,-4.000000
1301585.272092,-8.000000,-3.000000,107.000000,2.000000,-15.000000,-23.000000,34.000000,0.000000
1301585.273230,10.000000,10.000000,-26.000000,-16.000000,-1.000000,-12.000000,31.000000,-7.000000
1301585.273242,-3.000000,-7.000000,39.000000,1.000000,-6.000000,2.000000,-7.000000,5.000000
1301585.284406,-11.000000,12.000000,8.000000,-6.000000,-6.000000,-9.000000,1.000000,-20.000000
1301585.284424,7.000000,1.000000,-22.000000,8.000000,-4.000000,-14.000000,-18.000000,9.000000
1301585.306769,-5.000000,-10.000000,5.000000,-10.000000,-3.000000,-3.000000,-6.000000,-12.000000
1301585.306787,-3.000000,1.000000,-77.000000,-66.000000,-1.000000,2.000000,3.000000,-2.000000
1301585.307237,8.000000,1.000000,-5.000000,19.000000,1.000000,3.000000,0.000000,-2.000000
1301585.307277,-1.000000,9.000000,-32.000000,21.000000,-3.000000,-3.000000,6.000000,12.000000
1301585.329675,2.000000,-1.000000,17.000000,-13.000000,3.000000,2.000000,13.000000,-1.000000
1301585.329687,11.000000,-8.000000,24.000000,-37.000000,-6.000000,-1.000000,-6.000000,5.000000
1301585.344723,-6.000000,2.000000,-42.000000,9.000000,-7.000000,-4.000000,-6.000000,-6.000000
1301585.344762,-13.000000,-9.000000,-2.000000,-3.000000,8.000000,8.000000,-4.000000,-1.000000
1301585.353208,3.000000,-5.000000,31.000000,-6.000000,-7.000000,-14.000000,15.000000,9.000000
1301585.353236,-7.000000,-3.000000,-3.000000,2.000000,-10.000000,-5.000000,-8.000000,-8.000000
1301585.353274,3.000000,-11.000000,20.000000,5.000000,10.000000,11.000000,4.000000,5.000000
1301585.353278,-10.000000,-1.000000,-35.000000,-24.000000,-12.000000,-17.000000,-9.000000,3.000000
1301585.354278,3.000000,-3.000000,13.000000,-15.000000,-4.000000,6.000000,-12.000000,-12.000000
1301585.354294,6.000000,2.000000,20.000000,-4.000000,-9.000000,-7.000000,1.000000,8.000000
1301585.366952,-11.000000,-2.000000,15.000000,54.000000,5.000000,-4.000000,-10.000000,5.000000
1301585.366965,2.000000,-5.000000,9.000000,-26.000000,-5.000000,-1.000000,-5.000000,3.000000
1301585.389228,2.000000,-4.000000,-18.000000,-16.000000,-4.000000,4.000000,-3.000000,-7.000000
1301585.389257,4.000000,-2.000000,-128.000000,-32.000000,6.000000,7.000000,23.000000,12.000000
1301585.419380,2.000000,0.000000,100.000000,87.000000,4.000000,-11.000000,-1.000000,-1.000000
1301585.419402,1.000000,-2.000000,-51.000000,-40.000000,-12.000000,-14.000000,-27.000000,-16.000000
1301585.457081,-1.000000,-8.000000,-13.000000,-41.000000,0.000000,8.000000,-7.000000,-6.000000
1301585.457096,9.000000,13.000000,-49.000000,30.000000,3.000000,-8.000000,40.000000,6.000000
1301585.464403,10.000000,12.000000,7.000000,23.000000,-3.000000,-12.000000,-32.000000,18.000000
1301585.464415,-49.000000,0.000000,3.000000,-10.000000,4.000000,13.000000,-12.000000,-8.000000
1301585.501901,6.000000,-11.000000,4.000000,-11.000000,6.000000,10.000000,0.000000,-14.000000
1301585.501922,17.000000,0.000000,35.000000,2.000000,-4.000000,-8.000000,15.000000,6.000000
1301585.509091,-2.000000,4.000000,48.000000,32.000000,-1.000000,-4.000000,6.000000,15.000000
1301585.509101,-8.000000,-11.000000,-3.000000,-5.000000,1.000000,4.000000,-2.000000,-7.000000
1301585.524342,6.000000,0.000000,17.000000,9.000000,-5.000000,-3.000000,18.000000,16.000000
1301585.524510,14.000000,-7.000000,-7.000000,-12.000000,0.000000,2.000000,-11.000000,-2.000000
1301585.524829,3.000000,8.000000,-59.000000,38.000000,1.000000,1.000000,19.000000,2.000000
1301585.524840,6.000000,6.000000,41.000000,-27.000000,-8.000000,-7.000000,16.000000,2.000000
1301585.525259,-23.000000,-8.000000,19.000000,-5.000000,-10.000000,0.000000,-61.000000,-14.000000
1301585.525267,0.000000,1.000000,47.000000,8.000000,0.000000,-4.000000,20.000000,4.000000
1301585.525798,-2.000000,-1.000000,-12.000000,-13.000000,-4.000000,-1.000000,13.000000,4.000000
1301585.525805,7.000000,3.000000,24.000000,16.000000,6.000000,8.000000,0.000000,0.000000
1301585.526420,-13.000000,-4.000000,-33.000000,-22.000000,-3.000000,7.000000,-8.000000,7.000000
1301585.526466,-16.000000,-4.000000,49.000000,22.000000,2.000000,-5.000000,25.000000,3.000000
1301585.527403,2.000000,5.000000,-15.000000,0.000000,0.000000,-1.000000,0.000000,2.000000
1301585.527431,9.000000,-2.000000,-16.000000,-7.000000,2.000000,7.000000,-33.000000,-7.000000
1301585.528132,8.000000,6.000000,57.000000,53.000000,0.000000,4.000000,20.000000,-1.000000
1301585.528142,2.000000,4.000000,-16.000000,-16.000000,-3.000000,1.000000,16.000000,-3.000000
1301585.532116,-10.000000,-2.000000,19.000000,-10.000000,2.000000,-1.000000,-29.000000,-16.000000
1301585.532136,-3.000000,-2.000000,-61.000000,0.000000,-2.000000,0.000000,1.000000,-10.000000
1301585.546657,-2.000000,0.000000,37.000000,-19.000000,-7.000000,-8.000000,10.000000,6.000000
1301585.546678,5.000000,5.000000,-4.000000,48.000000,23.000000,6.000000,2.000000,12.000000
1301585.554247,5.000000,3.000000,25.000000,-10.000000,-9.000000,-9.000000,-16.000000,-3.000000
1301585.554267,0.000000,-12.000000,4.000000,-28.000000,-8.000000,-1.000000,-5.000000,2.000000
1301585.561773,1.000000,3.000000,18.000000,24.000000,-4.000000,-10.000000,20.000000,-12.000000
1301585.561791,-12.000000,1.000000,-1.000000,11.000000,-3.000000,-6.000000,3.000000,12.000000
1301585.584747,4.000000,-16.000000,-52.000000,-21.000000,-11.000000,-1.000000,-23.000000,-4.000000
1301585.584840,0.000000,2.000000,17.000000,24.000000,16.000000,5.000000,-6.000000,5.000000
1301585.585048,-6.000000,-4.000000,6.000000,0.000000,3.000000,2.000000,-5.000000,3.000000
1301585.585066,-2.000000,-2.000000,21.000000,-13.000000,-3.000000,-7.000000,-12.000000,-3.000000
1301585.606721,5.000000,-5.000000,-128.000000,-15.000000,2.000000,-1.000000,26.000000,8.000000
1301585.606732,11.000000,0.000000,6.000000,1.000000,-4.000000,-2.000000,13.000000,1.000000
1301585.614353,-15.000000,1.000000,22.000000,-2.000000,3.000000,9.000000,-5.000000,-3.000000
1301585.614368,-22.000000,2.000000,7.000000,-13.000000,-4.000000,0.000000,2.000000,2.000000
1301585.629360,1.000000,4.000000,4.000000,5.000000,-2.000000,-4.000000,-32.000000,-1.000000
1301585.629372,10.000000,2.000000,2.000000,-10.000000,-3.000000,-9.000000,43.000000,2.000000
1301585.644365,2.000000,-2.000000,0.000000,12.000000,-10.000000,-2.000000,-3.000000,-4.000000
1301585.644377,-1.000000,-8.000000,24.000000,10.000000,3.000000,5.000000,8.000000,4.000000
1301585.674775,-5.000000,-2.000000,20.000000,13.000000,0.000000,1.000000,7.000000,-6.000000
1301585.674796,-4.000000,-3.000000,-46.000000,-33.000000,-15.000000,-5.000000,-12.000000,-11.000000
1301585.682262,-6.000000,-5.000000,74.000000,16.000000,3.000000,4.000000,10.000000,1.000000
1301585.682284,-5.000000,3.000000,-74.000000,-3.000000,0.000000,-4.000000,-8.000000,-11.000000
1301585.689708,-11.000000,-6.000000,38.000000,-6.000000,3.000000,-3.000000,-15.000000,5.000000
1301585.689719,9.000000,5.000000,-13.000000,19.000000,7.000000,1.000000,0.000000,-5.000000
1301585.691324,5.000000,-1.000000,39.000000,-9.000000,2.000000,5.000000,22.000000,10.000000
1301585.691341,-8.000000,-5.000000,-68.000000,2.000000,0.000000,-15.000000,30.000000,-1.000000
1301585.692591,-1.000000,-5.000000,-44.000000,-16.000000,-9.000000,-22.000000,-13.000000,-3.000000
1301585.692602,17.000000,4.000000,38.000000,11.000000,0.000000,-1.000000,11.000000,12.000000
1301585.696776,-10.000000,3.000000,16.000000,-20.000000,-4.000000,-1.000000,-3.000000,-9.000000
1301585.696798,3.000000,-14.000000,-29.000000,6.000000,3.000000,8.000000,-13.000000,-3.000000
1301585.704776,7.000000,5.000000,17.000000,0.000000,-6.000000,-5.000000,22.000000,17.000000
1301585.704785,4.000000,-4.000000,-38.000000,-76.000000,-10.000000,2.000000,-45.000000,-4.000000
1301585.726840,-14.000000,-3.000000,-85.000000,69.000000,6.000000,-6.000000,7.000000,-8.000000
1301585.726921,3.000000,0.000000,83.000000,12.000000,-4.000000,-1.000000,13.000000,20.000000
1301585.727870,4.000000,-4.000000,-60.000000,-28.000000,-5.000000,1.000000,-13.000000,-4.000000
1301585.727879,-5.000000,-3.000000,24.000000,-28.000000,-10.000000,-6.000000,-10.000000,-13.000000
1301585.741733,4.000000,10.000000,-65.000000,24.000000,5.000000,6.000000,-1.000000,-4.000000
1301585.741784,-1.000000,-9.000000,22.000000,-8.000000,-5.000000,-2.000000,-4.000000,0.000000
1301585.764778,3.000000,-8.000000,8.000000,-13.000000,3.000000,6.000000,7.000000,4.000000
1301585.764795,-18.000000,6.000000,24.000000,-15.000000,-1.000000,-1.000000,-4.000000,3.000000
1301585.765166,-9.000000,1.000000,-51.000000,54.000000,9.000000,-1.000000,32.000000,-11.000000
1301585.765179,-9.000000,7.000000,24.000000,-13.000000,-7.000000,-15.000000,-19.000000,0.000000
1301585.766506,5.000000,-2.000000,-2.000000,-21.000000,-3.000000,1.000000,-25.000000,3.000000
1301585.766523,-2.000000,7.000000,-7.000000,10.000000,3.000000,9.000000,17.000000,3.000000
1301585.779385,-8.000000,-4.000000,-6.000000,-13.000000,-5.000000,-5.000000,-13.000000,-4.000000
1301585.779400,-7.000000,2.000000,10.000000,-13.000000,-4.000000,-1.000000,9.000000,-4.000000
1301585.802134,4.000000,-3.000000,-32.000000,22.000000,7.000000,-10.000000,-30.000000,1.000000
1301585.802161,-25.000000,1.000000,13.000000,6.000000,0.000000,-3.000000,9.000000,-6.000000
1301585.809599,2.000000,2.000000,27.000000,-8.000000,1.000000,1.000000,-12.000000,-2.000000
1301585.809612,0.000000,-5.000000,-107.000000,7.000000,3.000000,2.000000,7.000000,8.000000
1301585.839885,-14.000000,-5.000000,4.000000,-46.000000,-12.000000,-1.000000,-1.000000,-9.000000
1301585.839924,11.000000,-1.000000,7.000000,33.000000,8.000000,5.000000,0.000000,-2.000000
1301585.840628,-9.000000,-1.000000,40.000000,23.000000,7.000000,-1.000000,-7.000000,-6.000000
1301585.840833,7.000000,-9.000000,-17.000000,-14.000000,-3.000000,-3.000000,-15.000000,-9.000000
1301585.841719,1.000000,0.000000,-42.000000,-64.000000,-11.000000,-4.000000,13.000000,-5.000000
1301585.841743,16.000000,0.000000,21.000000,16.000000,-2.000000,2.000000,10.000000,19.000000
1301585.842403,-4.000000,0.000000,-11.000000,14.000000,-2.000000,0.000000,-9.000000,-3.000000
1301585.842436,-7.000000,-7.000000,-14.000000,-13.000000,4.000000,1.000000,-8.000000,-6.000000
1301585.847836,-4.000000,0.000000,36.000000,1.000000,-5.000000,0.000000,-7.000000,-7.000000
1301585.847857,5.000000,-5.000000,39.000000,35.000000,19.000000,17.000000,20.000000,1.000000
1301585.862392,-11.000000,8.000000,-84.000000,-18.000000,-8.000000,-25.000000,-19.000000,5.000000
1301585.862440,7.000000,1.000000,-23.000000,-9.000000,-4.000000,-1.000000,12.000000,1.000000
1301585.885293,6.000000,-1.000000,9.000000,-4.000000,-3.000000,5.000000,-3.000000,2.000000
1301585.885323,-7.000000,-1.000000,-13.000000,-10.000000,2.000000,2.000000,4.000000,-1.000000
1301585.885470,-2.000000,-1.000000,11.000000,-6.000000,-7.000000,6.000000,-16.000000,-1.000000
1301585.885493,8.000000,4.000000,3.000000,31.000000,9.000000,-3.000000,-8.000000,6.000000
1301585.886750,23.000000,-4.000000,-1.000000,-25.000000,-1.000000,2.000000,6.000000,0.000000
1301585.886784,-42.000000,-4.000000,-53.000000,19.000000,12.000000,13.000000,-15.000000,-1.000000
1301585.892079,8.000000,9.000000,-9.000000,-61.000000,-5.000000,-7.000000,-11.000000,-3.000000
1301585.892097,-8.000000,0.000000,24.000000,50.000000,2.000000,-2.000000,20.000000,-1.000000
1301585.959946,-9.000000,-5.000000,-66.000000,-1.000000,-6.000000,-4.000000,3.000000,4.000000
1301585.959990,5.000000,-4.000000,3.000000,-17.000000,6.000000,10.000000,-1.000000,-3.000000
1301585.967551,6.000000,-5.000000,-38.000000,-38.000000,-9.000000,-4.000000,0.000000,-1.000000
1301585.967576,5.000000,-7.000000,43.000000,-25.000000,-2.000000,6.000000,24.000000,-5.000000
1301585.976084,1.000000,-9.000000,-37.000000,44.000000,13.000000,-1.000000,-20.000000,11.000000
1301585.976128,1.000000,-2.000000,34.000000,-10.000000,-8.000000,-5.000000,-8.000000,-2.000000
1301585.976303,1.000000,-6.000000,-18.000000,-16.000000,5.000000,8.000000,-21.000000,2.000000
1301585.976327,6.000000,1.000000,22.000000,-30.000000,-10.000000,-11.000000,3.000000,5.000000
1301585.983064,1.000000,-2.000000,-17.000000,-15.000000,-2.000000,-5.000000,5.000000,-5.000000
1301585.983101,0.000000,-5.000000,32.000000,-29.000000,-8.000000,3.000000,-6.000000,-11.000000
1301586.005420,-1.000000,8.000000,20.000000,79.000000,11.000000,-3.000000,5.000000,6.000000
1301586.005633,3.000000,-5.000000,-67.000000,-22.000000,-13.000000,-8.000000,14.000000,10.000000
1301586.006025,-5.000000,-6.000000,45.000000,14.000000,4.000000,6.000000,-18.000000,-13.000000
1301586.006065,-9.000000,3.000000,-21.000000,-9.000000,-4.000000,2.000000,2.000000,-12.000000
1301586.007356,-1.000000,-4.000000,-39.000000,-33.000000,-11.000000,-5.000000,32.000000,-4.000000
1301586.007383,5.000000,-8.000000,-16.000000,21.000000,4.000000,5.000000,-30.000000,9.000000
1301586.012374,-24.000000,6.000000,44.000000,-5.000000,3.000000,-4.000000,23.000000,0.000000
1301586.012395,0.000000,-4.000000,-13.000000,-13.000000,-6.000000,3.000000,-11.000000,-23.000000
1301586.057369,10.000000,-2.000000,-5.000000,8.000000,6.000000,7.000000,-18.000000,9.000000
1301586.057411,-16.000000,-8.000000,39.000000,-49.000000,-16.000000,-13.000000,31.000000,4.000000
1301586.064904,-6.000000,1.000000,0.000000,104.000000,19.000000,16.000000,-9.000000,-3.000000
1301586.064997,-2.000000,-8.000000,5.000000,-24.000000,-8.000000,-12.000000,23.000000,-8.000000
1301586.102336,1.000000,4.000000,3.000000,-7.000000,0.000000,6.000000,-13.000000,-1.000000
1301586.102554,-17.000000,1.000000,5.000000,-19.000000,-3.000000,-2.000000,2.000000,-2.000000
1301586.103501,14.000000,0.000000,-42.000000,0.000000,1.000000,1.000000,-2.000000,-4.000000
1301586.103522,-5.000000,7.000000,70.000000,15.000000,12.000000,5.000000,-3.000000,3.000000
1301586.105278,6.000000,2.000000,-53.000000,-30.000000,-12.000000,-3.000000,-19.000000,-3.000000
1301586.105313,2.000000,10.000000,55.000000,51.000000,8.000000,1.000000,15.000000,2.000000
1301586.105580,4.000000,-1.000000,14.000000,-19.000000,-13.000000,-9.000000,17.000000,12.000000
1301586.105613,-4.000000,-2.000000,35.000000,-19.000000,1.000000,9.000000,-15.000000,-6.000000
1301586.106268,1.000000,7.000000,5.000000,30.000000,22.000000,10.000000,-21.000000,0.000000
1301586.106289,-4.000000,-7.000000,-16.000000,-21.000000,-15.000000,-14.000000,18.000000,-2.000000
1301586.118019,2.000000,-1.000000,-7.000000,0.000000,-3.000000,-6.000000,0.000000,3.000000
1301586.118051,5.000000,-3.000000,-7.000000,2.000000,7.000000,7.000000,-3.000000,1.000000
1301586.125397,-8.000000,4.000000,7.000000,-1.000000,-5.000000,-10.000000,-6.000000,-7.000000
1301586.125431,-4.000000,2.000000,-11.000000,-41.000000,-9.000000,-2.000000,-6.000000,-7.000000
1301586.139679,5.000000,6.000000,-103.000000,-36.000000,-10.000000,-4.000000,-8.000000,-3.000000
1301586.139698,-9.000000,1.000000,94.000000,23.000000,9.000000,8.000000,16.000000,6.000000
1301586.177376,-9.000000,14.000000,44.000000,86.000000,21.000000,-6.000000,-6.000000,6.000000
1301586.177396,2.000000,-10.000000,13.000000,-101.000000,-22.000000,-11.000000,13.000000,-6.000000
1301586.185151,11.000000,-9.000000,-32.000000,52.000000,7.000000,4.000000,-15.000000,-7.000000
1301586.185170,-21.000000,-4.000000,22.000000,-36.000000,-14.000000,-13.000000,3.000000,1.000000
1301586.222703,-9.000000,-4.000000,-19.000000,-43.000000,-10.000000,7.000000,3.000000,1.000000
1301586.223047,-2.000000,-6.000000,-44.000000,-22.000000,-3.000000,10.000000,13.000000,-7.000000
1301586.223251,16.000000,-3.000000,16.000000,-5.000000,1.000000,-8.000000,9.000000,8.000000
1301586.223287,-1.000000,-2.000000,-3.000000,0.000000,1.000000,2.000000,-9.000000,-2.000000
1301586.224969,2.000000,0.000000,0.000000,0.000000,1.000000,-7.000000,12.000000,4.000000
1301586.225005,15.000000,0.000000,-13.000000,4.000000,4.000000,3.000000,-14.000000,2.000000
1301586.225184,-16.000000,1.000000,1.000000,-5.000000,-11.000000,-9.000000,27.000000,-3.000000
1301586.225370,-10.000000,-8.000000,19.000000,16.000000,0.000000,5.000000,-16.000000,-3.000000
1301586.226396,0.000000,1.000000,-43.000000,5.000000,3.000000,6.000000,-18.000000,3.000000
1301586.226412,-11.000000,-7.000000,0.000000,-10.000000,-10.000000,-16.000000,-3.000000,-9.000000
1301586.237324,2.000000,0.000000,-2.000000,-33.000000,-15.000000,-8.000000,-3.000000,13.000000
1301586.237361,6.000000,-6.000000,29.000000,-55.000000,-13.000000,1.000000,1.000000,0.000000
1301586.252269,-10.000000,3.000000,18.000000,72.000000,17.000000,4.000000,-18.000000,-2.000000
1301586.252290,3.000000,-5.000000,8.000000,-33.000000,-9.000000,-2.000000,-1.000000,0.000000
1301586.259750,-13.000000,-8.000000,31.000000,50.000000,18.000000,7.000000,4.000000,-4.000000
1301586.259784,17.000000,7.000000,-33.000000,-32.000000,-20.000000,-19.000000,14.000000,-4.000000
1301586.297594,-20.000000,1.000000,-6.000000,-14.000000,-6.000000,-6.000000,-1.000000,-9.000000
1301586.297622,9.000000,0.000000,0.000000,3.000000,6.000000,15.000000,-19.000000,3.000000
1301586.320081,7.000000,-2.000000,-21.000000,-22.000000,0.000000,1.000000,-28.000000,-1.000000
1301586.320116,-4.000000,-5.000000,3.000000,17.000000,1.000000,-7.000000,33.000000,-1.000000
1301586.335846,-6.000000,0.000000,34.000000,0.000000,-1.000000,-3.000000,-17.000000,-1.000000
1301586.336089,3.000000,5.000000,-1.000000,-2.000000,3.000000,10.000000,16.000000,5.000000
1301586.336778,-14.000000,5.000000,13.000000,-28.000000,-8.000000,-4.000000,-8.000000,-16.000000
1301586.336815,-4.000000,1.000000,-28.000000,61.000000,4.000000,2.000000,-7.000000,5.000000
1301586.338365,1.000000,-7.000000,9.000000,-6.000000,-3.000000,1.000000,-8.000000,-3.000000
1301586.338384,2.000000,2.000000,31.000000,-27.000000,-9.000000,-3.000000,-3.000000,-2.000000
1301586.338486,0.000000,-2.000000,-128.000000,-54.000000,-2.000000,6.000000,3.000000,-4.000000
1301586.338517,0.000000,5.000000,108.000000,87.000000,14.000000,-3.000000,15.000000,5.000000
1301586.338833,-5.000000,-6.000000,-32.000000,-34.000000,-7.000000,-7.000000,-37.000000,-8.000000
1301586.338850,7.000000,3.000000,0.000000,1.000000,8.000000,6.000000,2.000000,-7.000000
1301586.357640,3.000000,8.000000,-13.000000,-9.000000,5.000000,18.000000,51.000000,15.000000
1301586.357836,-11.000000,-5.000000,17.000000,-1.000000,2.000000,-4.000000,-67.000000,-7.000000
1301586.358255,-3.000000,-4.000000,-14.000000,-7.000000,-7.000000,-7.000000,16.000000,-6.000000
1301586.358272,10.000000,-1.000000,3.000000,-2.000000,6.000000,5.000000,11.000000,6.000000
1301586.387406,-2.000000,-8.000000,-7.000000,-11.000000,-3.000000,1.000000,-5.000000,-6.000000
1301586.387441,-4.000000,-8.000000,-17.000000,-15.000000,-3.000000,0.000000,1.000000,-3.000000
1301586.394639,18.000000,2.000000,-7.000000,-17.000000,3.000000,-6.000000,-32.000000,-2.000000
1301586.394659,1.000000,8.000000,36.000000,69.000000,15.000000,5.000000,40.000000,7.000000
1301586.440422,22.000000,2.000000,51.000000,-80.000000,-19.000000,-7.000000,15.000000,6.000000
1301586.440552,-2.000000,-2.000000,-81.000000,45.000000,-1.000000,-6.000000,-39.000000,-11.000000
1301586.456736,-7.000000,2.000000,16.000000,87.000000,20.000000,3.000000,3.000000,5.000000
1301586.457301,18.000000,-10.000000,55.000000,-5.000000,-1.000000,3.000000,1.000000,17.000000
1301586.458505,-14.000000,0.000000,-4.000000,-51.000000,-14.000000,-12.000000,7.000000,-9.000000
1301586.458568,-4.000000,2.000000,10.000000,12.000000,-3.000000,-1.000000,28.000000,-3.000000
1301586.459344,3.000000,4.000000,45.000000,52.000000,9.000000,0.000000,-33.000000,-15.000000
1301586.459377,-14.000000,-16.000000,-13.000000,-20.000000,-5.000000,-4.000000,-7.000000,-17.000000
1301586.460022,14.000000,-1.000000,-4.000000,5.000000,14.000000,18.000000,8.000000,8.000000
1301586.460054,0.000000,1.000000,-5.000000,-4.000000,-3.000000,-6.000000,11.000000,-7.000000
1301586.460477,-9.000000,-2.000000,51.000000,19.000000,3.000000,-1.000000,-9.000000,-5.000000
1301586.460533,5.000000,4.000000,50.000000,46.000000,6.000000,-6.000000,14.000000,2.000000
1301586.477963,-5.000000,2.000000,3.000000,-7.000000,-4.000000,-11.000000,28.000000,8.000000
1301586.478019,2.000000,4.000000,3.000000,-33.000000,-21.000000,-12.000000,-24.000000,3.000000
1301586.479056,12.000000,1.000000,13.000000,38.000000,20.000000,17.000000,-45.000000,1.000000
1301586.479084,-4.000000,-7.000000,31.000000,6.000000,-4.000000,2.000000,42.000000,-5.000000
1301586.515532,-10.000000,-7.000000,-21.000000,-29.000000,-10.000000,-12.000000,-45.000000,-7.000000
1301586.515571,-8.000000,-6.000000,60.000000,61.000000,11.000000,5.000000,15.000000,-3.000000
1301586.523418,8.000000,3.000000,-13.000000,-29.000000,-7.000000,-3.000000,-6.000000,1.000000
1301586.523481,7.000000,1.000000,-41.000000,-14.000000,-6.000000,-2.000000,-14.000000,-4.000000
1301586.538543,8.000000,-4.000000,-5.000000,-9.000000,-2.000000,1.000000,16.000000,2.000000
1301586.538583,5.000000,1.000000,-4.000000,0.000000,-1.000000,2.000000,1.000000,6.000000
1301586.561168,2.000000,-8.000000,5.000000,1.000000,-2.000000,-1.000000,-5.000000,-5.000000
1301586.561216,9.000000,-5.000000,10.000000,7.000000,7.000000,9.000000,-21.000000,3.000000
1301586.562900,-22.000000,-6.000000,-10.000000,-4.000000,1.000000,-10.000000,16.000000,-3.000000
1301586.562939,-15.000000,-3.000000,-20.000000,-17.000000,-5.000000,-1.000000,-18.000000,-7.000000
1301586.563287,4.000000,-2.000000,-6.000000,-16.000000,-7.000000,-11.000000,-11.000000,-10.000000
1301586.563792,12.000000,-6.000000,64.000000,17.000000,7.000000,14.000000,0.000000,8.000000
1301586.564662,-7.000000,-6.000000,28.000000,-37.000000,-12.000000,-14.000000,-5.000000,6.000000
1301586.564713,7.000000,-6.000000,-5.000000,-18.000000,-1.000000,10.000000,-5.000000,-1.000000
1301586.565158,-9.000000,-1.000000,-51.000000,20.000000,5.000000,-1.000000,-5.000000,-4.000000
1301586.565207,2.000000,-3.000000,-50.000000,20.000000,-3.000000,-6.000000,6.000000,-6.000000
1301586.575891,-4.000000,-2.000000,-48.000000,-36.000000,-10.000000,1.000000,-4.000000,1.000000
1301586.576032,5.000000,-2.000000,40.000000,14.000000,2.000000,-9.000000,-11.000000,-6.000000
1301586.576487,-6.000000,-2.000000,-11.000000,-5.000000,7.000000,7.000000,-20.000000,2.000000
1301586.576546,2.000000,1.000000,-5.000000,-12.000000,-7.000000,-1.000000,15.000000,-3.000000
1301586.599462,-5.000000,-14.000000,-5.000000,-6.000000,-5.000000,-6.000000,13.000000,1.000000
1301586.599528,14.000000,-1.000000,0.000000,3.000000,0.000000,-8.000000,-10.000000,5.000000
1301586.599800,2.000000,-7.000000,12.000000,2.000000,3.000000,8.000000,2.000000,-4.000000
1301586.600000,-2.000000,0.000000,-7.000000,6.000000,-4.000000,-6.000000,-47.000000,-15.000000
1301586.619436,3.000000,-4.000000,2.000000,29.000000,6.000000,-1.000000,68.000000,10.000000
1301586.619446,-1.000000,4.000000,84.000000,-28.000000,-1.000000,7.000000,12.000000,14.000000
1301586.634850,-7.000000,-2.000000,-85.000000,54.000000,7.000000,-5.000000,-24.000000,-4.000000
1301586.634867,-13.000000,-17.000000,30.000000,-10.000000,4.000000,7.000000,-10.000000,1.000000
1301586.665036,4.000000,7.000000,22.000000,13.000000,1.000000,5.000000,10.000000,-7.000000
1301586.665057,5.000000,-7.000000,5.000000,-19.000000,-4.000000,-3.000000,-16.000000,-1.000000
1301586.671790,-12.000000,-4.000000,22.000000,-18.000000,-1.000000,4.000000,12.000000,-1.000000
1301586.671812,4.000000,-11.000000,-35.000000,39.000000,0.000000,5.000000,0.000000,3.000000
1301586.694202,-3.000000,5.000000,34.000000,-6.000000,-2.000000,-10.000000,5.000000,1.000000
1301586.694211,-4.000000,2.000000,-16.000000,-8.000000,3.000000,-1.000000,0.000000,0.000000
1301586.716903,0.000000,-1.000000,-44.000000,-3.000000,-3.000000,3.000000,-5.000000,-8.000000
1301586.716915,0.000000,-7.000000,13.000000,-6.000000,-4.000000,1.000000,3.000000,1.000000
1301586.739358,-21.000000,6.000000,-128.000000,40.000000,6.000000,-16.000000,33.000000,-3.000000
1301586.739368,6.000000,4.000000,31.000000,-20.000000,-6.000000,-3.000000,32.000000,17.000000
1301586.761778,-5.000000,4.000000,-12.000000,-14.000000,-11.000000,0.000000,-10.000000,-16.000000
1301586.761799,5.000000,2.000000,8.000000,14.000000,8.000000,6.000000,-28.000000,-7.000000
1301586.776806,-1.000000,-1.000000,-13.000000,-7.000000,-2.000000,-6.000000,-13.000000,-4.000000
1301586.776817,2.000000,4.000000,-42.000000,-44.000000,-2.000000,4.000000,28.000000,3.000000
1301586.784543,4.000000,-7.000000,57.000000,-9.000000,-3.000000,10.000000,-6.000000,-11.000000
1301586.784555,-9.000000,2.000000,39.000000,122.000000,26.000000,2.000000,14.000000,-2.000000
1301586.792437,1.000000,6.000000,41.000000,-37.000000,-8.000000,2.000000,6.000000,2.000000
1301586.792456,9.000000,-7.000000,-81.000000,2.000000,-3.000000,2.000000,-7.000000,-6.000000
1301586.793023,-1.000000,-8.000000,-11.000000,-21.000000,-6.000000,-10.000000,-12.000000,-4.000000
1301586.793032,8.000000,4.000000,-5.000000,-5.000000,-8.000000,-4.000000,-1.000000,-3.000000
1301586.793492,-11.000000,3.000000,3.000000,0.000000,3.000000,9.000000,11.000000,0.000000
1301586.793513,7.000000,-6.000000,11.000000,17.000000,8.000000,5.000000,-41.000000,0.000000
1301586.794239,-1.000000,-6.000000,-20.000000,-10.000000,0.000000,10.000000,42.000000,5.000000
1301586.794260,4.000000,1.000000,-24.000000,-42.000000,-13.000000,-5.000000,2.000000,-5.000000
1301586.799456,6.000000,-3.000000,-28.000000,-36.000000,-11.000000,-7.000000,-4.000000,-1.000000
1301586.799473,10.000000,0.000000,68.000000,-14.000000,-3.000000,-1.000000,2.000000,4.000000
1301586.814704,-20.000000,-2.000000,-43.000000,-28.000000,-5.000000,4.000000,10.000000,-3.000000
1301586.814723,-4.000000,9.000000,25.000000,64.000000,21.000000,1.000000,-13.000000,7.000000
1301586.815553,-1.000000,-1.000000,-33.000000,-31.000000,-8.000000,-9.000000,16.000000,-5.000000
1301586.815569,-17.000000,-3.000000,-23.000000,-30.000000,-1.000000,3.000000,-28.000000,-6.000000
1301586.837627,8.000000,-1.000000,20.000000,-8.000000,5.000000,1.000000,29.000000,-4.000000
1301586.837662,-12.000000,4.000000,-42.000000,-3.000000,-6.000000,-9.000000,5.000000,3.000000
1301586.838241,8.000000,-8.000000,68.000000,-6.000000,3.000000,7.000000,-40.000000,2.000000
1301586.838258,1.000000,11.000000,-49.000000,20.000000,-2.000000,-2.000000,34.000000,3.000000
1301586.874319,-4.000000,11.000000,105.000000,14.000000,-1.000000,-16.000000,5.000000,-1.000000
1301586.874336,0.000000,-5.000000,-11.000000,-12.000000,3.000000,9.000000,-50.000000,-7.000000
1301586.889416,-1.000000,-5.000000,-8.000000,-16.000000,-5.000000,-4.000000,3.000000,-1.000000
1301586.889437,22.000000,5.000000,-16.000000,-13.000000,-8.000000,-1.000000,-2.000000,1.000000
1301586.912172,4.000000,-3.000000,10.000000,19.000000,8.000000,6.000000,3.000000,2.000000
1301586.912237,1.000000,10.000000,-7.000000,-13.000000,-4.000000,2.000000,-5.000000,-1.000000
1301586.919703,15.000000,4.000000,-6.000000,-5.000000,-1.000000,-2.000000,-2.000000,8.000000
1301586.919723,-5.000000,4.000000,-26.000000,1.000000,-1.000000,-7.000000,2.000000,-1.000000
1301586.945238,13.000000,0.000000,62.000000,34.000000,7.000000,9.000000,-34.000000,-10.000000
1301586.945259,-19.000000,0.000000,37.000000,60.000000,-1.000000,-20.000000,21.000000,-2.000000
1301586.949704,-13.000000,8.000000,2.000000,-21.000000,-4.000000,-1.000000,21.000000,17.000000
1301586.949810,-7.000000,-6.000000,-52.000000,-36.000000,-7.000000,-4.000000,-38.000000,-12.000000
1301586.971852,-14.000000,-8.000000,43.000000,30.000000,-6.000000,-1.000000,-15.000000,1.000000
1301586.971865,0.000000,-1.000000,6.000000,-15.000000,-2.000000,-10.000000,5.000000,-10.000000
1301587.001845,0.000000,5.000000,27.000000,49.000000,11.000000,-2.000000,-15.000000,-14.000000
1301587.001855,4.000000,0.000000,26.000000,-13.000000,1.000000,7.000000,1.000000,10.000000
1301587.009437,-8.000000,-4.000000,-62.000000,20.000000,-6.000000,-15.000000,9.000000,-5.000000
1301587.009453,6.000000,6.000000,-8.000000,-5.000000,-3.000000,-3.000000,2.000000,3.000000
1301587.016864,-3.000000,-2.000000,-24.000000,11.000000,6.000000,10.000000,17.000000,4.000000
1301587.016878,-1.000000,2.000000,20.000000,-31.000000,-13.000000,-8.000000,-25.000000,-12.000000
1301587.054236,28.000000,-4.000000,-17.000000,7.000000,-3.000000,-1.000000,-8.000000,8.000000
1301587.054255,1.000000,-2.000000,96.000000,12.000000,-2.000000,3.000000,-5.000000,4.000000
1301587.054624,14.000000,8.000000,-16.000000,-15.000000,-8.000000,-4.000000,41.000000,-15.000000
1301587.054642,7.000000,3.000000,6.000000,-28.000000,2.000000,10.000000,-2.000000,8.000000
1301587.055357,3.000000,5.000000,-69.000000,26.000000,3.000000,-9.000000,-11.000000,-2.000000
1301587.055376,-8.000000,-1.000000,63.000000,34.000000,7.000000,0.000000,-25.000000,-4.000000
1301587.055960,5.000000,-6.000000,0.000000,-10.000000,3.000000,8.000000,27.000000,-5.000000
1301587.055975,-8.000000,-2.000000,-8.000000,-7.000000,-4.000000,2.000000,26.000000,1.000000
1301587.057182,0.000000,-3.000000,-18.000000,-28.000000,-4.000000,-2.000000,-2.000000,1.000000
1301587.057208,3.000000,0.000000,27.000000,-27.000000,-5.000000,-1.000000,-3.000000,1.000000
1301587.058098,10.000000,2.000000,-21.000000,-41.000000,-12.000000,-3.000000,16.000000,12.000000
1301587.058118,3.000000,-7.000000,22.000000,6.000000,-4.000000,-15.000000,-13.000000,-6.000000
1301587.069942,1.000000,1.000000,-4.000000,-6.000000,6.000000,6.000000,-9.000000,-2.000000
1301587.069957,-1.000000,-8.000000,-11.000000,35.000000,5.000000,13.000000,-3.000000,-4.000000
1301587.076678,-3.000000,7.000000,17.000000,10.000000,1.000000,6.000000,5.000000,13.000000
1301587.076711,14.000000,-3.000000,-23.000000,-20.000000,-4.000000,-7.000000,5.000000,-2.000000
1301587.114782,-15.000000,-3.000000,3.000000,14.000000,-8.000000,-12.000000,20.000000,-5.000000
1301587.114803,-22.000000,-9.000000,16.000000,-26.000000,-2.000000,-8.000000,-25.000000,1.000000
1301587.129198,12.000000,3.000000,6.000000,41.000000,8.000000,13.000000,3.000000,10.000000
1301587.129215,-12.000000,3.000000,1.000000,-21.000000,-5.000000,-8.000000,-1.000000,6.000000
1301587.152705,1.000000,-3.000000,33.000000,-36.000000,-10.000000,-3.000000,-12.000000,-3.000000
1301587.152737,7.000000,-3.000000,-68.000000,27.000000,4.000000,6.000000,-9.000000,-6.000000
1301587.153368,-6.000000,0.000000,47.000000,1.000000,2.000000,1.000000,-2.000000,3.000000
1301587.153601,-12.000000,-4.000000,-58.000000,-8.000000,-3.000000,-2.000000,3.000000,-11.000000
1301587.154359,10.000000,2.000000,22.000000,16.000000,-7.000000,-7.000000,-14.000000,-3.000000
1301587.154373,1.000000,-1.000000,3.000000,-13.000000,-4.000000,-5.000000,24.000000,-1.000000
1301587.154741,-12.000000,-1.000000,-19.000000,-15.000000,3.000000,11.000000,-18.000000,0.000000
1301587.154768,-1.000000,-7.000000,18.000000,25.000000,-5.000000,-8.000000,32.000000,5.000000
1301587.166764,16.000000,3.000000,-7.000000,-25.000000,-5.000000,-2.000000,-10.000000,15.000000
1301587.166782,0.000000,-5.000000,29.000000,-1.000000,2.000000,8.000000,-1.000000,-16.000000
1301587.168645,9.000000,4.000000,48.000000,71.000000,13.000000,-21.000000,-13.000000,3.000000
1301587.168664,-19.000000,-4.000000,-2.000000,-1.000000,3.000000,5.000000,3.000000,2.000000
1301587.174667,11.000000,-8.000000,-10.000000,-15.000000,-8.000000,-8.000000,24.000000,-7.000000
1301587.174695,5.000000,-4.000000,-8.000000,-4.000000,-2.000000,-1.000000,-33.000000,-1.000000
1301587.196730,-32.000000,0.000000,4.000000,0.000000,7.000000,3.000000,25.000000,6.000000
1301587.196748,-15.000000,3.000000,52.000000,25.000000,1.000000,2.000000,-10.000000,-4.000000
1301587.211811,13.000000,-10.000000,-15.000000,4.000000,1.000000,3.000000,-5.000000,-1.000000
1301587.211845,-8.000000,0.000000,-54.000000,-26.000000,-6.000000,-3.000000,-7.000000,1.000000
1301587.249516,7.000000,3.000000,16.000000,-30.000000,-13.000000,0.000000,-6.000000,0.000000
1301587.249534,-11.000000,2.000000,74.000000,127.000000,31.000000,-6.000000,-12.000000,-3.000000
1301587.273232,3.000000,-6.000000,-8.000000,-23.000000,-11.000000,-12.000000,8.000000,3.000000
1301587.273250,-9.000000,3.000000,-1.000000,-27.000000,-9.000000,-2.000000,19.000000,-6.000000
1301587.274124,1.000000,4.000000,9.000000,-9.000000,-2.000000,-15.000000,4.000000,6.000000
1301587.274309,6.000000,-6.000000,-3.000000,-15.000000,7.000000,6.000000,-14.000000,-7.000000
1301587.274547,1.000000,3.000000,-21.000000,5.000000,-3.000000,1.000000,-21.000000,-12.000000
1301587.274561,-3.000000,2.000000,-36.000000,11.000000,3.000000,-4.000000,19.000000,1.000000
1301587.276305,2.000000,-4.000000,-2.000000,-8.000000,1.000000,2.000000,-7.000000,2.000000
1301587.276326,-5.000000,-7.000000,7.000000,29.000000,8.000000,4.000000,-24.000000,-2.000000
1301587.279370,-4.000000,3.000000,24.000000,-34.000000,-5.000000,-10.000000,-6.000000,-10.000000
1301587.279388,-7.000000,2.000000,-121.000000,74.000000,7.000000,-3.000000,50.000000,9.000000
1301587.287549,0.000000,2.000000,32.000000,-26.000000,-11.000000,1.000000,-32.000000,2.000000
1301587.287638,0.000000,-8.000000,-9.000000,-12.000000,-1.000000,2.000000,-27.000000,-10.000000
1301587.309505,3.000000,1.000000,-55.000000,-53.000000,-9.000000,1.000000,1.000000,-5.000000
1301587.309660,5.000000,0.000000,-18.000000,6.000000,-1.000000,2.000000,13.000000,-5.000000
1301587.310503,3.000000,2.000000,72.000000,18.000000,-4.000000,-5.000000,-3.000000,12.000000
1301587.310512,-28.000000,-8.000000,6.000000,0.000000,10.000000,8.000000,25.000000,-14.000000
1301587.324242,-4.000000,4.000000,-7.000000,-2.000000,-3.000000,-13.000000,-19.000000,-1.000000
1301587.324252,7.000000,3.000000,29.000000,-40.000000,-16.000000,-9.000000,16.000000,5.000000
1301587.347114,7.000000,-4.000000,-99.000000,40.000000,13.000000,11.000000,4.000000,4.000000
1301587.347134,8.000000,-1.000000,28.000000,24.000000,5.000000,3.000000,-6.000000,1.000000
1301587.354187,-24.000000,-5.000000,24.000000,-23.000000,-8.000000,-12.000000,1.000000,0.000000
1301587.354205,14.000000,-4.000000,-43.000000,32.000000,5.000000,5.000000,1.000000,4.000000
1301587.391733,-26.000000,-10.000000,-6.000000,-10.000000,-6.000000,-2.000000,-21.000000,-10.000000
1301587.391743,-6.000000,-9.000000,-51.000000,-14.000000,-3.000000,2.000000,24.000000,9.000000
1301587.406780,4.000000,0.000000,1.000000,-21.000000,-12.000000,-6.000000,-3.000000,-4.000000
1301587.406797,-5.000000,5.000000,20.000000,12.000000,4.000000,0.000000,-2.000000,4.000000
1301587.407679,6.000000,-4.000000,-16.000000,-12.000000,-4.000000,0.000000,-4.000000,-1.000000
1301587.407696,-13.000000,-2.000000,9.000000,-34.000000,-5.000000,-5.000000,-18.000000,2.000000
1301587.408340,21.000000,-3.000000,-92.000000,-3.000000,3.000000,0.000000,15.000000,8.000000
1301587.408349,-20.000000,1.000000,39.000000,37.000000,6.000000,0.000000,-7.000000,-3.000000
1301587.409674,-2.000000,-5.000000,12.000000,-19.000000,-5.000000,-1.000000,-9.000000,-4.000000
1301587.409690,-1.000000,-13.000000,21.000000,-5.000000,4.000000,10.000000,-9.000000,-6.000000
1301587.429739,-14.000000,-1.000000,-11.000000,-112.000000,-12.000000,-4.000000,-27.000000,-10.000000
1301587.429895,1.000000,1.000000,-114.000000,83.000000,14.000000,9.000000,10.000000,2.000000
1301587.430454,6.000000,0.000000,53.000000,1.000000,-9.000000,-7.000000,-5.000000,7.000000
1301587.430462,1.000000,-2.000000,-19.000000,-27.000000,3.000000,3.000000,-17.000000,-4.000000
1301587.444178,-6.000000,-3.000000,2.000000,-3.000000,1.000000,2.000000,2.000000,-3.000000
1301587.444195,2.000000,3.000000,-6.000000,-13.000000,-6.000000,6.000000,44.000000,15.000000
1301587.482157,-6.000000,7.000000,-14.000000,-9.000000,-5.000000,-14.000000,-32.000000,-7.000000
1301587.482258,-4.000000,2.000000,-3.000000,1.000000,2.000000,3.000000,-5.000000,0.000000
1301587.489209,9.000000,-1.000000,8.000000,11.000000,7.000000,12.000000,-1.000000,0.000000
1301587.489227,10.000000,-6.000000,-27.000000,-12.000000,0.000000,3.000000,11.000000,1.000000
1301587.497142,0.000000,-1.000000,9.000000,-20.000000,-14.000000,-18.000000,21.000000,1.000000
1301587.497158,-21.000000,3.000000,19.000000,14.000000,-4.000000,-7.000000,-40.000000,-21.000000
1301587.497686,-9.000000,4.000000,-30.000000,15.000000,-2.000000,-12.000000,15.000000,-9.000000
1301587.497702,7.000000,-6.000000,27.000000,-35.000000,-5.000000,4.000000,8.000000,18.000000
1301587.499453,3.000000,-6.000000,-25.000000,43.000000,14.000000,11.000000,-6.000000,-1.000000
1301587.499484,-4.000000,-2.000000,52.000000,-2.000000,-4.000000,-3.000000,16.000000,0.000000
1301587.500977,-16.000000,1.000000,66.000000,12.000000,-7.000000,-7.000000,19.000000,-6.000000
1301587.500993,2.000000,-5.000000,-58.000000,-14.000000,-4.000000,-3.000000,-6.000000,-1.000000
1301587.511965,2.000000,-10.000000,-32.000000,-36.000000,-5.000000,-6.000000,-8.000000,-6.000000
1301587.511982,5.000000,1.000000,-21.000000,-22.000000,-7.000000,3.000000,-8.000000,-2.000000
1301587.526801,-16.000000,-3.000000,32.000000,52.000000,13.000000,7.000000,10.000000,-9.000000
1301587.526819,7.000000,1.000000,26.000000,2.000000,-5.000000,-9.000000,-21.000000,8.000000
1301587.556927,-1.000000,-7.000000,-13.000000,-23.000000,-13.000000,-14.000000,21.000000,11.000000
1301587.556946,15.000000,-8.000000,-3.000000,-10.000000,-8.000000,-2.000000,-7.000000,-13.000000
1301587.564185,-13.000000,-5.000000,4.000000,4.000000,9.000000,6.000000,12.000000,4.000000
1301587.564202,11.000000,0.000000,1.000000,-9.000000,2.000000,1.000000,-12.000000,12.000000
1301587.586902,5.000000,-15.000000,48.000000,-6.000000,4.000000,-2.000000,10.000000,-14.000000
1301587.586912,10.000000,0.000000,-26.000000,33.000000,8.000000,7.000000,-16.000000,-1.000000
1301587.594228,-14.000000,-5.000000,-4.000000,-3.000000,-10.000000,0.000000,0.000000,4.000000
1301587.594245,1.000000,3.000000,-4.000000,-46.000000,0.000000,5.000000,27.000000,1.000000
1301587.624149,-17.000000,2.000000,-105.000000,0.000000,-10.000000,-8.000000,-19.000000,-5.000000
1301587.624167,2.000000,8.000000,45.000000,70.000000,19.000000,2.000000,-3.000000,8.000000
1301587.624609,-5.000000,-3.000000,-17.000000,-25.000000,-6.000000,-9.000000,-8.000000,-7.000000
1301587.624626,9.000000,-5.000000,-24.000000,-32.000000,-2.000000,0.000000,-4.000000,0.000000
1301587.625902,-4.000000,-5.000000,-42.000000,-61.000000,-16.000000,-14.000000,2.000000,2.000000
1301587.625918,-2.000000,3.000000,-32.000000,20.000000,3.000000,4.000000,19.000000,-1.000000
1301587.626586,-12.000000,1.000000,27.000000,2.000000,4.000000,1.000000,7.000000,6.000000
1301587.626621,-5.000000,-4.000000,-10.000000,-8.000000,-3.000000,19.000000,-7.000000,0.000000
1301587.627353,2.000000,0.000000,-5.000000,-6.000000,-8.000000,-5.000000,40.000000,5.000000
1301587.627363,-11.000000,4.000000,3.000000,-11.000000,-3.000000,0.000000,-35.000000,-19.000000
1301587.632256,16.000000,0.000000,13.000000,16.000000,5.000000,1.000000,-11.000000,-8.000000
1301587.632273,-2.000000,2.000000,29.000000,-13.000000,-2.000000,-1.000000,-15.000000,1.000000
1301587.646594,4.000000,-3.000000,-43.000000,-18.000000,-5.000000,5.000000,-2.000000,-3.000000
1301587.646606,-6.000000,2.000000,23.000000,92.000000,15.000000,1.000000,3.000000,0.000000
1301587.648144,-43.000000,0.000000,-16.000000,-22.000000,-4.000000,-11.000000,1.000000,-6.000000
1301587.648161,4.000000,-3.000000,4.000000,-35.000000,-6.000000,5.000000,-4.000000,-6.000000
1301587.669358,5.000000,-6.000000,16.000000,-9.000000,-4.000000,-6.000000,-3.000000,-1.000000
1301587.669378,-15.000000,-3.000000,41.000000,57.000000,0.000000,-5.000000,5.000000,0.000000
1301587.670492,-1.000000,-1.000000,10.000000,-46.000000,-8.000000,-4.000000,-34.000000,-6.000000
1301587.670509,-1.000000,1.000000,-61.000000,53.000000,17.000000,17.000000,7.000000,-5.000000
1301587.706988,1.000000,-4.000000,17.000000,6.000000,4.000000,7.000000,13.000000,-1.000000
1301587.707000,-4.000000,4.000000,-15.000000,-21.000000,-19.000000,-21.000000,30.000000,-5.000000
1301587.729771,4.000000,-1.000000,-13.000000,-15.000000,7.000000,17.000000,-35.000000,10.000000
1301587.729792,12.000000,-7.000000,30.000000,4.000000,2.000000,6.000000,5.000000,-4.000000
1301587.730515,-13.000000,-2.000000,14.000000,20.000000,5.000000,-1.000000,-18.000000,-2.000000
1301587.730534,6.000000,0.000000,-36.000000,-3.000000,1.000000,4.000000,-10.000000,-3.000000
1301587.731641,7.000000,-1.000000,74.000000,-12.000000,-7.000000,0.000000,7.000000,9.000000
1301587.731661,-7.000000,3.000000,3.000000,37.000000,3.000000,0.000000,-2.000000,-3.000000
1301587.732627,-4.000000,-2.000000,4.000000,-3.000000,3.000000,5.000000,13.000000,2.000000
1301587.732677,5.000000,0.000000,-33.000000,-42.000000,-10.000000,-4.000000,-1.000000,0.000000
1301587.744223,-16.000000,-7.000000,71.000000,18.000000,-4.000000,-9.000000,7.000000,5.000000
1301587.744241,4.000000,-2.000000,-7.000000,-42.000000,-11.000000,2.000000,-12.000000,-2.000000
1301587.767263,-11.000000,-7.000000,-97.000000,-51.000000,1.000000,10.000000,2.000000,-14.000000
1301587.767313,-40.000000,3.000000,17.000000,47.000000,-1.000000,-13.000000,14.000000,8.000000
1301587.767493,0.000000,-7.000000,26.000000,-14.000000,-12.000000,-12.000000,9.000000,-2.000000
1301587.767504,4.000000,1.000000,-32.000000,-23.000000,-2.000000,8.000000,-19.000000,-1.000000
1301587.769135,22.000000,0.000000,16.000000,-35.000000,0.000000,5.000000,-10.000000,5.000000
1301587.769185,1.000000,-3.000000,-87.000000,64.000000,1.000000,2.000000,-8.000000,0.000000
