# participant_id: P9
# gesture: medium
# trial_number: 1
# stream_name: Myo_EMG
# stream_type: emg
# timestamp: 20260420_155351
# samples: 5528
# duration_sec: 30.278
# nominal_sample_rate: 200.0
# effective_sample_rate: 182.54
#
timestamp,emg_1,emg_2,emg_3,emg_4,emg_5,emg_6,emg_7,emg_8
1305123.699407,34.000000,0.000000,-13.000000,-43.000000,-47.000000,-11.000000,21.000000,-17.000000
1305123.699417,-85.000000,-35.000000,-101.000000,-2.000000,1.000000,-6.000000,9.000000,-24.000000
1305123.715385,72.000000,26.000000,-10.000000,-88.000000,-76.000000,27.000000,32.000000,39.000000
1305123.715395,-40.000000,-9.000000,-42.000000,-40.000000,-27.000000,-11.000000,1.000000,-7.000000
1305123.737041,25.000000,1.000000,-2.000000,20.000000,10.000000,-31.000000,-29.000000,-3.000000
1305123.737070,-60.000000,-74.000000,-19.000000,24.000000,31.000000,1.000000,-16.000000,-21.000000
1305123.759486,16.000000,107.000000,64.000000,0.000000,-7.000000,12.000000,0.000000,-3.000000
1305123.759497,17.000000,-26.000000,-65.000000,16.000000,-4.000000,2.000000,-7.000000,5.000000
1305123.774590,-52.000000,-32.000000,4.000000,7.000000,-1.000000,8.000000,-15.000000,-14.000000
1305123.774601,33.000000,-17.000000,-41.000000,-15.000000,9.000000,-11.000000,-4.000000,2.000000
1305123.797662,-4.000000,-1.000000,-32.000000,-20.000000,-35.000000,2.000000,6.000000,6.000000
1305123.797695,-52.000000,-10.000000,12.000000,-17.000000,-7.000000,-3.000000,-6.000000,-17.000000
1305123.798184,40.000000,-7.000000,-96.000000,-1.000000,35.000000,-6.000000,-17.000000,6.000000
1305123.798199,6.000000,38.000000,-34.000000,-3.000000,-9.000000,8.000000,40.000000,6.000000
1305123.799572,9.000000,-7.000000,49.000000,13.000000,17.000000,12.000000,-15.000000,1.000000
1305123.799588,-7.000000,-14.000000,-6.000000,-11.000000,-33.000000,-19.000000,4.000000,4.000000
1305123.800419,-9.000000,-8.000000,31.000000,30.000000,35.000000,-4.000000,-1.000000,-2.000000
1305123.800437,7.000000,14.000000,20.000000,-11.000000,-23.000000,23.000000,1.000000,1.000000
1305123.800890,-9.000000,23.000000,37.000000,-13.000000,-51.000000,-20.000000,-7.000000,0.000000
1305123.800918,30.000000,-47.000000,19.000000,-6.000000,-10.000000,0.000000,10.000000,19.000000
1305123.811847,-3.000000,67.000000,34.000000,9.000000,27.000000,1.000000,-8.000000,-11.000000
1305123.811876,10.000000,-1.000000,56.000000,12.000000,11.000000,-3.000000,-12.000000,5.000000
1305123.813198,3.000000,-5.000000,-11.000000,-20.000000,-14.000000,12.000000,19.000000,10.000000
1305123.813206,-21.000000,25.000000,61.000000,-45.000000,-35.000000,30.000000,-29.000000,-27.000000
1305123.819607,34.000000,-9.000000,-77.000000,-17.000000,-18.000000,-6.000000,26.000000,33.000000
1305123.819636,-24.000000,7.000000,-44.000000,1.000000,19.000000,32.000000,58.000000,18.000000
1305123.834768,27.000000,12.000000,43.000000,39.000000,49.000000,9.000000,-9.000000,-9.000000
1305123.834785,-25.000000,-40.000000,-97.000000,-41.000000,-6.000000,-13.000000,-15.000000,-13.000000
1305123.849525,-73.000000,21.000000,40.000000,56.000000,63.000000,30.000000,-6.000000,-12.000000
1305123.849545,72.000000,10.000000,67.000000,2.000000,-11.000000,-11.000000,13.000000,28.000000
1305123.850899,74.000000,76.000000,2.000000,-20.000000,-26.000000,-20.000000,-6.000000,9.000000
1305123.850908,-4.000000,5.000000,-70.000000,33.000000,87.000000,23.000000,10.000000,-4.000000
1305123.872291,-32.000000,-62.000000,51.000000,0.000000,-25.000000,1.000000,6.000000,-17.000000
1305123.872318,4.000000,29.000000,-12.000000,-31.000000,-17.000000,5.000000,-6.000000,-3.000000
1305123.902186,-18.000000,-12.000000,-32.000000,11.000000,8.000000,2.000000,2.000000,-3.000000
1305123.902197,-12.000000,-9.000000,-2.000000,7.000000,29.000000,-7.000000,-3.000000,-4.000000
1305123.909949,-13.000000,-41.000000,-12.000000,-34.000000,-41.000000,-18.000000,-2.000000,-15.000000
1305123.909963,7.000000,11.000000,40.000000,-6.000000,-8.000000,-6.000000,0.000000,-2.000000
1305123.910846,-5.000000,-46.000000,20.000000,-12.000000,-24.000000,10.000000,10.000000,10.000000
1305123.910853,46.000000,60.000000,-5.000000,5.000000,41.000000,40.000000,37.000000,4.000000
1305123.911334,-11.000000,-11.000000,-42.000000,-24.000000,-11.000000,-5.000000,-9.000000,-2.000000
1305123.911360,-26.000000,-14.000000,16.000000,16.000000,31.000000,37.000000,-6.000000,-7.000000
1305123.912693,-3.000000,-6.000000,13.000000,33.000000,33.000000,-31.000000,-2.000000,8.000000
1305123.912702,-12.000000,33.000000,63.000000,9.000000,1.000000,12.000000,18.000000,3.000000
1305123.932024,47.000000,10.000000,-37.000000,-5.000000,16.000000,20.000000,16.000000,21.000000
1305123.932038,-3.000000,-29.000000,-47.000000,8.000000,18.000000,-4.000000,-10.000000,-20.000000
1305123.933408,-8.000000,-1.000000,-11.000000,4.000000,6.000000,-8.000000,-6.000000,-10.000000
1305123.933424,-15.000000,12.000000,58.000000,-4.000000,-29.000000,-9.000000,0.000000,-12.000000
1305123.947187,-28.000000,2.000000,8.000000,-12.000000,-7.000000,15.000000,-24.000000,-13.000000
1305123.947199,54.000000,-6.000000,2.000000,6.000000,2.000000,-11.000000,-6.000000,15.000000
1305123.955286,-13.000000,-38.000000,34.000000,-44.000000,-20.000000,16.000000,10.000000,6.000000
1305123.955297,-16.000000,-17.000000,-21.000000,11.000000,-23.000000,-32.000000,8.000000,1.000000
1305123.962216,-29.000000,-17.000000,-14.000000,11.000000,-11.000000,-11.000000,3.000000,-4.000000
1305123.962229,51.000000,17.000000,86.000000,27.000000,14.000000,6.000000,1.000000,18.000000
1305123.970152,4.000000,-9.000000,-42.000000,15.000000,35.000000,-7.000000,-20.000000,-15.000000
1305123.970161,-30.000000,-18.000000,-1.000000,15.000000,9.000000,-18.000000,-4.000000,-4.000000
1305123.984263,47.000000,22.000000,81.000000,11.000000,16.000000,39.000000,12.000000,18.000000
1305123.984293,-18.000000,-9.000000,-5.000000,54.000000,48.000000,19.000000,9.000000,6.000000
1305124.014546,3.000000,-5.000000,6.000000,1.000000,24.000000,-15.000000,-16.000000,-8.000000
1305124.014578,-3.000000,-15.000000,4.000000,27.000000,28.000000,-12.000000,-21.000000,-22.000000
1305124.029437,-75.000000,-36.000000,-87.000000,-37.000000,-39.000000,-2.000000,-26.000000,-33.000000
1305124.029447,65.000000,35.000000,65.000000,44.000000,26.000000,2.000000,51.000000,43.000000
1305124.052047,-19.000000,-17.000000,-11.000000,-6.000000,3.000000,-15.000000,-7.000000,-5.000000
1305124.052070,-2.000000,-13.000000,-13.000000,5.000000,-2.000000,-11.000000,-12.000000,-3.000000
1305124.052417,-9.000000,-16.000000,21.000000,-46.000000,-44.000000,8.000000,5.000000,-7.000000
1305124.052431,-2.000000,30.000000,-41.000000,-19.000000,-6.000000,1.000000,5.000000,0.000000
1305124.053693,-60.000000,4.000000,100.000000,32.000000,32.000000,4.000000,2.000000,-22.000000
1305124.053704,34.000000,-19.000000,25.000000,-15.000000,-5.000000,-6.000000,-6.000000,13.000000
1305124.054362,17.000000,-23.000000,-41.000000,-1.000000,-7.000000,-13.000000,-23.000000,2.000000
1305124.054372,-27.000000,-2.000000,8.000000,35.000000,36.000000,13.000000,6.000000,-20.000000
1305124.055902,-56.000000,89.000000,-20.000000,10.000000,3.000000,9.000000,-27.000000,-21.000000
1305124.055913,45.000000,-50.000000,-9.000000,-22.000000,-18.000000,-14.000000,3.000000,26.000000
1305124.074660,7.000000,-32.000000,22.000000,27.000000,8.000000,-11.000000,-4.000000,-2.000000
1305124.074759,-25.000000,-19.000000,-101.000000,-9.000000,40.000000,7.000000,-18.000000,-10.000000
1305124.076101,-37.000000,-20.000000,-27.000000,-24.000000,-50.000000,-21.000000,-30.000000,-22.000000
1305124.076109,-4.000000,-9.000000,50.000000,3.000000,-3.000000,2.000000,8.000000,-1.000000
1305124.089863,13.000000,-20.000000,34.000000,26.000000,13.000000,6.000000,3.000000,0.000000
1305124.089950,-50.000000,-16.000000,-22.000000,2.000000,9.000000,-4.000000,-14.000000,-13.000000
1305124.090850,45.000000,-38.000000,-63.000000,-25.000000,-30.000000,-8.000000,7.000000,19.000000
1305124.090858,-15.000000,109.000000,47.000000,-65.000000,-71.000000,6.000000,3.000000,-6.000000
1305124.112064,14.000000,-17.000000,-37.000000,3.000000,10.000000,4.000000,1.000000,2.000000
1305124.112081,3.000000,-14.000000,24.000000,-2.000000,9.000000,4.000000,-2.000000,-1.000000
1305124.149541,-15.000000,-22.000000,-4.000000,-6.000000,0.000000,2.000000,-3.000000,-8.000000
1305124.149551,-23.000000,-32.000000,-41.000000,23.000000,13.000000,-3.000000,3.000000,-9.000000
1305124.172260,26.000000,-4.000000,-23.000000,-17.000000,-21.000000,-4.000000,3.000000,8.000000
1305124.172274,6.000000,-6.000000,51.000000,20.000000,13.000000,-2.000000,-15.000000,-9.000000
1305124.194576,-38.000000,13.000000,-43.000000,-61.000000,-73.000000,0.000000,18.000000,-19.000000
1305124.194588,5.000000,-57.000000,2.000000,-19.000000,-9.000000,-4.000000,-8.000000,19.000000
1305124.209486,-128.000000,16.000000,49.000000,16.000000,-5.000000,-3.000000,7.000000,-1.000000
1305124.209501,127.000000,19.000000,13.000000,9.000000,18.000000,13.000000,41.000000,46.000000
1305124.231995,-25.000000,-4.000000,1.000000,6.000000,9.000000,-4.000000,-10.000000,-7.000000
1305124.232005,-18.000000,19.000000,17.000000,35.000000,63.000000,11.000000,-8.000000,-9.000000
1305124.247178,-26.000000,39.000000,-58.000000,-3.000000,4.000000,8.000000,-5.000000,-12.000000
1305124.247200,20.000000,121.000000,54.000000,9.000000,21.000000,11.000000,31.000000,12.000000
1305124.269686,-36.000000,1.000000,-8.000000,0.000000,29.000000,24.000000,30.000000,10.000000
1305124.269698,42.000000,-54.000000,-87.000000,9.000000,26.000000,3.000000,-9.000000,6.000000
1305124.291863,38.000000,15.000000,13.000000,-13.000000,-30.000000,-12.000000,8.000000,9.000000
1305124.291874,-128.000000,-39.000000,-8.000000,7.000000,-2.000000,-2.000000,-11.000000,-31.000000
1305124.292366,127.000000,61.000000,50.000000,13.000000,20.000000,6.000000,-2.000000,29.000000
1305124.292381,-23.000000,-17.000000,-21.000000,9.000000,19.000000,-8.000000,-7.000000,-7.000000
1305124.293064,-24.000000,10.000000,33.000000,1.000000,19.000000,20.000000,1.000000,-2.000000
1305124.293091,-10.000000,-13.000000,-23.000000,35.000000,54.000000,-12.000000,-20.000000,-12.000000
1305124.294376,7.000000,-41.000000,-54.000000,-16.000000,-13.000000,-1.000000,37.000000,31.000000
1305124.294388,-14.000000,-25.000000,45.000000,27.000000,17.000000,-15.000000,-15.000000,-3.000000
1305124.295055,3.000000,-20.000000,54.000000,30.000000,14.000000,7.000000,5.000000,3.000000
1305124.295076,38.000000,12.000000,-72.000000,-17.000000,18.000000,26.000000,4.000000,19.000000
1305124.295797,-36.000000,18.000000,10.000000,40.000000,41.000000,29.000000,7.000000,-14.000000
1305124.295805,32.000000,-46.000000,-36.000000,-17.000000,-9.000000,-26.000000,-28.000000,-13.000000
1305124.306876,-9.000000,12.000000,8.000000,-14.000000,-5.000000,7.000000,-7.000000,2.000000
1305124.306891,-52.000000,-34.000000,1.000000,19.000000,18.000000,-6.000000,-21.000000,-21.000000
1305124.314500,69.000000,46.000000,0.000000,-46.000000,-33.000000,11.000000,8.000000,20.000000
1305124.314508,-30.000000,-70.000000,-16.000000,18.000000,7.000000,-12.000000,8.000000,-14.000000
1305124.329820,-128.000000,-46.000000,-27.000000,15.000000,10.000000,-18.000000,-58.000000,-43.000000
1305124.329854,104.000000,83.000000,45.000000,3.000000,-11.000000,-2.000000,44.000000,15.000000
1305124.330956,-2.000000,-28.000000,18.000000,13.000000,-4.000000,-12.000000,-21.000000,-15.000000
1305124.330967,-5.000000,-5.000000,-42.000000,-28.000000,-13.000000,-24.000000,-22.000000,1.000000
1305124.352045,-10.000000,1.000000,8.000000,-21.000000,-32.000000,10.000000,13.000000,10.000000
1305124.352060,4.000000,-46.000000,-11.000000,-11.000000,-9.000000,-24.000000,-5.000000,-11.000000
1305124.382094,-6.000000,5.000000,-5.000000,36.000000,44.000000,10.000000,-6.000000,3.000000
1305124.382106,-4.000000,-8.000000,23.000000,-5.000000,-28.000000,-8.000000,-4.000000,-1.000000
1305124.389421,-2.000000,-4.000000,-66.000000,2.000000,25.000000,-29.000000,-12.000000,0.000000
1305124.389450,-26.000000,-55.000000,-6.000000,-15.000000,-22.000000,32.000000,28.000000,-2.000000
1305124.404830,25.000000,65.000000,37.000000,-2.000000,6.000000,-4.000000,-10.000000,-7.000000
1305124.404841,-10.000000,-11.000000,33.000000,25.000000,46.000000,-7.000000,7.000000,4.000000
1305124.405445,29.000000,9.000000,-16.000000,-15.000000,-50.000000,-18.000000,-14.000000,0.000000
1305124.405454,-3.000000,-31.000000,10.000000,2.000000,-1.000000,0.000000,-2.000000,-7.000000
1305124.406627,-27.000000,101.000000,62.000000,13.000000,-2.000000,-15.000000,-1.000000,-3.000000
1305124.406653,23.000000,2.000000,32.000000,2.000000,-3.000000,7.000000,3.000000,18.000000
1305124.407316,-23.000000,-45.000000,10.000000,-50.000000,-64.000000,10.000000,3.000000,-1.000000
1305124.407342,-11.000000,-1.000000,16.000000,-6.000000,-25.000000,0.000000,10.000000,6.000000
1305124.411646,77.000000,82.000000,-13.000000,-4.000000,26.000000,15.000000,5.000000,13.000000
1305124.411654,-24.000000,-13.000000,22.000000,9.000000,-26.000000,-23.000000,32.000000,15.000000
1305124.426891,-3.000000,-19.000000,-70.000000,18.000000,42.000000,-15.000000,-28.000000,-28.000000
1305124.426901,1.000000,-13.000000,88.000000,-2.000000,-52.000000,-43.000000,-30.000000,2.000000
1305124.449347,-12.000000,16.000000,6.000000,49.000000,61.000000,0.000000,-8.000000,-9.000000
1305124.449358,-9.000000,-24.000000,-3.000000,7.000000,26.000000,21.000000,7.000000,-10.000000
1305124.449813,-4.000000,56.000000,55.000000,27.000000,8.000000,-4.000000,17.000000,-12.000000
1305124.449822,29.000000,49.000000,59.000000,-10.000000,-10.000000,20.000000,10.000000,28.000000
1305124.451394,1.000000,4.000000,32.000000,7.000000,36.000000,-4.000000,-19.000000,-3.000000
1305124.451422,-36.000000,-9.000000,-33.000000,52.000000,25.000000,-9.000000,6.000000,-4.000000
1305124.464583,27.000000,-13.000000,-37.000000,-28.000000,-11.000000,11.000000,-14.000000,-18.000000
1305124.464593,25.000000,-11.000000,24.000000,10.000000,32.000000,5.000000,-5.000000,0.000000
1305124.494456,-13.000000,-22.000000,-44.000000,-34.000000,-22.000000,13.000000,-1.000000,-2.000000
1305124.494466,-57.000000,-30.000000,91.000000,32.000000,18.000000,0.000000,4.000000,-5.000000
1305124.509902,23.000000,-20.000000,-41.000000,52.000000,24.000000,4.000000,-12.000000,7.000000
1305124.509914,-8.000000,35.000000,43.000000,-13.000000,-15.000000,6.000000,-5.000000,7.000000
1305124.524990,-1.000000,-28.000000,-40.000000,2.000000,13.000000,5.000000,-9.000000,-13.000000
1305124.525062,-43.000000,-18.000000,-58.000000,9.000000,3.000000,-30.000000,-9.000000,-18.000000
1305124.525729,98.000000,38.000000,51.000000,27.000000,8.000000,-8.000000,35.000000,53.000000
1305124.525739,3.000000,-13.000000,3.000000,-7.000000,6.000000,22.000000,7.000000,16.000000
1305124.526968,-21.000000,-24.000000,-6.000000,-13.000000,-23.000000,-17.000000,-7.000000,-10.000000
1305124.526979,-34.000000,-8.000000,-56.000000,-13.000000,-16.000000,-6.000000,12.000000,-13.000000
1305124.527590,23.000000,-27.000000,10.000000,8.000000,-10.000000,20.000000,-6.000000,-22.000000
1305124.527598,30.000000,-74.000000,31.000000,-22.000000,-19.000000,7.000000,-9.000000,-4.000000
1305124.532244,18.000000,101.000000,-6.000000,-1.000000,5.000000,2.000000,4.000000,13.000000
1305124.532265,-23.000000,-8.000000,4.000000,6.000000,15.000000,-15.000000,18.000000,-7.000000
1305124.539802,-16.000000,-7.000000,8.000000,-4.000000,-37.000000,-12.000000,-7.000000,-17.000000
1305124.539812,1.000000,-19.000000,-58.000000,18.000000,33.000000,-14.000000,-9.000000,23.000000
1305124.569583,71.000000,36.000000,50.000000,-19.000000,-1.000000,24.000000,81.000000,37.000000
1305124.569594,-21.000000,4.000000,4.000000,-6.000000,-11.000000,-3.000000,-33.000000,-32.000000
1305124.576856,-7.000000,-2.000000,41.000000,15.000000,12.000000,2.000000,7.000000,-7.000000
1305124.576877,-6.000000,-26.000000,-51.000000,3.000000,12.000000,3.000000,-11.000000,-10.000000
1305124.607414,-10.000000,-30.000000,39.000000,-45.000000,-43.000000,11.000000,9.000000,2.000000
1305124.607426,16.000000,23.000000,50.000000,2.000000,-7.000000,-12.000000,1.000000,-6.000000
1305124.629523,-31.000000,11.000000,-15.000000,3.000000,-6.000000,-17.000000,-56.000000,-38.000000
1305124.629534,-2.000000,-1.000000,5.000000,-15.000000,-46.000000,7.000000,94.000000,22.000000
1305124.636802,22.000000,-8.000000,-32.000000,-11.000000,5.000000,6.000000,5.000000,8.000000
1305124.636823,-62.000000,6.000000,-6.000000,-8.000000,-31.000000,12.000000,-15.000000,-21.000000
1305124.644943,64.000000,32.000000,10.000000,14.000000,13.000000,-8.000000,-13.000000,12.000000
1305124.644954,49.000000,-37.000000,-45.000000,-6.000000,5.000000,-5.000000,-6.000000,-1.000000
1305124.645519,-44.000000,-14.000000,25.000000,-35.000000,-40.000000,-28.000000,-128.000000,-63.000000
1305124.645529,8.000000,-23.000000,-54.000000,-69.000000,-52.000000,30.000000,121.000000,0.000000
1305124.646977,-13.000000,-57.000000,-40.000000,-27.000000,-35.000000,-12.000000,-13.000000,-14.000000
1305124.646989,8.000000,47.000000,55.000000,10.000000,-2.000000,-15.000000,-26.000000,-3.000000
1305124.648420,-9.000000,-14.000000,-9.000000,-16.000000,-18.000000,-14.000000,-2.000000,-3.000000
1305124.648430,-39.000000,-38.000000,8.000000,9.000000,5.000000,-20.000000,-28.000000,-25.000000
1305124.652401,27.000000,21.000000,11.000000,-11.000000,-48.000000,-4.000000,15.000000,13.000000
1305124.652414,44.000000,22.000000,-37.000000,-28.000000,6.000000,7.000000,-9.000000,2.000000
1305124.667697,-25.000000,-19.000000,33.000000,22.000000,14.000000,1.000000,-5.000000,-6.000000
1305124.667709,-10.000000,-10.000000,-35.000000,11.000000,31.000000,8.000000,-6.000000,-9.000000
1305124.682029,20.000000,0.000000,-1.000000,-25.000000,-31.000000,-13.000000,-14.000000,7.000000
1305124.682039,2.000000,-19.000000,33.000000,-12.000000,-18.000000,2.000000,-13.000000,-10.000000
1305124.683389,5.000000,74.000000,54.000000,4.000000,18.000000,18.000000,45.000000,-2.000000
1305124.683398,0.000000,11.000000,17.000000,24.000000,27.000000,-3.000000,4.000000,-7.000000
1305124.712118,-16.000000,-10.000000,-17.000000,-3.000000,3.000000,-4.000000,-30.000000,-22.000000
1305124.712129,-36.000000,-45.000000,20.000000,5.000000,-31.000000,-22.000000,-18.000000,-12.000000
1305124.726975,21.000000,20.000000,-16.000000,9.000000,11.000000,-5.000000,-17.000000,11.000000
1305124.726990,34.000000,-2.000000,11.000000,-20.000000,-10.000000,8.000000,-13.000000,-1.000000
1305124.742003,6.000000,59.000000,30.000000,9.000000,28.000000,11.000000,-24.000000,-5.000000
1305124.742013,-11.000000,-43.000000,-78.000000,34.000000,41.000000,6.000000,42.000000,21.000000
1305124.764515,-4.000000,-7.000000,28.000000,-4.000000,15.000000,12.000000,9.000000,0.000000
1305124.764530,13.000000,31.000000,-12.000000,4.000000,-10.000000,-15.000000,18.000000,5.000000
1305124.764894,-27.000000,4.000000,0.000000,2.000000,1.000000,-3.000000,-16.000000,-27.000000
1305124.764909,26.000000,1.000000,22.000000,27.000000,51.000000,7.000000,-15.000000,-4.000000
1305124.766054,-5.000000,0.000000,4.000000,-7.000000,-15.000000,-23.000000,-36.000000,-6.000000
1305124.766063,21.000000,11.000000,-4.000000,-15.000000,-21.000000,25.000000,35.000000,14.000000
1305124.766678,-28.000000,-48.000000,-87.000000,-5.000000,15.000000,-4.000000,23.000000,1.000000
1305124.766687,22.000000,19.000000,62.000000,11.000000,18.000000,6.000000,13.000000,-1.000000
1305124.768306,-4.000000,-12.000000,5.000000,-8.000000,-2.000000,-1.000000,-13.000000,18.000000
1305124.768325,-61.000000,-12.000000,15.000000,5.000000,-24.000000,-28.000000,1.000000,-16.000000
1305124.771861,46.000000,-1.000000,-1.000000,9.000000,11.000000,-4.000000,-10.000000,6.000000
1305124.771870,-28.000000,-81.000000,-13.000000,-22.000000,-9.000000,-40.000000,-38.000000,-33.000000
1305124.802045,-9.000000,38.000000,16.000000,-68.000000,-97.000000,-7.000000,-21.000000,-4.000000
1305124.802055,31.000000,-7.000000,6.000000,1.000000,24.000000,31.000000,38.000000,33.000000
1305124.809363,-15.000000,68.000000,25.000000,22.000000,29.000000,-5.000000,-45.000000,-24.000000
1305124.809373,-9.000000,-3.000000,-6.000000,14.000000,20.000000,4.000000,-11.000000,-5.000000
1305124.824336,-18.000000,28.000000,-2.000000,6.000000,-9.000000,-4.000000,-4.000000,-3.000000
1305124.824356,12.000000,-33.000000,-19.000000,1.000000,8.000000,2.000000,-4.000000,2.000000
1305124.847121,-53.000000,-21.000000,-5.000000,-12.000000,2.000000,-8.000000,-16.000000,-23.000000
1305124.847135,-61.000000,-38.000000,-24.000000,-24.000000,-25.000000,1.000000,-1.000000,-12.000000
1305124.869471,89.000000,31.000000,-22.000000,2.000000,9.000000,-16.000000,-24.000000,31.000000
1305124.869486,-10.000000,-5.000000,-23.000000,12.000000,38.000000,43.000000,39.000000,20.000000
1305124.884904,-3.000000,9.000000,39.000000,14.000000,8.000000,-1.000000,17.000000,7.000000
1305124.884917,-17.000000,-30.000000,-16.000000,0.000000,7.000000,5.000000,2.000000,-1.000000
1305124.921969,-5.000000,29.000000,0.000000,27.000000,26.000000,-1.000000,-10.000000,-11.000000
1305124.921998,3.000000,-10.000000,30.000000,-73.000000,-80.000000,-17.000000,-21.000000,-10.000000
1305124.929840,-25.000000,-17.000000,-25.000000,3.000000,13.000000,4.000000,-2.000000,-12.000000
1305124.929851,-8.000000,20.000000,7.000000,-14.000000,-17.000000,-14.000000,-62.000000,-29.000000
1305124.959270,-37.000000,-23.000000,-3.000000,7.000000,9.000000,-10.000000,-22.000000,-33.000000
1305124.959285,43.000000,35.000000,2.000000,16.000000,11.000000,5.000000,5.000000,17.000000
1305124.961692,-66.000000,-31.000000,-11.000000,30.000000,37.000000,4.000000,-27.000000,-15.000000
1305124.961719,7.000000,22.000000,27.000000,23.000000,4.000000,-3.000000,15.000000,18.000000
1305124.967457,19.000000,34.000000,32.000000,14.000000,2.000000,-5.000000,-37.000000,3.000000
1305124.967467,65.000000,9.000000,-35.000000,-33.000000,-33.000000,6.000000,22.000000,26.000000
1305124.974745,-37.000000,-26.000000,-14.000000,12.000000,33.000000,8.000000,-5.000000,-10.000000
1305124.974756,3.000000,-29.000000,-14.000000,-38.000000,-51.000000,18.000000,-8.000000,-10.000000
1305124.982709,-4.000000,-23.000000,-39.000000,-10.000000,-3.000000,-15.000000,-9.000000,0.000000
1305124.982719,-17.000000,2.000000,8.000000,18.000000,23.000000,-6.000000,-22.000000,-19.000000
1305124.997245,-4.000000,1.000000,-23.000000,-3.000000,4.000000,1.000000,19.000000,4.000000
1305124.997257,-3.000000,13.000000,59.000000,19.000000,25.000000,-3.000000,0.000000,-3.000000
1305125.005207,-15.000000,-71.000000,-70.000000,-12.000000,4.000000,-5.000000,-14.000000,-12.000000
1305125.005219,29.000000,67.000000,12.000000,-13.000000,-7.000000,8.000000,13.000000,19.000000
1305125.011977,-7.000000,12.000000,15.000000,13.000000,20.000000,15.000000,-4.000000,-11.000000
1305125.011993,15.000000,-9.000000,20.000000,-21.000000,-21.000000,1.000000,14.000000,33.000000
1305125.042836,-35.000000,2.000000,88.000000,-73.000000,-81.000000,6.000000,-17.000000,-13.000000
1305125.042846,31.000000,-7.000000,27.000000,3.000000,0.000000,-4.000000,-4.000000,16.000000
1305125.043260,10.000000,66.000000,39.000000,26.000000,29.000000,31.000000,24.000000,-10.000000
1305125.043268,28.000000,18.000000,43.000000,22.000000,34.000000,19.000000,12.000000,11.000000
1305125.044802,-46.000000,-54.000000,-128.000000,-35.000000,-7.000000,-5.000000,-67.000000,-42.000000
1305125.044813,18.000000,28.000000,127.000000,15.000000,-13.000000,-1.000000,-2.000000,9.000000
1305125.065198,-11.000000,13.000000,-12.000000,30.000000,39.000000,2.000000,36.000000,3.000000
1305125.065217,8.000000,-28.000000,1.000000,-41.000000,-35.000000,6.000000,30.000000,8.000000
1305125.086981,-30.000000,14.000000,-6.000000,14.000000,15.000000,4.000000,-8.000000,-9.000000
1305125.086991,0.000000,-16.000000,-2.000000,-42.000000,-42.000000,3.000000,-18.000000,2.000000
1305125.094758,6.000000,-69.000000,-46.000000,-44.000000,-55.000000,-17.000000,5.000000,-16.000000
1305125.094785,19.000000,65.000000,37.000000,1.000000,-16.000000,2.000000,46.000000,72.000000
1305125.103043,-42.000000,6.000000,23.000000,-11.000000,-25.000000,-19.000000,-19.000000,-28.000000
1305125.103095,27.000000,-24.000000,-37.000000,-17.000000,-53.000000,-8.000000,-30.000000,2.000000
1305125.103533,16.000000,21.000000,-58.000000,-3.000000,31.000000,2.000000,20.000000,6.000000
1305125.103545,-7.000000,-4.000000,55.000000,24.000000,24.000000,14.000000,5.000000,-6.000000
1305125.104791,-10.000000,-7.000000,-40.000000,-15.000000,-28.000000,-18.000000,-23.000000,-20.000000
1305125.104799,-26.000000,-128.000000,-48.000000,-11.000000,-19.000000,-10.000000,-12.000000,-7.000000
1305125.124363,-1.000000,127.000000,-87.000000,-7.000000,36.000000,0.000000,-8.000000,-13.000000
1305125.124393,25.000000,3.000000,28.000000,12.000000,18.000000,18.000000,21.000000,16.000000
1305125.125827,-15.000000,-34.000000,-26.000000,17.000000,63.000000,0.000000,-28.000000,-11.000000
1305125.125844,-14.000000,5.000000,38.000000,-5.000000,5.000000,13.000000,5.000000,-5.000000
1305125.139696,-58.000000,4.000000,10.000000,7.000000,1.000000,-18.000000,-69.000000,-20.000000
1305125.139707,57.000000,57.000000,35.000000,9.000000,6.000000,-8.000000,33.000000,16.000000
1305125.148347,-9.000000,-26.000000,4.000000,-8.000000,12.000000,37.000000,24.000000,3.000000
1305125.148485,20.000000,-3.000000,-33.000000,29.000000,47.000000,19.000000,-6.000000,12.000000
1305125.161786,-15.000000,-5.000000,-20.000000,-66.000000,-75.000000,-5.000000,-9.000000,-2.000000
1305125.161800,-22.000000,-7.000000,-3.000000,5.000000,-5.000000,-10.000000,40.000000,7.000000
1305125.163305,-6.000000,-13.000000,-22.000000,3.000000,8.000000,-15.000000,-60.000000,-35.000000
1305125.163322,28.000000,9.000000,21.000000,-28.000000,-24.000000,3.000000,-53.000000,9.000000
1305125.184695,-16.000000,-95.000000,-71.000000,5.000000,-8.000000,7.000000,29.000000,12.000000
1305125.184707,-8.000000,40.000000,-26.000000,3.000000,15.000000,11.000000,51.000000,25.000000
1305125.206967,-9.000000,5.000000,-39.000000,-32.000000,-15.000000,6.000000,-2.000000,6.000000
1305125.206982,-31.000000,-34.000000,-10.000000,5.000000,-2.000000,-24.000000,-39.000000,-38.000000
1305125.214449,32.000000,21.000000,10.000000,10.000000,21.000000,7.000000,51.000000,19.000000
1305125.214466,16.000000,-2.000000,4.000000,-37.000000,-54.000000,20.000000,7.000000,1.000000
1305125.237513,-11.000000,-27.000000,-19.000000,1.000000,11.000000,-6.000000,9.000000,-9.000000
1305125.237542,-43.000000,-17.000000,108.000000,39.000000,31.000000,-16.000000,-31.000000,-27.000000
1305125.237979,25.000000,10.000000,-77.000000,-42.000000,-65.000000,-26.000000,-4.000000,4.000000
1305125.237988,-9.000000,-5.000000,-17.000000,9.000000,15.000000,-6.000000,-1.000000,-14.000000
1305125.239335,-4.000000,-21.000000,17.000000,29.000000,20.000000,-16.000000,-1.000000,-7.000000
1305125.239345,-7.000000,70.000000,-11.000000,-40.000000,-19.000000,-9.000000,-14.000000,-6.000000
1305125.240217,19.000000,-1.000000,-4.000000,2.000000,7.000000,2.000000,9.000000,12.000000
1305125.240235,2.000000,-39.000000,-27.000000,5.000000,-7.000000,-7.000000,9.000000,8.000000
1305125.245078,7.000000,85.000000,41.000000,7.000000,-17.000000,-11.000000,-1.000000,-1.000000
1305125.245088,-55.000000,2.000000,7.000000,-33.000000,-49.000000,2.000000,19.000000,-4.000000
1305125.252063,47.000000,-47.000000,-5.000000,40.000000,25.000000,-33.000000,-25.000000,0.000000
1305125.252085,25.000000,51.000000,56.000000,-38.000000,-28.000000,26.000000,32.000000,41.000000
1305125.282204,-2.000000,19.000000,5.000000,1.000000,16.000000,-13.000000,-6.000000,-5.000000
1305125.282215,5.000000,29.000000,40.000000,31.000000,-2.000000,-17.000000,18.000000,-8.000000
1305125.289592,0.000000,-14.000000,-8.000000,-30.000000,-31.000000,-3.000000,59.000000,19.000000
1305125.289602,-10.000000,22.000000,5.000000,17.000000,39.000000,9.000000,-44.000000,-29.000000
1305125.304255,-15.000000,-36.000000,18.000000,35.000000,18.000000,1.000000,-2.000000,1.000000
1305125.304269,11.000000,25.000000,-128.000000,-50.000000,-34.000000,-15.000000,23.000000,1.000000
1305125.327172,-32.000000,-38.000000,-7.000000,-27.000000,-24.000000,10.000000,-1.000000,2.000000
1305125.327183,57.000000,-10.000000,24.000000,21.000000,24.000000,16.000000,30.000000,21.000000
1305125.342339,-6.000000,-23.000000,-22.000000,-40.000000,-81.000000,-47.000000,6.000000,3.000000
1305125.342353,-16.000000,-2.000000,9.000000,-14.000000,-23.000000,-6.000000,-11.000000,-9.000000
1305125.343078,-15.000000,-9.000000,-10.000000,-19.000000,-6.000000,-5.000000,-19.000000,-12.000000
1305125.343089,16.000000,28.000000,55.000000,19.000000,27.000000,24.000000,44.000000,48.000000
1305125.344354,12.000000,17.000000,-1.000000,34.000000,58.000000,16.000000,0.000000,7.000000
1305125.344363,-3.000000,-15.000000,-2.000000,-12.000000,-14.000000,-14.000000,-25.000000,-6.000000
1305125.344989,10.000000,-24.000000,-41.000000,-27.000000,-23.000000,10.000000,6.000000,0.000000
1305125.345008,13.000000,49.000000,91.000000,20.000000,6.000000,9.000000,-3.000000,6.000000
1305125.356866,-28.000000,-8.000000,22.000000,13.000000,1.000000,-9.000000,9.000000,12.000000
1305125.356876,24.000000,10.000000,-15.000000,-23.000000,-20.000000,-4.000000,-12.000000,-4.000000
1305125.365243,-11.000000,7.000000,33.000000,31.000000,26.000000,-1.000000,2.000000,-4.000000
1305125.365252,7.000000,12.000000,45.000000,-20.000000,-40.000000,-3.000000,-10.000000,-12.000000
1305125.372207,-2.000000,18.000000,-8.000000,3.000000,2.000000,0.000000,5.000000,-4.000000
1305125.372218,-7.000000,5.000000,34.000000,13.000000,27.000000,17.000000,35.000000,1.000000
1305125.418410,-24.000000,1.000000,-37.000000,2.000000,-9.000000,-5.000000,13.000000,-5.000000
1305125.418440,-14.000000,-8.000000,43.000000,-3.000000,-6.000000,1.000000,21.000000,9.000000
1305125.425678,35.000000,1.000000,7.000000,1.000000,3.000000,-11.000000,5.000000,23.000000
1305125.425710,-23.000000,-19.000000,-4.000000,9.000000,17.000000,1.000000,-20.000000,-16.000000
1305125.462333,2.000000,17.000000,-5.000000,-80.000000,-81.000000,-4.000000,41.000000,1.000000
1305125.462352,21.000000,-49.000000,-25.000000,-6.000000,-22.000000,-19.000000,0.000000,9.000000
1305125.477574,18.000000,10.000000,-4.000000,-1.000000,-4.000000,-4.000000,-30.000000,1.000000
1305125.477592,-14.000000,-17.000000,13.000000,-4.000000,-21.000000,-5.000000,-15.000000,-3.000000
1305125.499505,-22.000000,-8.000000,-14.000000,28.000000,11.000000,-19.000000,9.000000,-5.000000
1305125.499534,18.000000,5.000000,-7.000000,-45.000000,-29.000000,3.000000,-5.000000,-4.000000
1305125.514779,1.000000,-26.000000,83.000000,36.000000,12.000000,-13.000000,0.000000,-8.000000
1305125.514920,-10.000000,-14.000000,-116.000000,-52.000000,-33.000000,16.000000,-4.000000,-2.000000
1305125.515686,46.000000,-1.000000,-50.000000,3.000000,-13.000000,-16.000000,-12.000000,3.000000
1305125.515729,-5.000000,-3.000000,17.000000,18.000000,51.000000,16.000000,-4.000000,-3.000000
1305125.516273,6.000000,-18.000000,-16.000000,-26.000000,-25.000000,-11.000000,-33.000000,-6.000000
1305125.516299,-31.000000,5.000000,80.000000,-30.000000,-5.000000,14.000000,-8.000000,-25.000000
1305125.516745,-8.000000,-1.000000,12.000000,-1.000000,-7.000000,-19.000000,-12.000000,-5.000000
1305125.516771,-27.000000,5.000000,-32.000000,0.000000,6.000000,-26.000000,-53.000000,-24.000000
1305125.521904,-23.000000,-5.000000,1.000000,-9.000000,0.000000,-8.000000,-23.000000,-13.000000
1305125.521913,-11.000000,25.000000,17.000000,23.000000,40.000000,11.000000,-9.000000,-12.000000
1305125.536875,-16.000000,-9.000000,-55.000000,-17.000000,-4.000000,-8.000000,-9.000000,-8.000000
1305125.536885,15.000000,31.000000,-1.000000,-63.000000,-73.000000,19.000000,18.000000,13.000000
1305125.544692,11.000000,9.000000,25.000000,7.000000,2.000000,6.000000,-11.000000,-5.000000
1305125.544714,-21.000000,-17.000000,-2.000000,11.000000,2.000000,-9.000000,-16.000000,-10.000000
1305125.560093,7.000000,-10.000000,-14.000000,-9.000000,3.000000,1.000000,17.000000,11.000000
1305125.560103,-32.000000,-11.000000,3.000000,5.000000,8.000000,9.000000,-6.000000,-8.000000
1305125.574386,4.000000,-9.000000,26.000000,-17.000000,-18.000000,10.000000,-2.000000,9.000000
1305125.574401,18.000000,25.000000,-17.000000,-28.000000,-31.000000,8.000000,0.000000,7.000000
1305125.575420,-9.000000,-21.000000,10.000000,4.000000,13.000000,1.000000,-6.000000,13.000000
1305125.575429,0.000000,74.000000,15.000000,-2.000000,-27.000000,-7.000000,-19.000000,-3.000000
1305125.576273,-13.000000,-16.000000,10.000000,-21.000000,-24.000000,1.000000,24.000000,-28.000000
1305125.576282,34.000000,-26.000000,-55.000000,18.000000,16.000000,5.000000,37.000000,31.000000
1305125.597066,-9.000000,11.000000,40.000000,11.000000,20.000000,3.000000,-46.000000,-32.000000
1305125.597077,30.000000,-16.000000,-95.000000,15.000000,16.000000,-18.000000,12.000000,16.000000
1305125.597554,-4.000000,24.000000,31.000000,-37.000000,-36.000000,-18.000000,-37.000000,-17.000000
1305125.597562,10.000000,25.000000,34.000000,-3.000000,-3.000000,3.000000,11.000000,-8.000000
1305125.620065,7.000000,-35.000000,-16.000000,33.000000,32.000000,-11.000000,-6.000000,4.000000
1305125.620074,-5.000000,3.000000,21.000000,5.000000,-4.000000,-3.000000,-13.000000,-7.000000
1305125.620792,-8.000000,-5.000000,-16.000000,12.000000,19.000000,12.000000,20.000000,22.000000
1305125.620800,5.000000,2.000000,32.000000,2.000000,-12.000000,-2.000000,23.000000,6.000000
1305125.634985,17.000000,-3.000000,1.000000,-35.000000,-24.000000,14.000000,8.000000,7.000000
1305125.635002,-1.000000,28.000000,127.000000,0.000000,-16.000000,-7.000000,-23.000000,-7.000000
1305125.635653,-17.000000,5.000000,-128.000000,-14.000000,-5.000000,-7.000000,-45.000000,-16.000000
1305125.635665,8.000000,-43.000000,10.000000,-29.000000,-34.000000,-5.000000,-14.000000,12.000000
1305125.649500,4.000000,-11.000000,10.000000,17.000000,40.000000,20.000000,-7.000000,-19.000000
1305125.649533,-52.000000,13.000000,-3.000000,15.000000,12.000000,-7.000000,-4.000000,-17.000000
1305125.656861,50.000000,-6.000000,-14.000000,9.000000,20.000000,-7.000000,-10.000000,-4.000000
1305125.656870,-1.000000,-12.000000,5.000000,-12.000000,7.000000,9.000000,14.000000,11.000000
1305125.694457,6.000000,-3.000000,-15.000000,-9.000000,-9.000000,1.000000,1.000000,-11.000000
1305125.694475,-6.000000,-9.000000,4.000000,-3.000000,-13.000000,-22.000000,0.000000,-4.000000
1305125.695099,-4.000000,24.000000,1.000000,8.000000,6.000000,-3.000000,0.000000,-4.000000
1305125.695107,-19.000000,-48.000000,21.000000,15.000000,-21.000000,-21.000000,-21.000000,-11.000000
1305125.696038,5.000000,70.000000,-49.000000,-48.000000,-46.000000,-2.000000,6.000000,-8.000000
1305125.696047,-12.000000,-8.000000,6.000000,9.000000,14.000000,0.000000,-5.000000,-5.000000
1305125.697002,-20.000000,-18.000000,-21.000000,-3.000000,1.000000,-8.000000,-4.000000,-9.000000
1305125.697011,34.000000,15.000000,28.000000,11.000000,24.000000,12.000000,0.000000,15.000000
1305125.716918,-7.000000,-12.000000,27.000000,6.000000,-1.000000,-6.000000,-19.000000,1.000000
1305125.716930,-16.000000,-51.000000,-85.000000,-5.000000,-13.000000,-23.000000,-7.000000,-20.000000
1305125.717566,41.000000,41.000000,35.000000,-24.000000,-41.000000,17.000000,45.000000,46.000000
1305125.717576,-12.000000,-40.000000,-9.000000,14.000000,-1.000000,-8.000000,-8.000000,-5.000000
1305125.739960,5.000000,-7.000000,-9.000000,-1.000000,25.000000,13.000000,-5.000000,-18.000000
1305125.739970,-21.000000,8.000000,-74.000000,4.000000,7.000000,-12.000000,-12.000000,21.000000
1305125.740872,-5.000000,20.000000,64.000000,40.000000,54.000000,23.000000,13.000000,-10.000000
1305125.740889,-11.000000,-98.000000,-54.000000,0.000000,10.000000,16.000000,37.000000,11.000000
1305125.762603,-6.000000,41.000000,33.000000,23.000000,26.000000,4.000000,5.000000,-15.000000
1305125.762616,-3.000000,-13.000000,-12.000000,-27.000000,-24.000000,8.000000,1.000000,3.000000
1305125.769641,-43.000000,-79.000000,-78.000000,-7.000000,16.000000,-22.000000,-11.000000,-1.000000
1305125.769653,32.000000,39.000000,26.000000,2.000000,7.000000,8.000000,1.000000,-2.000000
1305125.792049,-21.000000,-16.000000,-42.000000,39.000000,78.000000,5.000000,-9.000000,-11.000000
1305125.792060,-20.000000,-8.000000,36.000000,-3.000000,-12.000000,-13.000000,-41.000000,-9.000000
1305125.799771,-1.000000,37.000000,-37.000000,4.000000,1.000000,8.000000,56.000000,-5.000000
1305125.799782,29.000000,1.000000,7.000000,-2.000000,7.000000,4.000000,3.000000,10.000000
1305125.836906,-20.000000,-27.000000,-48.000000,-9.000000,-14.000000,-16.000000,-11.000000,-5.000000
1305125.836918,9.000000,-50.000000,1.000000,-32.000000,-5.000000,3.000000,-10.000000,12.000000
1305125.837399,-33.000000,14.000000,18.000000,9.000000,19.000000,19.000000,-6.000000,-14.000000
1305125.837425,-56.000000,-45.000000,-20.000000,20.000000,22.000000,8.000000,22.000000,7.000000
1305125.838566,74.000000,-3.000000,-44.000000,0.000000,9.000000,-15.000000,-11.000000,22.000000
1305125.838592,-10.000000,-7.000000,-5.000000,8.000000,15.000000,-8.000000,15.000000,-4.000000
1305125.839144,-11.000000,-9.000000,-51.000000,-17.000000,-14.000000,-3.000000,-9.000000,2.000000
1305125.839170,-6.000000,2.000000,0.000000,-25.000000,-27.000000,11.000000,-3.000000,-3.000000
1305125.840670,8.000000,-12.000000,50.000000,3.000000,-4.000000,1.000000,-1.000000,1.000000
1305125.840696,6.000000,8.000000,-29.000000,6.000000,11.000000,17.000000,-2.000000,10.000000
1305125.852764,-2.000000,-15.000000,25.000000,10.000000,11.000000,15.000000,14.000000,6.000000
1305125.852773,0.000000,40.000000,5.000000,19.000000,27.000000,-14.000000,-16.000000,-13.000000
1305125.859552,0.000000,-19.000000,-63.000000,-21.000000,-7.000000,11.000000,7.000000,5.000000
1305125.859563,-6.000000,-56.000000,-20.000000,7.000000,19.000000,3.000000,37.000000,8.000000
1305125.897160,-20.000000,-38.000000,-24.000000,-19.000000,-27.000000,-21.000000,-7.000000,-14.000000
1305125.897172,-32.000000,-7.000000,-35.000000,-7.000000,1.000000,-3.000000,-25.000000,-21.000000
1305125.912241,49.000000,16.000000,44.000000,2.000000,12.000000,6.000000,17.000000,6.000000
1305125.912268,0.000000,-19.000000,-35.000000,11.000000,32.000000,-36.000000,-34.000000,-25.000000
1305125.934803,-16.000000,-23.000000,9.000000,-24.000000,-47.000000,-3.000000,0.000000,-11.000000
1305125.934851,-14.000000,-11.000000,9.000000,7.000000,9.000000,4.000000,13.000000,6.000000
1305125.957220,-12.000000,0.000000,-4.000000,11.000000,14.000000,-3.000000,-1.000000,2.000000
1305125.957325,-15.000000,-11.000000,-6.000000,3.000000,-13.000000,-15.000000,-5.000000,-14.000000
1305125.958166,68.000000,82.000000,44.000000,32.000000,27.000000,23.000000,67.000000,35.000000
1305125.958179,3.000000,16.000000,43.000000,-18.000000,-22.000000,18.000000,16.000000,15.000000
1305125.958734,-1.000000,-3.000000,-33.000000,-21.000000,-18.000000,-11.000000,-17.000000,-4.000000
1305125.958745,-16.000000,-11.000000,-1.000000,-3.000000,10.000000,1.000000,2.000000,-15.000000
1305125.959392,16.000000,-19.000000,5.000000,4.000000,7.000000,9.000000,-9.000000,4.000000
1305125.959421,-4.000000,26.000000,-22.000000,-14.000000,-15.000000,-9.000000,-27.000000,-20.000000
1305125.961159,7.000000,-76.000000,22.000000,21.000000,18.000000,-7.000000,1.000000,-5.000000
1305125.961197,-14.000000,127.000000,73.000000,-71.000000,-87.000000,16.000000,40.000000,13.000000
1305125.972694,6.000000,8.000000,62.000000,39.000000,21.000000,10.000000,33.000000,41.000000
1305125.972712,-2.000000,3.000000,-95.000000,-20.000000,-3.000000,14.000000,-25.000000,-2.000000
1305125.979360,4.000000,-10.000000,52.000000,14.000000,18.000000,14.000000,-10.000000,-8.000000
1305125.979388,8.000000,0.000000,-45.000000,-11.000000,-15.000000,0.000000,7.000000,9.000000
1305126.009996,-6.000000,3.000000,117.000000,41.000000,22.000000,0.000000,24.000000,17.000000
1305126.010013,-25.000000,-5.000000,-37.000000,-7.000000,7.000000,18.000000,-2.000000,-11.000000
1305126.017345,-6.000000,-25.000000,46.000000,7.000000,-2.000000,-7.000000,-7.000000,-5.000000
1305126.017369,32.000000,57.000000,8.000000,26.000000,29.000000,-9.000000,-17.000000,6.000000
1305126.032452,-10.000000,-16.000000,-7.000000,-26.000000,-36.000000,2.000000,24.000000,-2.000000
1305126.032461,-14.000000,-13.000000,-35.000000,-7.000000,-7.000000,1.000000,44.000000,-10.000000
1305126.033085,-6.000000,24.000000,46.000000,7.000000,9.000000,0.000000,-25.000000,-24.000000
1305126.033102,3.000000,-17.000000,35.000000,-26.000000,-40.000000,-11.000000,-10.000000,-3.000000
1305126.034606,-22.000000,0.000000,5.000000,-17.000000,-26.000000,-22.000000,-38.000000,-33.000000
1305126.034626,-3.000000,-38.000000,-51.000000,-6.000000,-5.000000,11.000000,25.000000,11.000000
1305126.039570,7.000000,4.000000,23.000000,-4.000000,-18.000000,-8.000000,-13.000000,-5.000000
1305126.039599,1.000000,-25.000000,-10.000000,-5.000000,-12.000000,-12.000000,-14.000000,-8.000000
1305126.054897,-17.000000,-1.000000,13.000000,-12.000000,-31.000000,-6.000000,-9.000000,-5.000000
1305126.054912,20.000000,-21.000000,5.000000,16.000000,10.000000,9.000000,20.000000,21.000000
1305126.055682,-22.000000,-5.000000,-77.000000,-12.000000,4.000000,-10.000000,-38.000000,-24.000000
1305126.055691,10.000000,4.000000,-61.000000,3.000000,3.000000,5.000000,31.000000,17.000000
1305126.070108,18.000000,-58.000000,47.000000,3.000000,9.000000,0.000000,-7.000000,0.000000
1305126.070142,-5.000000,69.000000,25.000000,-9.000000,-36.000000,-30.000000,-25.000000,-13.000000
1305126.076983,-5.000000,-15.000000,8.000000,31.000000,19.000000,-8.000000,-7.000000,-7.000000
1305126.076993,-11.000000,6.000000,-9.000000,-19.000000,-4.000000,-1.000000,-17.000000,-12.000000
1305126.092053,-1.000000,-7.000000,-41.000000,1.000000,6.000000,18.000000,25.000000,-1.000000
1305126.092065,4.000000,-23.000000,7.000000,19.000000,27.000000,1.000000,10.000000,11.000000
1305126.114543,-28.000000,-8.000000,-8.000000,-12.000000,-5.000000,-7.000000,-11.000000,-13.000000
1305126.114552,-10.000000,-26.000000,11.000000,-7.000000,-5.000000,1.000000,13.000000,-5.000000
1305126.137162,25.000000,11.000000,6.000000,-15.000000,-46.000000,-23.000000,8.000000,15.000000
1305126.137172,-9.000000,29.000000,15.000000,7.000000,10.000000,14.000000,-8.000000,-5.000000
1305126.152132,13.000000,-10.000000,25.000000,16.000000,14.000000,10.000000,27.000000,8.000000
1305126.152143,-22.000000,-11.000000,-37.000000,-9.000000,-3.000000,-20.000000,-55.000000,-36.000000
1305126.174707,-1.000000,14.000000,64.000000,26.000000,27.000000,2.000000,-13.000000,-14.000000
1305126.174718,0.000000,-12.000000,-5.000000,-14.000000,-27.000000,22.000000,-17.000000,12.000000
1305126.189469,3.000000,83.000000,32.000000,-30.000000,-60.000000,-20.000000,-8.000000,15.000000
1305126.189486,-8.000000,-8.000000,4.000000,30.000000,20.000000,-22.000000,-20.000000,-9.000000
1305126.190395,-16.000000,-33.000000,-25.000000,-20.000000,-18.000000,0.000000,-14.000000,-12.000000
1305126.190404,-4.000000,28.000000,-24.000000,6.000000,22.000000,17.000000,-24.000000,-7.000000
1305126.191086,33.000000,-8.000000,-46.000000,-5.000000,-27.000000,-13.000000,53.000000,22.000000
1305126.191100,3.000000,2.000000,14.000000,3.000000,15.000000,-1.000000,-6.000000,1.000000
1305126.193395,-17.000000,-31.000000,-58.000000,-11.000000,-11.000000,9.000000,7.000000,-12.000000
1305126.193403,19.000000,-1.000000,89.000000,-9.000000,-26.000000,-18.000000,10.000000,18.000000
1305126.197186,-11.000000,79.000000,23.000000,-12.000000,-9.000000,13.000000,-25.000000,-17.000000
1305126.197196,-1.000000,17.000000,-16.000000,24.000000,25.000000,9.000000,2.000000,2.000000
1305126.234936,3.000000,0.000000,53.000000,-12.000000,-13.000000,9.000000,13.000000,3.000000
1305126.234947,1.000000,2.000000,14.000000,6.000000,12.000000,-1.000000,-17.000000,-16.000000
1305126.249693,0.000000,-6.000000,-32.000000,-4.000000,-1.000000,-14.000000,-21.000000,-14.000000
1305126.249704,8.000000,-7.000000,-20.000000,5.000000,2.000000,12.000000,14.000000,8.000000
1305126.272219,-39.000000,-19.000000,-35.000000,8.000000,20.000000,-4.000000,13.000000,-19.000000
1305126.272230,35.000000,8.000000,-24.000000,-41.000000,-29.000000,22.000000,-7.000000,-2.000000
1305126.294505,7.000000,-4.000000,2.000000,3.000000,19.000000,-2.000000,3.000000,7.000000
1305126.294524,-16.000000,7.000000,99.000000,-8.000000,-15.000000,0.000000,-21.000000,-19.000000
1305126.309678,6.000000,-1.000000,-15.000000,-3.000000,-11.000000,-8.000000,-7.000000,-4.000000
1305126.309690,-17.000000,0.000000,0.000000,3.000000,4.000000,-14.000000,-41.000000,-23.000000
1305126.310105,-33.000000,-25.000000,-37.000000,1.000000,1.000000,0.000000,-4.000000,-10.000000
1305126.310114,22.000000,0.000000,-28.000000,-16.000000,2.000000,25.000000,33.000000,7.000000
1305126.311086,25.000000,41.000000,74.000000,10.000000,7.000000,11.000000,33.000000,33.000000
1305126.311096,-28.000000,-14.000000,-7.000000,1.000000,-5.000000,-9.000000,9.000000,-12.000000
1305126.311859,-1.000000,4.000000,7.000000,16.000000,13.000000,1.000000,1.000000,0.000000
1305126.311869,26.000000,31.000000,-26.000000,-20.000000,-23.000000,0.000000,5.000000,27.000000
1305126.312960,-2.000000,-10.000000,3.000000,-17.000000,-21.000000,9.000000,38.000000,31.000000
1305126.312969,9.000000,-1.000000,23.000000,6.000000,17.000000,8.000000,-28.000000,8.000000
1305126.317213,-13.000000,-3.000000,-16.000000,-13.000000,-15.000000,-8.000000,20.000000,-2.000000
1305126.317225,-27.000000,6.000000,13.000000,18.000000,17.000000,-12.000000,-39.000000,-28.000000
1305126.332612,18.000000,-35.000000,-17.000000,-32.000000,-29.000000,5.000000,13.000000,2.000000
1305126.332621,-2.000000,-4.000000,2.000000,-4.000000,-4.000000,10.000000,17.000000,12.000000
1305126.347071,-2.000000,-20.000000,-10.000000,3.000000,9.000000,-1.000000,-12.000000,-5.000000
1305126.347100,-26.000000,35.000000,45.000000,-12.000000,-6.000000,17.000000,-4.000000,-8.000000
1305126.369639,50.000000,-17.000000,-8.000000,-19.000000,-27.000000,-10.000000,2.000000,12.000000
1305126.369650,-6.000000,19.000000,-26.000000,-11.000000,-18.000000,-10.000000,7.000000,-7.000000
1305126.391994,-8.000000,6.000000,8.000000,-11.000000,2.000000,18.000000,35.000000,40.000000
1305126.392013,-6.000000,10.000000,-82.000000,16.000000,40.000000,-15.000000,-2.000000,-10.000000
1305126.407091,7.000000,24.000000,-74.000000,-7.000000,-26.000000,4.000000,16.000000,-2.000000
1305126.407120,2.000000,21.000000,43.000000,9.000000,21.000000,11.000000,-21.000000,-9.000000
1305126.414588,-21.000000,-44.000000,-96.000000,-8.000000,-9.000000,-16.000000,-16.000000,-6.000000
1305126.414598,24.000000,6.000000,119.000000,11.000000,1.000000,-2.000000,-4.000000,-2.000000
1305126.430075,-35.000000,11.000000,5.000000,5.000000,30.000000,-24.000000,-19.000000,-20.000000
1305126.430089,15.000000,-9.000000,-6.000000,-4.000000,-16.000000,-5.000000,-9.000000,-1.000000
1305126.430673,-10.000000,-49.000000,-70.000000,-14.000000,1.000000,2.000000,23.000000,-3.000000
1305126.430693,-6.000000,29.000000,11.000000,35.000000,15.000000,-8.000000,5.000000,2.000000
1305126.431607,16.000000,8.000000,23.000000,-57.000000,-58.000000,-2.000000,-3.000000,-14.000000
1305126.431622,-11.000000,-34.000000,-5.000000,-1.000000,7.000000,12.000000,12.000000,-2.000000
1305126.432106,-22.000000,-15.000000,27.000000,13.000000,6.000000,0.000000,-4.000000,-11.000000
1305126.432117,31.000000,2.000000,-39.000000,9.000000,9.000000,-10.000000,34.000000,35.000000
1305126.433661,-4.000000,-49.000000,28.000000,-10.000000,-23.000000,-9.000000,-25.000000,20.000000
1305126.433680,-1.000000,18.000000,-11.000000,-16.000000,-16.000000,19.000000,-16.000000,-13.000000
1305126.452104,2.000000,-19.000000,-128.000000,-20.000000,-10.000000,-1.000000,-4.000000,9.000000
1305126.452118,-23.000000,10.000000,9.000000,-4.000000,-23.000000,-18.000000,-10.000000,-25.000000
1305126.453315,-18.000000,-6.000000,-14.000000,13.000000,11.000000,-4.000000,4.000000,1.000000
1305126.453325,-13.000000,-21.000000,19.000000,10.000000,6.000000,-5.000000,8.000000,7.000000
1305126.467003,7.000000,-28.000000,-31.000000,-6.000000,13.000000,1.000000,-38.000000,-2.000000
1305126.467013,-21.000000,-17.000000,51.000000,23.000000,9.000000,-18.000000,9.000000,-13.000000
1305126.482425,-23.000000,2.000000,-28.000000,-8.000000,-14.000000,16.000000,2.000000,-13.000000
1305126.482499,-19.000000,-27.000000,35.000000,11.000000,5.000000,-14.000000,-10.000000,-22.000000
1305126.489618,27.000000,52.000000,-4.000000,23.000000,23.000000,5.000000,-16.000000,-6.000000
1305126.489635,13.000000,-8.000000,-22.000000,-14.000000,-19.000000,4.000000,11.000000,23.000000
1305126.527195,-18.000000,-42.000000,-10.000000,-3.000000,7.000000,16.000000,7.000000,7.000000
1305126.527243,-24.000000,-20.000000,-36.000000,-10.000000,-26.000000,-29.000000,-9.000000,-10.000000
1305126.535024,-2.000000,15.000000,53.000000,-13.000000,-14.000000,16.000000,6.000000,11.000000
1305126.535043,-1.000000,-16.000000,10.000000,-3.000000,-1.000000,7.000000,22.000000,-15.000000
1305126.550178,-22.000000,0.000000,-66.000000,4.000000,1.000000,-8.000000,-17.000000,-12.000000
1305126.550194,7.000000,-16.000000,17.000000,10.000000,-1.000000,3.000000,46.000000,-2.000000
1305126.551122,-3.000000,22.000000,23.000000,18.000000,16.000000,-11.000000,-30.000000,-13.000000
1305126.551136,-12.000000,-15.000000,-39.000000,-5.000000,6.000000,11.000000,8.000000,-7.000000
1305126.552373,-17.000000,13.000000,-2.000000,-2.000000,0.000000,9.000000,-15.000000,4.000000
1305126.552393,27.000000,-22.000000,-43.000000,-8.000000,-11.000000,-18.000000,-31.000000,-11.000000
1305126.552951,3.000000,46.000000,80.000000,37.000000,36.000000,-13.000000,-21.000000,-5.000000
1305126.552967,-8.000000,-11.000000,1.000000,-46.000000,-55.000000,0.000000,8.000000,-14.000000
1305126.553710,16.000000,-1.000000,17.000000,-2.000000,-26.000000,-30.000000,-23.000000,1.000000
1305126.553723,-29.000000,-50.000000,-48.000000,-40.000000,-45.000000,19.000000,-15.000000,-15.000000
1305126.572362,-55.000000,21.000000,30.000000,13.000000,22.000000,-3.000000,-3.000000,-13.000000
1305126.572531,44.000000,-10.000000,-26.000000,-4.000000,-14.000000,-19.000000,-22.000000,-11.000000
1305126.573516,-1.000000,-10.000000,26.000000,11.000000,5.000000,8.000000,47.000000,24.000000
1305126.573532,11.000000,42.000000,-20.000000,5.000000,2.000000,6.000000,0.000000,1.000000
1305126.586933,-4.000000,2.000000,27.000000,9.000000,4.000000,-2.000000,7.000000,-7.000000
1305126.586962,-13.000000,-20.000000,-23.000000,-47.000000,-32.000000,6.000000,-23.000000,-7.000000
1305126.609904,17.000000,16.000000,27.000000,26.000000,10.000000,18.000000,13.000000,3.000000
1305126.609922,17.000000,-36.000000,0.000000,4.000000,11.000000,7.000000,8.000000,-2.000000
1305126.624488,-20.000000,11.000000,-31.000000,-14.000000,-11.000000,5.000000,-12.000000,-13.000000
1305126.624499,0.000000,36.000000,69.000000,-18.000000,-20.000000,-11.000000,-20.000000,-9.000000
1305126.647337,-15.000000,-12.000000,-58.000000,-1.000000,11.000000,3.000000,-10.000000,-12.000000
1305126.647347,-6.000000,4.000000,-6.000000,1.000000,-12.000000,-27.000000,-24.000000,-7.000000
1305126.647719,-26.000000,-31.000000,-19.000000,8.000000,-1.000000,-14.000000,-20.000000,-23.000000
1305126.647724,20.000000,33.000000,-26.000000,20.000000,29.000000,7.000000,-25.000000,-5.000000
1305126.648635,-27.000000,-46.000000,-27.000000,-22.000000,-13.000000,6.000000,4.000000,3.000000
1305126.648642,15.000000,74.000000,20.000000,49.000000,43.000000,5.000000,17.000000,6.000000
1305126.649321,-13.000000,-23.000000,5.000000,-8.000000,1.000000,-11.000000,-2.000000,-14.000000
1305126.649330,17.000000,10.000000,-31.000000,-4.000000,1.000000,0.000000,32.000000,19.000000
1305126.651379,-4.000000,-31.000000,16.000000,3.000000,-2.000000,-5.000000,-19.000000,-5.000000
1305126.651394,12.000000,45.000000,-36.000000,8.000000,45.000000,-3.000000,16.000000,-5.000000
1305126.669399,-10.000000,-1.000000,22.000000,6.000000,-4.000000,-30.000000,-34.000000,-5.000000
1305126.669422,-14.000000,0.000000,-7.000000,-16.000000,-21.000000,-3.000000,21.000000,-1.000000
1305126.670674,-11.000000,-10.000000,-23.000000,-13.000000,10.000000,0.000000,-78.000000,-20.000000
1305126.670683,9.000000,10.000000,-19.000000,45.000000,66.000000,16.000000,30.000000,27.000000
1305126.676938,-5.000000,-16.000000,-13.000000,-17.000000,-23.000000,0.000000,40.000000,-2.000000
1305126.676948,-25.000000,25.000000,36.000000,-2.000000,1.000000,-15.000000,-19.000000,-17.000000
1305126.692238,6.000000,-4.000000,-31.000000,15.000000,20.000000,16.000000,-13.000000,-8.000000
1305126.692250,-21.000000,-3.000000,-75.000000,-8.000000,9.000000,-4.000000,-31.000000,-20.000000
1305126.706990,21.000000,-61.000000,27.000000,6.000000,-21.000000,-18.000000,10.000000,20.000000
1305126.707001,-5.000000,58.000000,13.000000,-3.000000,16.000000,15.000000,15.000000,16.000000
1305126.744581,-14.000000,-44.000000,-58.000000,1.000000,16.000000,3.000000,-14.000000,-2.000000
1305126.744593,3.000000,-6.000000,47.000000,-26.000000,-45.000000,-17.000000,8.000000,1.000000
1305126.752114,-1.000000,4.000000,-29.000000,-8.000000,0.000000,4.000000,-1.000000,-1.000000
1305126.752124,-3.000000,-6.000000,1.000000,5.000000,10.000000,-9.000000,-15.000000,-10.000000
1305126.804677,-10.000000,-12.000000,-57.000000,-2.000000,7.000000,9.000000,7.000000,-10.000000
1305126.804699,-3.000000,5.000000,16.000000,8.000000,1.000000,-15.000000,-22.000000,-20.000000
1305126.811829,-24.000000,-11.000000,10.000000,16.000000,28.000000,5.000000,48.000000,27.000000
1305126.811858,11.000000,-30.000000,-22.000000,-50.000000,-29.000000,24.000000,6.000000,2.000000
1305126.849764,17.000000,20.000000,53.000000,-4.000000,-19.000000,-6.000000,-8.000000,-10.000000
1305126.849774,-3.000000,5.000000,-11.000000,41.000000,43.000000,-13.000000,-20.000000,4.000000
1305126.857035,0.000000,-13.000000,-12.000000,-31.000000,-48.000000,-7.000000,15.000000,6.000000
1305126.857044,7.000000,0.000000,-2.000000,23.000000,39.000000,13.000000,-5.000000,6.000000
1305126.864573,-24.000000,4.000000,17.000000,-1.000000,5.000000,-9.000000,-4.000000,-11.000000
1305126.864635,15.000000,-40.000000,0.000000,3.000000,-8.000000,-24.000000,-17.000000,5.000000
1305126.865523,15.000000,13.000000,-43.000000,-5.000000,4.000000,18.000000,41.000000,3.000000
1305126.865537,13.000000,-35.000000,37.000000,-8.000000,-8.000000,-5.000000,-24.000000,-5.000000
1305126.866010,-6.000000,12.000000,-29.000000,12.000000,27.000000,6.000000,28.000000,-4.000000
1305126.866019,-16.000000,-21.000000,-22.000000,-27.000000,-34.000000,8.000000,-63.000000,-25.000000
1305126.866719,30.000000,9.000000,-128.000000,-2.000000,8.000000,5.000000,30.000000,23.000000
1305126.866727,-4.000000,-16.000000,16.000000,16.000000,18.000000,-12.000000,-29.000000,-10.000000
1305126.871783,31.000000,14.000000,14.000000,-11.000000,-31.000000,-15.000000,7.000000,12.000000
1305126.871791,-28.000000,-6.000000,-18.000000,4.000000,10.000000,-6.000000,-18.000000,-22.000000
1305126.886996,31.000000,29.000000,6.000000,-20.000000,-20.000000,11.000000,2.000000,42.000000
1305126.887025,-22.000000,2.000000,12.000000,1.000000,23.000000,23.000000,24.000000,-13.000000
1305126.888387,6.000000,-22.000000,-33.000000,18.000000,20.000000,-6.000000,-51.000000,-18.000000
1305126.888395,0.000000,-21.000000,-80.000000,-30.000000,-25.000000,1.000000,6.000000,-14.000000
1305126.901857,19.000000,3.000000,100.000000,29.000000,31.000000,2.000000,-11.000000,17.000000
1305126.901917,5.000000,16.000000,-27.000000,8.000000,31.000000,34.000000,-1.000000,-18.000000
1305126.909371,-4.000000,-2.000000,25.000000,19.000000,9.000000,12.000000,56.000000,23.000000
1305126.909381,-6.000000,63.000000,5.000000,-21.000000,-5.000000,-2.000000,28.000000,23.000000
1305126.924658,-3.000000,-46.000000,-41.000000,-3.000000,8.000000,2.000000,-16.000000,-25.000000
1305126.924672,-6.000000,3.000000,37.000000,-6.000000,12.000000,0.000000,4.000000,-4.000000
1305126.946968,-13.000000,-12.000000,-8.000000,6.000000,13.000000,-7.000000,-3.000000,-11.000000
1305126.946978,-1.000000,16.000000,-10.000000,10.000000,15.000000,21.000000,3.000000,9.000000
1305126.962176,8.000000,23.000000,16.000000,-12.000000,-31.000000,-29.000000,-19.000000,-23.000000
1305126.962188,0.000000,5.000000,-17.000000,14.000000,12.000000,2.000000,32.000000,16.000000
1305126.984421,13.000000,15.000000,4.000000,-29.000000,-21.000000,12.000000,15.000000,3.000000
1305126.984431,-17.000000,-12.000000,-25.000000,4.000000,18.000000,9.000000,2.000000,3.000000
1305127.007058,-24.000000,-39.000000,2.000000,0.000000,-12.000000,4.000000,11.000000,5.000000
1305127.007068,1.000000,33.000000,40.000000,-10.000000,-19.000000,1.000000,-2.000000,4.000000
1305127.007933,7.000000,-2.000000,-39.000000,-12.000000,-25.000000,-2.000000,-10.000000,-13.000000
1305127.007941,-13.000000,-15.000000,-4.000000,-2.000000,8.000000,11.000000,12.000000,8.000000
1305127.008561,-5.000000,1.000000,45.000000,15.000000,1.000000,-3.000000,25.000000,-6.000000
1305127.008569,5.000000,24.000000,10.000000,2.000000,14.000000,6.000000,-4.000000,-19.000000
1305127.010205,-15.000000,8.000000,-67.000000,-14.000000,-8.000000,-12.000000,-19.000000,-9.000000
1305127.010216,-29.000000,-15.000000,28.000000,6.000000,6.000000,-17.000000,-31.000000,-25.000000
1305127.011089,29.000000,9.000000,7.000000,28.000000,22.000000,14.000000,41.000000,37.000000
1305127.011099,8.000000,2.000000,25.000000,-37.000000,-50.000000,5.000000,35.000000,5.000000
1305127.022316,30.000000,30.000000,-43.000000,-8.000000,-6.000000,12.000000,-27.000000,-10.000000
1305127.022329,-3.000000,-3.000000,-5.000000,16.000000,17.000000,0.000000,26.000000,14.000000
1305127.030484,-37.000000,-21.000000,6.000000,3.000000,19.000000,-25.000000,4.000000,6.000000
1305127.030492,48.000000,57.000000,-16.000000,2.000000,4.000000,3.000000,-15.000000,-1.000000
1305127.044494,-4.000000,-4.000000,26.000000,-6.000000,-1.000000,5.000000,9.000000,-12.000000
1305127.044508,-21.000000,-39.000000,-39.000000,-10.000000,5.000000,-1.000000,-24.000000,-2.000000
1305127.067305,-4.000000,34.000000,38.000000,-19.000000,-32.000000,-1.000000,30.000000,-18.000000
1305127.067316,1.000000,31.000000,-17.000000,6.000000,13.000000,13.000000,32.000000,11.000000
1305127.075002,-8.000000,-21.000000,39.000000,0.000000,-3.000000,-5.000000,-29.000000,-15.000000
1305127.075033,10.000000,-41.000000,-33.000000,10.000000,15.000000,18.000000,12.000000,6.000000
1305127.089593,16.000000,36.000000,28.000000,-27.000000,-35.000000,-19.000000,-22.000000,-2.000000
1305127.089620,-17.000000,4.000000,6.000000,-7.000000,-3.000000,1.000000,4.000000,-12.000000
1305127.104807,-9.000000,-1.000000,18.000000,18.000000,21.000000,1.000000,-1.000000,-4.000000
1305127.104871,-37.000000,-81.000000,-101.000000,-28.000000,-22.000000,-4.000000,-3.000000,-19.000000
1305127.127816,-8.000000,62.000000,37.000000,-5.000000,-29.000000,-3.000000,3.000000,33.000000
1305127.127836,85.000000,26.000000,38.000000,42.000000,48.000000,21.000000,53.000000,30.000000
1305127.128295,-22.000000,-30.000000,-57.000000,-12.000000,-5.000000,1.000000,-20.000000,-7.000000
1305127.128380,-19.000000,-3.000000,-7.000000,20.000000,26.000000,-15.000000,30.000000,-1.000000
1305127.130053,-4.000000,-20.000000,-27.000000,-7.000000,-11.000000,-11.000000,-26.000000,0.000000
1305127.130064,-11.000000,-11.000000,-7.000000,-22.000000,-26.000000,-15.000000,-23.000000,-19.000000
1305127.130367,1.000000,-25.000000,38.000000,5.000000,-22.000000,-30.000000,-26.000000,6.000000
1305127.130379,1.000000,19.000000,-12.000000,-23.000000,10.000000,27.000000,33.000000,12.000000
1305127.141945,-7.000000,25.000000,17.000000,-6.000000,-21.000000,-17.000000,8.000000,1.000000
1305127.141955,7.000000,74.000000,70.000000,-18.000000,-37.000000,16.000000,-7.000000,-8.000000
1305127.149427,-1.000000,-12.000000,-3.000000,-2.000000,-12.000000,13.000000,24.000000,21.000000
1305127.149456,47.000000,24.000000,46.000000,36.000000,44.000000,20.000000,41.000000,28.000000
1305127.164465,-10.000000,-14.000000,1.000000,-20.000000,-15.000000,3.000000,-19.000000,17.000000
1305127.164477,-13.000000,-18.000000,-29.000000,8.000000,18.000000,-2.000000,-10.000000,-8.000000
1305127.179988,-10.000000,85.000000,44.000000,-14.000000,-30.000000,-11.000000,5.000000,-1.000000
1305127.180018,6.000000,-13.000000,-11.000000,-14.000000,7.000000,26.000000,-16.000000,-6.000000
1305127.186999,-4.000000,15.000000,52.000000,25.000000,27.000000,-21.000000,-10.000000,-3.000000
1305127.187015,-6.000000,-36.000000,4.000000,12.000000,5.000000,5.000000,23.000000,9.000000
1305127.202291,26.000000,16.000000,-3.000000,-17.000000,-7.000000,-6.000000,-76.000000,-9.000000
1305127.202302,-50.000000,-78.000000,-10.000000,23.000000,-6.000000,-19.000000,3.000000,-19.000000
1305127.224622,62.000000,66.000000,-39.000000,-2.000000,16.000000,40.000000,50.000000,49.000000
1305127.224639,-11.000000,9.000000,2.000000,17.000000,25.000000,4.000000,9.000000,-8.000000
1305127.247335,-17.000000,-38.000000,-28.000000,-12.000000,-21.000000,-15.000000,-5.000000,-6.000000
1305127.247347,7.000000,17.000000,5.000000,30.000000,47.000000,-3.000000,-2.000000,-18.000000
1305127.247776,-15.000000,-27.000000,-7.000000,-6.000000,-10.000000,-7.000000,-15.000000,-11.000000
1305127.247786,-13.000000,-32.000000,-25.000000,-15.000000,-36.000000,-33.000000,-14.000000,-12.000000
1305127.248650,-11.000000,32.000000,2.000000,-1.000000,-2.000000,-9.000000,-10.000000,-27.000000
1305127.248660,-1.000000,6.000000,24.000000,25.000000,36.000000,18.000000,-8.000000,-10.000000
1305127.249300,21.000000,17.000000,37.000000,-20.000000,-28.000000,20.000000,-12.000000,-9.000000
1305127.249309,9.000000,15.000000,2.000000,-21.000000,-24.000000,-2.000000,-22.000000,-7.000000
1305127.262315,3.000000,-3.000000,24.000000,2.000000,11.000000,15.000000,-9.000000,-7.000000
1305127.262336,-5.000000,-17.000000,-55.000000,-10.000000,-4.000000,-1.000000,41.000000,10.000000
1305127.276789,-10.000000,-39.000000,-73.000000,-7.000000,-14.000000,10.000000,9.000000,-3.000000
1305127.276800,-10.000000,54.000000,74.000000,6.000000,-9.000000,-10.000000,15.000000,13.000000
1305127.284347,12.000000,12.000000,-41.000000,-3.000000,-1.000000,2.000000,7.000000,18.000000
1305127.284358,-17.000000,17.000000,73.000000,18.000000,6.000000,-16.000000,-4.000000,-11.000000
1305127.299901,35.000000,-64.000000,-40.000000,4.000000,-4.000000,3.000000,11.000000,18.000000
1305127.299913,-2.000000,58.000000,12.000000,-16.000000,-21.000000,4.000000,2.000000,-3.000000
1305127.307023,-16.000000,-11.000000,-26.000000,17.000000,20.000000,-10.000000,-19.000000,-16.000000
1305127.307034,9.000000,-32.000000,-35.000000,-5.000000,-9.000000,12.000000,68.000000,9.000000
1305127.359970,2.000000,127.000000,45.000000,-9.000000,-10.000000,6.000000,-3.000000,-3.000000
1305127.359991,7.000000,-12.000000,-8.000000,3.000000,2.000000,-14.000000,-6.000000,-1.000000
1305127.367525,4.000000,6.000000,-11.000000,27.000000,30.000000,0.000000,-15.000000,-6.000000
1305127.367545,-5.000000,-51.000000,42.000000,-3.000000,-10.000000,3.000000,-16.000000,-4.000000
1305127.404642,-3.000000,-3.000000,-23.000000,-9.000000,13.000000,-13.000000,-3.000000,-17.000000
1305127.404747,-12.000000,-12.000000,36.000000,-3.000000,-6.000000,-1.000000,-15.000000,6.000000
1305127.404936,21.000000,-2.000000,-7.000000,35.000000,39.000000,9.000000,31.000000,16.000000
1305127.404961,-6.000000,38.000000,15.000000,2.000000,-29.000000,-13.000000,-16.000000,2.000000
1305127.406091,-42.000000,25.000000,-29.000000,-6.000000,1.000000,-17.000000,-21.000000,-12.000000
1305127.406098,10.000000,3.000000,-12.000000,-32.000000,-24.000000,-7.000000,-50.000000,-15.000000
1305127.406882,-16.000000,10.000000,13.000000,-15.000000,-26.000000,-20.000000,-14.000000,-14.000000
1305127.406901,27.000000,-17.000000,-52.000000,-8.000000,-2.000000,16.000000,-2.000000,11.000000
1305127.419666,0.000000,15.000000,-5.000000,20.000000,17.000000,13.000000,-5.000000,3.000000
1305127.419677,-4.000000,-31.000000,-20.000000,9.000000,12.000000,2.000000,0.000000,4.000000
1305127.426799,-8.000000,-3.000000,47.000000,24.000000,15.000000,-9.000000,-10.000000,-1.000000
1305127.426854,11.000000,50.000000,-6.000000,-6.000000,4.000000,24.000000,45.000000,11.000000
1305127.434839,-4.000000,-69.000000,-29.000000,1.000000,10.000000,-3.000000,3.000000,-11.000000
1305127.434849,31.000000,127.000000,84.000000,15.000000,10.000000,10.000000,25.000000,7.000000
1305127.457023,-24.000000,-24.000000,-81.000000,-22.000000,-15.000000,-13.000000,-21.000000,-11.000000
1305127.457040,2.000000,-2.000000,29.000000,37.000000,41.000000,0.000000,-20.000000,-4.000000
1305127.464387,-6.000000,-14.000000,-33.000000,-6.000000,16.000000,1.000000,0.000000,-1.000000
1305127.464398,-20.000000,-19.000000,-7.000000,9.000000,1.000000,-13.000000,17.000000,5.000000
1305127.480264,12.000000,12.000000,38.000000,-18.000000,-29.000000,10.000000,2.000000,-5.000000
1305127.480273,-14.000000,-61.000000,-99.000000,-17.000000,-21.000000,-33.000000,-41.000000,-19.000000
1305127.480736,11.000000,13.000000,-18.000000,-56.000000,-31.000000,19.000000,46.000000,29.000000
1305127.480743,1.000000,63.000000,-30.000000,15.000000,20.000000,-8.000000,-12.000000,-19.000000
1305127.482003,-15.000000,-21.000000,19.000000,-12.000000,-19.000000,-4.000000,-6.000000,-7.000000
1305127.482014,1.000000,20.000000,23.000000,-2.000000,-26.000000,-15.000000,8.000000,5.000000
1305127.482860,-4.000000,-14.000000,-21.000000,8.000000,9.000000,4.000000,4.000000,-6.000000
1305127.482869,14.000000,7.000000,17.000000,9.000000,2.000000,3.000000,-8.000000,1.000000
1305127.502018,-6.000000,-10.000000,20.000000,-5.000000,-3.000000,-7.000000,5.000000,-3.000000
1305127.502037,13.000000,26.000000,8.000000,19.000000,33.000000,21.000000,7.000000,11.000000
1305127.502433,-22.000000,-5.000000,-3.000000,-9.000000,-10.000000,-1.000000,9.000000,-2.000000
1305127.502451,-18.000000,8.000000,-10.000000,-10.000000,-4.000000,-10.000000,-15.000000,-15.000000
1305127.509586,16.000000,-7.000000,-7.000000,3.000000,4.000000,4.000000,15.000000,1.000000
1305127.509603,-3.000000,26.000000,23.000000,10.000000,-1.000000,-6.000000,-57.000000,-24.000000
1305127.539554,-42.000000,-49.000000,-56.000000,-24.000000,-20.000000,20.000000,60.000000,20.000000
1305127.539564,24.000000,-16.000000,-45.000000,-5.000000,25.000000,14.000000,-1.000000,14.000000
1305127.577410,4.000000,23.000000,24.000000,-14.000000,-36.000000,-3.000000,-19.000000,-1.000000
1305127.577424,6.000000,2.000000,-45.000000,-15.000000,-3.000000,-9.000000,6.000000,1.000000
1305127.584556,-5.000000,-22.000000,10.000000,22.000000,39.000000,14.000000,-18.000000,-4.000000
1305127.584568,-11.000000,-14.000000,-47.000000,-21.000000,-37.000000,-22.000000,40.000000,3.000000
1305127.599488,19.000000,-2.000000,60.000000,8.000000,-5.000000,2.000000,-15.000000,-4.000000
1305127.599509,2.000000,57.000000,32.000000,0.000000,0.000000,-6.000000,-5.000000,-6.000000
1305127.622346,-12.000000,-24.000000,12.000000,1.000000,7.000000,6.000000,-14.000000,-8.000000
1305127.622358,-9.000000,-12.000000,-38.000000,-6.000000,-6.000000,-20.000000,-31.000000,-20.000000
1305127.623151,-41.000000,-9.000000,-17.000000,-56.000000,-58.000000,-8.000000,11.000000,-11.000000
1305127.623161,21.000000,-22.000000,-18.000000,4.000000,-10.000000,-10.000000,-15.000000,7.000000
1305127.623720,-34.000000,-20.000000,15.000000,-3.000000,-41.000000,-1.000000,-57.000000,-41.000000
1305127.623733,12.000000,9.000000,4.000000,-11.000000,-18.000000,-2.000000,39.000000,5.000000
1305127.624311,-6.000000,-1.000000,-13.000000,5.000000,3.000000,-6.000000,-3.000000,-2.000000
1305127.624321,6.000000,0.000000,4.000000,-5.000000,-8.000000,-6.000000,-3.000000,-10.000000
1305127.624974,11.000000,-62.000000,-6.000000,1.000000,2.000000,11.000000,9.000000,-3.000000
1305127.624984,-25.000000,41.000000,23.000000,-20.000000,-46.000000,-24.000000,-3.000000,-9.000000
1305127.637112,1.000000,13.000000,51.000000,18.000000,29.000000,8.000000,-6.000000,3.000000
1305127.637141,-20.000000,-24.000000,-1.000000,3.000000,3.000000,-15.000000,-44.000000,-19.000000
1305127.659399,1.000000,35.000000,-4.000000,1.000000,6.000000,9.000000,-23.000000,-10.000000
1305127.659428,7.000000,-12.000000,-25.000000,13.000000,11.000000,-2.000000,33.000000,13.000000
1305127.674895,-34.000000,-11.000000,42.000000,-9.000000,-16.000000,-6.000000,-16.000000,-19.000000
1305127.674908,6.000000,-19.000000,20.000000,3.000000,6.000000,0.000000,3.000000,12.000000
1305127.697049,18.000000,-24.000000,-31.000000,-7.000000,9.000000,-1.000000,-14.000000,-10.000000
1305127.697095,-2.000000,-7.000000,32.000000,24.000000,17.000000,-1.000000,13.000000,25.000000
1305127.697453,-9.000000,-13.000000,19.000000,-19.000000,-26.000000,-3.000000,-5.000000,-2.000000
1305127.697479,-10.000000,0.000000,8.000000,21.000000,2.000000,-26.000000,-7.000000,-9.000000
1305127.698502,-6.000000,79.000000,29.000000,10.000000,18.000000,1.000000,-36.000000,-4.000000
1305127.698511,12.000000,-34.000000,-10.000000,7.000000,32.000000,48.000000,42.000000,8.000000
1305127.699480,-5.000000,-11.000000,-3.000000,15.000000,10.000000,-19.000000,-1.000000,6.000000
1305127.699498,-11.000000,-14.000000,-3.000000,-20.000000,-18.000000,-4.000000,-22.000000,0.000000
1305127.705049,18.000000,49.000000,22.000000,7.000000,9.000000,-2.000000,12.000000,9.000000
1305127.705057,-9.000000,-62.000000,5.000000,-5.000000,-1.000000,-5.000000,-21.000000,-17.000000
1305127.712080,-11.000000,69.000000,19.000000,2.000000,4.000000,3.000000,1.000000,-4.000000
1305127.712090,-10.000000,-6.000000,-36.000000,-22.000000,-25.000000,4.000000,52.000000,15.000000
1305127.720241,28.000000,20.000000,6.000000,5.000000,-12.000000,-22.000000,-12.000000,9.000000
1305127.720251,-19.000000,-17.000000,13.000000,-19.000000,-22.000000,-12.000000,-21.000000,-10.000000
1305127.734596,-12.000000,-1.000000,49.000000,14.000000,3.000000,6.000000,11.000000,-2.000000
1305127.734614,9.000000,12.000000,-33.000000,21.000000,31.000000,-12.000000,-35.000000,-16.000000
1305127.742475,12.000000,31.000000,32.000000,-17.000000,-27.000000,18.000000,45.000000,26.000000
1305127.742484,5.000000,-23.000000,21.000000,8.000000,11.000000,6.000000,10.000000,19.000000
1305127.749284,17.000000,51.000000,34.000000,12.000000,8.000000,-4.000000,-3.000000,1.000000
1305127.749293,-11.000000,-6.000000,-25.000000,-7.000000,-20.000000,-17.000000,-5.000000,-4.000000
1305127.794541,-20.000000,-45.000000,-9.000000,18.000000,38.000000,15.000000,-6.000000,-21.000000
1305127.794551,12.000000,28.000000,-37.000000,-17.000000,-7.000000,-10.000000,20.000000,11.000000
1305127.802124,-3.000000,-20.000000,-34.000000,8.000000,3.000000,-11.000000,12.000000,15.000000
1305127.802134,-1.000000,34.000000,39.000000,-3.000000,-7.000000,-3.000000,-20.000000,-9.000000
1305127.839545,10.000000,-26.000000,10.000000,4.000000,13.000000,5.000000,5.000000,3.000000
1305127.839556,-3.000000,-7.000000,-94.000000,-37.000000,-23.000000,25.000000,8.000000,2.000000
1305127.839960,-3.000000,-50.000000,4.000000,-10.000000,-12.000000,-6.000000,0.000000,5.000000
1305127.839991,9.000000,42.000000,11.000000,-4.000000,6.000000,-2.000000,-39.000000,-10.000000
1305127.841043,-14.000000,20.000000,23.000000,-4.000000,-3.000000,-2.000000,9.000000,-5.000000
1305127.841051,-21.000000,-39.000000,-14.000000,32.000000,27.000000,-13.000000,-33.000000,-14.000000
1305127.841665,-6.000000,-6.000000,-121.000000,-33.000000,8.000000,15.000000,28.000000,17.000000
1305127.841673,1.000000,-12.000000,20.000000,13.000000,-3.000000,-12.000000,-7.000000,-10.000000
1305127.843268,19.000000,7.000000,4.000000,-4.000000,3.000000,14.000000,-6.000000,2.000000
1305127.843277,-6.000000,-1.000000,-12.000000,-15.000000,-1.000000,-3.000000,-25.000000,-7.000000
1305127.854591,-9.000000,-12.000000,-25.000000,8.000000,14.000000,11.000000,-1.000000,-3.000000
1305127.854602,7.000000,11.000000,-1.000000,9.000000,16.000000,-5.000000,-13.000000,0.000000
1305127.862625,-1.000000,-5.000000,-1.000000,-19.000000,-9.000000,4.000000,19.000000,7.000000
1305127.862634,-9.000000,-7.000000,-29.000000,-12.000000,-4.000000,14.000000,-7.000000,-9.000000
1305127.869949,17.000000,17.000000,70.000000,-9.000000,-21.000000,11.000000,30.000000,-10.000000
1305127.869959,-29.000000,-4.000000,19.000000,5.000000,4.000000,6.000000,-17.000000,1.000000
1305127.914573,36.000000,33.000000,7.000000,-26.000000,-44.000000,-12.000000,19.000000,21.000000
1305127.914589,-24.000000,-54.000000,-78.000000,-9.000000,-19.000000,-38.000000,-33.000000,-28.000000
1305127.937011,4.000000,23.000000,12.000000,0.000000,1.000000,32.000000,68.000000,58.000000
1305127.937062,5.000000,5.000000,14.000000,-25.000000,-13.000000,6.000000,-10.000000,2.000000
1305127.937962,14.000000,-8.000000,-23.000000,4.000000,-32.000000,-29.000000,-14.000000,-1.000000
1305127.937990,-22.000000,-50.000000,-21.000000,-37.000000,-38.000000,-9.000000,-6.000000,-14.000000
1305127.938644,3.000000,35.000000,52.000000,11.000000,8.000000,13.000000,9.000000,-10.000000
1305127.938671,-33.000000,-22.000000,-45.000000,-8.000000,3.000000,-4.000000,-12.000000,-13.000000
1305127.940058,38.000000,7.000000,42.000000,12.000000,14.000000,-3.000000,-5.000000,11.000000
1305127.940084,-8.000000,8.000000,36.000000,-10.000000,-9.000000,-1.000000,-8.000000,4.000000
1305127.959368,-13.000000,-32.000000,-2.000000,-9.000000,-13.000000,-10.000000,-3.000000,-5.000000
1305127.959391,-37.000000,1.000000,-33.000000,16.000000,33.000000,6.000000,33.000000,-1.000000
1305127.959873,57.000000,-8.000000,-21.000000,-16.000000,-25.000000,7.000000,21.000000,-8.000000
1305127.959881,-7.000000,-9.000000,1.000000,-9.000000,-8.000000,-7.000000,-45.000000,-6.000000
1305127.961695,-13.000000,-25.000000,-48.000000,-1.000000,12.000000,7.000000,-4.000000,-5.000000
1305127.961715,3.000000,53.000000,73.000000,26.000000,23.000000,-25.000000,0.000000,-3.000000
1305127.974401,20.000000,-8.000000,-69.000000,-10.000000,7.000000,-1.000000,11.000000,-11.000000
1305127.974438,-6.000000,2.000000,25.000000,-5.000000,-16.000000,-1.000000,-26.000000,9.000000
1305127.982554,0.000000,-16.000000,-67.000000,-11.000000,2.000000,-13.000000,-8.000000,-3.000000
1305127.982564,-20.000000,-1.000000,59.000000,15.000000,-6.000000,-23.000000,1.000000,-7.000000
1305127.989371,19.000000,3.000000,-25.000000,-22.000000,-31.000000,-1.000000,13.000000,12.000000
1305127.989381,-2.000000,-32.000000,-30.000000,-44.000000,-71.000000,-9.000000,-17.000000,-4.000000
1305128.019425,-11.000000,73.000000,41.000000,-1.000000,-2.000000,-2.000000,4.000000,8.000000
1305128.019435,-22.000000,1.000000,3.000000,22.000000,7.000000,4.000000,-6.000000,-5.000000
1305128.026917,31.000000,-1.000000,4.000000,-36.000000,-38.000000,8.000000,-30.000000,-9.000000
1305128.026938,-16.000000,-59.000000,-119.000000,-5.000000,9.000000,-37.000000,-13.000000,-8.000000
1305128.057111,18.000000,17.000000,24.000000,-9.000000,-27.000000,17.000000,25.000000,14.000000
1305128.057129,-15.000000,-27.000000,-7.000000,4.000000,15.000000,-6.000000,-12.000000,-10.000000
1305128.064711,-23.000000,5.000000,18.000000,25.000000,33.000000,-4.000000,-49.000000,-26.000000
1305128.064739,8.000000,42.000000,42.000000,-12.000000,-9.000000,-26.000000,-7.000000,9.000000
1305128.080115,0.000000,-13.000000,-23.000000,-32.000000,-48.000000,-38.000000,21.000000,4.000000
1305128.080129,-2.000000,-27.000000,-27.000000,-10.000000,-1.000000,7.000000,10.000000,-12.000000
1305128.080822,9.000000,-31.000000,-66.000000,4.000000,18.000000,34.000000,94.000000,35.000000
1305128.080903,-12.000000,10.000000,69.000000,16.000000,7.000000,-16.000000,-20.000000,-18.000000
1305128.081647,12.000000,-13.000000,12.000000,8.000000,9.000000,2.000000,-19.000000,-6.000000
1305128.081663,-4.000000,-12.000000,-19.000000,13.000000,26.000000,11.000000,7.000000,-14.000000
1305128.082501,-4.000000,-13.000000,1.000000,-7.000000,-10.000000,0.000000,2.000000,3.000000
1305128.082523,-5.000000,1.000000,0.000000,-12.000000,-5.000000,2.000000,-8.000000,5.000000
1305128.094691,10.000000,-4.000000,22.000000,7.000000,12.000000,4.000000,-14.000000,4.000000
1305128.094719,20.000000,-30.000000,-89.000000,-22.000000,-16.000000,-11.000000,-36.000000,4.000000
1305128.116968,12.000000,60.000000,78.000000,18.000000,5.000000,22.000000,12.000000,11.000000
1305128.117041,-21.000000,-24.000000,-17.000000,16.000000,37.000000,3.000000,-27.000000,-33.000000
1305128.132194,15.000000,16.000000,36.000000,0.000000,-2.000000,-4.000000,21.000000,17.000000
1305128.132227,2.000000,-2.000000,7.000000,-2.000000,-10.000000,2.000000,5.000000,-6.000000
1305128.154700,-17.000000,-38.000000,-19.000000,-19.000000,-1.000000,9.000000,27.000000,19.000000
1305128.154710,8.000000,24.000000,6.000000,18.000000,6.000000,-9.000000,-13.000000,-6.000000
1305128.177218,-1.000000,-10.000000,-94.000000,-17.000000,-9.000000,26.000000,36.000000,29.000000
1305128.177238,19.000000,-50.000000,14.000000,11.000000,5.000000,3.000000,-5.000000,0.000000
1305128.192519,6.000000,16.000000,-27.000000,-22.000000,-38.000000,-19.000000,-1.000000,1.000000
1305128.192528,-18.000000,-14.000000,-5.000000,33.000000,21.000000,-25.000000,-14.000000,-10.000000
1305128.193118,-11.000000,1.000000,11.000000,-48.000000,-60.000000,-8.000000,-11.000000,-7.000000
1305128.193126,29.000000,-19.000000,-48.000000,25.000000,30.000000,-1.000000,8.000000,15.000000
1305128.195288,21.000000,37.000000,20.000000,-13.000000,-4.000000,13.000000,29.000000,33.000000
1305128.195305,-57.000000,-8.000000,7.000000,39.000000,44.000000,-13.000000,-12.000000,-15.000000
1305128.195407,10.000000,6.000000,17.000000,-7.000000,-5.000000,10.000000,-5.000000,1.000000
1305128.195455,1.000000,20.000000,-3.000000,3.000000,-2.000000,12.000000,6.000000,2.000000
1305128.196220,-12.000000,38.000000,-2.000000,57.000000,71.000000,-4.000000,0.000000,16.000000
1305128.196240,19.000000,-45.000000,-24.000000,-10.000000,-17.000000,-5.000000,0.000000,-19.000000
1305128.200403,-1.000000,22.000000,-9.000000,21.000000,18.000000,-10.000000,-34.000000,-10.000000
1305128.200421,21.000000,45.000000,57.000000,16.000000,22.000000,16.000000,43.000000,36.000000
1305128.214498,-10.000000,-11.000000,-50.000000,-4.000000,3.000000,-6.000000,-11.000000,-8.000000
1305128.214510,-8.000000,-6.000000,55.000000,24.000000,7.000000,12.000000,-19.000000,-4.000000
1305128.252229,-17.000000,4.000000,-24.000000,-8.000000,24.000000,17.000000,-14.000000,-3.000000
1305128.252239,26.000000,14.000000,5.000000,10.000000,7.000000,-11.000000,23.000000,5.000000
1305128.289752,-20.000000,-15.000000,4.000000,18.000000,26.000000,3.000000,-26.000000,-11.000000
1305128.289764,-19.000000,0.000000,-13.000000,0.000000,8.000000,-19.000000,-22.000000,-21.000000
1305128.304379,-15.000000,-24.000000,-1.000000,-41.000000,-47.000000,26.000000,14.000000,22.000000
1305128.304389,9.000000,29.000000,45.000000,6.000000,23.000000,14.000000,-5.000000,-16.000000
1305128.311993,0.000000,-20.000000,2.000000,2.000000,0.000000,-4.000000,0.000000,-12.000000
1305128.312046,-1.000000,39.000000,16.000000,16.000000,21.000000,5.000000,10.000000,22.000000
1305128.313024,12.000000,-35.000000,-22.000000,-22.000000,-35.000000,-14.000000,9.000000,20.000000
1305128.313038,-6.000000,24.000000,-18.000000,1.000000,-6.000000,-7.000000,-2.000000,6.000000
1305128.313662,1.000000,-2.000000,41.000000,5.000000,-6.000000,-3.000000,-8.000000,-7.000000
1305128.313673,-5.000000,-29.000000,-128.000000,-13.000000,24.000000,-9.000000,0.000000,8.000000
1305128.315133,7.000000,6.000000,-14.000000,-18.000000,6.000000,23.000000,17.000000,2.000000
1305128.315151,17.000000,-18.000000,-24.000000,-3.000000,-9.000000,-3.000000,24.000000,9.000000
1305128.334653,12.000000,31.000000,2.000000,13.000000,7.000000,-6.000000,4.000000,3.000000
1305128.334666,-33.000000,-46.000000,-34.000000,-6.000000,0.000000,-7.000000,21.000000,-13.000000
1305128.335325,-17.000000,-4.000000,-54.000000,-15.000000,-12.000000,2.000000,12.000000,28.000000
1305128.335333,22.000000,26.000000,21.000000,-17.000000,-31.000000,-4.000000,-12.000000,-10.000000
1305128.342879,3.000000,19.000000,14.000000,-9.000000,-9.000000,9.000000,41.000000,38.000000
1305128.342893,8.000000,12.000000,15.000000,1.000000,-5.000000,-9.000000,-50.000000,-9.000000
1305128.349592,-20.000000,-15.000000,-6.000000,-24.000000,-15.000000,16.000000,17.000000,5.000000
1305128.349611,16.000000,-42.000000,-35.000000,-9.000000,-9.000000,-1.000000,42.000000,8.000000
1305128.379707,9.000000,28.000000,39.000000,18.000000,27.000000,20.000000,-21.000000,-18.000000
1305128.379717,-11.000000,-21.000000,-1.000000,19.000000,16.000000,-3.000000,23.000000,20.000000
1305128.394701,1.000000,2.000000,31.000000,-1.000000,-10.000000,0.000000,-6.000000,-4.000000
1305128.394712,-3.000000,-19.000000,-58.000000,4.000000,-22.000000,-31.000000,6.000000,2.000000
1305128.417632,-7.000000,37.000000,48.000000,-8.000000,-4.000000,6.000000,-12.000000,5.000000
1305128.417653,1.000000,-30.000000,-95.000000,16.000000,24.000000,-15.000000,23.000000,7.000000
1305128.418023,-31.000000,-22.000000,43.000000,-24.000000,-54.000000,-5.000000,-16.000000,-2.000000
1305128.418042,32.000000,77.000000,68.000000,12.000000,29.000000,4.000000,-15.000000,1.000000
1305128.419218,-10.000000,52.000000,74.000000,41.000000,31.000000,9.000000,15.000000,-2.000000
1305128.419228,5.000000,12.000000,-35.000000,-18.000000,-7.000000,3.000000,-1.000000,6.000000
1305128.420190,-18.000000,-47.000000,-49.000000,-7.000000,-3.000000,-22.000000,-56.000000,-25.000000
1305128.420199,-8.000000,-31.000000,46.000000,6.000000,21.000000,31.000000,43.000000,0.000000
1305128.425226,21.000000,1.000000,18.000000,-3.000000,-8.000000,-1.000000,-13.000000,10.000000
1305128.425236,7.000000,26.000000,-122.000000,-28.000000,-9.000000,-18.000000,8.000000,16.000000
1305128.432372,-22.000000,-26.000000,10.000000,12.000000,16.000000,8.000000,-24.000000,-35.000000
1305128.432383,3.000000,18.000000,-22.000000,14.000000,15.000000,-6.000000,-5.000000,-2.000000
1305128.447492,3.000000,-19.000000,9.000000,10.000000,20.000000,7.000000,53.000000,24.000000
1305128.447502,0.000000,11.000000,-96.000000,10.000000,30.000000,18.000000,-6.000000,8.000000
1305128.454393,-9.000000,-8.000000,38.000000,2.000000,-7.000000,4.000000,18.000000,16.000000
1305128.454433,21.000000,42.000000,50.000000,-14.000000,-2.000000,9.000000,-4.000000,-5.000000
1305128.470100,-11.000000,-7.000000,2.000000,19.000000,21.000000,11.000000,-7.000000,-12.000000
1305128.470109,-50.000000,-19.000000,47.000000,-17.000000,-19.000000,4.000000,0.000000,-10.000000
1305128.477082,26.000000,28.000000,-104.000000,4.000000,37.000000,6.000000,-21.000000,-4.000000
1305128.477092,4.000000,-1.000000,-1.000000,5.000000,-14.000000,-13.000000,42.000000,-9.000000
1305128.514699,-12.000000,-4.000000,2.000000,26.000000,13.000000,2.000000,21.000000,5.000000
1305128.514710,37.000000,3.000000,-4.000000,-10.000000,-8.000000,9.000000,32.000000,23.000000
1305128.529599,9.000000,2.000000,58.000000,30.000000,43.000000,0.000000,-31.000000,-13.000000
1305128.529610,-30.000000,-47.000000,2.000000,-25.000000,-39.000000,5.000000,11.000000,-4.000000
1305128.537294,12.000000,-18.000000,-20.000000,18.000000,12.000000,4.000000,20.000000,15.000000
1305128.537304,0.000000,-4.000000,25.000000,-10.000000,-20.000000,-24.000000,-14.000000,-9.000000
1305128.537962,-5.000000,0.000000,15.000000,3.000000,1.000000,-7.000000,-7.000000,-2.000000
1305128.537971,-1.000000,18.000000,-12.000000,11.000000,37.000000,18.000000,-12.000000,-6.000000
1305128.539280,27.000000,8.000000,-24.000000,-25.000000,-19.000000,2.000000,4.000000,1.000000
1305128.539288,-21.000000,-56.000000,-32.000000,2.000000,-3.000000,-16.000000,-12.000000,-15.000000
1305128.540046,-16.000000,-23.000000,-17.000000,-6.000000,-10.000000,-1.000000,-62.000000,-29.000000
1305128.540054,-3.000000,12.000000,4.000000,37.000000,33.000000,14.000000,102.000000,58.000000
1305128.545083,49.000000,-12.000000,-14.000000,-26.000000,-37.000000,-3.000000,4.000000,-13.000000
1305128.545091,-44.000000,-45.000000,-12.000000,1.000000,-2.000000,-17.000000,-36.000000,-32.000000
1305128.551869,15.000000,34.000000,0.000000,0.000000,2.000000,3.000000,-17.000000,-16.000000
1305128.551878,-21.000000,-19.000000,-11.000000,0.000000,0.000000,-8.000000,-4.000000,0.000000
1305128.567742,-10.000000,-9.000000,19.000000,53.000000,35.000000,-11.000000,7.000000,3.000000
1305128.567752,20.000000,-52.000000,-10.000000,1.000000,-10.000000,7.000000,34.000000,12.000000
1305128.574975,2.000000,56.000000,33.000000,12.000000,61.000000,15.000000,-13.000000,-15.000000
1305128.574986,-14.000000,21.000000,19.000000,11.000000,-12.000000,-22.000000,12.000000,14.000000
1305128.582906,1.000000,-26.000000,-14.000000,-13.000000,-26.000000,0.000000,29.000000,13.000000
1305128.582916,14.000000,3.000000,-32.000000,-8.000000,10.000000,9.000000,9.000000,3.000000
1305128.612290,-25.000000,-28.000000,-10.000000,17.000000,31.000000,-14.000000,-27.000000,-19.000000
1305128.612301,9.000000,34.000000,111.000000,6.000000,-5.000000,4.000000,-7.000000,7.000000
1305128.634405,-8.000000,-7.000000,-7.000000,11.000000,10.000000,11.000000,58.000000,6.000000
1305128.634476,-7.000000,-20.000000,3.000000,7.000000,26.000000,11.000000,3.000000,22.000000
1305128.634934,3.000000,-26.000000,37.000000,-6.000000,-11.000000,5.000000,-33.000000,-18.000000
1305128.634942,-9.000000,16.000000,-50.000000,2.000000,26.000000,26.000000,11.000000,6.000000
1305128.636068,13.000000,4.000000,-12.000000,-7.000000,-23.000000,-18.000000,24.000000,23.000000
1305128.636096,-27.000000,-34.000000,34.000000,-5.000000,-15.000000,-27.000000,-21.000000,-28.000000
1305128.637018,11.000000,92.000000,32.000000,22.000000,42.000000,5.000000,-19.000000,-4.000000
1305128.637048,2.000000,6.000000,20.000000,-1.000000,-9.000000,4.000000,4.000000,3.000000
1305128.657286,-8.000000,12.000000,-32.000000,-3.000000,8.000000,-4.000000,-5.000000,-5.000000
1305128.657296,-34.000000,-8.000000,21.000000,14.000000,11.000000,-2.000000,-37.000000,-22.000000
1305128.664753,11.000000,-42.000000,-90.000000,-6.000000,0.000000,7.000000,70.000000,35.000000
1305128.664764,7.000000,21.000000,63.000000,-21.000000,-27.000000,3.000000,-39.000000,4.000000
1305128.687059,-74.000000,-57.000000,-33.000000,13.000000,39.000000,-4.000000,8.000000,-19.000000
1305128.687070,79.000000,45.000000,49.000000,39.000000,42.000000,-35.000000,-33.000000,9.000000
1305128.694440,-16.000000,-2.000000,10.000000,-2.000000,-6.000000,12.000000,-3.000000,7.000000
1305128.694469,-33.000000,-18.000000,-19.000000,12.000000,9.000000,-9.000000,10.000000,-2.000000
1305128.695629,48.000000,1.000000,-23.000000,8.000000,22.000000,31.000000,-13.000000,16.000000
1305128.695656,-6.000000,-6.000000,19.000000,12.000000,8.000000,2.000000,35.000000,0.000000
1305128.696419,-60.000000,-26.000000,14.000000,-2.000000,0.000000,-5.000000,-1.000000,-12.000000
1305128.696428,36.000000,-10.000000,-84.000000,18.000000,40.000000,5.000000,1.000000,11.000000
1305128.702692,5.000000,-15.000000,-10.000000,1.000000,-3.000000,16.000000,7.000000,-1.000000
1305128.702719,-28.000000,-37.000000,-16.000000,-19.000000,-8.000000,-9.000000,-9.000000,-12.000000
1305128.732011,20.000000,42.000000,23.000000,13.000000,2.000000,-21.000000,-19.000000,-9.000000
1305128.732020,20.000000,-1.000000,-5.000000,16.000000,25.000000,7.000000,6.000000,5.000000
1305128.754643,-5.000000,-15.000000,20.000000,-20.000000,-36.000000,12.000000,9.000000,-17.000000
1305128.754655,-16.000000,-39.000000,-59.000000,3.000000,-12.000000,-31.000000,-55.000000,-17.000000
1305128.755299,-5.000000,-9.000000,27.000000,6.000000,36.000000,30.000000,37.000000,-3.000000
1305128.755307,-20.000000,3.000000,8.000000,13.000000,18.000000,7.000000,66.000000,-3.000000
1305128.756094,48.000000,42.000000,36.000000,-28.000000,-19.000000,-12.000000,-17.000000,4.000000
1305128.756102,-8.000000,-8.000000,-12.000000,0.000000,-12.000000,-25.000000,7.000000,-13.000000
1305128.757035,-19.000000,-19.000000,-12.000000,0.000000,-15.000000,-10.000000,-18.000000,-22.000000
1305128.757043,8.000000,3.000000,-41.000000,17.000000,16.000000,4.000000,-9.000000,-6.000000
1305128.770195,-5.000000,-13.000000,-35.000000,-2.000000,13.000000,8.000000,11.000000,16.000000
1305128.770204,-9.000000,-2.000000,-5.000000,-8.000000,3.000000,-1.000000,-11.000000,-8.000000
1305128.784473,-20.000000,-5.000000,0.000000,7.000000,2.000000,-4.000000,-11.000000,-13.000000
1305128.784497,11.000000,-5.000000,-8.000000,2.000000,19.000000,6.000000,19.000000,14.000000
1305128.793849,1.000000,41.000000,20.000000,11.000000,14.000000,6.000000,18.000000,8.000000
1305128.794067,-18.000000,-20.000000,11.000000,18.000000,12.000000,2.000000,-14.000000,-21.000000
1305128.794552,3.000000,-4.000000,24.000000,-8.000000,-12.000000,-8.000000,-44.000000,-12.000000
1305128.794586,5.000000,-13.000000,-23.000000,-3.000000,-8.000000,-2.000000,32.000000,13.000000
1305128.815094,12.000000,4.000000,8.000000,5.000000,13.000000,15.000000,-3.000000,-1.000000
1305128.815188,-2.000000,-86.000000,-97.000000,-22.000000,1.000000,4.000000,-30.000000,-17.000000
1305128.822064,50.000000,111.000000,101.000000,9.000000,-3.000000,-2.000000,62.000000,58.000000
1305128.822082,-11.000000,-17.000000,-22.000000,0.000000,7.000000,6.000000,12.000000,14.000000
1305128.844807,-24.000000,0.000000,20.000000,-1.000000,10.000000,5.000000,-7.000000,-7.000000
1305128.844822,5.000000,-16.000000,-4.000000,-3.000000,2.000000,-20.000000,-40.000000,-19.000000
1305128.851892,9.000000,15.000000,32.000000,-3.000000,-10.000000,10.000000,28.000000,24.000000
1305128.851921,3.000000,20.000000,8.000000,9.000000,21.000000,19.000000,2.000000,-1.000000
1305128.889870,-17.000000,-26.000000,47.000000,-11.000000,-35.000000,-25.000000,-8.000000,2.000000
1305128.889883,2.000000,93.000000,-13.000000,-42.000000,-47.000000,7.000000,0.000000,-14.000000
1305128.897454,-21.000000,-32.000000,-28.000000,0.000000,7.000000,-7.000000,-20.000000,-19.000000
1305128.897471,7.000000,32.000000,-13.000000,7.000000,-10.000000,-15.000000,-20.000000,-3.000000
1305128.904851,9.000000,-40.000000,11.000000,21.000000,0.000000,-23.000000,17.000000,4.000000
1305128.904869,-27.000000,28.000000,42.000000,-14.000000,2.000000,20.000000,26.000000,3.000000
1305128.905561,24.000000,4.000000,50.000000,-15.000000,-30.000000,1.000000,-36.000000,-14.000000
1305128.905615,5.000000,3.000000,-23.000000,28.000000,31.000000,-8.000000,-5.000000,-21.000000
1305128.911851,-1.000000,-14.000000,-12.000000,-5.000000,5.000000,12.000000,51.000000,24.000000
1305128.911917,7.000000,-17.000000,39.000000,11.000000,9.000000,1.000000,-4.000000,-7.000000
1305128.913021,-3.000000,17.000000,3.000000,-11.000000,-20.000000,10.000000,37.000000,17.000000
1305128.913066,-2.000000,-17.000000,-19.000000,44.000000,41.000000,-5.000000,-15.000000,-11.000000
1305128.913701,2.000000,4.000000,16.000000,-14.000000,-21.000000,-8.000000,-10.000000,-15.000000
1305128.913710,-18.000000,-55.000000,-21.000000,24.000000,29.000000,5.000000,3.000000,1.000000
1305128.927822,26.000000,45.000000,-18.000000,-34.000000,-36.000000,-2.000000,9.000000,3.000000
1305128.927831,-11.000000,0.000000,58.000000,31.000000,28.000000,-6.000000,-6.000000,-15.000000
1305128.934545,-56.000000,-13.000000,-31.000000,-23.000000,-47.000000,-35.000000,-33.000000,-19.000000
1305128.934563,66.000000,14.000000,41.000000,8.000000,3.000000,4.000000,31.000000,20.000000
1305128.964834,35.000000,-7.000000,-14.000000,-4.000000,5.000000,3.000000,6.000000,8.000000
1305128.964845,-11.000000,30.000000,41.000000,15.000000,7.000000,1.000000,-10.000000,-1.000000
1305128.972354,-15.000000,-30.000000,11.000000,12.000000,10.000000,-27.000000,-12.000000,-15.000000
1305128.972365,7.000000,37.000000,-28.000000,-17.000000,1.000000,36.000000,40.000000,20.000000
1305128.987056,-5.000000,-19.000000,-15.000000,-15.000000,-21.000000,0.000000,18.000000,-11.000000
1305128.987067,6.000000,27.000000,61.000000,17.000000,13.000000,8.000000,16.000000,26.000000
1305129.009519,0.000000,-28.000000,-59.000000,-22.000000,-12.000000,-7.000000,-9.000000,-12.000000
1305129.009530,-11.000000,-5.000000,6.000000,9.000000,4.000000,-10.000000,-9.000000,-10.000000
1305129.010406,-38.000000,-34.000000,-33.000000,-9.000000,18.000000,8.000000,-42.000000,-24.000000
1305129.010415,18.000000,43.000000,33.000000,3.000000,-29.000000,-4.000000,18.000000,-1.000000
1305129.011176,12.000000,-4.000000,-21.000000,-14.000000,-3.000000,-13.000000,-12.000000,0.000000
1305129.011184,-12.000000,-46.000000,-64.000000,1.000000,-3.000000,-5.000000,1.000000,-8.000000
1305129.024807,12.000000,36.000000,-14.000000,4.000000,-9.000000,-22.000000,-13.000000,-19.000000
1305129.024819,-22.000000,-47.000000,-2.000000,7.000000,0.000000,0.000000,5.000000,-24.000000
1305129.025117,24.000000,91.000000,69.000000,17.000000,13.000000,5.000000,21.000000,27.000000
1305129.025126,5.000000,-14.000000,-24.000000,-27.000000,-29.000000,-22.000000,-9.000000,-8.000000
1305129.026611,-11.000000,-54.000000,-4.000000,5.000000,7.000000,-3.000000,-27.000000,-17.000000
1305129.026628,-14.000000,-8.000000,-3.000000,3.000000,4.000000,4.000000,12.000000,5.000000
1305129.032105,-13.000000,19.000000,11.000000,46.000000,60.000000,3.000000,2.000000,-6.000000
1305129.032117,10.000000,10.000000,15.000000,-2.000000,-22.000000,-14.000000,-3.000000,2.000000
1305129.047596,-14.000000,-24.000000,5.000000,-26.000000,-30.000000,-6.000000,-57.000000,-20.000000
1305129.047616,29.000000,0.000000,-3.000000,9.000000,6.000000,4.000000,37.000000,27.000000
1305129.069825,-21.000000,-1.000000,-11.000000,18.000000,25.000000,-20.000000,-32.000000,-31.000000
1305129.069836,9.000000,3.000000,-7.000000,-22.000000,-11.000000,24.000000,30.000000,9.000000
1305129.092379,-3.000000,7.000000,29.000000,-10.000000,10.000000,4.000000,-7.000000,-16.000000
1305129.092397,-1.000000,4.000000,-17.000000,-7.000000,-16.000000,-3.000000,1.000000,0.000000
1305129.099780,-20.000000,-23.000000,-4.000000,17.000000,20.000000,26.000000,54.000000,8.000000
1305129.099796,40.000000,84.000000,9.000000,23.000000,16.000000,-5.000000,-1.000000,-1.000000
1305129.122095,9.000000,-11.000000,44.000000,36.000000,39.000000,-10.000000,-37.000000,7.000000
1305129.122112,-8.000000,36.000000,19.000000,-43.000000,-47.000000,5.000000,9.000000,-13.000000
1305129.129740,0.000000,34.000000,19.000000,7.000000,3.000000,0.000000,11.000000,7.000000
1305129.129770,-2.000000,-24.000000,26.000000,3.000000,11.000000,5.000000,-26.000000,-15.000000
1305129.130620,23.000000,-4.000000,-23.000000,1.000000,6.000000,-7.000000,98.000000,50.000000
1305129.130629,-22.000000,4.000000,-21.000000,11.000000,18.000000,-5.000000,-21.000000,-10.000000
1305129.131133,31.000000,28.000000,17.000000,-15.000000,-53.000000,-12.000000,9.000000,33.000000
1305129.131141,15.000000,10.000000,15.000000,0.000000,1.000000,5.000000,-28.000000,-14.000000
1305129.132855,2.000000,31.000000,21.000000,16.000000,15.000000,14.000000,8.000000,2.000000
1305129.132893,-7.000000,-10.000000,-34.000000,-1.000000,5.000000,7.000000,-3.000000,5.000000
1305129.136962,-1.000000,13.000000,19.000000,44.000000,58.000000,1.000000,-1.000000,-4.000000
1305129.136971,-24.000000,7.000000,27.000000,-8.000000,-31.000000,-6.000000,-38.000000,-28.000000
1305129.145246,10.000000,-13.000000,-2.000000,28.000000,30.000000,3.000000,28.000000,-3.000000
1305129.145349,-16.000000,-40.000000,-40.000000,-32.000000,-37.000000,-16.000000,-25.000000,-16.000000
1305129.166972,17.000000,-20.000000,-48.000000,11.000000,8.000000,-3.000000,27.000000,22.000000
1305129.166992,-28.000000,23.000000,32.000000,10.000000,18.000000,6.000000,-13.000000,-25.000000
1305129.168180,61.000000,-5.000000,4.000000,10.000000,17.000000,4.000000,-5.000000,38.000000
1305129.168208,-17.000000,8.000000,2.000000,-4.000000,5.000000,-6.000000,1.000000,-15.000000
1305129.174416,3.000000,-23.000000,-5.000000,-3.000000,-15.000000,-13.000000,7.000000,5.000000
1305129.174424,-16.000000,-6.000000,17.000000,18.000000,13.000000,1.000000,-20.000000,-9.000000
1305129.189457,10.000000,-35.000000,-33.000000,-43.000000,-54.000000,-24.000000,-1.000000,-4.000000
1305129.189466,-10.000000,-5.000000,2.000000,-4.000000,-2.000000,-7.000000,-20.000000,-10.000000
1305129.204604,-1.000000,36.000000,-7.000000,38.000000,44.000000,-14.000000,-15.000000,-11.000000
1305129.204615,-3.000000,-2.000000,27.000000,-10.000000,-14.000000,2.000000,2.000000,-7.000000
1305129.219530,1.000000,18.000000,-22.000000,-1.000000,11.000000,12.000000,3.000000,4.000000
1305129.219541,24.000000,27.000000,38.000000,-21.000000,-45.000000,-14.000000,15.000000,9.000000
1305129.227009,11.000000,-4.000000,5.000000,9.000000,5.000000,-12.000000,-7.000000,-7.000000
1305129.227018,-11.000000,-20.000000,-40.000000,-4.000000,24.000000,17.000000,16.000000,3.000000
1305129.242581,-4.000000,13.000000,9.000000,-4.000000,10.000000,18.000000,18.000000,27.000000
1305129.242600,28.000000,-25.000000,-9.000000,3.000000,10.000000,10.000000,-10.000000,14.000000
1305129.243158,-6.000000,-6.000000,2.000000,-29.000000,-35.000000,-13.000000,-8.000000,-11.000000
1305129.243185,-10.000000,-19.000000,-39.000000,15.000000,34.000000,-14.000000,-45.000000,-1.000000
1305129.244458,22.000000,19.000000,-13.000000,-29.000000,-29.000000,19.000000,22.000000,-1.000000
1305129.244485,-28.000000,-61.000000,-128.000000,-16.000000,-21.000000,-35.000000,-61.000000,-23.000000
1305129.264736,16.000000,41.000000,90.000000,16.000000,43.000000,27.000000,50.000000,1.000000
1305129.264762,-26.000000,-54.000000,-37.000000,2.000000,-17.000000,-29.000000,7.000000,-14.000000
1305129.265723,12.000000,-35.000000,17.000000,17.000000,8.000000,-9.000000,-14.000000,-1.000000
1305129.265731,-3.000000,49.000000,26.000000,-21.000000,-25.000000,-4.000000,-6.000000,4.000000
1305129.286980,-10.000000,9.000000,-23.000000,-13.000000,-26.000000,-27.000000,-6.000000,-10.000000
1305129.287006,0.000000,-4.000000,-38.000000,11.000000,6.000000,8.000000,15.000000,6.000000
1305129.309582,9.000000,4.000000,-25.000000,4.000000,5.000000,0.000000,3.000000,15.000000
1305129.309594,-28.000000,-2.000000,3.000000,22.000000,37.000000,-6.000000,-36.000000,-34.000000
1305129.324625,31.000000,18.000000,11.000000,-11.000000,-15.000000,23.000000,33.000000,28.000000
1305129.324671,-5.000000,-22.000000,-79.000000,-18.000000,4.000000,-3.000000,6.000000,8.000000
1305129.347252,19.000000,27.000000,102.000000,-16.000000,-28.000000,0.000000,-4.000000,2.000000
1305129.347264,-10.000000,22.000000,-35.000000,7.000000,0.000000,-7.000000,7.000000,2.000000
1305129.362083,1.000000,-12.000000,2.000000,2.000000,8.000000,-3.000000,5.000000,3.000000
1305129.362124,-3.000000,-58.000000,17.000000,17.000000,8.000000,-12.000000,-32.000000,-7.000000
1305129.384554,-1.000000,30.000000,18.000000,14.000000,19.000000,20.000000,-17.000000,-3.000000
1305129.384590,9.000000,11.000000,-40.000000,-32.000000,-37.000000,5.000000,40.000000,0.000000
1305129.384904,-19.000000,-20.000000,21.000000,11.000000,12.000000,1.000000,9.000000,-18.000000
1305129.384931,19.000000,-20.000000,-72.000000,-25.000000,-76.000000,-49.000000,-8.000000,7.000000
1305129.386227,-18.000000,-1.000000,-26.000000,-3.000000,-2.000000,-22.000000,0.000000,-21.000000
1305129.386248,9.000000,43.000000,71.000000,40.000000,16.000000,-4.000000,26.000000,23.000000
1305129.387849,24.000000,1.000000,-9.000000,9.000000,10.000000,17.000000,-3.000000,5.000000
1305129.387860,-8.000000,-6.000000,25.000000,-24.000000,-22.000000,-16.000000,-1.000000,-3.000000
1305129.399734,1.000000,-7.000000,-15.000000,11.000000,30.000000,12.000000,41.000000,19.000000
1305129.399748,-9.000000,-4.000000,79.000000,-8.000000,-13.000000,-13.000000,-18.000000,-10.000000
1305129.407064,13.000000,-9.000000,-4.000000,8.000000,9.000000,-6.000000,-42.000000,-18.000000
1305129.407076,1.000000,-4.000000,-7.000000,-8.000000,5.000000,22.000000,28.000000,21.000000
1305129.414481,-9.000000,-15.000000,-56.000000,12.000000,12.000000,-2.000000,-6.000000,-3.000000
1305129.414491,13.000000,-10.000000,59.000000,8.000000,5.000000,-10.000000,-4.000000,5.000000
1305129.429396,-8.000000,118.000000,48.000000,6.000000,16.000000,0.000000,16.000000,-9.000000
1305129.429406,-7.000000,-24.000000,-100.000000,-13.000000,1.000000,-13.000000,-35.000000,-12.000000
1305129.444908,-35.000000,-10.000000,36.000000,-30.000000,-35.000000,9.000000,23.000000,-5.000000
1305129.444922,51.000000,-36.000000,-14.000000,-6.000000,24.000000,-5.000000,17.000000,11.000000
1305129.466881,10.000000,41.000000,38.000000,22.000000,3.000000,-8.000000,-9.000000,0.000000
1305129.466890,-2.000000,-15.000000,-48.000000,-88.000000,-82.000000,6.000000,21.000000,0.000000
1305129.482291,-27.000000,-15.000000,-4.000000,7.000000,21.000000,-5.000000,-21.000000,-28.000000
1305129.482303,8.000000,-24.000000,6.000000,16.000000,24.000000,-3.000000,-1.000000,7.000000
1305129.504901,-13.000000,8.000000,2.000000,-9.000000,-11.000000,0.000000,7.000000,19.000000
1305129.504921,20.000000,-1.000000,-8.000000,24.000000,17.000000,-20.000000,-18.000000,0.000000
1305129.505458,-16.000000,-32.000000,1.000000,-49.000000,-73.000000,13.000000,8.000000,-1.000000
1305129.505466,0.000000,27.000000,-13.000000,3.000000,10.000000,11.000000,-3.000000,-14.000000
1305129.506739,4.000000,-3.000000,-3.000000,8.000000,12.000000,0.000000,2.000000,2.000000
1305129.506748,-11.000000,-11.000000,5.000000,-2.000000,-7.000000,-23.000000,-14.000000,-13.000000
1305129.507448,-7.000000,-20.000000,-30.000000,-40.000000,-36.000000,3.000000,37.000000,12.000000
1305129.507463,-9.000000,-36.000000,25.000000,12.000000,13.000000,-7.000000,-36.000000,-11.000000
1305129.519338,-19.000000,-42.000000,-19.000000,3.000000,25.000000,12.000000,8.000000,2.000000
1305129.519348,-13.000000,46.000000,-4.000000,-32.000000,-34.000000,-11.000000,-25.000000,-5.000000
1305129.528790,35.000000,32.000000,2.000000,-21.000000,-25.000000,7.000000,38.000000,11.000000
1305129.528800,-5.000000,-8.000000,-48.000000,-10.000000,7.000000,17.000000,21.000000,8.000000
1305129.534731,14.000000,-38.000000,-9.000000,-2.000000,5.000000,-5.000000,-16.000000,-1.000000
1305129.534742,5.000000,33.000000,24.000000,-16.000000,-7.000000,7.000000,21.000000,13.000000
1305129.549624,-8.000000,50.000000,-48.000000,-26.000000,-30.000000,-5.000000,-20.000000,-19.000000
1305129.549641,25.000000,24.000000,79.000000,18.000000,6.000000,19.000000,19.000000,24.000000
1305129.564504,2.000000,-39.000000,-17.000000,-7.000000,-5.000000,-14.000000,-11.000000,10.000000
1305129.564522,-9.000000,11.000000,-21.000000,-20.000000,-3.000000,19.000000,-31.000000,-21.000000
1305129.587745,-2.000000,-2.000000,54.000000,14.000000,-1.000000,-6.000000,26.000000,6.000000
1305129.587755,11.000000,-2.000000,-19.000000,-1.000000,8.000000,3.000000,24.000000,9.000000
1305129.588240,-3.000000,-10.000000,-3.000000,-26.000000,-33.000000,-5.000000,-58.000000,-15.000000
1305129.588248,-24.000000,-24.000000,-41.000000,-5.000000,-25.000000,-22.000000,-14.000000,-6.000000
1305129.601806,-13.000000,6.000000,-16.000000,10.000000,1.000000,-5.000000,-16.000000,-17.000000
1305129.601822,36.000000,-51.000000,-22.000000,-8.000000,12.000000,-6.000000,-31.000000,21.000000
1305129.602258,1.000000,65.000000,48.000000,13.000000,18.000000,16.000000,39.000000,-4.000000
1305129.602268,-21.000000,-35.000000,-30.000000,-4.000000,-9.000000,3.000000,-5.000000,-3.000000
1305129.624807,-4.000000,-4.000000,14.000000,17.000000,24.000000,4.000000,-32.000000,-9.000000
1305129.624819,-10.000000,-23.000000,-16.000000,-23.000000,-30.000000,-15.000000,-6.000000,-4.000000
1305129.625184,-6.000000,-51.000000,18.000000,30.000000,33.000000,15.000000,-6.000000,-8.000000
1305129.625194,-2.000000,19.000000,20.000000,3.000000,5.000000,-17.000000,8.000000,1.000000
1305129.626725,-6.000000,-13.000000,-1.000000,-4.000000,-5.000000,-2.000000,3.000000,1.000000
1305129.626736,0.000000,-4.000000,-10.000000,-12.000000,-19.000000,-4.000000,-32.000000,-8.000000
1305129.639553,-33.000000,-9.000000,-32.000000,4.000000,15.000000,3.000000,-1.000000,-7.000000
1305129.639565,41.000000,28.000000,74.000000,34.000000,14.000000,13.000000,-4.000000,7.000000
1305129.647272,2.000000,-10.000000,-39.000000,-37.000000,-23.000000,-2.000000,22.000000,11.000000
1305129.647291,-28.000000,-34.000000,-14.000000,-2.000000,-11.000000,-16.000000,-21.000000,-18.000000
1305129.661937,-3.000000,33.000000,-16.000000,3.000000,4.000000,-17.000000,-39.000000,-17.000000
1305129.661966,32.000000,-13.000000,-23.000000,-25.000000,-21.000000,9.000000,6.000000,6.000000
1305129.684638,-23.000000,-12.000000,-9.000000,22.000000,42.000000,-10.000000,-17.000000,-12.000000
1305129.684648,-11.000000,-26.000000,-9.000000,1.000000,-7.000000,16.000000,6.000000,-15.000000
1305129.692492,-5.000000,-6.000000,32.000000,26.000000,63.000000,20.000000,1.000000,4.000000
1305129.692524,-7.000000,-15.000000,17.000000,-49.000000,-77.000000,-26.000000,2.000000,-6.000000
1305129.722602,-9.000000,-32.000000,-27.000000,12.000000,21.000000,7.000000,-4.000000,5.000000
1305129.722613,36.000000,-14.000000,-67.000000,-9.000000,13.000000,7.000000,7.000000,5.000000
1305129.722755,-13.000000,-8.000000,-5.000000,30.000000,22.000000,6.000000,-9.000000,-18.000000
1305129.722760,24.000000,21.000000,24.000000,5.000000,23.000000,-1.000000,-4.000000,5.000000
1305129.723668,-4.000000,10.000000,-27.000000,-23.000000,-25.000000,-12.000000,-15.000000,-8.000000
1305129.723675,7.000000,22.000000,-11.000000,0.000000,-11.000000,-21.000000,-7.000000,-4.000000
1305129.724303,-4.000000,4.000000,12.000000,15.000000,5.000000,-7.000000,-2.000000,-4.000000
1305129.724311,-28.000000,-5.000000,-10.000000,-28.000000,-53.000000,-8.000000,-6.000000,-8.000000
1305129.729855,7.000000,18.000000,15.000000,-1.000000,-15.000000,-7.000000,-18.000000,1.000000
1305129.729865,-7.000000,-30.000000,-14.000000,3.000000,16.000000,-1.000000,-21.000000,-13.000000
1305129.737348,1.000000,41.000000,4.000000,40.000000,-13.000000,-39.000000,-53.000000,-9.000000
1305129.737358,16.000000,17.000000,21.000000,-27.000000,-13.000000,16.000000,2.000000,15.000000
1305129.745104,-9.000000,1.000000,17.000000,7.000000,11.000000,11.000000,23.000000,5.000000
1305129.745120,9.000000,0.000000,-52.000000,-8.000000,-24.000000,8.000000,27.000000,13.000000
1305129.759479,-11.000000,-9.000000,26.000000,7.000000,4.000000,-7.000000,-13.000000,-22.000000
1305129.759489,-3.000000,8.000000,2.000000,5.000000,27.000000,12.000000,-19.000000,-3.000000
1305129.782229,1.000000,-32.000000,-19.000000,-37.000000,-79.000000,-25.000000,28.000000,11.000000
1305129.782250,19.000000,45.000000,28.000000,12.000000,8.000000,-3.000000,20.000000,4.000000
1305129.797020,6.000000,13.000000,-3.000000,5.000000,12.000000,4.000000,3.000000,4.000000
1305129.797064,-10.000000,1.000000,24.000000,15.000000,11.000000,5.000000,3.000000,-1.000000
1305129.834404,-13.000000,-14.000000,1.000000,-11.000000,-8.000000,-4.000000,-12.000000,2.000000
1305129.834422,1.000000,45.000000,-2.000000,17.000000,20.000000,-9.000000,9.000000,-3.000000
1305129.842026,-9.000000,9.000000,30.000000,3.000000,-3.000000,-7.000000,-38.000000,-16.000000
1305129.842044,-6.000000,-26.000000,12.000000,18.000000,13.000000,4.000000,40.000000,35.000000
1305129.843087,25.000000,23.000000,-11.000000,-62.000000,-54.000000,27.000000,-7.000000,-6.000000
1305129.843098,-17.000000,-11.000000,-12.000000,4.000000,20.000000,-11.000000,-7.000000,-2.000000
1305129.843558,-45.000000,-60.000000,25.000000,25.000000,2.000000,-22.000000,-45.000000,-25.000000
1305129.843585,67.000000,18.000000,28.000000,-38.000000,-33.000000,38.000000,99.000000,48.000000
1305129.845250,-11.000000,-8.000000,-10.000000,10.000000,23.000000,-3.000000,-5.000000,-20.000000
1305129.845268,-1.000000,-21.000000,-53.000000,-35.000000,-63.000000,-2.000000,9.000000,18.000000
1305129.857042,12.000000,4.000000,25.000000,-16.000000,-21.000000,-3.000000,-36.000000,-3.000000
1305129.857053,6.000000,-4.000000,-17.000000,28.000000,27.000000,2.000000,6.000000,1.000000
1305129.864706,-5.000000,-15.000000,-41.000000,-27.000000,-7.000000,11.000000,24.000000,3.000000
1305129.864718,8.000000,88.000000,45.000000,-1.000000,2.000000,0.000000,-11.000000,-3.000000
1305129.865750,2.000000,6.000000,34.000000,-3.000000,-30.000000,-3.000000,33.000000,19.000000
1305129.865758,-1.000000,0.000000,2.000000,25.000000,10.000000,15.000000,32.000000,-10.000000
1305129.879502,19.000000,11.000000,-124.000000,-56.000000,-23.000000,-2.000000,-13.000000,-4.000000
1305129.879516,-36.000000,-39.000000,-43.000000,34.000000,18.000000,-14.000000,-10.000000,-9.000000
1305129.894500,34.000000,38.000000,89.000000,-8.000000,-8.000000,10.000000,-2.000000,13.000000
1305129.894511,-8.000000,-47.000000,-13.000000,17.000000,12.000000,4.000000,-17.000000,-10.000000
1305129.902325,-6.000000,11.000000,-11.000000,-11.000000,-6.000000,-1.000000,0.000000,-6.000000
1305129.902338,11.000000,-10.000000,-28.000000,13.000000,11.000000,-5.000000,-1.000000,5.000000
1305129.917439,-11.000000,3.000000,-43.000000,-12.000000,-7.000000,2.000000,3.000000,0.000000
1305129.917450,-15.000000,-6.000000,17.000000,0.000000,-11.000000,-12.000000,-9.000000,-9.000000
1305129.918320,-7.000000,-14.000000,-13.000000,4.000000,6.000000,-11.000000,-12.000000,-12.000000
1305129.918331,9.000000,28.000000,-13.000000,-11.000000,-15.000000,10.000000,-27.000000,-33.000000
1305129.939720,-3.000000,-6.000000,-11.000000,15.000000,46.000000,23.000000,69.000000,52.000000
1305129.939751,-16.000000,-48.000000,-8.000000,-12.000000,-2.000000,14.000000,-23.000000,-11.000000
1305129.954900,-2.000000,38.000000,2.000000,7.000000,8.000000,4.000000,-21.000000,-4.000000
1305129.954912,-16.000000,-39.000000,5.000000,39.000000,51.000000,0.000000,-16.000000,-18.000000
1305129.969632,28.000000,70.000000,18.000000,-15.000000,-24.000000,27.000000,13.000000,30.000000
1305129.969650,1.000000,-21.000000,-34.000000,3.000000,9.000000,-12.000000,-1.000000,-22.000000
1305129.977045,-32.000000,-13.000000,0.000000,10.000000,13.000000,-11.000000,-24.000000,-22.000000
1305129.977066,6.000000,40.000000,46.000000,16.000000,5.000000,4.000000,21.000000,9.000000
1305129.977984,11.000000,29.000000,58.000000,5.000000,-2.000000,-14.000000,4.000000,-9.000000
1305129.978074,-1.000000,4.000000,-64.000000,-6.000000,9.000000,8.000000,-14.000000,3.000000
1305129.978873,-10.000000,11.000000,29.000000,18.000000,0.000000,-17.000000,-11.000000,-17.000000
1305129.978882,-6.000000,33.000000,-59.000000,-20.000000,-3.000000,3.000000,-21.000000,-4.000000
1305130.000100,-23.000000,-6.000000,49.000000,-26.000000,-23.000000,4.000000,-10.000000,-17.000000
1305130.000110,-11.000000,-11.000000,12.000000,-3.000000,-13.000000,5.000000,-9.000000,-22.000000
1305130.000726,-4.000000,-22.000000,-12.000000,-8.000000,-13.000000,-13.000000,-12.000000,-7.000000
1305130.000734,-17.000000,-89.000000,-93.000000,-21.000000,6.000000,-6.000000,-21.000000,-9.000000
1305130.007316,-34.000000,127.000000,24.000000,9.000000,3.000000,-11.000000,-29.000000,-18.000000
1305130.007327,72.000000,8.000000,3.000000,-13.000000,-21.000000,6.000000,32.000000,37.000000
1305130.015039,-5.000000,-2.000000,6.000000,-1.000000,1.000000,-3.000000,-33.000000,-15.000000
1305130.015049,-23.000000,-5.000000,19.000000,12.000000,23.000000,-6.000000,30.000000,-7.000000
1305130.037065,-12.000000,-8.000000,-64.000000,10.000000,10.000000,4.000000,28.000000,4.000000
1305130.037084,-2.000000,12.000000,29.000000,-4.000000,-4.000000,-19.000000,-41.000000,-32.000000
1305130.074645,23.000000,33.000000,10.000000,18.000000,20.000000,19.000000,43.000000,50.000000
1305130.074664,16.000000,45.000000,18.000000,-1.000000,-9.000000,3.000000,4.000000,1.000000
1305130.082625,-12.000000,-22.000000,28.000000,13.000000,35.000000,12.000000,-31.000000,-21.000000
1305130.082634,3.000000,8.000000,-95.000000,34.000000,23.000000,1.000000,6.000000,-20.000000
1305130.083219,1.000000,2.000000,53.000000,-1.000000,3.000000,21.000000,21.000000,24.000000
1305130.083228,-34.000000,-25.000000,-22.000000,15.000000,9.000000,-15.000000,-19.000000,-10.000000
1305130.084536,14.000000,-3.000000,-36.000000,-9.000000,15.000000,5.000000,11.000000,5.000000
1305130.084557,3.000000,8.000000,60.000000,-1.000000,-13.000000,-9.000000,28.000000,4.000000
1305130.097228,-9.000000,3.000000,-3.000000,-26.000000,-15.000000,-1.000000,-23.000000,-10.000000
1305130.097240,14.000000,-10.000000,4.000000,22.000000,17.000000,14.000000,12.000000,15.000000
1305130.097603,-20.000000,-25.000000,-20.000000,1.000000,-12.000000,-12.000000,-15.000000,-7.000000
1305130.097610,10.000000,10.000000,-17.000000,16.000000,26.000000,-11.000000,-12.000000,-6.000000
1305130.098300,-5.000000,21.000000,10.000000,-58.000000,-43.000000,8.000000,1.000000,0.000000
1305130.098308,-6.000000,-15.000000,0.000000,27.000000,40.000000,-2.000000,-35.000000,-18.000000
1305130.119608,9.000000,-5.000000,-10.000000,-35.000000,-24.000000,1.000000,24.000000,28.000000
1305130.119631,-21.000000,-24.000000,20.000000,-21.000000,-51.000000,8.000000,58.000000,15.000000
1305130.134509,4.000000,-23.000000,-34.000000,-2.000000,5.000000,3.000000,-11.000000,2.000000
1305130.134520,-13.000000,22.000000,28.000000,8.000000,31.000000,-16.000000,-29.000000,-4.000000
1305130.194669,1.000000,-37.000000,-32.000000,11.000000,14.000000,12.000000,-3.000000,10.000000
1305130.194679,6.000000,24.000000,-21.000000,-37.000000,-43.000000,-1.000000,-64.000000,-22.000000
1305130.202444,-8.000000,-5.000000,3.000000,2.000000,-2.000000,10.000000,23.000000,3.000000
1305130.202454,6.000000,-3.000000,13.000000,36.000000,46.000000,10.000000,-1.000000,2.000000
1305130.217552,-39.000000,-27.000000,-11.000000,-21.000000,-20.000000,-7.000000,-15.000000,-30.000000
1305130.217567,25.000000,-10.000000,-55.000000,46.000000,56.000000,1.000000,-28.000000,10.000000
1305130.218065,6.000000,11.000000,43.000000,-54.000000,-80.000000,-16.000000,-39.000000,-2.000000
1305130.218074,-2.000000,4.000000,37.000000,32.000000,-2.000000,6.000000,2.000000,-5.000000
1305130.219337,34.000000,9.000000,-4.000000,1.000000,5.000000,3.000000,10.000000,22.000000
1305130.219386,-11.000000,-17.000000,-40.000000,-8.000000,9.000000,1.000000,-1.000000,-3.000000
1305130.220128,-5.000000,9.000000,-19.000000,12.000000,23.000000,22.000000,-1.000000,-11.000000
1305130.220155,-12.000000,-42.000000,-17.000000,9.000000,-10.000000,-5.000000,45.000000,13.000000
1305130.220809,39.000000,28.000000,6.000000,7.000000,12.000000,17.000000,26.000000,13.000000
1305130.220818,-10.000000,-2.000000,3.000000,1.000000,-1.000000,-5.000000,-11.000000,-3.000000
1305130.231983,-4.000000,-15.000000,-53.000000,20.000000,29.000000,-1.000000,-11.000000,-4.000000
1305130.231993,-24.000000,-3.000000,17.000000,0.000000,-6.000000,-5.000000,-26.000000,-14.000000
1305130.239223,-21.000000,-29.000000,-36.000000,6.000000,5.000000,-17.000000,-19.000000,-7.000000
1305130.239231,30.000000,0.000000,3.000000,-34.000000,-35.000000,2.000000,15.000000,3.000000
1305130.254827,-2.000000,11.000000,10.000000,11.000000,5.000000,-4.000000,-7.000000,0.000000
1305130.254864,-12.000000,3.000000,-8.000000,2.000000,-4.000000,-13.000000,-19.000000,-14.000000
1305130.276904,-9.000000,-80.000000,-59.000000,-10.000000,-4.000000,5.000000,47.000000,13.000000
1305130.276915,8.000000,84.000000,127.000000,29.000000,-15.000000,-11.000000,20.000000,-3.000000
1305130.292933,23.000000,20.000000,-12.000000,-14.000000,-3.000000,-17.000000,7.000000,0.000000
1305130.292969,-6.000000,-17.000000,-30.000000,11.000000,20.000000,5.000000,-1.000000,11.000000
1305130.293340,13.000000,6.000000,37.000000,15.000000,20.000000,20.000000,-9.000000,-10.000000
1305130.293355,0.000000,-12.000000,-65.000000,3.000000,15.000000,24.000000,3.000000,0.000000
1305130.294741,16.000000,8.000000,70.000000,19.000000,18.000000,10.000000,37.000000,22.000000
1305130.294759,-6.000000,1.000000,-31.000000,-1.000000,13.000000,-15.000000,-17.000000,-3.000000
1305130.299335,-6.000000,-34.000000,-8.000000,9.000000,15.000000,-13.000000,-9.000000,-7.000000
1305130.299344,7.000000,100.000000,59.000000,30.000000,40.000000,29.000000,23.000000,-6.000000
1305130.314686,13.000000,4.000000,42.000000,-19.000000,-26.000000,-4.000000,8.000000,9.000000
1305130.314696,-4.000000,8.000000,-13.000000,-13.000000,-30.000000,-15.000000,-5.000000,-2.000000
1305130.337018,-12.000000,-21.000000,-46.000000,0.000000,1.000000,-7.000000,-18.000000,-24.000000
1305130.337047,35.000000,23.000000,40.000000,17.000000,19.000000,28.000000,65.000000,47.000000
1305130.338060,-20.000000,-10.000000,3.000000,4.000000,15.000000,-7.000000,11.000000,9.000000
1305130.338165,0.000000,-21.000000,-19.000000,9.000000,12.000000,-5.000000,-12.000000,-6.000000
1305130.338695,-8.000000,-50.000000,11.000000,-16.000000,-13.000000,3.000000,-16.000000,-13.000000
1305130.338703,7.000000,86.000000,-3.000000,21.000000,21.000000,2.000000,-5.000000,-8.000000
1305130.352982,-9.000000,-15.000000,15.000000,-20.000000,-18.000000,-11.000000,-6.000000,0.000000
1305130.352994,4.000000,-15.000000,-6.000000,0.000000,-2.000000,12.000000,-26.000000,-6.000000
1305130.359752,6.000000,29.000000,1.000000,-4.000000,9.000000,15.000000,25.000000,-8.000000
1305130.359771,2.000000,-10.000000,-32.000000,-59.000000,-51.000000,1.000000,-24.000000,-13.000000
1305130.366805,4.000000,1.000000,14.000000,-3.000000,-13.000000,-28.000000,1.000000,-3.000000
1305130.366814,7.000000,-27.000000,23.000000,18.000000,46.000000,43.000000,21.000000,0.000000
1305130.397073,-7.000000,-15.000000,19.000000,8.000000,5.000000,-17.000000,-13.000000,-20.000000
1305130.397084,-11.000000,-10.000000,-42.000000,-17.000000,-9.000000,10.000000,-33.000000,-4.000000
1305130.419584,-42.000000,-2.000000,15.000000,-1.000000,-4.000000,-8.000000,9.000000,18.000000
1305130.419596,39.000000,-10.000000,-20.000000,0.000000,9.000000,-5.000000,3.000000,-5.000000
1305130.420166,0.000000,-28.000000,12.000000,34.000000,35.000000,0.000000,-8.000000,5.000000
1305130.420174,7.000000,13.000000,-26.000000,-37.000000,-42.000000,-1.000000,-8.000000,1.000000
1305130.421049,-6.000000,-7.000000,2.000000,4.000000,4.000000,-10.000000,-3.000000,8.000000
1305130.421056,-9.000000,-17.000000,17.000000,-23.000000,-10.000000,0.000000,-8.000000,-4.000000
1305130.421749,-35.000000,-26.000000,0.000000,13.000000,14.000000,-11.000000,-3.000000,-8.000000
1305130.421757,58.000000,18.000000,-36.000000,-3.000000,16.000000,1.000000,-27.000000,3.000000
1305130.435028,-7.000000,-27.000000,-38.000000,10.000000,14.000000,5.000000,11.000000,-4.000000
1305130.435065,-6.000000,19.000000,39.000000,-16.000000,-9.000000,18.000000,9.000000,1.000000
1305130.449433,-5.000000,16.000000,44.000000,-2.000000,-12.000000,-15.000000,6.000000,-3.000000
1305130.449451,5.000000,-24.000000,-10.000000,-10.000000,-8.000000,-9.000000,-36.000000,-24.000000
1305130.457426,18.000000,17.000000,15.000000,-34.000000,-39.000000,1.000000,46.000000,36.000000
1305130.457488,0.000000,-2.000000,-39.000000,10.000000,5.000000,-13.000000,34.000000,13.000000
1305130.458056,-15.000000,-36.000000,15.000000,13.000000,22.000000,-7.000000,-34.000000,-27.000000
1305130.458072,8.000000,-21.000000,36.000000,3.000000,-13.000000,15.000000,5.000000,15.000000
1305130.472311,3.000000,124.000000,1.000000,12.000000,7.000000,-13.000000,-37.000000,-2.000000
1305130.472324,-5.000000,-28.000000,23.000000,20.000000,44.000000,32.000000,60.000000,12.000000
1305130.479681,9.000000,7.000000,-26.000000,3.000000,2.000000,-11.000000,-15.000000,1.000000
1305130.479692,9.000000,-14.000000,-80.000000,-12.000000,-3.000000,3.000000,-17.000000,-17.000000
1305130.509545,2.000000,-3.000000,-30.000000,-26.000000,-10.000000,-8.000000,1.000000,4.000000
1305130.509555,-17.000000,-44.000000,-1.000000,-8.000000,6.000000,7.000000,-5.000000,-9.000000
1305130.517225,36.000000,32.000000,-17.000000,11.000000,24.000000,4.000000,0.000000,17.000000
1305130.517236,-21.000000,-71.000000,-8.000000,-1.000000,-9.000000,-10.000000,-3.000000,-8.000000
1305130.539484,-1.000000,40.000000,47.000000,6.000000,1.000000,-1.000000,2.000000,-1.000000
1305130.539494,-14.000000,-5.000000,14.000000,8.000000,-1.000000,-24.000000,-28.000000,1.000000
1305130.554786,-16.000000,19.000000,16.000000,4.000000,6.000000,16.000000,24.000000,-14.000000
1305130.554803,15.000000,-8.000000,-26.000000,4.000000,10.000000,10.000000,3.000000,19.000000
