# participant_id: P9
# gesture: medium
# trial_number: 2
# stream_name: Myo_EMG
# stream_type: emg
# timestamp: 20260420_155802
# samples: 5586
# duration_sec: 30.600
# nominal_sample_rate: 200.0
# effective_sample_rate: 182.52
#
timestamp,emg_1,emg_2,emg_3,emg_4,emg_5,emg_6,emg_7,emg_8
1305374.537811,34.000000,-4.000000,-8.000000,0.000000,0.000000,-40.000000,-6.000000,-12.000000
1305374.537860,-1.000000,22.000000,-68.000000,-1.000000,26.000000,6.000000,5.000000,2.000000
1305374.538456,-2.000000,10.000000,-19.000000,26.000000,8.000000,-10.000000,0.000000,2.000000
1305374.538465,0.000000,36.000000,107.000000,20.000000,-12.000000,20.000000,-1.000000,0.000000
1305374.539048,-2.000000,3.000000,17.000000,21.000000,34.000000,-1.000000,8.000000,4.000000
1305374.539057,1.000000,-37.000000,-38.000000,-28.000000,-11.000000,-12.000000,-21.000000,-21.000000
1305374.540270,3.000000,23.000000,6.000000,-9.000000,-12.000000,-6.000000,8.000000,-1.000000
1305374.540288,-10.000000,56.000000,32.000000,8.000000,28.000000,2.000000,4.000000,-6.000000
1305374.553056,-16.000000,7.000000,-26.000000,-5.000000,14.000000,6.000000,27.000000,18.000000
1305374.553065,58.000000,13.000000,52.000000,28.000000,41.000000,26.000000,17.000000,22.000000
1305374.559989,-9.000000,4.000000,-22.000000,-15.000000,-1.000000,-9.000000,-15.000000,-23.000000
1305374.559999,-9.000000,-13.000000,-28.000000,14.000000,37.000000,1.000000,7.000000,16.000000
1305374.597382,-53.000000,2.000000,43.000000,-13.000000,-30.000000,-7.000000,-5.000000,-16.000000
1305374.597392,59.000000,39.000000,19.000000,16.000000,0.000000,18.000000,21.000000,16.000000
1305374.612568,-7.000000,-53.000000,-62.000000,0.000000,9.000000,12.000000,-2.000000,-12.000000
1305374.612580,-27.000000,15.000000,19.000000,8.000000,19.000000,12.000000,6.000000,-12.000000
1305374.620958,-6.000000,2.000000,-35.000000,-38.000000,-13.000000,-3.000000,-9.000000,13.000000
1305374.621071,-5.000000,12.000000,32.000000,51.000000,5.000000,18.000000,23.000000,0.000000
1305374.621355,-8.000000,-5.000000,-65.000000,-42.000000,-33.000000,7.000000,22.000000,23.000000
1305374.621373,2.000000,19.000000,77.000000,12.000000,0.000000,-1.000000,7.000000,1.000000
1305374.634873,-1.000000,-9.000000,30.000000,-18.000000,-16.000000,6.000000,-6.000000,2.000000
1305374.634935,17.000000,-13.000000,-25.000000,2.000000,17.000000,19.000000,-3.000000,25.000000
1305374.635449,-2.000000,28.000000,23.000000,9.000000,2.000000,-2.000000,2.000000,-3.000000
1305374.635466,-10.000000,-22.000000,-10.000000,8.000000,15.000000,-8.000000,-13.000000,-2.000000
1305374.636699,-19.000000,28.000000,8.000000,34.000000,81.000000,15.000000,10.000000,-11.000000
1305374.636708,5.000000,-62.000000,-32.000000,-23.000000,-61.000000,-6.000000,1.000000,5.000000
1305374.642353,6.000000,-1.000000,-6.000000,2.000000,16.000000,4.000000,-7.000000,4.000000
1305374.642381,-31.000000,-35.000000,-15.000000,4.000000,23.000000,32.000000,3.000000,-17.000000
1305374.650336,22.000000,32.000000,10.000000,1.000000,4.000000,9.000000,8.000000,11.000000
1305374.650344,-4.000000,-18.000000,-46.000000,-1.000000,21.000000,-1.000000,-8.000000,6.000000
1305374.657667,-1.000000,-42.000000,26.000000,-2.000000,0.000000,-1.000000,-12.000000,-10.000000
1305374.657680,0.000000,15.000000,-19.000000,-7.000000,-1.000000,-18.000000,7.000000,6.000000
1305374.672466,-14.000000,4.000000,6.000000,-17.000000,14.000000,7.000000,-1.000000,-6.000000
1305374.672488,-4.000000,-3.000000,19.000000,10.000000,-71.000000,-7.000000,-5.000000,-4.000000
1305374.679930,-32.000000,-39.000000,-27.000000,-7.000000,7.000000,-2.000000,4.000000,7.000000
1305374.679940,56.000000,25.000000,18.000000,5.000000,-7.000000,7.000000,7.000000,32.000000
1305374.695138,-5.000000,-13.000000,-15.000000,-9.000000,-1.000000,-14.000000,-4.000000,-10.000000
1305374.695149,-31.000000,-1.000000,-96.000000,-11.000000,12.000000,16.000000,-17.000000,-31.000000
1305374.710073,29.000000,9.000000,-37.000000,-16.000000,-12.000000,11.000000,37.000000,61.000000
1305374.710086,15.000000,-7.000000,-17.000000,0.000000,4.000000,-12.000000,8.000000,-24.000000
1305374.724698,-6.000000,5.000000,4.000000,11.000000,13.000000,4.000000,9.000000,7.000000
1305374.724727,-18.000000,-7.000000,5.000000,26.000000,20.000000,19.000000,-19.000000,-12.000000
1305374.732096,-27.000000,-59.000000,-36.000000,-45.000000,-64.000000,-2.000000,0.000000,-3.000000
1305374.732106,-16.000000,-27.000000,-22.000000,-21.000000,-28.000000,-17.000000,-15.000000,-20.000000
1305374.733536,16.000000,-14.000000,-43.000000,-7.000000,16.000000,-1.000000,-9.000000,-8.000000
1305374.733544,-13.000000,10.000000,24.000000,-6.000000,-37.000000,13.000000,3.000000,1.000000
1305374.755107,-25.000000,-21.000000,47.000000,-16.000000,-74.000000,28.000000,9.000000,12.000000
1305374.755118,27.000000,11.000000,22.000000,19.000000,18.000000,-6.000000,-12.000000,2.000000
1305374.756157,-8.000000,-29.000000,42.000000,-23.000000,-49.000000,-1.000000,12.000000,-14.000000
1305374.756166,-23.000000,-6.000000,11.000000,10.000000,12.000000,8.000000,-9.000000,-13.000000
1305374.769823,17.000000,-15.000000,11.000000,34.000000,39.000000,28.000000,-15.000000,9.000000
1305374.769841,19.000000,8.000000,-36.000000,-17.000000,0.000000,8.000000,18.000000,31.000000
1305374.770985,-5.000000,-5.000000,-38.000000,-26.000000,-18.000000,2.000000,-3.000000,-18.000000
1305374.770995,4.000000,12.000000,4.000000,14.000000,31.000000,17.000000,1.000000,-3.000000
1305374.777237,-16.000000,-19.000000,-25.000000,38.000000,16.000000,6.000000,-22.000000,-25.000000
1305374.777251,3.000000,25.000000,3.000000,-16.000000,12.000000,1.000000,35.000000,34.000000
1305374.815042,20.000000,14.000000,-11.000000,9.000000,11.000000,22.000000,-3.000000,-17.000000
1305374.815054,-32.000000,-32.000000,5.000000,-11.000000,-8.000000,-19.000000,-17.000000,-16.000000
1305374.829966,-3.000000,-10.000000,3.000000,-30.000000,-32.000000,-31.000000,-15.000000,-7.000000
1305374.829976,-15.000000,-1.000000,-18.000000,28.000000,4.000000,3.000000,3.000000,-14.000000
1305374.845189,-22.000000,-4.000000,35.000000,-7.000000,-33.000000,8.000000,12.000000,7.000000
1305374.845202,12.000000,-4.000000,16.000000,16.000000,11.000000,-14.000000,-6.000000,-4.000000
1305374.852537,15.000000,-2.000000,-31.000000,-7.000000,6.000000,9.000000,2.000000,13.000000
1305374.852550,2.000000,23.000000,-12.000000,-8.000000,-6.000000,0.000000,-21.000000,-18.000000
1305374.875224,-24.000000,-14.000000,-41.000000,-12.000000,1.000000,-13.000000,1.000000,-6.000000
1305374.875244,-24.000000,-13.000000,50.000000,9.000000,19.000000,-6.000000,-7.000000,-7.000000
1305374.875896,33.000000,31.000000,64.000000,16.000000,8.000000,31.000000,-4.000000,6.000000
1305374.875908,-4.000000,-12.000000,-22.000000,-7.000000,1.000000,-15.000000,-2.000000,3.000000
1305374.877142,-12.000000,-8.000000,-43.000000,2.000000,53.000000,10.000000,-3.000000,6.000000
1305374.877152,-32.000000,9.000000,-2.000000,-2.000000,-24.000000,6.000000,4.000000,17.000000
1305374.877801,14.000000,-29.000000,-61.000000,1.000000,3.000000,22.000000,7.000000,0.000000
1305374.877810,27.000000,-1.000000,-8.000000,13.000000,17.000000,9.000000,2.000000,8.000000
1305374.889770,-55.000000,-19.000000,54.000000,30.000000,17.000000,-2.000000,-13.000000,1.000000
1305374.889781,42.000000,29.000000,5.000000,-21.000000,-9.000000,-8.000000,-24.000000,-14.000000
1305374.891046,-27.000000,-24.000000,13.000000,10.000000,-28.000000,-32.000000,-6.000000,-14.000000
1305374.891054,-4.000000,-6.000000,-72.000000,-14.000000,9.000000,-7.000000,-12.000000,0.000000
1305374.897566,-6.000000,9.000000,0.000000,13.000000,34.000000,7.000000,-26.000000,-8.000000
1305374.897578,-3.000000,-18.000000,27.000000,9.000000,32.000000,-4.000000,-7.000000,-19.000000
1305374.919801,12.000000,24.000000,18.000000,9.000000,5.000000,5.000000,9.000000,24.000000
1305374.919820,-40.000000,-11.000000,-83.000000,6.000000,26.000000,12.000000,-13.000000,-15.000000
1305374.927317,35.000000,22.000000,17.000000,-8.000000,-20.000000,8.000000,13.000000,15.000000
1305374.927345,-32.000000,-19.000000,-26.000000,17.000000,20.000000,2.000000,8.000000,-5.000000
1305374.950100,-4.000000,23.000000,11.000000,-26.000000,-17.000000,2.000000,-12.000000,-12.000000
1305374.950111,12.000000,2.000000,-27.000000,-6.000000,3.000000,-1.000000,-10.000000,-6.000000
1305374.957350,-36.000000,-29.000000,-38.000000,-3.000000,-8.000000,-23.000000,13.000000,1.000000
1305374.957369,16.000000,0.000000,-15.000000,-23.000000,-58.000000,10.000000,3.000000,15.000000
1305374.965247,-6.000000,-4.000000,42.000000,21.000000,28.000000,-1.000000,-8.000000,-33.000000
1305374.965276,-1.000000,-1.000000,41.000000,23.000000,31.000000,-4.000000,-31.000000,-5.000000
1305374.965853,6.000000,19.000000,-10.000000,-20.000000,-26.000000,13.000000,-1.000000,-1.000000
1305374.965880,-26.000000,3.000000,6.000000,0.000000,4.000000,-5.000000,-11.000000,-5.000000
1305374.972177,33.000000,-2.000000,37.000000,20.000000,15.000000,26.000000,2.000000,12.000000
1305374.972204,1.000000,45.000000,-20.000000,-27.000000,-27.000000,-9.000000,-2.000000,7.000000
1305374.987538,-1.000000,-27.000000,-12.000000,12.000000,3.000000,8.000000,7.000000,18.000000
1305374.987550,-7.000000,-16.000000,0.000000,-2.000000,-45.000000,-19.000000,-12.000000,-14.000000
1305374.995043,2.000000,21.000000,-12.000000,-5.000000,-10.000000,-11.000000,2.000000,0.000000
1305374.995055,-10.000000,-1.000000,46.000000,14.000000,-23.000000,-14.000000,-15.000000,-6.000000
1305375.002468,-15.000000,7.000000,-95.000000,-42.000000,-42.000000,-24.000000,-33.000000,-26.000000
1305375.002486,26.000000,19.000000,87.000000,40.000000,46.000000,1.000000,38.000000,43.000000
1305375.010416,-7.000000,8.000000,-38.000000,-13.000000,-2.000000,-10.000000,-13.000000,-14.000000
1305375.010426,-6.000000,6.000000,9.000000,6.000000,8.000000,-4.000000,-4.000000,-2.000000
1305375.032566,-25.000000,-48.000000,-52.000000,16.000000,29.000000,-17.000000,-19.000000,-1.000000
1305375.032577,35.000000,17.000000,23.000000,-3.000000,-40.000000,6.000000,4.000000,10.000000
1305375.054735,-13.000000,19.000000,5.000000,-18.000000,-27.000000,-33.000000,32.000000,1.000000
1305375.054764,-15.000000,15.000000,21.000000,-2.000000,41.000000,-10.000000,-1.000000,-6.000000
1305375.070081,-10.000000,-42.000000,-11.000000,5.000000,-2.000000,0.000000,9.000000,-7.000000
1305375.070092,2.000000,1.000000,18.000000,8.000000,8.000000,-16.000000,-22.000000,-20.000000
1305375.107418,0.000000,-31.000000,8.000000,20.000000,-14.000000,5.000000,18.000000,16.000000
1305375.107429,11.000000,-18.000000,-106.000000,-40.000000,-12.000000,-2.000000,-7.000000,-8.000000
1305375.129989,-17.000000,16.000000,66.000000,25.000000,-5.000000,-14.000000,-9.000000,-5.000000
1305375.130000,34.000000,35.000000,-36.000000,-15.000000,5.000000,30.000000,12.000000,19.000000
1305375.130926,-4.000000,-11.000000,-60.000000,-14.000000,26.000000,13.000000,-5.000000,8.000000
1305375.130935,-3.000000,-4.000000,40.000000,-3.000000,-21.000000,-23.000000,-26.000000,-10.000000
1305375.131588,-8.000000,9.000000,-5.000000,-3.000000,-4.000000,2.000000,29.000000,15.000000
1305375.131597,-6.000000,4.000000,-24.000000,7.000000,6.000000,-3.000000,15.000000,14.000000
1305375.133782,11.000000,18.000000,30.000000,1.000000,-20.000000,-10.000000,-9.000000,1.000000
1305375.133792,-22.000000,-4.000000,-24.000000,-30.000000,-40.000000,-34.000000,-18.000000,-13.000000
1305375.144819,7.000000,-3.000000,32.000000,28.000000,-7.000000,16.000000,-4.000000,4.000000
1305375.144848,-20.000000,-3.000000,-128.000000,-51.000000,24.000000,12.000000,11.000000,3.000000
1305375.175124,41.000000,-29.000000,93.000000,20.000000,26.000000,20.000000,-6.000000,-1.000000
1305375.175135,13.000000,2.000000,-11.000000,5.000000,-14.000000,-3.000000,-3.000000,-3.000000
1305375.190084,-10.000000,21.000000,-21.000000,15.000000,44.000000,3.000000,13.000000,-4.000000
1305375.190095,-25.000000,-59.000000,-1.000000,5.000000,-6.000000,2.000000,-18.000000,-16.000000
1305375.204876,0.000000,-5.000000,-14.000000,-2.000000,-19.000000,-27.000000,5.000000,8.000000
1305375.204894,-4.000000,-2.000000,12.000000,7.000000,11.000000,-1.000000,-18.000000,-14.000000
1305375.212524,-1.000000,13.000000,-16.000000,-13.000000,-1.000000,7.000000,-13.000000,0.000000
1305375.212625,0.000000,7.000000,92.000000,17.000000,-5.000000,-4.000000,-15.000000,-12.000000
1305375.213507,-10.000000,-6.000000,-24.000000,-2.000000,18.000000,4.000000,16.000000,15.000000
1305375.213518,-19.000000,-10.000000,-27.000000,10.000000,51.000000,5.000000,-15.000000,-28.000000
1305375.214170,-5.000000,5.000000,97.000000,16.000000,-6.000000,16.000000,9.000000,36.000000
1305375.214180,53.000000,18.000000,17.000000,2.000000,-8.000000,-16.000000,-1.000000,10.000000
1305375.215624,-18.000000,-43.000000,-60.000000,-3.000000,36.000000,6.000000,-2.000000,-16.000000
1305375.215634,1.000000,46.000000,-9.000000,-11.000000,-13.000000,3.000000,-2.000000,2.000000
1305375.227297,-35.000000,-81.000000,-64.000000,-6.000000,-5.000000,-5.000000,26.000000,1.000000
1305375.227308,-5.000000,-4.000000,25.000000,-2.000000,-7.000000,8.000000,-3.000000,0.000000
1305375.234943,13.000000,3.000000,14.000000,9.000000,3.000000,-4.000000,10.000000,2.000000
1305375.234960,-4.000000,6.000000,-27.000000,-12.000000,2.000000,-19.000000,-2.000000,-5.000000
1305375.242436,-4.000000,7.000000,19.000000,-2.000000,-14.000000,-8.000000,-24.000000,-13.000000
1305375.242456,-26.000000,-48.000000,-8.000000,15.000000,60.000000,-5.000000,-1.000000,-15.000000
1305375.250399,14.000000,75.000000,22.000000,-12.000000,-53.000000,10.000000,3.000000,-6.000000
1305375.250409,34.000000,14.000000,14.000000,8.000000,25.000000,10.000000,14.000000,23.000000
1305375.265111,-29.000000,-6.000000,-1.000000,-1.000000,-2.000000,-4.000000,-12.000000,-16.000000
1305375.265122,4.000000,0.000000,-3.000000,-12.000000,-16.000000,4.000000,11.000000,9.000000
1305375.279875,-5.000000,37.000000,23.000000,19.000000,24.000000,-1.000000,-22.000000,-15.000000
1305375.279904,-20.000000,-67.000000,-122.000000,-36.000000,-3.000000,10.000000,-3.000000,-7.000000
1305375.287433,12.000000,79.000000,127.000000,25.000000,9.000000,-2.000000,-9.000000,-7.000000
1305375.287453,-13.000000,-5.000000,-3.000000,-14.000000,-37.000000,-8.000000,0.000000,-10.000000
1305375.317650,9.000000,3.000000,-40.000000,-19.000000,-1.000000,-5.000000,3.000000,19.000000
1305375.317680,-10.000000,-9.000000,31.000000,2.000000,-7.000000,-1.000000,-2.000000,2.000000
1305375.324818,-10.000000,-4.000000,6.000000,-36.000000,-47.000000,8.000000,21.000000,31.000000
1305375.324839,28.000000,-14.000000,-19.000000,-3.000000,-4.000000,6.000000,7.000000,7.000000
1305375.325848,-2.000000,6.000000,35.000000,7.000000,3.000000,22.000000,-8.000000,-15.000000
1305375.325857,-22.000000,11.000000,1.000000,7.000000,26.000000,-3.000000,4.000000,-5.000000
1305375.326543,-2.000000,-32.000000,-34.000000,-7.000000,-12.000000,-13.000000,-10.000000,-7.000000
1305375.326552,-15.000000,4.000000,-11.000000,-9.000000,2.000000,-10.000000,5.000000,-10.000000
1305375.347420,14.000000,36.000000,101.000000,47.000000,14.000000,4.000000,-1.000000,-7.000000
1305375.347429,9.000000,-25.000000,-4.000000,-46.000000,-79.000000,-33.000000,4.000000,-4.000000
1305375.347903,-34.000000,-47.000000,-54.000000,-5.000000,4.000000,1.000000,16.000000,-11.000000
1305375.347911,30.000000,12.000000,53.000000,2.000000,-8.000000,-25.000000,-16.000000,-3.000000
1305375.370421,-24.000000,-14.000000,9.000000,-8.000000,2.000000,-14.000000,-10.000000,-16.000000
1305375.370466,14.000000,5.000000,-12.000000,-1.000000,0.000000,9.000000,10.000000,5.000000
1305375.370644,-14.000000,-21.000000,6.000000,-7.000000,-36.000000,5.000000,-13.000000,-19.000000
1305375.370671,-71.000000,-42.000000,-54.000000,2.000000,26.000000,0.000000,-11.000000,-27.000000
1305375.371611,87.000000,-22.000000,18.000000,14.000000,0.000000,6.000000,31.000000,45.000000
1305375.371638,-23.000000,-7.000000,-65.000000,-17.000000,-21.000000,-10.000000,-16.000000,-29.000000
1305375.384955,-6.000000,34.000000,60.000000,-5.000000,3.000000,-5.000000,0.000000,-3.000000
1305375.384966,-9.000000,-12.000000,23.000000,-7.000000,-25.000000,-39.000000,-16.000000,-14.000000
1305375.399895,-10.000000,15.000000,119.000000,34.000000,31.000000,4.000000,14.000000,18.000000
1305375.399906,8.000000,16.000000,-6.000000,14.000000,49.000000,16.000000,-15.000000,-23.000000
1305375.407547,-11.000000,-9.000000,-3.000000,0.000000,-2.000000,-13.000000,6.000000,4.000000
1305375.407558,30.000000,23.000000,67.000000,13.000000,4.000000,6.000000,-10.000000,-6.000000
1305375.444960,-9.000000,32.000000,28.000000,7.000000,-34.000000,-14.000000,-6.000000,-10.000000
1305375.444972,-28.000000,-24.000000,-36.000000,-12.000000,25.000000,1.000000,-9.000000,-16.000000
1305375.452599,0.000000,-2.000000,13.000000,5.000000,37.000000,-21.000000,-9.000000,-19.000000
1305375.452613,12.000000,-7.000000,-26.000000,-23.000000,-38.000000,9.000000,13.000000,19.000000
1305375.453436,-30.000000,-25.000000,-20.000000,-1.000000,-3.000000,-15.000000,1.000000,-7.000000
1305375.453444,18.000000,22.000000,6.000000,-5.000000,-24.000000,-34.000000,-9.000000,-1.000000
1305375.453995,-5.000000,0.000000,27.000000,-4.000000,1.000000,14.000000,33.000000,15.000000
1305375.454003,0.000000,8.000000,44.000000,8.000000,3.000000,2.000000,-9.000000,-12.000000
1305375.456081,-2.000000,10.000000,4.000000,-4.000000,-20.000000,1.000000,-32.000000,-36.000000
1305375.456093,1.000000,-8.000000,-32.000000,-7.000000,4.000000,11.000000,12.000000,8.000000
1305375.467165,-8.000000,2.000000,-5.000000,27.000000,33.000000,-5.000000,-13.000000,3.000000
1305375.467175,11.000000,0.000000,28.000000,-29.000000,-70.000000,0.000000,-28.000000,-27.000000
1305375.474958,13.000000,43.000000,-21.000000,-4.000000,19.000000,16.000000,63.000000,40.000000
1305375.474978,-11.000000,-1.000000,16.000000,17.000000,33.000000,-1.000000,-14.000000,-3.000000
1305375.490015,-9.000000,-22.000000,-25.000000,-5.000000,-12.000000,-16.000000,-5.000000,-15.000000
1305375.490026,21.000000,27.000000,-52.000000,17.000000,73.000000,48.000000,-8.000000,-6.000000
1305375.491100,5.000000,-9.000000,16.000000,-5.000000,-61.000000,-25.000000,2.000000,9.000000
1305375.491108,-4.000000,-37.000000,-100.000000,-52.000000,-53.000000,9.000000,10.000000,-1.000000
1305375.504896,-58.000000,-12.000000,41.000000,-5.000000,-15.000000,-24.000000,-18.000000,-31.000000
1305375.504907,31.000000,2.000000,30.000000,21.000000,48.000000,2.000000,13.000000,41.000000
1305375.519907,-4.000000,4.000000,3.000000,-7.000000,-27.000000,-8.000000,11.000000,-9.000000
1305375.519921,-10.000000,-10.000000,-21.000000,10.000000,26.000000,-10.000000,-10.000000,-10.000000
1305375.527372,-17.000000,-17.000000,-18.000000,-13.000000,-2.000000,1.000000,7.000000,-4.000000
1305375.527398,-11.000000,-30.000000,-18.000000,5.000000,22.000000,-3.000000,-8.000000,-15.000000
1305375.550129,2.000000,20.000000,16.000000,2.000000,-7.000000,22.000000,5.000000,13.000000
1305375.550142,-10.000000,8.000000,25.000000,17.000000,27.000000,3.000000,-6.000000,6.000000
1305375.564857,-17.000000,7.000000,-60.000000,6.000000,21.000000,-12.000000,-21.000000,-4.000000
1305375.564867,38.000000,28.000000,127.000000,33.000000,1.000000,7.000000,0.000000,-12.000000
1305375.602651,42.000000,35.000000,44.000000,-7.000000,6.000000,3.000000,11.000000,20.000000
1305375.602753,-17.000000,-31.000000,-43.000000,-20.000000,-14.000000,1.000000,10.000000,0.000000
1305375.603121,-12.000000,-1.000000,56.000000,2.000000,-21.000000,-17.000000,6.000000,6.000000
1305375.603152,-28.000000,-14.000000,-21.000000,-3.000000,26.000000,19.000000,-8.000000,-6.000000
1305375.604327,8.000000,7.000000,47.000000,9.000000,11.000000,17.000000,9.000000,-7.000000
1305375.604336,10.000000,12.000000,-2.000000,4.000000,2.000000,-24.000000,-58.000000,-11.000000
1305375.604690,-19.000000,-45.000000,-58.000000,-9.000000,-11.000000,25.000000,32.000000,28.000000
1305375.604717,27.000000,70.000000,57.000000,11.000000,12.000000,16.000000,30.000000,9.000000
1305375.606424,58.000000,-20.000000,-34.000000,3.000000,45.000000,53.000000,22.000000,39.000000
1305375.606440,-25.000000,-21.000000,-1.000000,-1.000000,-12.000000,-22.000000,-9.000000,5.000000
1305375.610882,-33.000000,-15.000000,-11.000000,20.000000,-16.000000,-9.000000,11.000000,-10.000000
1305375.610898,17.000000,17.000000,38.000000,-3.000000,6.000000,2.000000,6.000000,11.000000
1305375.625079,-15.000000,-27.000000,-37.000000,3.000000,3.000000,-1.000000,-12.000000,-7.000000
1305375.625108,26.000000,71.000000,-22.000000,-3.000000,18.000000,-4.000000,4.000000,12.000000
1305375.647470,-3.000000,-5.000000,-21.000000,-13.000000,-27.000000,6.000000,0.000000,-1.000000
1305375.647479,-4.000000,11.000000,21.000000,28.000000,21.000000,6.000000,0.000000,-9.000000
1305375.662650,-3.000000,-11.000000,-29.000000,-12.000000,16.000000,16.000000,0.000000,-11.000000
1305375.662690,-5.000000,13.000000,-29.000000,-1.000000,-3.000000,-27.000000,2.000000,7.000000
1305375.677986,-11.000000,-10.000000,-4.000000,-11.000000,4.000000,8.000000,-11.000000,-23.000000
1305375.678027,11.000000,-34.000000,-2.000000,23.000000,49.000000,7.000000,20.000000,31.000000
1305375.678216,-13.000000,-4.000000,-86.000000,-28.000000,-46.000000,-8.000000,0.000000,1.000000
1305375.678236,-20.000000,0.000000,21.000000,3.000000,9.000000,13.000000,-10.000000,-16.000000
1305375.679375,-8.000000,-7.000000,-23.000000,-3.000000,20.000000,-7.000000,-13.000000,-22.000000
1305375.679402,4.000000,-7.000000,0.000000,-17.000000,-31.000000,-12.000000,-39.000000,-15.000000
1305375.684857,-10.000000,3.000000,-18.000000,1.000000,13.000000,-20.000000,8.000000,11.000000
1305375.684886,29.000000,58.000000,54.000000,-8.000000,-52.000000,23.000000,7.000000,7.000000
1305375.722361,-4.000000,-62.000000,20.000000,-1.000000,-6.000000,-4.000000,12.000000,8.000000
1305375.722392,-6.000000,4.000000,15.000000,13.000000,7.000000,4.000000,1.000000,6.000000
1305375.722978,-5.000000,-7.000000,-40.000000,4.000000,26.000000,-6.000000,15.000000,6.000000
1305375.723036,18.000000,21.000000,102.000000,7.000000,-13.000000,-3.000000,6.000000,44.000000
1305375.724145,-5.000000,-31.000000,11.000000,31.000000,37.000000,24.000000,18.000000,25.000000
1305375.724173,31.000000,14.000000,-11.000000,-13.000000,-4.000000,-7.000000,-2.000000,0.000000
1305375.725031,-15.000000,-11.000000,11.000000,-14.000000,-54.000000,-1.000000,-2.000000,-12.000000
1305375.725058,4.000000,-12.000000,-36.000000,-4.000000,21.000000,14.000000,-4.000000,-5.000000
1305375.730431,-20.000000,3.000000,19.000000,-3.000000,2.000000,-7.000000,-5.000000,-14.000000
1305375.730440,44.000000,31.000000,21.000000,-6.000000,-29.000000,18.000000,23.000000,35.000000
1305375.745498,-19.000000,-2.000000,20.000000,2.000000,6.000000,-17.000000,6.000000,1.000000
1305375.745508,-16.000000,19.000000,26.000000,-2.000000,0.000000,-5.000000,-14.000000,-19.000000
1305375.767339,1.000000,0.000000,2.000000,9.000000,23.000000,14.000000,-1.000000,0.000000
1305375.767349,-13.000000,-13.000000,16.000000,-8.000000,-32.000000,-11.000000,-3.000000,-12.000000
1305375.782657,26.000000,-36.000000,-17.000000,4.000000,4.000000,-3.000000,14.000000,27.000000
1305375.782670,10.000000,25.000000,80.000000,12.000000,5.000000,-8.000000,30.000000,46.000000
1305375.797696,-38.000000,-23.000000,-74.000000,-37.000000,-25.000000,-8.000000,-1.000000,-30.000000
1305375.797714,34.000000,63.000000,127.000000,56.000000,-17.000000,-7.000000,1.000000,3.000000
1305375.804896,-1.000000,-26.000000,-7.000000,-41.000000,-14.000000,4.000000,-2.000000,-11.000000
1305375.804911,11.000000,-19.000000,-20.000000,11.000000,24.000000,-13.000000,-7.000000,-2.000000
1305375.820507,2.000000,-13.000000,-17.000000,-2.000000,2.000000,16.000000,-6.000000,1.000000
1305375.820516,-15.000000,-8.000000,17.000000,-9.000000,-18.000000,-33.000000,18.000000,-9.000000
1305375.821064,0.000000,1.000000,21.000000,5.000000,8.000000,0.000000,-15.000000,-4.000000
1305375.821071,-1.000000,40.000000,-18.000000,18.000000,57.000000,1.000000,-13.000000,-17.000000
1305375.822077,14.000000,-2.000000,8.000000,8.000000,3.000000,13.000000,16.000000,5.000000
1305375.822205,11.000000,21.000000,3.000000,-32.000000,-53.000000,-6.000000,0.000000,-8.000000
1305375.823289,-17.000000,-11.000000,33.000000,1.000000,18.000000,1.000000,-15.000000,-34.000000
1305375.823300,-4.000000,-11.000000,-55.000000,-24.000000,-35.000000,-13.000000,-1.000000,2.000000
1305375.834895,-6.000000,-16.000000,123.000000,28.000000,11.000000,19.000000,2.000000,5.000000
1305375.834906,9.000000,52.000000,14.000000,21.000000,23.000000,4.000000,-5.000000,-25.000000
1305375.842411,-3.000000,-44.000000,-30.000000,-30.000000,-41.000000,-22.000000,-7.000000,1.000000
1305375.842421,-20.000000,-22.000000,14.000000,17.000000,19.000000,-10.000000,-19.000000,-12.000000
1305375.880236,-3.000000,-14.000000,-46.000000,-55.000000,-92.000000,-64.000000,-25.000000,-22.000000
1305375.880247,3.000000,8.000000,3.000000,-10.000000,-30.000000,11.000000,12.000000,-1.000000
1305375.887339,1.000000,9.000000,-63.000000,-1.000000,14.000000,-1.000000,-13.000000,-6.000000
1305375.887349,-23.000000,-22.000000,56.000000,12.000000,9.000000,2.000000,-14.000000,-24.000000
1305375.910245,6.000000,6.000000,-26.000000,-2.000000,8.000000,9.000000,5.000000,22.000000
1305375.910257,-23.000000,-5.000000,5.000000,15.000000,20.000000,7.000000,8.000000,-7.000000
1305375.925108,-1.000000,-22.000000,-7.000000,-25.000000,-17.000000,-10.000000,-18.000000,-6.000000
1305375.925122,3.000000,-47.000000,14.000000,-12.000000,-34.000000,7.000000,-1.000000,-3.000000
1305375.926143,-3.000000,30.000000,38.000000,20.000000,41.000000,23.000000,-4.000000,-6.000000
1305375.926154,3.000000,-15.000000,-26.000000,13.000000,-8.000000,-10.000000,2.000000,6.000000
1305375.926613,-32.000000,-22.000000,-102.000000,-43.000000,2.000000,17.000000,-11.000000,-11.000000
1305375.926623,23.000000,-31.000000,3.000000,-6.000000,-23.000000,-25.000000,-15.000000,0.000000
1305375.928022,-12.000000,-14.000000,-59.000000,-23.000000,-13.000000,-4.000000,-11.000000,-7.000000
1305375.928037,23.000000,26.000000,35.000000,22.000000,25.000000,8.000000,-1.000000,19.000000
1305375.929002,-26.000000,3.000000,38.000000,11.000000,21.000000,13.000000,-15.000000,-22.000000
1305375.929012,12.000000,-10.000000,-6.000000,9.000000,-9.000000,11.000000,14.000000,21.000000
1305375.939938,-32.000000,-16.000000,-109.000000,-9.000000,22.000000,-9.000000,-13.000000,-3.000000
1305375.939947,24.000000,58.000000,44.000000,4.000000,4.000000,18.000000,33.000000,32.000000
1305375.947390,-1.000000,-7.000000,-19.000000,3.000000,12.000000,-2.000000,-13.000000,0.000000
1305375.947422,0.000000,29.000000,-75.000000,-29.000000,27.000000,7.000000,-5.000000,3.000000
1305375.954789,-5.000000,-38.000000,-26.000000,-26.000000,-61.000000,-24.000000,12.000000,0.000000
1305375.954807,0.000000,-7.000000,5.000000,-4.000000,7.000000,0.000000,11.000000,3.000000
1305375.962437,4.000000,18.000000,65.000000,15.000000,-20.000000,-31.000000,-4.000000,2.000000
1305375.962447,-13.000000,11.000000,84.000000,28.000000,25.000000,-9.000000,0.000000,-1.000000
1305376.007525,44.000000,-39.000000,-27.000000,-11.000000,-2.000000,5.000000,8.000000,6.000000
1305376.007536,-12.000000,9.000000,-10.000000,-11.000000,-1.000000,-8.000000,-7.000000,-12.000000
1305376.022401,-5.000000,-25.000000,-36.000000,-2.000000,4.000000,-6.000000,1.000000,-5.000000
1305376.022411,-11.000000,-11.000000,-23.000000,-25.000000,-40.000000,15.000000,-6.000000,-6.000000
1305376.037821,9.000000,29.000000,19.000000,-1.000000,3.000000,-3.000000,3.000000,17.000000
1305376.037833,-17.000000,-9.000000,-7.000000,-3.000000,-8.000000,-5.000000,-12.000000,-18.000000
1305376.038383,-8.000000,-2.000000,-25.000000,11.000000,22.000000,-1.000000,8.000000,-3.000000
1305376.038460,30.000000,24.000000,-12.000000,-18.000000,-21.000000,1.000000,-10.000000,-1.000000
1305376.044842,-3.000000,-5.000000,-24.000000,-1.000000,-8.000000,-1.000000,-10.000000,-21.000000
1305376.044853,-5.000000,-22.000000,37.000000,-19.000000,-76.000000,-5.000000,7.000000,-14.000000
1305376.045300,-24.000000,15.000000,-36.000000,10.000000,18.000000,11.000000,-22.000000,-24.000000
1305376.045309,-32.000000,-13.000000,5.000000,0.000000,8.000000,5.000000,-10.000000,-1.000000
1305376.045773,44.000000,9.000000,-20.000000,-16.000000,5.000000,1.000000,21.000000,32.000000
1305376.045781,-1.000000,-2.000000,10.000000,10.000000,20.000000,-3.000000,2.000000,3.000000
1305376.046391,-49.000000,-26.000000,9.000000,-6.000000,-2.000000,-39.000000,0.000000,-21.000000
1305376.046399,33.000000,49.000000,21.000000,2.000000,22.000000,32.000000,24.000000,11.000000
1305376.060217,-2.000000,-21.000000,-69.000000,-20.000000,-36.000000,-5.000000,-3.000000,-4.000000
1305376.060227,-32.000000,-28.000000,-40.000000,-32.000000,-54.000000,-19.000000,3.000000,-6.000000
1305376.067463,0.000000,-5.000000,-15.000000,12.000000,-9.000000,-24.000000,-58.000000,-36.000000
1305376.067476,-11.000000,13.000000,-25.000000,14.000000,29.000000,9.000000,26.000000,15.000000
1305376.082877,22.000000,-21.000000,-15.000000,-16.000000,-40.000000,-2.000000,23.000000,10.000000
1305376.082894,-11.000000,0.000000,8.000000,4.000000,8.000000,-12.000000,-14.000000,-12.000000
1305376.083536,-6.000000,-44.000000,-44.000000,-21.000000,-44.000000,-26.000000,11.000000,8.000000
1305376.083546,-11.000000,41.000000,82.000000,17.000000,-17.000000,-6.000000,-15.000000,-15.000000
1305376.105111,-31.000000,-20.000000,-10.000000,-10.000000,9.000000,-8.000000,-31.000000,-14.000000
1305376.105123,36.000000,18.000000,65.000000,14.000000,-1.000000,1.000000,6.000000,9.000000
1305376.112917,-9.000000,-3.000000,-27.000000,-2.000000,-9.000000,7.000000,-4.000000,-9.000000
1305376.112927,-22.000000,7.000000,-26.000000,26.000000,37.000000,8.000000,-11.000000,-1.000000
1305376.142383,-26.000000,-53.000000,-43.000000,-7.000000,34.000000,22.000000,3.000000,-4.000000
1305376.142412,39.000000,30.000000,-43.000000,-19.000000,1.000000,-12.000000,4.000000,19.000000
1305376.157390,-14.000000,-15.000000,32.000000,18.000000,25.000000,7.000000,-1.000000,-12.000000
1305376.157400,-11.000000,24.000000,41.000000,-3.000000,-25.000000,-4.000000,-13.000000,-12.000000
1305376.165487,0.000000,-7.000000,-3.000000,14.000000,53.000000,-7.000000,-8.000000,-3.000000
1305376.165496,-9.000000,-11.000000,3.000000,-20.000000,-26.000000,-25.000000,3.000000,-10.000000
1305376.165842,-8.000000,-30.000000,-13.000000,-1.000000,-5.000000,2.000000,13.000000,32.000000
1305376.165872,18.000000,-3.000000,-11.000000,5.000000,23.000000,11.000000,15.000000,25.000000
1305376.167228,-3.000000,35.000000,95.000000,14.000000,-18.000000,-8.000000,-24.000000,-8.000000
1305376.167255,7.000000,23.000000,11.000000,-5.000000,12.000000,1.000000,7.000000,11.000000
1305376.168035,-12.000000,-14.000000,-8.000000,-1.000000,-39.000000,-2.000000,13.000000,3.000000
1305376.168042,-9.000000,7.000000,39.000000,25.000000,37.000000,4.000000,-1.000000,-3.000000
1305376.179848,3.000000,-40.000000,-44.000000,-12.000000,-14.000000,3.000000,-32.000000,-23.000000
1305376.179866,14.000000,44.000000,-19.000000,10.000000,14.000000,-2.000000,19.000000,34.000000
1305376.187082,13.000000,11.000000,37.000000,-2.000000,-13.000000,5.000000,5.000000,22.000000
1305376.187110,-15.000000,1.000000,-41.000000,1.000000,10.000000,5.000000,2.000000,-12.000000
1305376.202482,-12.000000,-25.000000,-7.000000,2.000000,5.000000,-6.000000,7.000000,-6.000000
1305376.202493,-15.000000,-33.000000,1.000000,-4.000000,1.000000,-11.000000,-9.000000,-6.000000
1305376.217353,-1.000000,-12.000000,-40.000000,6.000000,11.000000,-1.000000,-17.000000,-6.000000
1305376.217364,-6.000000,19.000000,-3.000000,-10.000000,20.000000,-10.000000,-16.000000,-23.000000
1305376.232236,27.000000,20.000000,33.000000,-26.000000,-87.000000,44.000000,29.000000,39.000000
1305376.232246,-6.000000,16.000000,-51.000000,-6.000000,14.000000,-8.000000,-12.000000,-8.000000
1305376.262257,-2.000000,2.000000,25.000000,17.000000,15.000000,-2.000000,-11.000000,-2.000000
1305376.262301,-1.000000,-9.000000,13.000000,-22.000000,-23.000000,2.000000,4.000000,4.000000
1305376.263404,-24.000000,5.000000,-16.000000,6.000000,4.000000,14.000000,17.000000,-6.000000
1305376.263413,39.000000,38.000000,15.000000,14.000000,6.000000,2.000000,3.000000,6.000000
1305376.264101,4.000000,-18.000000,-45.000000,-12.000000,-3.000000,11.000000,-1.000000,4.000000
1305376.264108,-11.000000,-5.000000,40.000000,37.000000,33.000000,12.000000,13.000000,8.000000
1305376.265338,-10.000000,-9.000000,-31.000000,-30.000000,-33.000000,6.000000,7.000000,9.000000
1305376.265352,4.000000,-5.000000,-25.000000,-21.000000,-16.000000,-16.000000,0.000000,-8.000000
1305376.266048,-23.000000,-25.000000,47.000000,34.000000,44.000000,-3.000000,-9.000000,-9.000000
1305376.266057,7.000000,45.000000,55.000000,6.000000,-19.000000,2.000000,11.000000,6.000000
1305376.277565,4.000000,5.000000,-47.000000,9.000000,25.000000,35.000000,7.000000,-15.000000
1305376.277592,5.000000,-5.000000,-38.000000,-2.000000,-20.000000,-18.000000,-5.000000,0.000000
1305376.284672,-5.000000,-1.000000,14.000000,4.000000,18.000000,5.000000,9.000000,1.000000
1305376.284701,-7.000000,-24.000000,-40.000000,-10.000000,-10.000000,10.000000,7.000000,22.000000
1305376.300010,-9.000000,-14.000000,7.000000,-1.000000,-15.000000,-19.000000,4.000000,4.000000
1305376.300021,20.000000,-6.000000,31.000000,18.000000,14.000000,-27.000000,-26.000000,-1.000000
1305376.307191,13.000000,24.000000,-54.000000,-22.000000,-42.000000,17.000000,52.000000,16.000000
1305376.307201,-10.000000,11.000000,82.000000,8.000000,-11.000000,-6.000000,-10.000000,-14.000000
1305376.337610,-20.000000,-14.000000,17.000000,24.000000,2.000000,-16.000000,4.000000,-12.000000
1305376.337623,-1.000000,-1.000000,40.000000,-6.000000,0.000000,20.000000,16.000000,7.000000
1305376.345025,-10.000000,-23.000000,19.000000,3.000000,-27.000000,-14.000000,-12.000000,-17.000000
1305376.345037,-4.000000,40.000000,14.000000,-59.000000,-57.000000,-11.000000,-10.000000,2.000000
1305376.359917,4.000000,2.000000,11.000000,1.000000,-1.000000,-5.000000,5.000000,-8.000000
1305376.359940,-26.000000,-21.000000,-13.000000,7.000000,18.000000,-8.000000,1.000000,-9.000000
1305376.374779,5.000000,-57.000000,45.000000,-18.000000,-42.000000,-12.000000,-4.000000,-5.000000
1305376.374807,20.000000,70.000000,29.000000,13.000000,25.000000,0.000000,-5.000000,3.000000
1305376.397914,-28.000000,-74.000000,-50.000000,-9.000000,3.000000,1.000000,-19.000000,-15.000000
1305376.397958,-5.000000,32.000000,80.000000,1.000000,-33.000000,-35.000000,13.000000,20.000000
1305376.419690,6.000000,-4.000000,-7.000000,-14.000000,-30.000000,10.000000,15.000000,7.000000
1305376.419703,-10.000000,-5.000000,-28.000000,-11.000000,1.000000,1.000000,-9.000000,-7.000000
1305376.420932,-1.000000,4.000000,18.000000,-1.000000,-15.000000,-28.000000,-21.000000,-8.000000
1305376.420950,-22.000000,-5.000000,48.000000,32.000000,62.000000,11.000000,4.000000,-4.000000
1305376.422146,36.000000,7.000000,-41.000000,5.000000,-20.000000,7.000000,21.000000,17.000000
1305376.422174,5.000000,39.000000,28.000000,-2.000000,17.000000,3.000000,-2.000000,6.000000
1305376.422770,-13.000000,-14.000000,13.000000,-12.000000,-5.000000,9.000000,14.000000,12.000000
1305376.422797,-24.000000,-9.000000,48.000000,21.000000,24.000000,18.000000,-17.000000,-31.000000
1305376.423794,26.000000,53.000000,126.000000,30.000000,27.000000,20.000000,19.000000,-3.000000
1305376.423804,-12.000000,1.000000,-10.000000,35.000000,65.000000,-7.000000,-20.000000,-24.000000
1305376.435465,-18.000000,2.000000,-64.000000,-38.000000,-35.000000,-19.000000,-26.000000,-10.000000
1305376.435475,51.000000,11.000000,17.000000,22.000000,18.000000,10.000000,28.000000,40.000000
1305376.436264,8.000000,-31.000000,-24.000000,-6.000000,13.000000,12.000000,-3.000000,4.000000
1305376.436272,-22.000000,-17.000000,-8.000000,-36.000000,-16.000000,-8.000000,-9.000000,-8.000000
1305376.464925,8.000000,53.000000,28.000000,4.000000,-12.000000,4.000000,-1.000000,5.000000
1305376.464937,-13.000000,6.000000,37.000000,1.000000,-14.000000,-23.000000,-11.000000,-20.000000
1305376.480115,2.000000,-4.000000,-9.000000,9.000000,18.000000,15.000000,8.000000,25.000000
1305376.480125,-26.000000,20.000000,5.000000,2.000000,-13.000000,-18.000000,14.000000,9.000000
1305376.502390,22.000000,-50.000000,-21.000000,-8.000000,4.000000,-7.000000,-16.000000,0.000000
1305376.502401,0.000000,17.000000,75.000000,3.000000,-11.000000,1.000000,3.000000,5.000000
1305376.502693,-10.000000,-19.000000,-32.000000,-9.000000,-6.000000,-7.000000,-6.000000,-12.000000
1305376.502702,6.000000,-5.000000,33.000000,12.000000,34.000000,4.000000,-7.000000,-1.000000
1305376.504225,-5.000000,-4.000000,20.000000,-7.000000,-40.000000,-2.000000,0.000000,1.000000
1305376.504243,-27.000000,2.000000,28.000000,12.000000,-18.000000,-5.000000,11.000000,-10.000000
1305376.505049,39.000000,16.000000,-35.000000,-1.000000,40.000000,20.000000,-12.000000,12.000000
1305376.505070,-6.000000,-31.000000,-52.000000,0.000000,15.000000,7.000000,-18.000000,-22.000000
1305376.518582,19.000000,7.000000,107.000000,19.000000,-11.000000,-15.000000,7.000000,23.000000
1305376.518592,14.000000,3.000000,-22.000000,13.000000,33.000000,8.000000,1.000000,15.000000
1305376.519693,-10.000000,-20.000000,-27.000000,-3.000000,-25.000000,0.000000,1.000000,-5.000000
1305376.519743,-21.000000,9.000000,27.000000,2.000000,10.000000,-4.000000,-58.000000,-41.000000
1305376.540301,11.000000,-25.000000,-32.000000,-13.000000,-6.000000,-1.000000,9.000000,8.000000
1305376.540311,-36.000000,-7.000000,-60.000000,-23.000000,-37.000000,-5.000000,-7.000000,-12.000000
1305376.541247,42.000000,-30.000000,8.000000,10.000000,16.000000,-14.000000,10.000000,20.000000
1305376.541255,-1.000000,10.000000,-7.000000,2.000000,9.000000,-5.000000,-4.000000,-8.000000
1305376.555547,-9.000000,-6.000000,-41.000000,-2.000000,3.000000,6.000000,0.000000,3.000000
1305376.555565,-4.000000,10.000000,36.000000,16.000000,11.000000,-13.000000,-23.000000,-17.000000
1305376.556529,-25.000000,-3.000000,8.000000,4.000000,-1.000000,-14.000000,-13.000000,26.000000
1305376.556541,40.000000,-18.000000,-23.000000,3.000000,11.000000,-17.000000,21.000000,29.000000
1305376.585530,25.000000,49.000000,58.000000,-9.000000,-60.000000,14.000000,26.000000,44.000000
1305376.585557,-29.000000,-52.000000,-39.000000,23.000000,48.000000,-4.000000,-19.000000,-28.000000
1305376.599945,-3.000000,-22.000000,45.000000,-19.000000,-28.000000,1.000000,-8.000000,4.000000
1305376.599955,-6.000000,52.000000,40.000000,0.000000,7.000000,-10.000000,-6.000000,-3.000000
1305376.622525,13.000000,-6.000000,36.000000,14.000000,8.000000,0.000000,15.000000,14.000000
1305376.622538,8.000000,52.000000,-8.000000,-11.000000,8.000000,2.000000,-3.000000,-6.000000
1305376.623058,3.000000,3.000000,22.000000,-24.000000,-31.000000,-18.000000,-10.000000,-4.000000
1305376.623068,5.000000,13.000000,7.000000,-1.000000,-4.000000,-11.000000,8.000000,-3.000000
1305376.624031,-22.000000,-83.000000,-77.000000,4.000000,13.000000,-22.000000,-4.000000,-5.000000
1305376.624040,-14.000000,-10.000000,24.000000,-19.000000,-24.000000,-17.000000,-16.000000,-8.000000
1305376.624916,7.000000,-2.000000,-6.000000,-6.000000,2.000000,8.000000,1.000000,-9.000000
1305376.624925,-11.000000,9.000000,8.000000,2.000000,17.000000,5.000000,8.000000,2.000000
1305376.637698,10.000000,-8.000000,-13.000000,-32.000000,-45.000000,-15.000000,14.000000,-4.000000
1305376.637707,-4.000000,-44.000000,-27.000000,6.000000,16.000000,-2.000000,-17.000000,-13.000000
1305376.638615,4.000000,32.000000,-40.000000,-1.000000,-43.000000,-17.000000,1.000000,1.000000
1305376.638624,-12.000000,5.000000,-120.000000,-41.000000,-37.000000,-15.000000,-9.000000,-16.000000
1305376.652875,25.000000,-13.000000,101.000000,17.000000,13.000000,0.000000,11.000000,44.000000
1305376.652884,6.000000,13.000000,4.000000,-26.000000,-49.000000,6.000000,-3.000000,-3.000000
1305376.653502,-15.000000,-23.000000,-38.000000,-3.000000,1.000000,3.000000,-19.000000,-26.000000
1305376.653510,6.000000,-7.000000,53.000000,-3.000000,-13.000000,-6.000000,-11.000000,-23.000000
1305376.674755,-7.000000,-72.000000,-25.000000,1.000000,6.000000,-12.000000,-11.000000,-11.000000
1305376.674766,-5.000000,1.000000,-17.000000,1.000000,8.000000,11.000000,-4.000000,-8.000000
1305376.675496,-4.000000,8.000000,27.000000,2.000000,7.000000,6.000000,7.000000,4.000000
1305376.675505,-12.000000,-10.000000,-2.000000,-19.000000,-7.000000,-13.000000,-8.000000,9.000000
1305376.720357,13.000000,9.000000,38.000000,24.000000,-16.000000,3.000000,-1.000000,-7.000000
1305376.720370,7.000000,29.000000,-22.000000,-2.000000,9.000000,-8.000000,10.000000,5.000000
1305376.734957,-50.000000,-14.000000,40.000000,-12.000000,-47.000000,-13.000000,2.000000,-11.000000
1305376.734967,48.000000,2.000000,27.000000,28.000000,52.000000,7.000000,-13.000000,10.000000
1305376.757572,14.000000,9.000000,-76.000000,-31.000000,-13.000000,12.000000,13.000000,32.000000
1305376.757584,-5.000000,13.000000,-36.000000,16.000000,8.000000,-14.000000,-10.000000,-3.000000
1305376.757990,-11.000000,4.000000,-8.000000,7.000000,-4.000000,1.000000,12.000000,-4.000000
1305376.757998,0.000000,30.000000,-2.000000,-2.000000,6.000000,2.000000,3.000000,2.000000
1305376.758951,-8.000000,-6.000000,-16.000000,-15.000000,-19.000000,18.000000,10.000000,5.000000
1305376.759080,-8.000000,-5.000000,9.000000,-22.000000,-43.000000,0.000000,1.000000,-5.000000
1305376.759758,3.000000,0.000000,1.000000,16.000000,21.000000,6.000000,8.000000,35.000000
1305376.759766,10.000000,-12.000000,-42.000000,-18.000000,5.000000,1.000000,-5.000000,-4.000000
1305376.772902,-27.000000,-10.000000,-10.000000,17.000000,15.000000,-41.000000,-13.000000,-31.000000
1305376.772912,33.000000,-12.000000,-36.000000,-44.000000,-67.000000,-4.000000,26.000000,28.000000
1305376.773723,-29.000000,15.000000,6.000000,13.000000,11.000000,12.000000,10.000000,0.000000
1305376.773731,7.000000,-7.000000,-34.000000,-17.000000,-2.000000,-36.000000,-3.000000,3.000000
1305376.795188,-9.000000,-1.000000,1.000000,-7.000000,-11.000000,-7.000000,-19.000000,-15.000000
1305376.795216,-6.000000,-10.000000,17.000000,14.000000,2.000000,0.000000,8.000000,1.000000
1305376.796200,-34.000000,20.000000,-32.000000,0.000000,14.000000,-4.000000,-13.000000,-18.000000
1305376.796214,32.000000,19.000000,12.000000,-31.000000,-29.000000,-29.000000,-19.000000,1.000000
1305376.817413,7.000000,2.000000,47.000000,1.000000,-6.000000,2.000000,1.000000,-22.000000
1305376.817423,-9.000000,-35.000000,-80.000000,-10.000000,-6.000000,-27.000000,-16.000000,-21.000000
1305376.832554,-9.000000,-10.000000,4.000000,17.000000,22.000000,7.000000,19.000000,30.000000
1305376.832573,1.000000,-24.000000,35.000000,-6.000000,-5.000000,-19.000000,-19.000000,-15.000000
1305376.862439,13.000000,29.000000,-40.000000,-3.000000,16.000000,-9.000000,14.000000,18.000000
1305376.862449,0.000000,10.000000,-7.000000,-47.000000,-62.000000,-2.000000,1.000000,-8.000000
1305376.892358,5.000000,-1.000000,-39.000000,2.000000,6.000000,-6.000000,-5.000000,-3.000000
1305376.892387,-35.000000,-22.000000,49.000000,-5.000000,-21.000000,4.000000,-4.000000,-9.000000
1305376.915099,42.000000,-7.000000,26.000000,18.000000,37.000000,-1.000000,-11.000000,8.000000
1305376.915111,-17.000000,-5.000000,-49.000000,-10.000000,-37.000000,6.000000,2.000000,-4.000000
1305376.915576,7.000000,9.000000,40.000000,0.000000,2.000000,-4.000000,-12.000000,-2.000000
1305376.915587,3.000000,-27.000000,-53.000000,2.000000,-1.000000,-1.000000,-4.000000,-5.000000
1305376.930126,-9.000000,4.000000,5.000000,-7.000000,-11.000000,-1.000000,-3.000000,4.000000
1305376.930136,-5.000000,-32.000000,-50.000000,4.000000,2.000000,-17.000000,-28.000000,-15.000000
1305376.937356,6.000000,-8.000000,0.000000,-15.000000,-25.000000,-1.000000,28.000000,32.000000
1305376.937386,47.000000,-34.000000,6.000000,3.000000,17.000000,5.000000,-10.000000,7.000000
1305376.952130,-6.000000,-6.000000,25.000000,4.000000,20.000000,-4.000000,-4.000000,-1.000000
1305376.952158,-33.000000,-27.000000,-32.000000,-26.000000,5.000000,-8.000000,-23.000000,-19.000000
1305376.953386,54.000000,18.000000,80.000000,31.000000,-18.000000,-16.000000,2.000000,45.000000
1305376.953394,-3.000000,-11.000000,-24.000000,-13.000000,-6.000000,-5.000000,13.000000,10.000000
1305376.953979,-4.000000,9.000000,2.000000,11.000000,34.000000,-5.000000,19.000000,-5.000000
1305376.953987,-11.000000,5.000000,10.000000,19.000000,32.000000,6.000000,-7.000000,-12.000000
1305376.975304,2.000000,-15.000000,-1.000000,-6.000000,50.000000,14.000000,19.000000,5.000000
1305376.975323,-6.000000,-30.000000,12.000000,-4.000000,-46.000000,1.000000,-3.000000,-1.000000
1305376.997444,-13.000000,16.000000,127.000000,23.000000,5.000000,4.000000,-5.000000,3.000000
1305376.997462,-21.000000,-20.000000,-36.000000,-42.000000,-9.000000,-30.000000,-8.000000,-29.000000
1305377.012564,41.000000,28.000000,-43.000000,-15.000000,-7.000000,42.000000,29.000000,38.000000
1305377.012575,2.000000,-14.000000,-37.000000,-8.000000,20.000000,2.000000,-9.000000,2.000000
1305377.034957,1.000000,21.000000,91.000000,15.000000,-13.000000,-8.000000,-23.000000,-10.000000
1305377.034987,6.000000,10.000000,10.000000,-59.000000,-3.000000,19.000000,-9.000000,3.000000
1305377.050113,-9.000000,-49.000000,-57.000000,24.000000,-15.000000,-6.000000,45.000000,9.000000
1305377.050123,15.000000,33.000000,26.000000,22.000000,19.000000,0.000000,15.000000,73.000000
1305377.064867,-14.000000,-10.000000,-29.000000,-56.000000,6.000000,-11.000000,-11.000000,1.000000
1305377.064878,3.000000,-1.000000,-22.000000,47.000000,33.000000,21.000000,0.000000,-10.000000
1305377.072390,-21.000000,-14.000000,-114.000000,-22.000000,0.000000,3.000000,-15.000000,12.000000
1305377.072408,44.000000,28.000000,22.000000,-14.000000,4.000000,0.000000,-25.000000,-11.000000
1305377.110027,-12.000000,-11.000000,-4.000000,11.000000,38.000000,5.000000,-10.000000,-15.000000
1305377.110046,-16.000000,-5.000000,-99.000000,-27.000000,38.000000,-5.000000,-3.000000,-6.000000
1305377.110546,1.000000,15.000000,65.000000,-1.000000,-28.000000,-25.000000,-14.000000,-11.000000
1305377.110557,1.000000,-41.000000,-2.000000,-3.000000,-18.000000,10.000000,-4.000000,-2.000000
1305377.111561,5.000000,-17.000000,6.000000,-8.000000,6.000000,-3.000000,0.000000,1.000000
1305377.111571,22.000000,26.000000,7.000000,19.000000,28.000000,-11.000000,-16.000000,-18.000000
1305377.112859,-6.000000,-10.000000,42.000000,27.000000,21.000000,11.000000,15.000000,-20.000000
1305377.112883,19.000000,17.000000,-35.000000,-17.000000,-3.000000,13.000000,3.000000,12.000000
1305377.113715,-15.000000,-31.000000,-45.000000,-48.000000,-28.000000,-6.000000,-10.000000,-6.000000
1305377.113724,-10.000000,-2.000000,-46.000000,22.000000,33.000000,-1.000000,-11.000000,-1.000000
1305377.117357,29.000000,69.000000,56.000000,17.000000,4.000000,-6.000000,-15.000000,6.000000
1305377.117377,-36.000000,-53.000000,-40.000000,-22.000000,-22.000000,-48.000000,13.000000,-6.000000
1305377.155167,15.000000,17.000000,92.000000,5.000000,9.000000,12.000000,-14.000000,7.000000
1305377.155178,-55.000000,-14.000000,13.000000,8.000000,-19.000000,0.000000,-35.000000,-48.000000
1305377.169798,114.000000,54.000000,-40.000000,-27.000000,6.000000,12.000000,33.000000,63.000000
1305377.169816,-7.000000,-19.000000,-26.000000,32.000000,-8.000000,-27.000000,-17.000000,-18.000000
1305377.192658,-43.000000,-66.000000,13.000000,-8.000000,-7.000000,-12.000000,-6.000000,-14.000000
1305377.192668,12.000000,62.000000,100.000000,19.000000,-25.000000,14.000000,0.000000,8.000000
1305377.207410,-11.000000,-7.000000,-57.000000,-17.000000,12.000000,4.000000,-6.000000,-19.000000
1305377.207420,-14.000000,-21.000000,-31.000000,0.000000,27.000000,-12.000000,-17.000000,-8.000000
1305377.215350,4.000000,-32.000000,51.000000,5.000000,-11.000000,-10.000000,5.000000,6.000000
1305377.215381,-8.000000,12.000000,-53.000000,-13.000000,-16.000000,-26.000000,-14.000000,-38.000000
1305377.215812,6.000000,-2.000000,-66.000000,-1.000000,-4.000000,-5.000000,6.000000,-6.000000
1305377.215838,-7.000000,-2.000000,44.000000,3.000000,-10.000000,12.000000,-14.000000,-13.000000
1305377.217237,-14.000000,-8.000000,-11.000000,2.000000,-41.000000,-1.000000,0.000000,-12.000000
1305377.217303,14.000000,-24.000000,-19.000000,11.000000,-28.000000,5.000000,-4.000000,-8.000000
1305377.230408,12.000000,4.000000,9.000000,54.000000,1.000000,-24.000000,-23.000000,12.000000
1305377.230423,1.000000,-10.000000,15.000000,5.000000,19.000000,11.000000,6.000000,4.000000
1305377.252624,26.000000,13.000000,-17.000000,-3.000000,-4.000000,1.000000,1.000000,16.000000
1305377.252638,-13.000000,-10.000000,-42.000000,-12.000000,-8.000000,-11.000000,15.000000,2.000000
1305377.253710,8.000000,-1.000000,-75.000000,-28.000000,-10.000000,7.000000,18.000000,22.000000
1305377.253720,-29.000000,-8.000000,-41.000000,25.000000,25.000000,35.000000,-20.000000,22.000000
1305377.267337,40.000000,-35.000000,-40.000000,-27.000000,-24.000000,-16.000000,24.000000,3.000000
1305377.267349,8.000000,11.000000,-27.000000,10.000000,-11.000000,-18.000000,17.000000,-2.000000
1305377.268660,-16.000000,-11.000000,37.000000,22.000000,-20.000000,-7.000000,-35.000000,-13.000000
1305377.268671,-26.000000,-14.000000,-44.000000,-4.000000,11.000000,9.000000,-22.000000,-27.000000
1305377.274916,9.000000,51.000000,-11.000000,-2.000000,41.000000,-19.000000,-10.000000,32.000000
1305377.274933,10.000000,31.000000,127.000000,-5.000000,-72.000000,30.000000,26.000000,22.000000
1305377.327764,2.000000,-6.000000,1.000000,-66.000000,24.000000,11.000000,-14.000000,-11.000000
1305377.327777,-22.000000,-20.000000,-35.000000,96.000000,26.000000,23.000000,10.000000,5.000000
1305377.328211,39.000000,13.000000,26.000000,14.000000,-1.000000,-28.000000,-31.000000,-9.000000
1305377.328218,-7.000000,-31.000000,-9.000000,-18.000000,-15.000000,3.000000,1.000000,-2.000000
1305377.329043,-10.000000,38.000000,45.000000,-6.000000,19.000000,16.000000,1.000000,3.000000
1305377.329177,-16.000000,-5.000000,-18.000000,-3.000000,14.000000,-24.000000,-16.000000,-13.000000
1305377.329830,16.000000,4.000000,-63.000000,-12.000000,30.000000,32.000000,34.000000,20.000000
1305377.329841,-14.000000,3.000000,3.000000,24.000000,-42.000000,-24.000000,5.000000,-9.000000
1305377.331138,19.000000,-30.000000,-12.000000,-18.000000,8.000000,-6.000000,2.000000,7.000000
1305377.331145,-3.000000,-3.000000,-48.000000,16.000000,25.000000,2.000000,1.000000,8.000000
1305377.335106,-35.000000,-1.000000,60.000000,-15.000000,-21.000000,-13.000000,-8.000000,-16.000000
1305377.335116,-3.000000,19.000000,4.000000,40.000000,33.000000,22.000000,5.000000,7.000000
1305377.350624,32.000000,-12.000000,-30.000000,0.000000,-4.000000,12.000000,8.000000,12.000000
1305377.350633,-5.000000,2.000000,-20.000000,-4.000000,-19.000000,7.000000,-3.000000,-3.000000
1305377.372348,1.000000,-13.000000,53.000000,-8.000000,-32.000000,-23.000000,-1.000000,-6.000000
1305377.372360,-18.000000,-17.000000,-30.000000,-11.000000,-18.000000,20.000000,7.000000,-9.000000
1305377.373807,21.000000,52.000000,24.000000,7.000000,7.000000,-20.000000,-29.000000,-1.000000
1305377.373816,-10.000000,4.000000,65.000000,8.000000,-19.000000,13.000000,15.000000,2.000000
1305377.387504,-3.000000,-35.000000,-23.000000,-17.000000,0.000000,4.000000,12.000000,22.000000
1305377.387525,-22.000000,33.000000,30.000000,-21.000000,7.000000,-12.000000,21.000000,-20.000000
1305377.388720,38.000000,0.000000,-53.000000,34.000000,-6.000000,-2.000000,-4.000000,11.000000
1305377.388757,4.000000,21.000000,-25.000000,-26.000000,-10.000000,-25.000000,-4.000000,-2.000000
1305377.394886,-56.000000,-43.000000,-4.000000,-13.000000,-25.000000,-13.000000,-12.000000,-16.000000
1305377.394897,48.000000,11.000000,-13.000000,-12.000000,-1.000000,-1.000000,18.000000,33.000000
1305377.424961,4.000000,10.000000,3.000000,11.000000,21.000000,3.000000,-24.000000,-14.000000
1305377.424971,-21.000000,-54.000000,-73.000000,-60.000000,-56.000000,-1.000000,15.000000,-9.000000
1305377.432529,-29.000000,3.000000,-24.000000,12.000000,-10.000000,-22.000000,-3.000000,-10.000000
1305377.432541,15.000000,-10.000000,-35.000000,27.000000,52.000000,16.000000,10.000000,4.000000
1305377.433575,11.000000,28.000000,-28.000000,6.000000,15.000000,-4.000000,-15.000000,-5.000000
1305377.433583,-9.000000,-14.000000,95.000000,-17.000000,-43.000000,-3.000000,-11.000000,-11.000000
1305377.440350,9.000000,37.000000,10.000000,-10.000000,10.000000,17.000000,25.000000,38.000000
1305377.440362,20.000000,4.000000,9.000000,-12.000000,-12.000000,-29.000000,1.000000,9.000000
1305377.448011,8.000000,-3.000000,13.000000,5.000000,-44.000000,21.000000,-4.000000,3.000000
1305377.448020,-33.000000,-1.000000,47.000000,3.000000,8.000000,1.000000,10.000000,-6.000000
1305377.454972,46.000000,10.000000,-44.000000,13.000000,40.000000,-1.000000,-19.000000,-14.000000
1305377.454994,-3.000000,32.000000,30.000000,-23.000000,-57.000000,-3.000000,7.000000,2.000000
1305377.469984,-13.000000,-32.000000,-36.000000,13.000000,27.000000,38.000000,5.000000,6.000000
1305377.470005,-16.000000,-8.000000,-5.000000,-11.000000,-14.000000,-16.000000,0.000000,-26.000000
1305377.484886,-5.000000,9.000000,-22.000000,30.000000,21.000000,-6.000000,-13.000000,-4.000000
1305377.484896,-6.000000,-3.000000,-16.000000,-5.000000,5.000000,-5.000000,-7.000000,-15.000000
1305377.486092,5.000000,1.000000,-24.000000,-20.000000,-39.000000,-17.000000,20.000000,-25.000000
1305377.486099,17.000000,14.000000,-16.000000,30.000000,0.000000,10.000000,11.000000,14.000000
1305377.499915,-1.000000,-9.000000,15.000000,-10.000000,22.000000,-2.000000,-8.000000,-7.000000
1305377.499926,-1.000000,1.000000,-18.000000,-20.000000,-8.000000,29.000000,-7.000000,4.000000
1305377.529924,-27.000000,-12.000000,-14.000000,2.000000,4.000000,-19.000000,-20.000000,-29.000000
1305377.529934,39.000000,53.000000,-29.000000,-26.000000,49.000000,-8.000000,-9.000000,-4.000000
1305377.545234,-3.000000,26.000000,98.000000,45.000000,-13.000000,22.000000,32.000000,43.000000
1305377.545247,-17.000000,5.000000,45.000000,7.000000,6.000000,9.000000,2.000000,-20.000000
1305377.560025,-29.000000,-24.000000,-45.000000,12.000000,-9.000000,-13.000000,-19.000000,-16.000000
1305377.560036,-8.000000,-14.000000,4.000000,27.000000,26.000000,11.000000,-18.000000,-23.000000
1305377.567568,28.000000,10.000000,24.000000,-20.000000,-37.000000,-17.000000,6.000000,13.000000
1305377.567588,-1.000000,15.000000,16.000000,-14.000000,-37.000000,0.000000,13.000000,8.000000
1305377.590037,-1.000000,-17.000000,-39.000000,-8.000000,8.000000,1.000000,7.000000,3.000000
1305377.590117,20.000000,52.000000,97.000000,17.000000,18.000000,-8.000000,-11.000000,-5.000000
1305377.590383,-29.000000,-54.000000,-101.000000,-13.000000,1.000000,10.000000,9.000000,10.000000
1305377.590391,19.000000,30.000000,47.000000,-19.000000,-32.000000,-4.000000,8.000000,15.000000
1305377.612335,-29.000000,-32.000000,-6.000000,4.000000,25.000000,21.000000,2.000000,-1.000000
1305377.612345,3.000000,-15.000000,19.000000,-12.000000,-16.000000,-19.000000,-15.000000,-4.000000
1305377.619879,20.000000,116.000000,45.000000,20.000000,3.000000,-21.000000,-24.000000,-14.000000
1305377.619889,-8.000000,-28.000000,-16.000000,19.000000,39.000000,7.000000,-6.000000,-10.000000
1305377.665143,1.000000,14.000000,82.000000,34.000000,-1.000000,-9.000000,-4.000000,1.000000
1305377.665154,-3.000000,-18.000000,-2.000000,-21.000000,-51.000000,-27.000000,-13.000000,-1.000000
1305377.672343,6.000000,-10.000000,-12.000000,-15.000000,-21.000000,6.000000,-7.000000,-4.000000
1305377.672352,-8.000000,-11.000000,-16.000000,-8.000000,1.000000,2.000000,-17.000000,-11.000000
1305377.710382,1.000000,31.000000,-23.000000,-14.000000,-2.000000,24.000000,4.000000,16.000000
1305377.710395,29.000000,23.000000,3.000000,1.000000,-25.000000,-6.000000,22.000000,25.000000
1305377.711565,-45.000000,-13.000000,8.000000,-4.000000,-16.000000,-12.000000,-20.000000,-14.000000
1305377.711578,12.000000,-7.000000,22.000000,5.000000,0.000000,9.000000,8.000000,19.000000
1305377.713188,1.000000,-34.000000,-44.000000,-46.000000,0.000000,2.000000,-7.000000,-4.000000
1305377.713197,0.000000,-3.000000,-24.000000,72.000000,26.000000,11.000000,4.000000,2.000000
1305377.725327,-9.000000,-19.000000,-14.000000,-18.000000,-31.000000,17.000000,17.000000,11.000000
1305377.725486,17.000000,10.000000,1.000000,-20.000000,-61.000000,9.000000,-1.000000,9.000000
1305377.726616,2.000000,4.000000,-1.000000,-4.000000,-7.000000,-3.000000,19.000000,10.000000
1305377.726694,-13.000000,-1.000000,-40.000000,19.000000,61.000000,27.000000,-15.000000,-22.000000
1305377.747450,19.000000,31.000000,36.000000,8.000000,-5.000000,-3.000000,15.000000,-3.000000
1305377.747470,-10.000000,-5.000000,-31.000000,14.000000,15.000000,-3.000000,-12.000000,-7.000000
1305377.770335,1.000000,-6.000000,-58.000000,-67.000000,-101.000000,-52.000000,3.000000,9.000000
1305377.770352,-17.000000,20.000000,69.000000,20.000000,-4.000000,9.000000,-7.000000,-2.000000
1305377.777807,31.000000,12.000000,-28.000000,13.000000,28.000000,-10.000000,-6.000000,-16.000000
1305377.777818,-47.000000,-24.000000,29.000000,-49.000000,-53.000000,-24.000000,3.000000,-18.000000
1305377.807418,19.000000,9.000000,-61.000000,-9.000000,-44.000000,-37.000000,-22.000000,-17.000000
1305377.807428,1.000000,8.000000,103.000000,35.000000,7.000000,-4.000000,-7.000000,-5.000000
1305377.822769,-6.000000,3.000000,-17.000000,-19.000000,19.000000,5.000000,13.000000,6.000000
1305377.822856,11.000000,-26.000000,-11.000000,15.000000,-5.000000,-14.000000,-9.000000,-5.000000
1305377.823569,3.000000,-6.000000,-8.000000,-2.000000,-14.000000,-7.000000,-4.000000,-6.000000
1305377.823585,-21.000000,-25.000000,-42.000000,1.000000,4.000000,3.000000,-11.000000,-11.000000
1305377.824194,4.000000,14.000000,34.000000,-4.000000,-25.000000,-10.000000,2.000000,1.000000
1305377.824206,-1.000000,-22.000000,-75.000000,-12.000000,20.000000,10.000000,11.000000,4.000000
1305377.825574,-10.000000,36.000000,24.000000,13.000000,4.000000,-16.000000,-2.000000,-1.000000
1305377.825610,11.000000,-15.000000,21.000000,10.000000,11.000000,6.000000,8.000000,-3.000000
1305377.826849,-20.000000,-23.000000,-22.000000,-9.000000,-8.000000,-7.000000,0.000000,-11.000000
1305377.826869,12.000000,13.000000,93.000000,11.000000,-9.000000,-19.000000,-10.000000,8.000000
1305377.829869,-6.000000,-16.000000,-33.000000,-49.000000,30.000000,2.000000,-20.000000,7.000000
1305377.829879,13.000000,10.000000,15.000000,7.000000,-59.000000,-9.000000,20.000000,3.000000
1305377.845078,-5.000000,-34.000000,-35.000000,-3.000000,19.000000,-12.000000,24.000000,11.000000
1305377.845095,-7.000000,47.000000,127.000000,18.000000,-12.000000,40.000000,-30.000000,-14.000000
1305377.867620,7.000000,1.000000,-37.000000,-8.000000,23.000000,8.000000,23.000000,-1.000000
1305377.867638,4.000000,-23.000000,-19.000000,-6.000000,-22.000000,4.000000,3.000000,-13.000000
1305377.882284,-20.000000,-12.000000,21.000000,-3.000000,-27.000000,-21.000000,-24.000000,-20.000000
1305377.882294,11.000000,11.000000,-33.000000,-7.000000,11.000000,-6.000000,-6.000000,0.000000
1305377.905107,-33.000000,1.000000,-9.000000,2.000000,6.000000,-4.000000,-21.000000,-21.000000
1305377.905118,24.000000,12.000000,-24.000000,-12.000000,0.000000,-7.000000,2.000000,9.000000
1305377.927258,-17.000000,0.000000,-5.000000,4.000000,37.000000,9.000000,-11.000000,-7.000000
1305377.927269,-22.000000,-22.000000,-35.000000,-2.000000,-11.000000,-8.000000,-6.000000,-6.000000
1305377.928411,36.000000,8.000000,36.000000,21.000000,23.000000,7.000000,13.000000,22.000000
1305377.928421,-12.000000,51.000000,76.000000,-4.000000,15.000000,4.000000,-8.000000,-18.000000
1305377.929009,1.000000,-5.000000,4.000000,5.000000,-10.000000,0.000000,17.000000,35.000000
1305377.929028,-5.000000,-12.000000,8.000000,21.000000,43.000000,-4.000000,-17.000000,-17.000000
1305377.930225,12.000000,5.000000,-90.000000,-88.000000,-48.000000,6.000000,-5.000000,-24.000000
1305377.930234,-17.000000,-44.000000,-39.000000,14.000000,-13.000000,-30.000000,-17.000000,-9.000000
1305377.931190,-1.000000,3.000000,-16.000000,-14.000000,-12.000000,-4.000000,-4.000000,-3.000000
1305377.931208,7.000000,32.000000,117.000000,5.000000,-29.000000,-30.000000,-4.000000,11.000000
1305377.942543,6.000000,-7.000000,6.000000,-9.000000,-22.000000,7.000000,9.000000,3.000000
1305377.942557,-49.000000,1.000000,-37.000000,-10.000000,13.000000,24.000000,-25.000000,-27.000000
1305377.950191,62.000000,-1.000000,27.000000,6.000000,17.000000,8.000000,22.000000,20.000000
1305377.950203,-1.000000,0.000000,3.000000,-3.000000,14.000000,6.000000,25.000000,18.000000
1305377.964787,-23.000000,-9.000000,100.000000,10.000000,-2.000000,-8.000000,-6.000000,-10.000000
1305377.964797,-7.000000,5.000000,-4.000000,34.000000,25.000000,6.000000,-5.000000,-3.000000
1305377.987559,4.000000,18.000000,-21.000000,-7.000000,-4.000000,11.000000,24.000000,26.000000
1305377.987570,-33.000000,-23.000000,-3.000000,-1.000000,25.000000,-6.000000,-4.000000,1.000000
1305378.002422,31.000000,15.000000,-2.000000,-15.000000,16.000000,5.000000,10.000000,10.000000
1305378.002432,-10.000000,-4.000000,47.000000,9.000000,-14.000000,5.000000,1.000000,-3.000000
1305378.040070,-33.000000,-26.000000,-8.000000,2.000000,8.000000,2.000000,1.000000,-15.000000
1305378.040082,-2.000000,-3.000000,13.000000,10.000000,4.000000,-14.000000,-28.000000,-9.000000
1305378.040548,3.000000,-16.000000,-47.000000,-32.000000,-14.000000,-18.000000,7.000000,-5.000000
1305378.040580,15.000000,50.000000,5.000000,23.000000,19.000000,25.000000,15.000000,18.000000
1305378.041467,-10.000000,-9.000000,38.000000,1.000000,-24.000000,-6.000000,7.000000,-15.000000
1305378.041479,-1.000000,9.000000,42.000000,33.000000,50.000000,13.000000,-6.000000,-2.000000
1305378.042186,9.000000,-18.000000,-25.000000,-28.000000,-52.000000,-12.000000,4.000000,-8.000000
1305378.042196,2.000000,12.000000,35.000000,-5.000000,-8.000000,-4.000000,0.000000,1.000000
1305378.043690,11.000000,-4.000000,-13.000000,10.000000,17.000000,6.000000,-13.000000,-5.000000
1305378.043698,-12.000000,44.000000,26.000000,-12.000000,1.000000,-4.000000,-14.000000,-5.000000
1305378.047958,-37.000000,-11.000000,-54.000000,-22.000000,-67.000000,-5.000000,-2.000000,-3.000000
1305378.047967,53.000000,18.000000,91.000000,3.000000,-6.000000,9.000000,3.000000,11.000000
1305378.062447,-19.000000,-11.000000,-69.000000,-12.000000,3.000000,-5.000000,8.000000,-36.000000
1305378.062474,45.000000,-6.000000,52.000000,11.000000,-16.000000,-10.000000,30.000000,48.000000
1305378.085034,9.000000,-8.000000,-32.000000,-13.000000,14.000000,-1.000000,-20.000000,-33.000000
1305378.085045,-12.000000,-13.000000,-6.000000,14.000000,20.000000,-17.000000,-23.000000,-20.000000
1305378.085498,-18.000000,-22.000000,5.000000,5.000000,-27.000000,-1.000000,13.000000,13.000000
1305378.085506,22.000000,-19.000000,-69.000000,-23.000000,4.000000,12.000000,25.000000,31.000000
1305378.100121,-2.000000,23.000000,46.000000,24.000000,19.000000,6.000000,4.000000,2.000000
1305378.100132,-29.000000,-21.000000,-43.000000,-18.000000,-9.000000,-16.000000,-19.000000,-9.000000
1305378.107687,24.000000,-6.000000,37.000000,11.000000,-10.000000,-3.000000,-8.000000,7.000000
1305378.107701,18.000000,20.000000,31.000000,2.000000,25.000000,14.000000,7.000000,-3.000000
1305378.144928,1.000000,-7.000000,-40.000000,-7.000000,-10.000000,-12.000000,-18.000000,-6.000000
1305378.144939,-19.000000,-2.000000,-46.000000,-7.000000,-19.000000,2.000000,-6.000000,-12.000000
1305378.167360,-11.000000,-14.000000,-14.000000,-5.000000,27.000000,-6.000000,1.000000,0.000000
1305378.167377,33.000000,-36.000000,-13.000000,1.000000,-12.000000,-5.000000,-9.000000,6.000000
1305378.182228,-19.000000,-12.000000,-8.000000,12.000000,46.000000,21.000000,-29.000000,-25.000000
1305378.182238,3.000000,-26.000000,-37.000000,-5.000000,-12.000000,-11.000000,15.000000,23.000000
1305378.204890,-12.000000,28.000000,28.000000,-1.000000,7.000000,6.000000,9.000000,-6.000000
1305378.204900,-15.000000,-31.000000,-32.000000,-9.000000,1.000000,-16.000000,-8.000000,-12.000000
1305378.205951,18.000000,34.000000,13.000000,-7.000000,4.000000,-3.000000,-1.000000,33.000000
1305378.206021,-21.000000,-3.000000,10.000000,-11.000000,-4.000000,5.000000,-24.000000,-27.000000
1305378.206666,1.000000,-17.000000,0.000000,24.000000,19.000000,-5.000000,-21.000000,-12.000000
1305378.206675,19.000000,24.000000,-29.000000,-10.000000,-7.000000,7.000000,2.000000,7.000000
1305378.207236,-32.000000,-36.000000,-27.000000,2.000000,24.000000,33.000000,-9.000000,-21.000000
1305378.207336,8.000000,-3.000000,-75.000000,-2.000000,32.000000,9.000000,16.000000,28.000000
1305378.207806,-18.000000,-39.000000,-39.000000,16.000000,45.000000,-2.000000,-14.000000,-28.000000
1305378.207850,-4.000000,15.000000,41.000000,-8.000000,-34.000000,-20.000000,-4.000000,-2.000000
1305378.208767,20.000000,11.000000,-17.000000,2.000000,17.000000,22.000000,5.000000,-1.000000
1305378.208777,-25.000000,7.000000,16.000000,5.000000,5.000000,-9.000000,0.000000,2.000000
1305378.219783,-12.000000,-13.000000,-7.000000,-17.000000,-1.000000,-8.000000,-8.000000,-6.000000
1305378.219793,23.000000,-22.000000,-26.000000,12.000000,10.000000,15.000000,5.000000,6.000000
1305378.242560,21.000000,31.000000,119.000000,43.000000,17.000000,-36.000000,5.000000,43.000000
1305378.242572,-17.000000,-12.000000,5.000000,-11.000000,-46.000000,2.000000,-2.000000,-12.000000
1305378.265063,-24.000000,5.000000,-16.000000,-9.000000,1.000000,0.000000,9.000000,-19.000000
1305378.265074,54.000000,13.000000,1.000000,18.000000,41.000000,15.000000,20.000000,39.000000
1305378.279886,-2.000000,13.000000,15.000000,-7.000000,-41.000000,-3.000000,11.000000,13.000000
1305378.279896,-4.000000,-10.000000,9.000000,2.000000,-11.000000,-4.000000,5.000000,-4.000000
1305378.302718,-1.000000,6.000000,1.000000,-25.000000,-35.000000,-32.000000,-16.000000,-8.000000
1305378.302728,-26.000000,-9.000000,-24.000000,10.000000,19.000000,35.000000,10.000000,12.000000
1305378.317315,32.000000,6.000000,-1.000000,-14.000000,-7.000000,-14.000000,-16.000000,-9.000000
1305378.317325,-19.000000,13.000000,-14.000000,-33.000000,-17.000000,-9.000000,-11.000000,-17.000000
1305378.318457,-25.000000,-11.000000,26.000000,34.000000,37.000000,10.000000,-16.000000,-10.000000
1305378.318467,27.000000,10.000000,-78.000000,-8.000000,12.000000,8.000000,28.000000,5.000000
1305378.319119,1.000000,20.000000,86.000000,-5.000000,-16.000000,-6.000000,-3.000000,-1.000000
1305378.319141,-23.000000,-23.000000,-20.000000,8.000000,20.000000,8.000000,-11.000000,-13.000000
1305378.319692,25.000000,7.000000,9.000000,4.000000,32.000000,-20.000000,-18.000000,9.000000
1305378.319714,6.000000,25.000000,3.000000,-1.000000,2.000000,26.000000,-14.000000,-7.000000
1305378.321252,29.000000,42.000000,-9.000000,-12.000000,0.000000,-3.000000,12.000000,12.000000
1305378.321262,-10.000000,-8.000000,-38.000000,9.000000,21.000000,-12.000000,-14.000000,-5.000000
1305378.362373,20.000000,-1.000000,-11.000000,18.000000,31.000000,4.000000,-12.000000,-3.000000
1305378.362383,7.000000,-6.000000,2.000000,-9.000000,-11.000000,11.000000,22.000000,11.000000
1305378.377469,-4.000000,2.000000,11.000000,1.000000,12.000000,6.000000,4.000000,-9.000000
1305378.377478,-7.000000,-3.000000,44.000000,1.000000,-12.000000,-21.000000,1.000000,-7.000000
1305378.399802,27.000000,14.000000,-43.000000,23.000000,32.000000,27.000000,-3.000000,47.000000
1305378.399849,-23.000000,-13.000000,8.000000,13.000000,-3.000000,3.000000,24.000000,2.000000
1305378.400238,26.000000,-23.000000,-55.000000,-42.000000,-38.000000,15.000000,-3.000000,-9.000000
1305378.400247,10.000000,10.000000,-26.000000,0.000000,0.000000,-5.000000,-15.000000,-8.000000
1305378.401528,-6.000000,-4.000000,41.000000,4.000000,-27.000000,0.000000,7.000000,5.000000
1305378.401544,-21.000000,0.000000,-11.000000,10.000000,14.000000,0.000000,-15.000000,-19.000000
1305378.402126,1.000000,-5.000000,-8.000000,-19.000000,-6.000000,-5.000000,-5.000000,-17.000000
1305378.402142,-26.000000,-37.000000,17.000000,4.000000,24.000000,-3.000000,0.000000,-4.000000
1305378.402798,19.000000,14.000000,67.000000,7.000000,-13.000000,-8.000000,-9.000000,1.000000
1305378.402806,-6.000000,-11.000000,-36.000000,5.000000,10.000000,19.000000,-16.000000,-13.000000
1305378.403752,6.000000,6.000000,15.000000,-35.000000,-72.000000,-34.000000,8.000000,3.000000
1305378.403768,-2.000000,-15.000000,-44.000000,1.000000,11.000000,5.000000,9.000000,-10.000000
1305378.408285,5.000000,30.000000,103.000000,15.000000,17.000000,-2.000000,12.000000,21.000000
1305378.408303,1.000000,-13.000000,119.000000,24.000000,0.000000,4.000000,-3.000000,4.000000
1305378.422256,-2.000000,-21.000000,2.000000,-4.000000,20.000000,19.000000,7.000000,3.000000
1305378.422266,-3.000000,-6.000000,-1.000000,7.000000,-6.000000,-22.000000,3.000000,14.000000
1305378.437290,12.000000,21.000000,22.000000,0.000000,9.000000,9.000000,6.000000,21.000000
1305378.437301,21.000000,31.000000,-50.000000,-4.000000,-17.000000,3.000000,44.000000,49.000000
1305378.437960,21.000000,-4.000000,12.000000,21.000000,33.000000,42.000000,13.000000,17.000000
1305378.437968,-17.000000,-12.000000,-10.000000,6.000000,37.000000,-9.000000,-23.000000,-20.000000
1305378.452395,-5.000000,17.000000,-10.000000,-1.000000,10.000000,-1.000000,-2.000000,1.000000
1305378.452405,4.000000,4.000000,58.000000,34.000000,15.000000,5.000000,-16.000000,-15.000000
1305378.459906,-9.000000,-6.000000,-13.000000,-9.000000,-5.000000,-10.000000,10.000000,14.000000
1305378.459928,-2.000000,-21.000000,-11.000000,-1.000000,12.000000,-4.000000,-22.000000,-10.000000
1305378.497411,12.000000,0.000000,19.000000,0.000000,-23.000000,-4.000000,-3.000000,-2.000000
1305378.497425,-41.000000,-28.000000,-63.000000,-16.000000,-8.000000,-33.000000,-15.000000,-23.000000
1305378.504815,26.000000,40.000000,62.000000,-9.000000,-15.000000,7.000000,15.000000,17.000000
1305378.504826,2.000000,-27.000000,-31.000000,-2.000000,-1.000000,-23.000000,-6.000000,10.000000
1305378.527475,-8.000000,-9.000000,-18.000000,-38.000000,-53.000000,7.000000,8.000000,-10.000000
1305378.527486,9.000000,16.000000,20.000000,11.000000,-38.000000,-33.000000,6.000000,-4.000000
1305378.542417,-1.000000,-1.000000,-17.000000,-3.000000,16.000000,0.000000,-10.000000,-3.000000
1305378.542435,-13.000000,0.000000,11.000000,-3.000000,-13.000000,22.000000,-4.000000,-10.000000
1305378.543263,28.000000,-6.000000,20.000000,-9.000000,-15.000000,9.000000,-1.000000,7.000000
1305378.543272,-23.000000,38.000000,74.000000,7.000000,-6.000000,0.000000,-6.000000,-6.000000
1305378.544069,25.000000,-15.000000,-37.000000,-6.000000,-4.000000,13.000000,-3.000000,4.000000
1305378.544083,-12.000000,-15.000000,12.000000,4.000000,13.000000,9.000000,-20.000000,-9.000000
1305378.545354,16.000000,-9.000000,-10.000000,-7.000000,32.000000,-12.000000,-11.000000,1.000000
1305378.545372,18.000000,7.000000,83.000000,18.000000,-32.000000,12.000000,-2.000000,18.000000
1305378.557164,-12.000000,-2.000000,-30.000000,-11.000000,-9.000000,-4.000000,12.000000,4.000000
1305378.557173,-7.000000,-18.000000,-35.000000,10.000000,16.000000,23.000000,-22.000000,-16.000000
1305378.558019,-23.000000,22.000000,55.000000,11.000000,4.000000,-17.000000,-18.000000,-10.000000
1305378.558029,32.000000,-8.000000,-43.000000,-5.000000,15.000000,10.000000,50.000000,77.000000
1305378.572618,5.000000,40.000000,40.000000,21.000000,10.000000,-6.000000,-11.000000,-4.000000
1305378.572629,2.000000,1.000000,-72.000000,-28.000000,-32.000000,-9.000000,-22.000000,-14.000000
1305378.580132,-10.000000,-21.000000,-49.000000,4.000000,18.000000,-1.000000,21.000000,5.000000
1305378.580149,-3.000000,-3.000000,11.000000,7.000000,2.000000,-11.000000,-10.000000,5.000000
1305378.602278,12.000000,2.000000,17.000000,-4.000000,7.000000,-25.000000,-8.000000,-12.000000
1305378.602288,10.000000,-13.000000,4.000000,-2.000000,5.000000,7.000000,9.000000,7.000000
1305378.617526,-6.000000,38.000000,-14.000000,2.000000,-3.000000,-11.000000,-15.000000,-19.000000
1305378.617555,5.000000,16.000000,43.000000,4.000000,-5.000000,-4.000000,-1.000000,1.000000
1305378.640290,-7.000000,-9.000000,-38.000000,-17.000000,-2.000000,5.000000,-5.000000,-2.000000
1305378.640406,-31.000000,9.000000,49.000000,21.000000,-27.000000,18.000000,6.000000,-16.000000
1305378.641004,16.000000,-18.000000,-48.000000,-14.000000,7.000000,-1.000000,7.000000,11.000000
1305378.641012,3.000000,27.000000,-70.000000,16.000000,26.000000,-17.000000,-3.000000,-10.000000
1305378.642171,-26.000000,-7.000000,-1.000000,-11.000000,9.000000,-1.000000,-25.000000,-12.000000
1305378.642199,19.000000,23.000000,34.000000,9.000000,0.000000,24.000000,33.000000,21.000000
1305378.643109,-7.000000,4.000000,-37.000000,-8.000000,-4.000000,-19.000000,2.000000,2.000000
1305378.643118,-15.000000,-16.000000,53.000000,-6.000000,-27.000000,0.000000,-5.000000,-9.000000
1305378.655600,14.000000,-13.000000,-17.000000,7.000000,30.000000,-3.000000,-14.000000,-6.000000
1305378.655608,8.000000,-5.000000,-24.000000,-20.000000,-26.000000,22.000000,20.000000,40.000000
1305378.662476,-1.000000,17.000000,18.000000,15.000000,19.000000,-6.000000,-2.000000,-10.000000
1305378.662491,-8.000000,5.000000,32.000000,-12.000000,-11.000000,5.000000,19.000000,16.000000
1305378.677340,1.000000,20.000000,1.000000,18.000000,-5.000000,-2.000000,-14.000000,-21.000000
1305378.677351,28.000000,31.000000,-15.000000,11.000000,22.000000,21.000000,27.000000,18.000000
1305378.678145,-38.000000,-41.000000,-8.000000,5.000000,32.000000,-2.000000,-27.000000,-14.000000
1305378.678161,27.000000,14.000000,14.000000,-33.000000,-70.000000,-19.000000,4.000000,11.000000
1305378.700172,-36.000000,-13.000000,-5.000000,-2.000000,3.000000,7.000000,-1.000000,-18.000000
1305378.700192,-18.000000,-48.000000,-42.000000,-8.000000,12.000000,23.000000,30.000000,20.000000
1305378.715074,42.000000,73.000000,38.000000,-6.000000,2.000000,-2.000000,-12.000000,2.000000
1305378.715095,-5.000000,5.000000,-17.000000,7.000000,2.000000,-23.000000,2.000000,-1.000000
1305378.730041,-3.000000,-7.000000,26.000000,1.000000,15.000000,18.000000,-6.000000,0.000000
1305378.730051,-9.000000,-19.000000,-15.000000,-5.000000,-4.000000,-1.000000,-14.000000,-8.000000
1305378.759776,-12.000000,-4.000000,-25.000000,21.000000,54.000000,11.000000,-10.000000,-3.000000
1305378.759786,6.000000,11.000000,35.000000,-4.000000,-17.000000,-16.000000,-6.000000,-1.000000
1305378.760793,-2.000000,-1.000000,-6.000000,7.000000,16.000000,1.000000,3.000000,-17.000000
1305378.760800,-2.000000,1.000000,0.000000,3.000000,16.000000,-12.000000,5.000000,-2.000000
1305378.761598,-4.000000,-20.000000,-20.000000,-2.000000,8.000000,-5.000000,-4.000000,-1.000000
1305378.761606,-2.000000,30.000000,-12.000000,7.000000,20.000000,0.000000,-5.000000,-3.000000
1305378.762894,1.000000,-17.000000,-14.000000,-28.000000,-50.000000,-5.000000,-1.000000,3.000000
1305378.762903,-2.000000,23.000000,-11.000000,-5.000000,-25.000000,9.000000,5.000000,-9.000000
1305378.763753,-35.000000,-5.000000,3.000000,12.000000,34.000000,-36.000000,-29.000000,-23.000000
1305378.763761,55.000000,-3.000000,-14.000000,-2.000000,12.000000,2.000000,34.000000,28.000000
1305378.775444,-21.000000,-24.000000,-17.000000,-9.000000,-8.000000,1.000000,0.000000,-9.000000
1305378.775473,3.000000,11.000000,-31.000000,-1.000000,13.000000,12.000000,1.000000,3.000000
1305378.782176,12.000000,22.000000,81.000000,28.000000,16.000000,-4.000000,4.000000,4.000000
1305378.782185,-14.000000,-3.000000,-54.000000,-1.000000,20.000000,4.000000,4.000000,-3.000000
1305378.797582,31.000000,-59.000000,-108.000000,-28.000000,-34.000000,-24.000000,-2.000000,11.000000
1305378.797593,-3.000000,37.000000,85.000000,22.000000,10.000000,-13.000000,13.000000,4.000000
1305378.805121,-19.000000,-13.000000,16.000000,4.000000,39.000000,8.000000,5.000000,-5.000000
1305378.805133,-23.000000,-22.000000,-18.000000,-9.000000,-16.000000,-1.000000,-4.000000,-7.000000
1305378.834864,1.000000,-18.000000,-27.000000,4.000000,17.000000,-3.000000,-12.000000,-21.000000
1305378.834875,-13.000000,-32.000000,-41.000000,-1.000000,4.000000,-6.000000,15.000000,8.000000
1305378.842558,23.000000,28.000000,52.000000,-22.000000,-42.000000,-11.000000,-11.000000,0.000000
1305378.842569,5.000000,-12.000000,26.000000,4.000000,3.000000,-14.000000,-12.000000,-7.000000
1305378.872471,-12.000000,-13.000000,-52.000000,-17.000000,0.000000,-12.000000,-56.000000,-17.000000
1305378.872492,-6.000000,17.000000,5.000000,28.000000,53.000000,7.000000,15.000000,-6.000000
1305378.879822,10.000000,-18.000000,-15.000000,-30.000000,-70.000000,-3.000000,17.000000,2.000000
1305378.879833,-15.000000,3.000000,-2.000000,19.000000,8.000000,-5.000000,-25.000000,-4.000000
1305378.895107,1.000000,-28.000000,33.000000,0.000000,4.000000,7.000000,4.000000,-9.000000
1305378.895118,1.000000,-3.000000,-13.000000,6.000000,9.000000,8.000000,35.000000,0.000000
1305378.917547,-1.000000,1.000000,-44.000000,-11.000000,-1.000000,3.000000,-2.000000,2.000000
1305378.917557,-2.000000,-17.000000,31.000000,15.000000,9.000000,7.000000,-14.000000,-7.000000
1305378.940103,0.000000,0.000000,-7.000000,-3.000000,31.000000,-13.000000,-16.000000,0.000000
1305378.940114,-1.000000,4.000000,35.000000,10.000000,-20.000000,34.000000,-4.000000,-12.000000
1305378.970033,-2.000000,58.000000,24.000000,25.000000,37.000000,14.000000,-10.000000,-2.000000
1305378.970043,1.000000,-9.000000,0.000000,-17.000000,-18.000000,-16.000000,-13.000000,-10.000000
1305378.977176,1.000000,-4.000000,-36.000000,-25.000000,-27.000000,-1.000000,1.000000,3.000000
1305378.977208,-25.000000,-17.000000,54.000000,13.000000,21.000000,1.000000,-3.000000,-24.000000
1305378.977666,15.000000,11.000000,36.000000,-4.000000,-25.000000,0.000000,-2.000000,4.000000
1305378.977674,-41.000000,-42.000000,-13.000000,2.000000,-2.000000,-7.000000,-11.000000,-10.000000
1305378.978405,36.000000,47.000000,35.000000,13.000000,22.000000,7.000000,-5.000000,0.000000
1305378.978412,-14.000000,-1.000000,9.000000,7.000000,29.000000,13.000000,-15.000000,-17.000000
1305378.979922,-60.000000,0.000000,-3.000000,39.000000,75.000000,-5.000000,-46.000000,-22.000000
1305378.979930,97.000000,22.000000,32.000000,16.000000,-42.000000,53.000000,77.000000,89.000000
1305378.992395,-8.000000,-13.000000,8.000000,-29.000000,-84.000000,5.000000,10.000000,-8.000000
1305378.992405,9.000000,24.000000,-54.000000,12.000000,34.000000,5.000000,-4.000000,-2.000000
1305378.993898,0.000000,9.000000,85.000000,7.000000,-1.000000,1.000000,-16.000000,-8.000000
1305378.993909,-15.000000,-13.000000,-29.000000,31.000000,41.000000,-31.000000,-24.000000,-9.000000
1305379.000035,11.000000,15.000000,-27.000000,-30.000000,-33.000000,6.000000,21.000000,6.000000
1305379.000045,-12.000000,-2.000000,-22.000000,7.000000,21.000000,20.000000,6.000000,-25.000000
1305379.015000,-4.000000,-24.000000,-7.000000,20.000000,61.000000,39.000000,5.000000,10.000000
1305379.015029,27.000000,-18.000000,-24.000000,-10.000000,-33.000000,-10.000000,-3.000000,3.000000
1305379.037483,2.000000,68.000000,46.000000,9.000000,16.000000,10.000000,-2.000000,1.000000
1305379.037495,-17.000000,15.000000,-8.000000,9.000000,24.000000,13.000000,12.000000,1.000000
1305379.038607,13.000000,-4.000000,59.000000,39.000000,7.000000,1.000000,-7.000000,4.000000
1305379.038615,-5.000000,8.000000,-53.000000,-26.000000,21.000000,40.000000,-16.000000,-7.000000
1305379.052587,-24.000000,-2.000000,-13.000000,-17.000000,-22.000000,-37.000000,12.000000,-2.000000
1305379.052637,39.000000,16.000000,1.000000,-17.000000,-46.000000,7.000000,2.000000,9.000000
1305379.074939,-12.000000,-17.000000,-7.000000,11.000000,21.000000,5.000000,-1.000000,4.000000
1305379.074950,9.000000,21.000000,3.000000,17.000000,27.000000,7.000000,-26.000000,-9.000000
1305379.082557,5.000000,-8.000000,23.000000,16.000000,7.000000,11.000000,49.000000,11.000000
1305379.082567,-14.000000,-18.000000,2.000000,-2.000000,2.000000,-3.000000,-3.000000,-2.000000
1305379.097812,-10.000000,20.000000,-11.000000,20.000000,34.000000,21.000000,-7.000000,-6.000000
1305379.097836,18.000000,-25.000000,-14.000000,-2.000000,-12.000000,-14.000000,9.000000,2.000000
1305379.104963,-2.000000,3.000000,5.000000,3.000000,0.000000,-7.000000,-1.000000,3.000000
1305379.104984,-12.000000,16.000000,24.000000,22.000000,44.000000,30.000000,-13.000000,-8.000000
1305379.113172,-1.000000,-15.000000,-71.000000,3.000000,7.000000,-12.000000,-14.000000,-15.000000
1305379.113230,7.000000,67.000000,127.000000,18.000000,-12.000000,13.000000,31.000000,62.000000
1305379.113506,-12.000000,-10.000000,-36.000000,-26.000000,-51.000000,-21.000000,-13.000000,-8.000000
1305379.113533,23.000000,5.000000,32.000000,2.000000,37.000000,24.000000,30.000000,17.000000
1305379.115242,-10.000000,21.000000,-5.000000,21.000000,4.000000,-7.000000,0.000000,26.000000
1305379.115267,-3.000000,-24.000000,24.000000,-16.000000,-41.000000,-16.000000,7.000000,1.000000
1305379.120115,23.000000,9.000000,51.000000,13.000000,-3.000000,-10.000000,-6.000000,-14.000000
1305379.120125,6.000000,14.000000,29.000000,3.000000,-34.000000,-11.000000,61.000000,30.000000
1305379.135493,-9.000000,-5.000000,-36.000000,2.000000,8.000000,17.000000,-22.000000,-8.000000
1305379.135536,-14.000000,-19.000000,-29.000000,-13.000000,-26.000000,-17.000000,-13.000000,-1.000000
1305379.149840,-4.000000,8.000000,73.000000,18.000000,19.000000,16.000000,-5.000000,2.000000
1305379.149851,27.000000,27.000000,4.000000,8.000000,22.000000,7.000000,3.000000,12.000000
1305379.151045,0.000000,12.000000,14.000000,-5.000000,-28.000000,-23.000000,-25.000000,-11.000000
1305379.151053,-24.000000,-16.000000,-39.000000,-8.000000,-6.000000,3.000000,-4.000000,-4.000000
1305379.172581,12.000000,36.000000,43.000000,12.000000,23.000000,6.000000,34.000000,9.000000
1305379.172592,-11.000000,-6.000000,-2.000000,1.000000,2.000000,3.000000,-9.000000,-4.000000
1305379.210310,-5.000000,-28.000000,-58.000000,0.000000,-11.000000,-4.000000,-5.000000,-12.000000
1305379.210332,3.000000,23.000000,25.000000,-18.000000,-1.000000,1.000000,1.000000,8.000000
1305379.217662,-1.000000,-48.000000,-7.000000,-29.000000,-40.000000,-22.000000,-4.000000,-13.000000
1305379.217804,-5.000000,4.000000,-47.000000,-2.000000,-19.000000,-19.000000,-5.000000,-10.000000
1305379.218429,-30.000000,-31.000000,-71.000000,-11.000000,44.000000,-33.000000,-29.000000,-21.000000
1305379.218438,-3.000000,1.000000,47.000000,17.000000,5.000000,21.000000,31.000000,29.000000
1305379.218993,-6.000000,-32.000000,-54.000000,-12.000000,-2.000000,19.000000,8.000000,3.000000
1305379.219002,-1.000000,66.000000,45.000000,20.000000,7.000000,-15.000000,-64.000000,-20.000000
1305379.221054,-11.000000,-36.000000,9.000000,-15.000000,-31.000000,21.000000,68.000000,26.000000
1305379.221066,-13.000000,-32.000000,24.000000,4.000000,-14.000000,-30.000000,-7.000000,-6.000000
1305379.232395,34.000000,64.000000,-15.000000,-11.000000,4.000000,-6.000000,-34.000000,-10.000000
1305379.232418,-9.000000,-8.000000,27.000000,3.000000,13.000000,-16.000000,-9.000000,-6.000000
1305379.233950,-9.000000,5.000000,-21.000000,-4.000000,-18.000000,-3.000000,0.000000,-8.000000
1305379.233959,-57.000000,-22.000000,16.000000,0.000000,20.000000,11.000000,-15.000000,-6.000000
1305379.254754,34.000000,22.000000,25.000000,3.000000,14.000000,2.000000,-16.000000,-1.000000
1305379.254769,-10.000000,13.000000,10.000000,1.000000,10.000000,0.000000,-4.000000,-11.000000
1305379.256197,4.000000,5.000000,-6.000000,15.000000,17.000000,-6.000000,-3.000000,-1.000000
1305379.256205,-17.000000,-7.000000,-14.000000,-14.000000,-42.000000,-2.000000,1.000000,4.000000
1305379.270085,18.000000,46.000000,35.000000,8.000000,17.000000,1.000000,-22.000000,-24.000000
1305379.270097,1.000000,15.000000,59.000000,20.000000,14.000000,21.000000,34.000000,32.000000
1305379.271105,17.000000,-1.000000,35.000000,-3.000000,3.000000,3.000000,13.000000,18.000000
1305379.271114,-8.000000,-1.000000,-19.000000,-27.000000,-17.000000,-5.000000,-11.000000,-11.000000
1305379.292496,-8.000000,-23.000000,-28.000000,-12.000000,-45.000000,-1.000000,3.000000,-7.000000
1305379.292506,-4.000000,23.000000,121.000000,2.000000,-5.000000,4.000000,-14.000000,-16.000000
1305379.330048,-21.000000,-7.000000,31.000000,12.000000,-16.000000,23.000000,4.000000,-14.000000
1305379.330066,29.000000,-14.000000,-56.000000,-3.000000,3.000000,-2.000000,26.000000,11.000000
1305379.337379,-13.000000,0.000000,-3.000000,-20.000000,-36.000000,-9.000000,-15.000000,-17.000000
1305379.337396,13.000000,20.000000,7.000000,4.000000,-2.000000,-20.000000,-1.000000,3.000000
1305379.352783,-5.000000,3.000000,5.000000,8.000000,7.000000,-4.000000,-8.000000,-6.000000
1305379.352794,-27.000000,-23.000000,-24.000000,-7.000000,5.000000,0.000000,-6.000000,-8.000000
1305379.353399,-1.000000,-1.000000,-3.000000,-7.000000,-15.000000,-24.000000,-38.000000,-26.000000
1305379.353408,17.000000,35.000000,-13.000000,-23.000000,-31.000000,7.000000,4.000000,3.000000
1305379.354750,9.000000,28.000000,127.000000,22.000000,-25.000000,6.000000,5.000000,12.000000
1305379.354760,18.000000,-13.000000,-30.000000,-3.000000,8.000000,-3.000000,17.000000,10.000000
1305379.356674,-11.000000,-14.000000,31.000000,21.000000,18.000000,17.000000,-13.000000,4.000000
1305379.356688,6.000000,14.000000,-5.000000,-9.000000,-26.000000,-4.000000,22.000000,0.000000
1305379.360167,6.000000,-6.000000,-18.000000,7.000000,6.000000,-4.000000,-1.000000,2.000000
1305379.360180,-12.000000,0.000000,34.000000,20.000000,12.000000,-3.000000,-1.000000,-5.000000
1305379.375753,-7.000000,7.000000,20.000000,-4.000000,22.000000,8.000000,1.000000,-7.000000
1305379.375762,3.000000,-48.000000,-42.000000,-13.000000,-19.000000,-8.000000,-3.000000,0.000000
1305379.382430,-8.000000,9.000000,-26.000000,-6.000000,6.000000,0.000000,-7.000000,-6.000000
1305379.382462,-8.000000,-7.000000,-54.000000,-5.000000,5.000000,-6.000000,0.000000,-6.000000
1305379.397298,10.000000,-27.000000,11.000000,21.000000,7.000000,-8.000000,26.000000,26.000000
1305379.397308,-2.000000,1.000000,-12.000000,-8.000000,-7.000000,-2.000000,-12.000000,5.000000
1305379.412395,-4.000000,13.000000,-26.000000,-12.000000,-14.000000,-10.000000,7.000000,0.000000
1305379.412405,-17.000000,-23.000000,-87.000000,-33.000000,-15.000000,-3.000000,-5.000000,-8.000000
1305379.434713,39.000000,32.000000,127.000000,42.000000,13.000000,4.000000,-3.000000,17.000000
1305379.434742,-19.000000,14.000000,-1.000000,-10.000000,7.000000,6.000000,7.000000,-12.000000
1305379.442462,19.000000,4.000000,15.000000,-16.000000,-48.000000,0.000000,4.000000,21.000000
1305379.442474,-17.000000,-21.000000,-68.000000,-40.000000,-15.000000,-17.000000,-19.000000,-23.000000
1305379.472393,4.000000,-2.000000,-32.000000,5.000000,-5.000000,5.000000,-14.000000,-4.000000
1305379.472417,-11.000000,20.000000,11.000000,28.000000,49.000000,0.000000,3.000000,-2.000000
1305379.487165,23.000000,22.000000,12.000000,-6.000000,-29.000000,-9.000000,2.000000,13.000000
1305379.487197,1.000000,-10.000000,-17.000000,-1.000000,6.000000,-7.000000,-31.000000,-14.000000
1305379.488681,4.000000,4.000000,-5.000000,2.000000,-6.000000,-13.000000,33.000000,18.000000
1305379.488689,-1.000000,46.000000,-30.000000,17.000000,21.000000,7.000000,-1.000000,11.000000
1305379.489787,-21.000000,-35.000000,-29.000000,-18.000000,-14.000000,-15.000000,14.000000,0.000000
1305379.489795,14.000000,15.000000,2.000000,17.000000,32.000000,-22.000000,-16.000000,-17.000000
1305379.490654,-11.000000,-31.000000,-37.000000,-35.000000,-45.000000,2.000000,5.000000,-3.000000
1305379.490663,-5.000000,-33.000000,53.000000,7.000000,6.000000,-9.000000,-3.000000,11.000000
1305379.495108,-6.000000,0.000000,19.000000,-10.000000,10.000000,9.000000,-2.000000,1.000000
1305379.495118,13.000000,14.000000,-3.000000,-5.000000,-7.000000,1.000000,10.000000,15.000000
1305379.510714,-18.000000,-25.000000,-15.000000,-15.000000,-56.000000,-38.000000,-10.000000,-2.000000
1305379.510763,-43.000000,13.000000,33.000000,2.000000,-1.000000,-48.000000,-40.000000,-33.000000
1305379.511547,56.000000,-19.000000,11.000000,-19.000000,-36.000000,2.000000,18.000000,50.000000
1305379.511559,-6.000000,-32.000000,-7.000000,11.000000,20.000000,-18.000000,21.000000,-9.000000
1305379.555612,-17.000000,4.000000,27.000000,2.000000,-4.000000,14.000000,8.000000,-20.000000
1305379.555622,-8.000000,15.000000,40.000000,14.000000,12.000000,-2.000000,-16.000000,-8.000000
1305379.569896,17.000000,23.000000,-22.000000,14.000000,48.000000,-5.000000,27.000000,12.000000
1305379.569915,-2.000000,-14.000000,-75.000000,-28.000000,-61.000000,25.000000,16.000000,25.000000
1305379.600090,-14.000000,-27.000000,-64.000000,-21.000000,-16.000000,-18.000000,-16.000000,-14.000000
1305379.600117,-4.000000,-1.000000,67.000000,14.000000,-21.000000,-26.000000,-7.000000,2.000000
1305379.607551,-11.000000,-15.000000,-46.000000,2.000000,21.000000,-2.000000,-9.000000,-11.000000
1305379.607567,6.000000,11.000000,21.000000,-3.000000,-22.000000,-2.000000,-4.000000,2.000000
1305379.608951,4.000000,-20.000000,-51.000000,-15.000000,-32.000000,-42.000000,13.000000,12.000000
1305379.609105,-2.000000,8.000000,67.000000,10.000000,4.000000,3.000000,-6.000000,-1.000000
1305379.609406,-1.000000,-3.000000,-16.000000,-6.000000,-3.000000,-10.000000,-3.000000,-6.000000
1305379.609413,-34.000000,-20.000000,-16.000000,30.000000,70.000000,-10.000000,1.000000,-4.000000
1305379.615141,-2.000000,-1.000000,-12.000000,6.000000,23.000000,27.000000,3.000000,-6.000000
1305379.615159,-9.000000,-22.000000,-16.000000,-2.000000,-10.000000,-7.000000,2.000000,1.000000
1305379.630341,-18.000000,-15.000000,-59.000000,1.000000,44.000000,-9.000000,-8.000000,-8.000000
1305379.630358,13.000000,41.000000,74.000000,-24.000000,-91.000000,7.000000,20.000000,22.000000
1305379.631037,5.000000,-5.000000,76.000000,15.000000,8.000000,2.000000,-2.000000,-9.000000
1305379.631046,-17.000000,-33.000000,30.000000,-6.000000,-3.000000,-13.000000,-43.000000,-25.000000
1305379.667687,19.000000,19.000000,-22.000000,-1.000000,8.000000,2.000000,42.000000,23.000000
1305379.667711,-25.000000,-32.000000,-29.000000,-14.000000,-15.000000,14.000000,20.000000,-21.000000
1305379.675011,36.000000,19.000000,28.000000,5.000000,-8.000000,6.000000,7.000000,20.000000
1305379.675020,-23.000000,-28.000000,-62.000000,-11.000000,40.000000,-8.000000,-12.000000,-22.000000
1305379.705090,6.000000,21.000000,10.000000,0.000000,-4.000000,-11.000000,-21.000000,-14.000000
1305379.705102,27.000000,19.000000,-29.000000,4.000000,35.000000,25.000000,-15.000000,2.000000
1305379.712407,-3.000000,1.000000,3.000000,-18.000000,-47.000000,-14.000000,1.000000,0.000000
1305379.712418,-27.000000,-15.000000,10.000000,8.000000,14.000000,-5.000000,-4.000000,-5.000000
1305379.727659,-16.000000,-23.000000,-34.000000,-3.000000,6.000000,-1.000000,-43.000000,-11.000000
1305379.727672,-5.000000,-1.000000,57.000000,22.000000,7.000000,6.000000,48.000000,-36.000000
1305379.728131,8.000000,-3.000000,-1.000000,3.000000,0.000000,-14.000000,14.000000,12.000000
1305379.728141,-10.000000,-11.000000,10.000000,-5.000000,-4.000000,16.000000,1.000000,-1.000000
1305379.729026,24.000000,44.000000,25.000000,16.000000,16.000000,3.000000,-17.000000,-7.000000
1305379.729036,-29.000000,-9.000000,-50.000000,-3.000000,10.000000,1.000000,2.000000,2.000000
1305379.731014,6.000000,59.000000,121.000000,18.000000,4.000000,2.000000,2.000000,-1.000000
1305379.731027,-10.000000,-5.000000,-19.000000,19.000000,34.000000,7.000000,-3.000000,-3.000000
1305379.742535,-21.000000,-26.000000,-19.000000,-1.000000,25.000000,-19.000000,-2.000000,-11.000000
1305379.742559,19.000000,11.000000,-34.000000,2.000000,3.000000,10.000000,-22.000000,10.000000
1305379.750575,5.000000,-6.000000,11.000000,7.000000,2.000000,-4.000000,25.000000,-10.000000
1305379.750592,-18.000000,-71.000000,-7.000000,4.000000,13.000000,1.000000,-9.000000,-6.000000
1305379.764866,6.000000,-59.000000,-28.000000,-3.000000,14.000000,-28.000000,-13.000000,-10.000000
1305379.764877,18.000000,108.000000,45.000000,-23.000000,-53.000000,18.000000,23.000000,9.000000
1305379.787737,-14.000000,-13.000000,-128.000000,-10.000000,-11.000000,-1.000000,6.000000,1.000000
1305379.787789,14.000000,27.000000,72.000000,28.000000,25.000000,5.000000,-17.000000,-8.000000
1305379.794896,2.000000,-21.000000,-21.000000,-24.000000,-66.000000,16.000000,-4.000000,-3.000000
1305379.794939,15.000000,10.000000,-65.000000,-24.000000,-4.000000,-13.000000,10.000000,4.000000
1305379.809626,-15.000000,-25.000000,10.000000,12.000000,30.000000,17.000000,-10.000000,-10.000000
1305379.809636,-9.000000,24.000000,30.000000,-21.000000,-12.000000,-4.000000,-18.000000,-19.000000
1305379.810111,-13.000000,-17.000000,51.000000,6.000000,-25.000000,12.000000,3.000000,9.000000
1305379.810119,-4.000000,-14.000000,5.000000,5.000000,13.000000,3.000000,5.000000,5.000000
1305379.811616,10.000000,7.000000,0.000000,-7.000000,-15.000000,3.000000,2.000000,19.000000
1305379.811624,-15.000000,-8.000000,-14.000000,3.000000,18.000000,-22.000000,-17.000000,-12.000000
1305379.825012,7.000000,1.000000,10.000000,-18.000000,-47.000000,-11.000000,-2.000000,11.000000
1305379.825125,-4.000000,-4.000000,3.000000,21.000000,20.000000,36.000000,-17.000000,-30.000000
1305379.826449,-2.000000,-15.000000,-7.000000,-9.000000,7.000000,-4.000000,-1.000000,13.000000
1305379.826461,-5.000000,-40.000000,-48.000000,4.000000,15.000000,-5.000000,-22.000000,-28.000000
1305379.832375,6.000000,7.000000,9.000000,-13.000000,-24.000000,-5.000000,0.000000,-11.000000
1305379.832385,0.000000,2.000000,35.000000,21.000000,11.000000,-12.000000,-34.000000,-10.000000
1305379.847954,-26.000000,-10.000000,-51.000000,-16.000000,-3.000000,38.000000,10.000000,-10.000000
1305379.847972,45.000000,3.000000,9.000000,1.000000,-20.000000,-9.000000,19.000000,17.000000
1305379.870117,14.000000,48.000000,7.000000,14.000000,22.000000,-1.000000,17.000000,30.000000
1305379.870128,0.000000,-33.000000,-68.000000,-6.000000,2.000000,-4.000000,-3.000000,1.000000
1305379.892251,3.000000,37.000000,31.000000,19.000000,69.000000,23.000000,10.000000,2.000000
1305379.892262,1.000000,-14.000000,-11.000000,16.000000,-10.000000,-1.000000,-3.000000,-15.000000
1305379.907517,4.000000,4.000000,-15.000000,-21.000000,-51.000000,2.000000,4.000000,7.000000
1305379.907550,-40.000000,-3.000000,-70.000000,-34.000000,-1.000000,1.000000,-11.000000,-32.000000
1305379.930147,34.000000,3.000000,3.000000,18.000000,2.000000,-12.000000,7.000000,44.000000
1305379.930176,5.000000,15.000000,24.000000,9.000000,26.000000,45.000000,37.000000,20.000000
1305379.937642,19.000000,2.000000,-5.000000,-5.000000,-12.000000,6.000000,10.000000,11.000000
1305379.937690,-3.000000,35.000000,53.000000,1.000000,-3.000000,-7.000000,-4.000000,-7.000000
1305379.952243,-2.000000,24.000000,15.000000,47.000000,59.000000,-23.000000,-7.000000,6.000000
1305379.952254,-3.000000,-69.000000,-56.000000,-26.000000,-39.000000,10.000000,-16.000000,-11.000000
1305379.952837,3.000000,21.000000,-13.000000,-12.000000,11.000000,-9.000000,7.000000,5.000000
1305379.952849,4.000000,10.000000,36.000000,-14.000000,-54.000000,15.000000,34.000000,29.000000
1305379.954443,-1.000000,-19.000000,54.000000,3.000000,8.000000,-1.000000,0.000000,-8.000000
1305379.954463,9.000000,-2.000000,-34.000000,-9.000000,-41.000000,-4.000000,0.000000,10.000000
1305379.955808,-15.000000,19.000000,50.000000,7.000000,8.000000,2.000000,-22.000000,-30.000000
1305379.955816,10.000000,28.000000,-42.000000,-5.000000,5.000000,15.000000,13.000000,-9.000000
1305379.967970,-14.000000,-13.000000,-4.000000,-6.000000,13.000000,-3.000000,-6.000000,-15.000000
1305379.967980,-24.000000,-9.000000,-22.000000,-55.000000,-108.000000,-9.000000,17.000000,7.000000
1305379.982135,16.000000,-33.000000,0.000000,-9.000000,10.000000,-5.000000,-9.000000,0.000000
1305379.982144,12.000000,40.000000,-19.000000,16.000000,59.000000,11.000000,4.000000,7.000000
1305379.983667,11.000000,27.000000,36.000000,-27.000000,-87.000000,20.000000,9.000000,12.000000
1305379.983686,14.000000,-13.000000,-62.000000,-11.000000,-18.000000,-8.000000,13.000000,4.000000
1305379.997722,-25.000000,-44.000000,-10.000000,13.000000,67.000000,-1.000000,-26.000000,-25.000000
1305379.997742,-31.000000,-29.000000,-12.000000,3.000000,9.000000,-5.000000,-9.000000,0.000000
1305380.019961,25.000000,11.000000,-24.000000,-10.000000,-15.000000,3.000000,-15.000000,-6.000000
1305380.019990,-6.000000,-10.000000,-5.000000,3.000000,11.000000,4.000000,0.000000,-3.000000
1305380.027589,-7.000000,-2.000000,23.000000,10.000000,27.000000,11.000000,-23.000000,9.000000
1305380.027600,-7.000000,-3.000000,-28.000000,-24.000000,-33.000000,12.000000,18.000000,-22.000000
1305380.049831,11.000000,-3.000000,-23.000000,12.000000,14.000000,-4.000000,27.000000,23.000000
1305380.049860,0.000000,-6.000000,126.000000,-22.000000,-21.000000,16.000000,11.000000,-13.000000
1305380.065476,9.000000,35.000000,49.000000,10.000000,0.000000,-3.000000,-15.000000,-10.000000
1305380.065505,32.000000,46.000000,-4.000000,19.000000,29.000000,21.000000,42.000000,32.000000
1305380.065957,-22.000000,-5.000000,62.000000,5.000000,18.000000,-9.000000,-30.000000,-10.000000
1305380.065964,4.000000,-2.000000,-25.000000,-3.000000,-13.000000,-13.000000,9.000000,-12.000000
1305380.066642,-12.000000,-38.000000,-21.000000,-8.000000,-13.000000,-3.000000,-10.000000,-7.000000
1305380.066653,-29.000000,-11.000000,-50.000000,-3.000000,32.000000,-10.000000,-6.000000,-38.000000
1305380.068131,-5.000000,23.000000,-1.000000,16.000000,32.000000,9.000000,-3.000000,-3.000000
1305380.068139,28.000000,-61.000000,-77.000000,-17.000000,20.000000,-14.000000,-4.000000,-1.000000
1305380.072624,-4.000000,9.000000,70.000000,15.000000,-70.000000,-5.000000,-11.000000,-28.000000
1305380.072645,-16.000000,6.000000,-128.000000,-45.000000,-20.000000,-26.000000,-6.000000,-9.000000
1305380.088010,7.000000,8.000000,3.000000,-3.000000,7.000000,-9.000000,-2.000000,-2.000000
1305380.088020,-2.000000,6.000000,56.000000,29.000000,27.000000,-7.000000,-17.000000,3.000000
1305380.102588,-5.000000,-29.000000,-17.000000,-19.000000,-28.000000,7.000000,13.000000,8.000000
1305380.102602,19.000000,25.000000,17.000000,13.000000,15.000000,20.000000,47.000000,18.000000
1305380.103781,-5.000000,-24.000000,-26.000000,-15.000000,-4.000000,7.000000,2.000000,-3.000000
1305380.103791,-3.000000,6.000000,-6.000000,-6.000000,-28.000000,-5.000000,-7.000000,-2.000000
1305380.125069,-1.000000,1.000000,65.000000,-20.000000,-75.000000,-47.000000,-2.000000,-5.000000
1305380.125086,-30.000000,6.000000,-29.000000,-18.000000,-13.000000,-8.000000,1.000000,-10.000000
1305380.162502,33.000000,-10.000000,-23.000000,-12.000000,-16.000000,-16.000000,3.000000,13.000000
1305380.162532,13.000000,9.000000,15.000000,6.000000,-5.000000,-10.000000,9.000000,8.000000
1305380.169871,-21.000000,-59.000000,-21.000000,-9.000000,-13.000000,-17.000000,-34.000000,-14.000000
1305380.169891,-20.000000,3.000000,-30.000000,2.000000,9.000000,-4.000000,-36.000000,-29.000000
1305380.192634,25.000000,30.000000,-5.000000,-31.000000,-103.000000,26.000000,50.000000,41.000000
1305380.192646,-19.000000,-11.000000,0.000000,7.000000,24.000000,2.000000,-12.000000,-15.000000
1305380.200103,-17.000000,-36.000000,-28.000000,-13.000000,-13.000000,-20.000000,-8.000000,-6.000000
1305380.200116,9.000000,-4.000000,15.000000,9.000000,22.000000,-3.000000,17.000000,-2.000000
1305380.207620,10.000000,10.000000,-28.000000,-5.000000,-4.000000,21.000000,-14.000000,-7.000000
1305380.207635,5.000000,-35.000000,-47.000000,-15.000000,14.000000,-6.000000,-3.000000,8.000000
1305380.208019,-13.000000,-14.000000,1.000000,-5.000000,-18.000000,-13.000000,-3.000000,-8.000000
1305380.208036,14.000000,2.000000,30.000000,-7.000000,-18.000000,-4.000000,-5.000000,0.000000
1305380.210017,-6.000000,-5.000000,0.000000,-7.000000,-26.000000,4.000000,-1.000000,-1.000000
1305380.210028,-13.000000,-16.000000,-48.000000,17.000000,27.000000,-4.000000,-7.000000,-9.000000
1305380.222306,-26.000000,-21.000000,53.000000,20.000000,3.000000,-15.000000,-24.000000,-25.000000
1305380.222317,25.000000,33.000000,-23.000000,-6.000000,-8.000000,8.000000,-1.000000,9.000000
1305380.223807,20.000000,13.000000,22.000000,-14.000000,-40.000000,-18.000000,77.000000,10.000000
1305380.223835,-16.000000,-15.000000,-27.000000,-18.000000,9.000000,-8.000000,-20.000000,-15.000000
1305380.237493,-12.000000,8.000000,22.000000,29.000000,-13.000000,-36.000000,-26.000000,-18.000000
1305380.237504,0.000000,-12.000000,14.000000,-11.000000,-17.000000,6.000000,-3.000000,4.000000
1305380.260404,-3.000000,5.000000,-17.000000,-10.000000,-11.000000,-9.000000,1.000000,8.000000
1305380.260531,-17.000000,4.000000,40.000000,9.000000,18.000000,3.000000,-40.000000,-35.000000
1305380.267293,15.000000,-12.000000,-81.000000,-17.000000,-14.000000,-23.000000,27.000000,39.000000
1305380.267303,-13.000000,11.000000,24.000000,8.000000,5.000000,-5.000000,-7.000000,-1.000000
1305380.282290,1.000000,6.000000,22.000000,-8.000000,-22.000000,15.000000,7.000000,4.000000
1305380.282318,-5.000000,-7.000000,7.000000,3.000000,-1.000000,-2.000000,6.000000,4.000000
1305380.282731,5.000000,-2.000000,4.000000,9.000000,-5.000000,10.000000,8.000000,-9.000000
1305380.282740,-12.000000,-52.000000,-58.000000,-17.000000,5.000000,-32.000000,2.000000,6.000000
1305380.284234,-20.000000,18.000000,-12.000000,-2.000000,10.000000,3.000000,-14.000000,-15.000000
1305380.284262,11.000000,-4.000000,13.000000,6.000000,14.000000,16.000000,-11.000000,3.000000
1305380.305206,-10.000000,1.000000,98.000000,10.000000,-15.000000,0.000000,-8.000000,-14.000000
1305380.305339,-2.000000,-9.000000,3.000000,1.000000,-5.000000,-4.000000,21.000000,11.000000
1305380.306561,-2.000000,-9.000000,-31.000000,-3.000000,8.000000,-3.000000,-4.000000,-13.000000
1305380.306612,-22.000000,8.000000,31.000000,-1.000000,6.000000,-18.000000,-19.000000,-6.000000
1305380.312726,32.000000,-3.000000,-33.000000,-2.000000,4.000000,-5.000000,-5.000000,-10.000000
1305380.312748,-9.000000,26.000000,-3.000000,-18.000000,-28.000000,0.000000,8.000000,1.000000
1305380.328370,2.000000,-4.000000,-41.000000,2.000000,23.000000,-15.000000,-20.000000,-13.000000
1305380.328391,-2.000000,8.000000,48.000000,-5.000000,-24.000000,10.000000,-3.000000,5.000000
1305380.342562,-13.000000,-14.000000,-29.000000,-25.000000,-17.000000,-17.000000,-8.000000,0.000000
1305380.342572,3.000000,7.000000,5.000000,10.000000,19.000000,19.000000,8.000000,8.000000
1305380.365009,-10.000000,-42.000000,-29.000000,1.000000,-14.000000,-2.000000,-19.000000,-6.000000
1305380.365028,7.000000,5.000000,-61.000000,-39.000000,-50.000000,-1.000000,6.000000,-8.000000
1305380.379819,26.000000,34.000000,47.000000,14.000000,6.000000,1.000000,32.000000,37.000000
1305380.379828,6.000000,-16.000000,-52.000000,-26.000000,-13.000000,-30.000000,-19.000000,6.000000
1305380.394779,11.000000,13.000000,19.000000,13.000000,20.000000,22.000000,15.000000,-3.000000
1305380.394790,-23.000000,-28.000000,-29.000000,8.000000,39.000000,-1.000000,4.000000,12.000000
1305380.395215,11.000000,28.000000,10.000000,-26.000000,-52.000000,5.000000,-1.000000,-10.000000
1305380.395224,-7.000000,-29.000000,16.000000,-2.000000,4.000000,5.000000,-1.000000,-8.000000
1305380.396586,-15.000000,-14.000000,-76.000000,-9.000000,30.000000,5.000000,-15.000000,-13.000000
1305380.396596,4.000000,13.000000,115.000000,-2.000000,-38.000000,-7.000000,-3.000000,-3.000000
1305380.402170,14.000000,4.000000,52.000000,10.000000,8.000000,2.000000,12.000000,5.000000
1305380.402197,-20.000000,-27.000000,5.000000,17.000000,11.000000,1.000000,-15.000000,-9.000000
1305380.403601,8.000000,-6.000000,-41.000000,-31.000000,-29.000000,-9.000000,-2.000000,3.000000
1305380.403634,-35.000000,-4.000000,-7.000000,10.000000,21.000000,-14.000000,-31.000000,-23.000000
1305380.424883,-2.000000,21.000000,15.000000,-30.000000,-70.000000,13.000000,0.000000,-13.000000
1305380.424894,-6.000000,-16.000000,15.000000,11.000000,6.000000,7.000000,26.000000,8.000000
1305380.426131,-3.000000,7.000000,-2.000000,-5.000000,8.000000,-14.000000,-26.000000,-15.000000
1305380.426139,4.000000,15.000000,3.000000,5.000000,28.000000,20.000000,21.000000,0.000000
1305380.432570,-16.000000,-8.000000,-12.000000,33.000000,19.000000,4.000000,-7.000000,-4.000000
1305380.432581,-12.000000,-50.000000,-19.000000,-13.000000,-38.000000,-20.000000,-9.000000,11.000000
1305380.447976,10.000000,-58.000000,-86.000000,0.000000,39.000000,13.000000,-1.000000,-4.000000
1305380.448009,-11.000000,7.000000,50.000000,5.000000,7.000000,7.000000,-2.000000,-5.000000
1305380.462427,-9.000000,-3.000000,31.000000,2.000000,-6.000000,16.000000,13.000000,-3.000000
1305380.462445,-24.000000,-30.000000,-11.000000,-15.000000,-18.000000,-1.000000,0.000000,-5.000000
1305380.499801,14.000000,11.000000,-92.000000,12.000000,21.000000,-6.000000,9.000000,8.000000
1305380.499811,6.000000,-25.000000,28.000000,-6.000000,15.000000,-5.000000,-8.000000,1.000000
1305380.507238,-5.000000,37.000000,32.000000,18.000000,40.000000,-7.000000,-3.000000,-1.000000
1305380.507247,0.000000,4.000000,-52.000000,-26.000000,-47.000000,-4.000000,0.000000,-4.000000
1305380.523145,-21.000000,-64.000000,-37.000000,10.000000,22.000000,-11.000000,-13.000000,-10.000000
1305380.523154,14.000000,8.000000,-63.000000,-40.000000,-48.000000,22.000000,21.000000,26.000000
1305380.523560,-10.000000,21.000000,50.000000,2.000000,16.000000,-31.000000,-8.000000,-12.000000
1305380.523569,-11.000000,5.000000,-35.000000,-10.000000,6.000000,-22.000000,5.000000,2.000000
1305380.524797,-20.000000,-48.000000,-54.000000,5.000000,9.000000,2.000000,-34.000000,12.000000
1305380.524806,12.000000,28.000000,-3.000000,-7.000000,-21.000000,28.000000,41.000000,1.000000
1305380.525358,29.000000,-15.000000,-8.000000,-5.000000,-3.000000,-6.000000,-3.000000,5.000000
1305380.525366,-15.000000,0.000000,-15.000000,-55.000000,-86.000000,-11.000000,-20.000000,-1.000000
1305380.537505,-8.000000,-13.000000,11.000000,-1.000000,4.000000,-14.000000,-7.000000,-10.000000
1305380.537516,7.000000,7.000000,-24.000000,11.000000,31.000000,14.000000,-16.000000,-15.000000
1305380.545480,-15.000000,-9.000000,112.000000,11.000000,-26.000000,-26.000000,17.000000,-9.000000
1305380.545495,-32.000000,-56.000000,-41.000000,2.000000,18.000000,-15.000000,-20.000000,-9.000000
1305380.559775,8.000000,25.000000,48.000000,8.000000,4.000000,18.000000,20.000000,1.000000
1305380.559804,5.000000,-27.000000,-23.000000,-1.000000,15.000000,0.000000,11.000000,5.000000
1305380.582470,-9.000000,-32.000000,-35.000000,6.000000,16.000000,-4.000000,-12.000000,-8.000000
1305380.582481,35.000000,67.000000,69.000000,14.000000,13.000000,19.000000,-1.000000,-6.000000
1305380.597272,1.000000,-13.000000,-29.000000,-9.000000,-7.000000,-23.000000,0.000000,0.000000
1305380.597293,-13.000000,-17.000000,27.000000,-2.000000,2.000000,-1.000000,-20.000000,-10.000000
1305380.620111,8.000000,22.000000,-51.000000,-6.000000,-7.000000,-3.000000,6.000000,-13.000000
1305380.620122,-1.000000,-2.000000,21.000000,-8.000000,-16.000000,31.000000,28.000000,8.000000
1305380.627324,-22.000000,-25.000000,8.000000,5.000000,10.000000,18.000000,35.000000,-2.000000
1305380.627335,26.000000,-10.000000,-40.000000,1.000000,6.000000,0.000000,-10.000000,1.000000
1305380.628625,-8.000000,8.000000,0.000000,15.000000,19.000000,-17.000000,-25.000000,-12.000000
1305380.628646,-8.000000,-12.000000,-30.000000,-14.000000,-16.000000,0.000000,7.000000,-6.000000
1305380.629347,10.000000,6.000000,-33.000000,-6.000000,20.000000,10.000000,9.000000,-4.000000
1305380.629366,-4.000000,11.000000,23.000000,4.000000,15.000000,-1.000000,22.000000,3.000000
1305380.630684,-10.000000,-55.000000,-36.000000,5.000000,-6.000000,-3.000000,0.000000,3.000000
1305380.630694,9.000000,61.000000,19.000000,8.000000,19.000000,-2.000000,-9.000000,-1.000000
1305380.642422,-43.000000,14.000000,37.000000,-26.000000,-52.000000,11.000000,2.000000,-7.000000
1305380.642432,65.000000,12.000000,-26.000000,16.000000,-9.000000,-11.000000,24.000000,32.000000
1305380.657315,-12.000000,28.000000,57.000000,-7.000000,-35.000000,-27.000000,-3.000000,21.000000
1305380.657331,17.000000,-10.000000,-55.000000,-8.000000,-15.000000,-30.000000,-15.000000,-17.000000
1305380.658056,4.000000,-4.000000,19.000000,28.000000,36.000000,3.000000,6.000000,25.000000
1305380.658074,-29.000000,-4.000000,-42.000000,-23.000000,-29.000000,18.000000,17.000000,1.000000
1305380.665619,2.000000,-19.000000,-13.000000,12.000000,19.000000,-10.000000,-22.000000,-27.000000
1305380.665629,8.000000,-20.000000,-44.000000,3.000000,14.000000,-18.000000,-27.000000,3.000000
1305380.680230,-15.000000,1.000000,-16.000000,-3.000000,29.000000,-15.000000,24.000000,-6.000000
1305380.680240,11.000000,13.000000,36.000000,-6.000000,-30.000000,-7.000000,1.000000,32.000000
1305380.717569,-9.000000,-35.000000,22.000000,-1.000000,-18.000000,-21.000000,-11.000000,-11.000000
1305380.717580,-8.000000,-1.000000,-33.000000,-7.000000,-8.000000,-24.000000,-37.000000,-7.000000
1305380.724880,-16.000000,-53.000000,-64.000000,-3.000000,24.000000,-15.000000,2.000000,-4.000000
1305380.724897,9.000000,60.000000,75.000000,7.000000,-16.000000,20.000000,13.000000,19.000000
1305380.755115,14.000000,-13.000000,-48.000000,-3.000000,8.000000,-4.000000,4.000000,8.000000
1305380.755126,-12.000000,-9.000000,11.000000,-2.000000,24.000000,-7.000000,-9.000000,-6.000000
1305380.777183,-1.000000,7.000000,-4.000000,30.000000,-11.000000,9.000000,6.000000,-4.000000
1305380.777197,-6.000000,-4.000000,55.000000,7.000000,17.000000,25.000000,-22.000000,-16.000000
1305380.778385,-5.000000,-17.000000,-62.000000,-1.000000,24.000000,-15.000000,-32.000000,-11.000000
1305380.778394,-36.000000,-6.000000,34.000000,5.000000,31.000000,-27.000000,-2.000000,-15.000000
1305380.779115,58.000000,8.000000,-53.000000,-17.000000,-29.000000,12.000000,54.000000,40.000000
1305380.779124,-9.000000,19.000000,24.000000,5.000000,3.000000,-3.000000,-2.000000,-1.000000
1305380.780249,-7.000000,-4.000000,8.000000,4.000000,0.000000,8.000000,21.000000,-17.000000
1305380.780258,39.000000,54.000000,13.000000,-6.000000,-42.000000,9.000000,-13.000000,-1.000000
1305380.781247,-25.000000,-16.000000,-11.000000,-8.000000,-1.000000,-1.000000,-3.000000,-6.000000
1305380.781264,10.000000,12.000000,7.000000,-17.000000,-74.000000,-10.000000,-1.000000,-10.000000
1305380.799982,-4.000000,-10.000000,-1.000000,-2.000000,-12.000000,10.000000,7.000000,6.000000
1305380.799993,-11.000000,8.000000,-5.000000,6.000000,7.000000,-1.000000,7.000000,-2.000000
1305380.814923,9.000000,15.000000,104.000000,21.000000,-20.000000,-12.000000,-4.000000,2.000000
1305380.814933,7.000000,-8.000000,-41.000000,-27.000000,-19.000000,-1.000000,12.000000,19.000000
1305380.829968,5.000000,-6.000000,-24.000000,-8.000000,-6.000000,0.000000,32.000000,12.000000
1305380.829993,-2.000000,17.000000,17.000000,-4.000000,-12.000000,0.000000,-11.000000,-5.000000
1305380.837381,11.000000,-30.000000,-38.000000,-6.000000,-29.000000,2.000000,6.000000,7.000000
1305380.837397,-31.000000,-13.000000,-9.000000,9.000000,18.000000,3.000000,-15.000000,-21.000000
1305380.874969,61.000000,5.000000,11.000000,-18.000000,-46.000000,-10.000000,16.000000,29.000000
1305380.874980,-12.000000,-24.000000,-26.000000,-18.000000,-27.000000,-18.000000,0.000000,7.000000
1305380.882170,-4.000000,-21.000000,28.000000,-3.000000,2.000000,-12.000000,5.000000,17.000000
1305380.882182,-24.000000,-1.000000,66.000000,13.000000,18.000000,14.000000,-34.000000,-9.000000
1305380.883385,17.000000,7.000000,-29.000000,-6.000000,-18.000000,-7.000000,41.000000,7.000000
1305380.883402,-12.000000,22.000000,72.000000,27.000000,53.000000,35.000000,24.000000,13.000000
1305380.884018,3.000000,-7.000000,5.000000,-12.000000,-28.000000,-27.000000,-20.000000,-8.000000
1305380.884027,-13.000000,-18.000000,-7.000000,-8.000000,-8.000000,-7.000000,-1.000000,-15.000000
1305380.897503,-28.000000,18.000000,11.000000,-31.000000,-27.000000,-32.000000,-17.000000,-27.000000
1305380.897515,-31.000000,-3.000000,50.000000,21.000000,16.000000,2.000000,0.000000,0.000000
1305380.898129,16.000000,-16.000000,-29.000000,-9.000000,4.000000,0.000000,-8.000000,-2.000000
1305380.898137,-13.000000,-24.000000,-83.000000,2.000000,13.000000,-13.000000,1.000000,-4.000000
1305380.905724,4.000000,22.000000,50.000000,-4.000000,-8.000000,-1.000000,-3.000000,-5.000000
1305380.905737,-23.000000,-25.000000,22.000000,7.000000,-1.000000,10.000000,2.000000,2.000000
1305380.919793,7.000000,11.000000,-67.000000,-8.000000,-7.000000,1.000000,-7.000000,-3.000000
1305380.919813,10.000000,1.000000,37.000000,-34.000000,-47.000000,-3.000000,-18.000000,-1.000000
1305380.934938,-4.000000,-13.000000,61.000000,28.000000,15.000000,5.000000,7.000000,7.000000
1305380.934949,-8.000000,-53.000000,-47.000000,-3.000000,49.000000,-2.000000,-12.000000,-13.000000
1305380.942431,-15.000000,51.000000,0.000000,-11.000000,-11.000000,-9.000000,-15.000000,-18.000000
1305380.942441,3.000000,5.000000,22.000000,11.000000,-2.000000,-9.000000,-31.000000,-11.000000
1305380.987298,-10.000000,22.000000,30.000000,8.000000,0.000000,14.000000,43.000000,12.000000
1305380.987308,21.000000,8.000000,-4.000000,23.000000,47.000000,-5.000000,31.000000,16.000000
1305380.987779,-34.000000,-13.000000,-18.000000,-25.000000,-30.000000,19.000000,-27.000000,-8.000000
1305380.987794,54.000000,16.000000,35.000000,4.000000,-11.000000,-15.000000,10.000000,16.000000
1305380.988892,-3.000000,2.000000,-16.000000,6.000000,4.000000,-8.000000,29.000000,36.000000
1305380.988906,4.000000,-12.000000,-6.000000,14.000000,20.000000,-5.000000,-9.000000,17.000000
1305380.994605,-12.000000,30.000000,10.000000,-27.000000,-46.000000,2.000000,-3.000000,-16.000000
1305380.994614,7.000000,-14.000000,-12.000000,-6.000000,-4.000000,-16.000000,-20.000000,-7.000000
1305381.002455,-9.000000,-20.000000,16.000000,-21.000000,-31.000000,-13.000000,-3.000000,18.000000
1305381.002471,-14.000000,37.000000,33.000000,5.000000,5.000000,2.000000,-7.000000,-6.000000
1305381.017288,-15.000000,0.000000,-23.000000,5.000000,13.000000,6.000000,-5.000000,-12.000000
1305381.017298,8.000000,19.000000,23.000000,32.000000,30.000000,-5.000000,-4.000000,0.000000
1305381.017880,-4.000000,-7.000000,-15.000000,-32.000000,-31.000000,-4.000000,-5.000000,-6.000000
1305381.017889,-17.000000,-14.000000,0.000000,-7.000000,-4.000000,-12.000000,-9.000000,2.000000
1305381.032994,-24.000000,2.000000,63.000000,-33.000000,-92.000000,-96.000000,-58.000000,-38.000000
1305381.033004,14.000000,18.000000,-39.000000,-21.000000,25.000000,44.000000,41.000000,-4.000000
1305381.039624,22.000000,38.000000,11.000000,16.000000,24.000000,-36.000000,-19.000000,-17.000000
1305381.039634,8.000000,2.000000,38.000000,-9.000000,-53.000000,5.000000,-7.000000,-5.000000
1305381.054901,-14.000000,-27.000000,32.000000,11.000000,8.000000,-5.000000,-14.000000,-7.000000
1305381.054911,-16.000000,-15.000000,-26.000000,0.000000,10.000000,2.000000,-23.000000,-16.000000
1305381.062479,-10.000000,-5.000000,12.000000,1.000000,-1.000000,-5.000000,-7.000000,-4.000000
1305381.062489,21.000000,15.000000,-18.000000,32.000000,41.000000,3.000000,-17.000000,16.000000
1305381.092441,-3.000000,-15.000000,-54.000000,-88.000000,-126.000000,-37.000000,17.000000,-4.000000
1305381.092452,10.000000,11.000000,-10.000000,15.000000,-5.000000,28.000000,32.000000,8.000000
1305381.107380,-35.000000,-22.000000,5.000000,8.000000,12.000000,-25.000000,-15.000000,-13.000000
1305381.107389,46.000000,-38.000000,-78.000000,-43.000000,-26.000000,20.000000,12.000000,17.000000
1305381.137292,2.000000,27.000000,4.000000,4.000000,5.000000,-4.000000,25.000000,6.000000
1305381.137303,-10.000000,5.000000,21.000000,-2.000000,8.000000,-2.000000,-9.000000,-10.000000
1305381.137665,-15.000000,-18.000000,24.000000,7.000000,-10.000000,-16.000000,-12.000000,-8.000000
1305381.137692,2.000000,-16.000000,7.000000,23.000000,-3.000000,-4.000000,-13.000000,-25.000000
1305381.139007,-20.000000,-8.000000,-41.000000,-51.000000,-28.000000,-10.000000,-10.000000,-16.000000
1305381.139015,10.000000,-1.000000,-16.000000,4.000000,15.000000,11.000000,1.000000,-6.000000
1305381.139784,-7.000000,-5.000000,2.000000,3.000000,22.000000,20.000000,1.000000,-2.000000
1305381.139798,-15.000000,-13.000000,-6.000000,-2.000000,2.000000,-7.000000,-2.000000,-3.000000
1305381.141212,10.000000,8.000000,6.000000,16.000000,54.000000,3.000000,-20.000000,-14.000000
1305381.141221,-16.000000,-8.000000,7.000000,-9.000000,-33.000000,-5.000000,2.000000,7.000000
1305381.153214,-12.000000,-3.000000,9.000000,2.000000,7.000000,3.000000,-4.000000,-10.000000
1305381.153225,-7.000000,-14.000000,-54.000000,10.000000,50.000000,1.000000,-18.000000,-3.000000
1305381.159899,-13.000000,14.000000,30.000000,-12.000000,-54.000000,-12.000000,-10.000000,-15.000000
1305381.159911,39.000000,18.000000,-10.000000,-8.000000,-12.000000,1.000000,16.000000,17.000000
1305381.174944,-14.000000,-37.000000,-19.000000,13.000000,-2.000000,-10.000000,1.000000,-8.000000
1305381.174965,-13.000000,55.000000,121.000000,30.000000,64.000000,-4.000000,7.000000,6.000000
1305381.182384,10.000000,-1.000000,19.000000,-11.000000,-24.000000,-10.000000,26.000000,29.000000
1305381.182393,-3.000000,3.000000,0.000000,-1.000000,-18.000000,-9.000000,12.000000,-6.000000
1305381.212419,-13.000000,-33.000000,15.000000,5.000000,15.000000,-1.000000,-12.000000,-1.000000
1305381.212449,18.000000,9.000000,-10.000000,-14.000000,4.000000,-3.000000,-6.000000,-8.000000
1305381.220026,-54.000000,-16.000000,38.000000,21.000000,2.000000,-9.000000,-4.000000,-15.000000
1305381.220038,29.000000,5.000000,-31.000000,-6.000000,5.000000,6.000000,1.000000,7.000000
1305381.220927,-3.000000,44.000000,32.000000,17.000000,-5.000000,-28.000000,4.000000,0.000000
1305381.220935,-13.000000,-10.000000,85.000000,3.000000,17.000000,11.000000,8.000000,11.000000
1305381.221412,-4.000000,-1.000000,-23.000000,-3.000000,-4.000000,8.000000,4.000000,-19.000000
1305381.221420,-10.000000,-7.000000,-16.000000,-6.000000,10.000000,6.000000,2.000000,1.000000
1305381.234766,20.000000,36.000000,58.000000,19.000000,8.000000,9.000000,15.000000,10.000000
1305381.234776,9.000000,14.000000,4.000000,11.000000,21.000000,9.000000,9.000000,7.000000
1305381.235440,-31.000000,-15.000000,16.000000,8.000000,23.000000,32.000000,-4.000000,-10.000000
1305381.235448,45.000000,8.000000,-29.000000,13.000000,1.000000,-10.000000,-4.000000,10.000000
1305381.257711,-36.000000,-27.000000,-13.000000,-9.000000,12.000000,-1.000000,1.000000,-4.000000
1305381.257739,10.000000,20.000000,-73.000000,-22.000000,-13.000000,4.000000,2.000000,5.000000
1305381.258734,18.000000,57.000000,127.000000,46.000000,6.000000,-12.000000,-12.000000,2.000000
1305381.258758,-16.000000,-37.000000,-19.000000,-17.000000,-7.000000,5.000000,-3.000000,-1.000000
1305381.272378,2.000000,-16.000000,-4.000000,-13.000000,-43.000000,9.000000,28.000000,29.000000
1305381.272392,4.000000,4.000000,-10.000000,2.000000,10.000000,0.000000,-5.000000,2.000000
1305381.279807,-6.000000,-9.000000,1.000000,1.000000,2.000000,-16.000000,-8.000000,-6.000000
1305381.279835,-22.000000,17.000000,-1.000000,-6.000000,-26.000000,-10.000000,-19.000000,-17.000000
1305381.295103,20.000000,21.000000,30.000000,17.000000,16.000000,-14.000000,8.000000,28.000000
1305381.295114,-2.000000,47.000000,36.000000,-9.000000,-67.000000,-14.000000,-13.000000,-6.000000
1305381.317620,0.000000,-24.000000,-10.000000,5.000000,21.000000,20.000000,42.000000,32.000000
1305381.317632,2.000000,-25.000000,-18.000000,-2.000000,21.000000,-5.000000,-11.000000,-19.000000
1305381.339801,4.000000,38.000000,98.000000,26.000000,12.000000,7.000000,-8.000000,-7.000000
1305381.339817,-18.000000,20.000000,5.000000,8.000000,-13.000000,-10.000000,-5.000000,-3.000000
1305381.355070,20.000000,-19.000000,62.000000,8.000000,-16.000000,-5.000000,6.000000,2.000000
