# participant_id: P4
# gesture: baseline
# trial_number: 2
# stream_name: Myo_EMG
# stream_type: emg
# timestamp: 20260420_134850
# samples: 5560
# duration_sec: 30.202
# nominal_sample_rate: 200.0
# effective_sample_rate: 184.06
#
timestamp,emg_1,emg_2,emg_3,emg_4,emg_5,emg_6,emg_7,emg_8
1297622.270811,0.000000,0.000000,1.000000,4.000000,-2.000000,0.000000,0.000000,2.000000
1297622.270861,0.000000,1.000000,3.000000,-3.000000,-1.000000,0.000000,-2.000000,3.000000
1297622.271642,-1.000000,-2.000000,-2.000000,-1.000000,3.000000,-3.000000,-2.000000,0.000000
1297622.271693,0.000000,5.000000,1.000000,1.000000,0.000000,2.000000,2.000000,-3.000000
1297622.272667,-3.000000,-4.000000,-1.000000,-6.000000,-3.000000,1.000000,1.000000,1.000000
1297622.272803,-2.000000,-2.000000,2.000000,-2.000000,-1.000000,-1.000000,-4.000000,-2.000000
1297622.273696,-2.000000,1.000000,0.000000,-4.000000,0.000000,1.000000,0.000000,2.000000
1297622.273747,-1.000000,-5.000000,-1.000000,7.000000,3.000000,0.000000,0.000000,1.000000
1297622.293446,-1.000000,0.000000,-2.000000,2.000000,-3.000000,-1.000000,-2.000000,1.000000
1297622.293497,3.000000,2.000000,-3.000000,-5.000000,-3.000000,-2.000000,-3.000000,-5.000000
1297622.299512,0.000000,-2.000000,1.000000,2.000000,2.000000,0.000000,-4.000000,-3.000000
1297622.299534,0.000000,-2.000000,-2.000000,2.000000,2.000000,0.000000,0.000000,-2.000000
1297622.337200,-1.000000,-2.000000,3.000000,-10.000000,-4.000000,0.000000,-1.000000,-2.000000
1297622.337210,-2.000000,0.000000,0.000000,-2.000000,-3.000000,-4.000000,-4.000000,0.000000
1297622.344494,-1.000000,-4.000000,-1.000000,-3.000000,2.000000,-2.000000,-3.000000,-2.000000
1297622.344511,-2.000000,-1.000000,2.000000,-1.000000,-3.000000,1.000000,-3.000000,-2.000000
1297622.345455,-1.000000,0.000000,2.000000,3.000000,1.000000,3.000000,0.000000,-3.000000
1297622.345469,-2.000000,-1.000000,-2.000000,1.000000,-4.000000,3.000000,-1.000000,0.000000
1297622.346141,-4.000000,-5.000000,0.000000,-2.000000,-2.000000,-1.000000,1.000000,-4.000000
1297622.346158,0.000000,1.000000,-1.000000,5.000000,-3.000000,-1.000000,1.000000,0.000000
1297622.347653,0.000000,0.000000,0.000000,2.000000,-1.000000,0.000000,-2.000000,0.000000
1297622.347692,0.000000,-2.000000,-1.000000,3.000000,-1.000000,0.000000,-1.000000,0.000000
1297622.359655,-4.000000,-4.000000,-3.000000,5.000000,-1.000000,-3.000000,-3.000000,-1.000000
1297622.359677,-1.000000,-2.000000,1.000000,1.000000,0.000000,0.000000,-2.000000,-2.000000
1297622.367087,-1.000000,0.000000,-3.000000,-6.000000,3.000000,-1.000000,1.000000,-3.000000
1297622.367098,-2.000000,-1.000000,2.000000,-2.000000,-1.000000,-1.000000,0.000000,1.000000
1297622.374567,-1.000000,-3.000000,0.000000,-5.000000,0.000000,1.000000,0.000000,-2.000000
1297622.374584,2.000000,-4.000000,-1.000000,-1.000000,-6.000000,-1.000000,-2.000000,0.000000
1297622.412266,0.000000,-2.000000,-1.000000,0.000000,2.000000,0.000000,-1.000000,0.000000
1297622.412305,-1.000000,-2.000000,2.000000,1.000000,2.000000,-1.000000,-1.000000,0.000000
1297622.427031,-2.000000,2.000000,0.000000,5.000000,2.000000,-1.000000,-3.000000,-1.000000
1297622.427047,0.000000,2.000000,0.000000,3.000000,-8.000000,-2.000000,-1.000000,-1.000000
1297622.449539,-1.000000,4.000000,1.000000,-2.000000,4.000000,0.000000,-1.000000,-2.000000
1297622.449560,-2.000000,-3.000000,-1.000000,-2.000000,-3.000000,0.000000,-1.000000,-2.000000
1297622.450626,-1.000000,-1.000000,-2.000000,-2.000000,0.000000,4.000000,-4.000000,-1.000000
1297622.450667,-3.000000,-5.000000,-6.000000,-10.000000,-2.000000,-6.000000,-4.000000,-1.000000
1297622.451214,-1.000000,-1.000000,0.000000,-1.000000,2.000000,1.000000,-1.000000,-1.000000
1297622.451225,-2.000000,-2.000000,-4.000000,-1.000000,-1.000000,0.000000,-1.000000,1.000000
1297622.452470,-1.000000,-1.000000,-1.000000,-3.000000,0.000000,-1.000000,-3.000000,-3.000000
1297622.452481,0.000000,2.000000,2.000000,5.000000,-2.000000,0.000000,0.000000,-2.000000
1297622.453373,-2.000000,-2.000000,-2.000000,-3.000000,-5.000000,-3.000000,-1.000000,-4.000000
1297622.453384,-2.000000,0.000000,-4.000000,4.000000,3.000000,1.000000,-4.000000,-3.000000
1297622.456801,-3.000000,-5.000000,-3.000000,1.000000,2.000000,-1.000000,0.000000,-2.000000
1297622.456820,0.000000,-7.000000,0.000000,4.000000,-1.000000,-3.000000,-1.000000,0.000000
1297622.464402,0.000000,1.000000,0.000000,-1.000000,0.000000,1.000000,2.000000,-1.000000
1297622.464412,-4.000000,0.000000,-4.000000,-3.000000,0.000000,0.000000,-1.000000,-2.000000
1297622.487721,-2.000000,-4.000000,-2.000000,-5.000000,-4.000000,-3.000000,-4.000000,0.000000
1297622.487761,-3.000000,-7.000000,0.000000,-4.000000,-3.000000,2.000000,0.000000,-2.000000
1297622.501767,-2.000000,1.000000,1.000000,1.000000,-2.000000,0.000000,0.000000,1.000000
1297622.501777,1.000000,3.000000,1.000000,2.000000,-3.000000,2.000000,0.000000,-1.000000
1297622.502614,-5.000000,-4.000000,0.000000,1.000000,0.000000,-3.000000,2.000000,-2.000000
1297622.502633,-2.000000,0.000000,-1.000000,2.000000,1.000000,-4.000000,0.000000,-1.000000
1297622.532716,2.000000,1.000000,-1.000000,-3.000000,-3.000000,1.000000,0.000000,1.000000
1297622.532833,3.000000,0.000000,-1.000000,-3.000000,-1.000000,-1.000000,-3.000000,0.000000
1297622.540277,-3.000000,-2.000000,-2.000000,-9.000000,0.000000,0.000000,-2.000000,-1.000000
1297622.540319,-5.000000,2.000000,1.000000,0.000000,0.000000,-3.000000,-2.000000,0.000000
1297622.561717,-2.000000,0.000000,0.000000,-2.000000,-3.000000,-1.000000,-1.000000,-2.000000
1297622.561734,1.000000,-1.000000,1.000000,-2.000000,-7.000000,1.000000,0.000000,1.000000
1297622.569869,0.000000,1.000000,-1.000000,-6.000000,0.000000,-3.000000,1.000000,0.000000
1297622.570048,2.000000,-3.000000,-3.000000,-5.000000,-1.000000,-1.000000,1.000000,-1.000000
1297622.570516,1.000000,1.000000,3.000000,4.000000,-1.000000,0.000000,-3.000000,2.000000
1297622.570526,-1.000000,-6.000000,4.000000,4.000000,2.000000,0.000000,0.000000,-4.000000
1297622.571017,-3.000000,-5.000000,-13.000000,-45.000000,-2.000000,-1.000000,-3.000000,-1.000000
1297622.571032,0.000000,0.000000,-2.000000,-5.000000,1.000000,1.000000,1.000000,1.000000
1297622.572869,1.000000,2.000000,2.000000,3.000000,3.000000,-2.000000,-1.000000,-2.000000
1297622.572888,-1.000000,1.000000,1.000000,0.000000,-6.000000,0.000000,0.000000,1.000000
1297622.577272,-2.000000,-4.000000,-1.000000,1.000000,0.000000,1.000000,0.000000,-2.000000
1297622.577313,-1.000000,0.000000,0.000000,3.000000,-4.000000,-4.000000,-1.000000,-3.000000
1297622.585395,-4.000000,1.000000,-1.000000,-5.000000,1.000000,-1.000000,-3.000000,-3.000000
1297622.585414,2.000000,3.000000,1.000000,1.000000,-2.000000,-4.000000,-2.000000,-2.000000
1297622.599546,-1.000000,-1.000000,-4.000000,-4.000000,6.000000,3.000000,-1.000000,0.000000
1297622.599575,-3.000000,-3.000000,1.000000,-2.000000,3.000000,-1.000000,0.000000,0.000000
1297622.614789,-1.000000,-1.000000,-2.000000,-2.000000,-4.000000,1.000000,-4.000000,-2.000000
1297622.614805,0.000000,3.000000,2.000000,-4.000000,-2.000000,2.000000,-1.000000,0.000000
1297622.616211,-1.000000,3.000000,0.000000,0.000000,1.000000,0.000000,-2.000000,-2.000000
1297622.616252,-1.000000,0.000000,-3.000000,-4.000000,0.000000,-2.000000,1.000000,1.000000
1297622.651841,-1.000000,2.000000,0.000000,0.000000,-4.000000,0.000000,-1.000000,-1.000000
1297622.651852,1.000000,-3.000000,0.000000,0.000000,-3.000000,-3.000000,-1.000000,-1.000000
1297622.659395,-4.000000,1.000000,-6.000000,1.000000,-3.000000,1.000000,-1.000000,-1.000000
1297622.659412,-2.000000,3.000000,0.000000,3.000000,-4.000000,0.000000,-1.000000,0.000000
1297622.689516,-4.000000,-5.000000,2.000000,-5.000000,0.000000,-4.000000,-1.000000,-1.000000
1297622.689538,0.000000,-3.000000,0.000000,1.000000,-1.000000,1.000000,-1.000000,2.000000
1297622.697048,-1.000000,-3.000000,-3.000000,-6.000000,-4.000000,-1.000000,-2.000000,-1.000000
1297622.697062,-3.000000,-2.000000,3.000000,-2.000000,-2.000000,0.000000,-1.000000,-3.000000
1297622.704972,0.000000,-1.000000,2.000000,-2.000000,0.000000,-3.000000,0.000000,0.000000
1297622.704986,0.000000,-1.000000,-3.000000,-6.000000,-1.000000,-2.000000,-4.000000,0.000000
1297622.705551,-1.000000,-2.000000,-3.000000,1.000000,0.000000,-1.000000,1.000000,-1.000000
1297622.705567,-3.000000,-2.000000,-6.000000,-1.000000,0.000000,-3.000000,-3.000000,-1.000000
1297622.706888,2.000000,-2.000000,-3.000000,-2.000000,-5.000000,0.000000,1.000000,-1.000000
1297622.706906,-2.000000,-1.000000,0.000000,3.000000,0.000000,-2.000000,-1.000000,-2.000000
1297622.727540,0.000000,-4.000000,-2.000000,4.000000,0.000000,-2.000000,-1.000000,1.000000
1297622.727834,-2.000000,-1.000000,2.000000,-2.000000,1.000000,-1.000000,-2.000000,-1.000000
1297622.728975,2.000000,0.000000,-3.000000,-5.000000,-5.000000,-1.000000,-4.000000,-3.000000
1297622.729013,-3.000000,2.000000,-1.000000,1.000000,-2.000000,-3.000000,1.000000,2.000000
1297622.735011,-4.000000,-4.000000,1.000000,2.000000,0.000000,-4.000000,1.000000,-6.000000
1297622.735050,0.000000,-4.000000,-1.000000,-4.000000,-5.000000,1.000000,-1.000000,-1.000000
1297622.772537,0.000000,0.000000,0.000000,-7.000000,-1.000000,-3.000000,-1.000000,-2.000000
1297622.772577,-1.000000,-2.000000,-3.000000,2.000000,-1.000000,-3.000000,-5.000000,-4.000000
1297622.779933,-1.000000,-5.000000,0.000000,0.000000,-2.000000,-4.000000,-5.000000,-2.000000
1297622.779975,-1.000000,-2.000000,0.000000,6.000000,0.000000,2.000000,0.000000,-1.000000
1297622.810675,0.000000,2.000000,1.000000,-18.000000,-4.000000,-6.000000,1.000000,0.000000
1297622.810706,0.000000,1.000000,-3.000000,1.000000,-1.000000,0.000000,0.000000,-3.000000
1297622.817754,-1.000000,-4.000000,-1.000000,3.000000,2.000000,-3.000000,2.000000,-1.000000
1297622.817775,0.000000,2.000000,-5.000000,1.000000,0.000000,1.000000,-3.000000,-3.000000
1297622.847511,0.000000,-1.000000,2.000000,-1.000000,-5.000000,-2.000000,-3.000000,-2.000000
1297622.847686,1.000000,0.000000,-5.000000,11.000000,1.000000,0.000000,-1.000000,-4.000000
1297622.848030,0.000000,-2.000000,0.000000,-15.000000,-1.000000,-2.000000,-3.000000,-1.000000
1297622.848068,0.000000,0.000000,0.000000,-1.000000,-2.000000,-2.000000,2.000000,0.000000
1297622.849354,-4.000000,0.000000,2.000000,-4.000000,-5.000000,-2.000000,-2.000000,-3.000000
1297622.849399,-2.000000,1.000000,2.000000,-1.000000,1.000000,-3.000000,-2.000000,-1.000000
1297622.850826,-2.000000,2.000000,-2.000000,2.000000,-3.000000,-1.000000,-3.000000,-1.000000
1297622.850860,-1.000000,1.000000,-5.000000,-5.000000,0.000000,1.000000,2.000000,2.000000
1297622.855131,-2.000000,-1.000000,0.000000,1.000000,3.000000,0.000000,0.000000,0.000000
1297622.855174,1.000000,-1.000000,1.000000,-2.000000,-4.000000,1.000000,0.000000,-3.000000
1297622.900094,1.000000,0.000000,1.000000,1.000000,-1.000000,-2.000000,0.000000,-3.000000
1297622.900134,-2.000000,0.000000,-2.000000,1.000000,1.000000,-5.000000,-1.000000,0.000000
1297622.907702,0.000000,0.000000,0.000000,3.000000,-2.000000,-3.000000,0.000000,-1.000000
1297622.907721,-2.000000,-2.000000,-8.000000,4.000000,0.000000,0.000000,0.000000,0.000000
1297622.937400,-3.000000,-2.000000,-4.000000,-18.000000,4.000000,0.000000,2.000000,-2.000000
1297622.937426,-4.000000,-6.000000,-2.000000,-2.000000,0.000000,1.000000,0.000000,-1.000000
1297622.952503,-1.000000,-2.000000,-7.000000,-1.000000,-2.000000,-2.000000,-2.000000,0.000000
1297622.952668,-1.000000,1.000000,0.000000,-1.000000,4.000000,0.000000,-1.000000,-2.000000
1297622.967646,1.000000,-1.000000,-3.000000,0.000000,-3.000000,1.000000,-1.000000,-1.000000
1297622.967695,0.000000,-1.000000,0.000000,-1.000000,2.000000,0.000000,1.000000,2.000000
1297622.968443,1.000000,1.000000,-4.000000,-2.000000,3.000000,0.000000,2.000000,-4.000000
1297622.968475,-1.000000,0.000000,-1.000000,1.000000,-4.000000,-2.000000,-3.000000,-2.000000
1297622.970160,-2.000000,-4.000000,-2.000000,-4.000000,-3.000000,-1.000000,1.000000,2.000000
1297622.970496,-3.000000,-7.000000,-3.000000,8.000000,3.000000,-2.000000,-1.000000,-1.000000
1297622.971855,2.000000,5.000000,3.000000,-2.000000,1.000000,0.000000,-2.000000,-2.000000
1297622.971877,3.000000,1.000000,2.000000,-7.000000,-3.000000,-2.000000,-3.000000,-2.000000
1297622.975129,0.000000,1.000000,1.000000,7.000000,4.000000,-1.000000,-4.000000,0.000000
1297622.975193,0.000000,0.000000,1.000000,4.000000,-1.000000,-3.000000,-2.000000,-1.000000
1297623.012686,-1.000000,-2.000000,-2.000000,1.000000,-6.000000,2.000000,0.000000,-1.000000
1297623.012717,-3.000000,-2.000000,1.000000,4.000000,3.000000,1.000000,0.000000,0.000000
1297623.020130,2.000000,0.000000,-4.000000,-6.000000,-2.000000,0.000000,0.000000,-1.000000
1297623.020166,-3.000000,-3.000000,2.000000,-10.000000,-4.000000,-3.000000,-1.000000,-3.000000
1297623.057681,-1.000000,-3.000000,-1.000000,-4.000000,-4.000000,-1.000000,1.000000,-2.000000
1297623.057724,-2.000000,0.000000,-2.000000,-6.000000,-4.000000,0.000000,0.000000,1.000000
1297623.072681,1.000000,-2.000000,-3.000000,-5.000000,-3.000000,-1.000000,-4.000000,1.000000
1297623.072795,-2.000000,-1.000000,-2.000000,1.000000,-3.000000,1.000000,-1.000000,-2.000000
1297623.081008,0.000000,-3.000000,-6.000000,1.000000,-2.000000,-1.000000,0.000000,0.000000
1297623.081112,-3.000000,-3.000000,2.000000,2.000000,2.000000,3.000000,-2.000000,0.000000
1297623.081545,-1.000000,-1.000000,-1.000000,-1.000000,-4.000000,0.000000,-1.000000,0.000000
1297623.081591,-1.000000,-2.000000,1.000000,1.000000,-3.000000,-3.000000,2.000000,0.000000
1297623.094864,0.000000,0.000000,1.000000,3.000000,-1.000000,-1.000000,0.000000,0.000000
1297623.094896,-1.000000,-4.000000,-4.000000,1.000000,-3.000000,-1.000000,-3.000000,-1.000000
1297623.096522,0.000000,6.000000,-1.000000,2.000000,3.000000,-4.000000,1.000000,-2.000000
1297623.096540,2.000000,-1.000000,0.000000,-4.000000,-1.000000,-4.000000,-1.000000,-1.000000
1297623.102448,-2.000000,-1.000000,-1.000000,3.000000,-2.000000,-1.000000,-1.000000,-1.000000
1297623.102468,0.000000,1.000000,1.000000,4.000000,-3.000000,2.000000,3.000000,0.000000
1297623.132622,1.000000,0.000000,2.000000,1.000000,-1.000000,0.000000,2.000000,-1.000000
1297623.132642,0.000000,-2.000000,-1.000000,-2.000000,-4.000000,0.000000,-1.000000,0.000000
1297623.139976,-1.000000,2.000000,3.000000,-1.000000,5.000000,-1.000000,-3.000000,-1.000000
1297623.139995,-1.000000,0.000000,-2.000000,6.000000,2.000000,-3.000000,-2.000000,0.000000
1297623.170797,1.000000,-2.000000,-2.000000,-3.000000,-2.000000,-4.000000,-2.000000,-3.000000
1297623.170831,-3.000000,2.000000,-2.000000,-3.000000,-3.000000,-2.000000,-1.000000,-2.000000
1297623.171489,1.000000,1.000000,1.000000,1.000000,0.000000,-2.000000,0.000000,0.000000
1297623.171720,-1.000000,-2.000000,-3.000000,-2.000000,0.000000,0.000000,1.000000,-2.000000
1297623.173091,-4.000000,2.000000,0.000000,-3.000000,-5.000000,1.000000,0.000000,0.000000
1297623.173135,1.000000,0.000000,2.000000,10.000000,-4.000000,1.000000,-3.000000,0.000000
1297623.173468,-1.000000,1.000000,-4.000000,-31.000000,-7.000000,1.000000,0.000000,0.000000
1297623.173509,0.000000,-3.000000,2.000000,3.000000,3.000000,-1.000000,-4.000000,-3.000000
1297623.207597,-4.000000,-3.000000,0.000000,-1.000000,-6.000000,-2.000000,0.000000,-3.000000
1297623.207853,1.000000,4.000000,-4.000000,-3.000000,0.000000,2.000000,3.000000,1.000000
1297623.209042,0.000000,5.000000,1.000000,-1.000000,0.000000,-1.000000,-3.000000,0.000000
1297623.209206,0.000000,-1.000000,-3.000000,2.000000,-4.000000,-1.000000,-3.000000,0.000000
1297623.209548,-1.000000,-3.000000,-5.000000,-3.000000,2.000000,-6.000000,-2.000000,-1.000000
1297623.209742,0.000000,-4.000000,0.000000,5.000000,3.000000,-2.000000,-1.000000,-3.000000
1297623.210926,2.000000,-1.000000,-4.000000,-2.000000,-5.000000,-3.000000,0.000000,-4.000000
1297623.210946,-2.000000,1.000000,-3.000000,-8.000000,-1.000000,2.000000,0.000000,1.000000
1297623.214907,2.000000,0.000000,-5.000000,0.000000,2.000000,-4.000000,-3.000000,-1.000000
1297623.214946,1.000000,1.000000,1.000000,2.000000,-1.000000,-4.000000,-3.000000,1.000000
1297623.245016,2.000000,-4.000000,0.000000,13.000000,-3.000000,-1.000000,-2.000000,-1.000000
1297623.245053,0.000000,3.000000,-2.000000,-16.000000,-3.000000,-1.000000,-2.000000,-2.000000
1297623.252478,-1.000000,-2.000000,-2.000000,-2.000000,0.000000,-1.000000,1.000000,-1.000000
1297623.252501,0.000000,-5.000000,-6.000000,5.000000,-1.000000,2.000000,-1.000000,1.000000
1297623.282620,2.000000,-1.000000,1.000000,4.000000,-1.000000,-2.000000,0.000000,-3.000000
1297623.282653,-2.000000,1.000000,1.000000,6.000000,0.000000,-5.000000,0.000000,1.000000
1297623.283372,-3.000000,-2.000000,-5.000000,-2.000000,1.000000,0.000000,0.000000,-1.000000
1297623.283409,-1.000000,-1.000000,2.000000,-1.000000,-5.000000,-3.000000,0.000000,-3.000000
1297623.284623,2.000000,-2.000000,1.000000,-3.000000,-3.000000,-3.000000,-1.000000,-2.000000
1297623.284662,0.000000,-1.000000,0.000000,0.000000,-1.000000,0.000000,-1.000000,-3.000000
1297623.285201,-2.000000,-1.000000,-3.000000,2.000000,-1.000000,2.000000,-3.000000,-1.000000
1297623.285239,-1.000000,0.000000,-3.000000,-2.000000,-1.000000,-1.000000,-5.000000,-3.000000
1297623.290742,0.000000,0.000000,-1.000000,-3.000000,1.000000,-1.000000,-1.000000,-3.000000
1297623.290772,0.000000,-1.000000,1.000000,-2.000000,-2.000000,1.000000,-1.000000,0.000000
1297623.297853,1.000000,1.000000,-2.000000,-4.000000,-1.000000,-2.000000,-4.000000,-1.000000
1297623.297875,-3.000000,-4.000000,-3.000000,0.000000,-3.000000,-2.000000,0.000000,-3.000000
1297623.342630,-2.000000,-1.000000,3.000000,-2.000000,-1.000000,2.000000,0.000000,0.000000
1297623.342671,-4.000000,-2.000000,1.000000,-1.000000,-1.000000,1.000000,0.000000,0.000000
1297623.357560,-4.000000,-4.000000,3.000000,14.000000,2.000000,2.000000,1.000000,0.000000
1297623.357613,0.000000,4.000000,-1.000000,-5.000000,-3.000000,2.000000,-1.000000,-3.000000
1297623.372603,1.000000,1.000000,-1.000000,-1.000000,0.000000,0.000000,-2.000000,0.000000
1297623.372624,-1.000000,-3.000000,-1.000000,-3.000000,3.000000,0.000000,0.000000,1.000000
1297623.380013,0.000000,0.000000,-5.000000,-16.000000,-3.000000,-3.000000,-1.000000,-3.000000
1297623.380054,1.000000,1.000000,-2.000000,5.000000,-1.000000,-3.000000,1.000000,-1.000000
1297623.403654,0.000000,-2.000000,0.000000,4.000000,0.000000,0.000000,0.000000,3.000000
1297623.403698,-1.000000,-4.000000,-5.000000,-6.000000,-1.000000,-1.000000,-1.000000,1.000000
1297623.403981,-1.000000,-3.000000,-2.000000,-1.000000,-3.000000,2.000000,1.000000,0.000000
1297623.404238,-1.000000,1.000000,-2.000000,1.000000,2.000000,1.000000,-3.000000,0.000000
1297623.404788,-1.000000,-7.000000,-1.000000,2.000000,-6.000000,-3.000000,-1.000000,-2.000000
1297623.404996,-3.000000,8.000000,5.000000,-1.000000,-3.000000,-3.000000,0.000000,1.000000
1297623.405452,-2.000000,-1.000000,-1.000000,0.000000,-1.000000,2.000000,0.000000,1.000000
1297623.405492,-1.000000,-2.000000,-1.000000,-2.000000,0.000000,-2.000000,-1.000000,0.000000
1297623.406703,-1.000000,0.000000,-3.000000,1.000000,-1.000000,1.000000,-2.000000,-1.000000
1297623.406721,-2.000000,-1.000000,0.000000,1.000000,0.000000,0.000000,0.000000,-1.000000
1297623.417917,-2.000000,2.000000,-3.000000,9.000000,-1.000000,1.000000,-2.000000,2.000000
1297623.418160,-2.000000,2.000000,-2.000000,-14.000000,0.000000,0.000000,3.000000,0.000000
1297623.418485,-2.000000,-4.000000,-3.000000,3.000000,1.000000,1.000000,0.000000,-1.000000
1297623.418501,-1.000000,-1.000000,-1.000000,-7.000000,-3.000000,-1.000000,-2.000000,-2.000000
1297623.439904,-3.000000,-3.000000,-1.000000,3.000000,1.000000,0.000000,-4.000000,-1.000000
1297623.439941,-2.000000,1.000000,0.000000,2.000000,-1.000000,1.000000,0.000000,-3.000000
1297623.447577,-2.000000,3.000000,-1.000000,0.000000,-1.000000,-1.000000,-3.000000,-4.000000
1297623.447622,-2.000000,-2.000000,0.000000,7.000000,-1.000000,-1.000000,-1.000000,-1.000000
1297623.448793,2.000000,0.000000,1.000000,-4.000000,-4.000000,1.000000,0.000000,-2.000000
1297623.448832,2.000000,0.000000,-1.000000,4.000000,2.000000,-1.000000,-2.000000,-1.000000
1297623.485148,-2.000000,-3.000000,1.000000,-2.000000,-2.000000,-3.000000,-3.000000,1.000000
1297623.485169,-2.000000,0.000000,-2.000000,1.000000,-1.000000,1.000000,1.000000,1.000000
1297623.493536,0.000000,0.000000,-4.000000,-3.000000,-3.000000,1.000000,1.000000,0.000000
1297623.493591,-3.000000,-1.000000,-5.000000,4.000000,-1.000000,-3.000000,-4.000000,0.000000
1297623.494117,2.000000,1.000000,-2.000000,-4.000000,-1.000000,0.000000,1.000000,0.000000
1297623.494134,-3.000000,0.000000,-3.000000,-2.000000,-2.000000,2.000000,-4.000000,-2.000000
1297623.495195,-4.000000,-2.000000,-1.000000,2.000000,2.000000,-2.000000,0.000000,0.000000
1297623.495213,-5.000000,1.000000,-4.000000,4.000000,-1.000000,-1.000000,-3.000000,-1.000000
1297623.507603,-3.000000,0.000000,-2.000000,0.000000,1.000000,-3.000000,-4.000000,2.000000
1297623.507643,1.000000,0.000000,-3.000000,1.000000,0.000000,-3.000000,-3.000000,-2.000000
1297623.530031,-2.000000,-3.000000,-3.000000,-2.000000,1.000000,-3.000000,2.000000,-2.000000
1297623.530071,2.000000,-3.000000,-1.000000,0.000000,-1.000000,-2.000000,1.000000,1.000000
1297623.537525,-2.000000,3.000000,1.000000,-5.000000,-3.000000,-2.000000,-1.000000,1.000000
1297623.537566,-1.000000,3.000000,-1.000000,-5.000000,0.000000,1.000000,-1.000000,0.000000
1297623.560141,-2.000000,0.000000,-1.000000,1.000000,2.000000,-2.000000,-1.000000,1.000000
1297623.560184,-1.000000,2.000000,-1.000000,0.000000,-2.000000,0.000000,-2.000000,0.000000
1297623.560927,-2.000000,-1.000000,-2.000000,-19.000000,-4.000000,0.000000,-1.000000,-1.000000
1297623.560960,1.000000,6.000000,-2.000000,8.000000,3.000000,-3.000000,0.000000,-2.000000
1297623.562028,-3.000000,0.000000,-1.000000,-1.000000,-1.000000,1.000000,-3.000000,-2.000000
1297623.562053,-1.000000,-1.000000,-3.000000,6.000000,3.000000,1.000000,-1.000000,-2.000000
1297623.562690,-1.000000,-3.000000,0.000000,4.000000,0.000000,0.000000,-1.000000,-1.000000
1297623.562730,1.000000,-1.000000,-5.000000,-5.000000,-3.000000,-1.000000,-3.000000,-1.000000
1297623.568002,-1.000000,-1.000000,1.000000,-3.000000,-1.000000,1.000000,1.000000,-3.000000
1297623.568038,0.000000,-5.000000,0.000000,4.000000,3.000000,2.000000,-3.000000,1.000000
1297623.582576,1.000000,-2.000000,-1.000000,3.000000,-3.000000,1.000000,1.000000,0.000000
1297623.582596,0.000000,-1.000000,1.000000,-2.000000,-3.000000,-3.000000,-1.000000,0.000000
1297623.612577,1.000000,2.000000,0.000000,-1.000000,-1.000000,0.000000,3.000000,-4.000000
1297623.612618,1.000000,0.000000,0.000000,-1.000000,-4.000000,-4.000000,0.000000,-1.000000
1297623.619906,-3.000000,-2.000000,1.000000,-1.000000,-1.000000,-1.000000,-2.000000,-3.000000
1297623.619925,1.000000,1.000000,-3.000000,-1.000000,1.000000,0.000000,-2.000000,-2.000000
1297623.649926,-1.000000,0.000000,-2.000000,-2.000000,-1.000000,1.000000,-1.000000,-3.000000
1297623.649966,1.000000,-4.000000,0.000000,9.000000,-1.000000,0.000000,-3.000000,-4.000000
1297623.650720,2.000000,-2.000000,-2.000000,-13.000000,3.000000,1.000000,-3.000000,0.000000
1297623.651031,-2.000000,1.000000,0.000000,2.000000,0.000000,0.000000,1.000000,-1.000000
1297623.652571,-2.000000,1.000000,2.000000,5.000000,1.000000,0.000000,-1.000000,1.000000
1297623.652596,-2.000000,-2.000000,-3.000000,2.000000,0.000000,-2.000000,-1.000000,-3.000000
1297623.653027,-4.000000,-7.000000,-5.000000,3.000000,-3.000000,-2.000000,-2.000000,-2.000000
1297623.653047,-1.000000,-2.000000,-1.000000,-2.000000,-1.000000,-1.000000,0.000000,1.000000
1297623.653983,-1.000000,-4.000000,0.000000,9.000000,1.000000,2.000000,1.000000,-5.000000
1297623.654016,-3.000000,-3.000000,-1.000000,2.000000,-5.000000,-2.000000,-2.000000,1.000000
1297623.657566,1.000000,-2.000000,1.000000,-15.000000,0.000000,1.000000,0.000000,1.000000
1297623.657589,1.000000,1.000000,-3.000000,-1.000000,5.000000,-3.000000,0.000000,2.000000
1297623.681416,-2.000000,2.000000,2.000000,5.000000,1.000000,-1.000000,-2.000000,-2.000000
1297623.681550,0.000000,-2.000000,-4.000000,-7.000000,-2.000000,1.000000,-4.000000,-1.000000
1297623.681901,0.000000,-1.000000,0.000000,2.000000,-1.000000,-1.000000,0.000000,-1.000000
1297623.681941,-1.000000,0.000000,2.000000,1.000000,0.000000,-1.000000,-1.000000,-1.000000
1297623.695085,1.000000,-3.000000,-1.000000,2.000000,0.000000,1.000000,-2.000000,-1.000000
1297623.695107,0.000000,-3.000000,0.000000,1.000000,-3.000000,-2.000000,0.000000,-4.000000
1297623.725264,0.000000,0.000000,2.000000,1.000000,-2.000000,1.000000,-5.000000,-2.000000
1297623.725304,-1.000000,3.000000,-1.000000,-3.000000,-4.000000,-1.000000,0.000000,0.000000
1297623.740022,-1.000000,1.000000,3.000000,-1.000000,-4.000000,-1.000000,-4.000000,0.000000
1297623.740064,-4.000000,-4.000000,-1.000000,4.000000,1.000000,4.000000,-4.000000,0.000000
1297623.747798,-4.000000,0.000000,-1.000000,1.000000,0.000000,0.000000,0.000000,0.000000
1297623.747834,-2.000000,-2.000000,1.000000,5.000000,2.000000,-1.000000,0.000000,-4.000000
1297623.770150,-1.000000,0.000000,-3.000000,2.000000,0.000000,-2.000000,-4.000000,0.000000
1297623.770174,-2.000000,2.000000,-5.000000,-22.000000,-2.000000,-1.000000,3.000000,2.000000
1297623.771349,-2.000000,-2.000000,-6.000000,-2.000000,0.000000,2.000000,-2.000000,-3.000000
1297623.771556,0.000000,3.000000,2.000000,3.000000,-2.000000,2.000000,2.000000,-3.000000
1297623.772427,-1.000000,-1.000000,-5.000000,-4.000000,6.000000,1.000000,-1.000000,1.000000
1297623.772455,0.000000,2.000000,0.000000,-9.000000,2.000000,2.000000,-3.000000,0.000000
1297623.772823,-1.000000,0.000000,-4.000000,2.000000,-2.000000,-2.000000,1.000000,-1.000000
1297623.772911,1.000000,-1.000000,1.000000,4.000000,3.000000,-1.000000,-2.000000,0.000000
1297623.784964,-1.000000,-1.000000,-2.000000,3.000000,2.000000,1.000000,-2.000000,1.000000
1297623.785004,-1.000000,-2.000000,-1.000000,-1.000000,1.000000,2.000000,0.000000,0.000000
1297623.800704,0.000000,-3.000000,-1.000000,-1.000000,-1.000000,2.000000,1.000000,0.000000
1297623.800725,-2.000000,-1.000000,0.000000,1.000000,3.000000,2.000000,-3.000000,1.000000
1297623.801345,1.000000,-3.000000,0.000000,3.000000,0.000000,-1.000000,-2.000000,-2.000000
1297623.801384,0.000000,0.000000,0.000000,-3.000000,-2.000000,-1.000000,1.000000,0.000000
1297623.809116,-3.000000,0.000000,1.000000,0.000000,2.000000,-1.000000,-2.000000,-1.000000
1297623.809139,-1.000000,1.000000,-1.000000,-1.000000,-1.000000,-2.000000,-3.000000,-3.000000
1297623.822749,-4.000000,4.000000,2.000000,-1.000000,0.000000,-2.000000,1.000000,1.000000
1297623.822770,-1.000000,-1.000000,-1.000000,-1.000000,2.000000,2.000000,-4.000000,-4.000000
1297623.845120,1.000000,1.000000,-1.000000,-1.000000,0.000000,0.000000,-3.000000,-1.000000
1297623.845161,-1.000000,0.000000,0.000000,-1.000000,0.000000,-3.000000,-1.000000,-3.000000
1297623.852538,1.000000,0.000000,-3.000000,2.000000,3.000000,-5.000000,0.000000,-2.000000
1297623.852573,1.000000,-4.000000,-2.000000,2.000000,1.000000,-1.000000,1.000000,0.000000
1297623.876307,-5.000000,-1.000000,-4.000000,-14.000000,-3.000000,0.000000,0.000000,2.000000
1297623.876327,-2.000000,2.000000,-2.000000,3.000000,1.000000,1.000000,0.000000,-1.000000
1297623.876419,2.000000,-2.000000,-4.000000,5.000000,-2.000000,-1.000000,-3.000000,-4.000000
1297623.876428,-1.000000,0.000000,0.000000,2.000000,-3.000000,1.000000,0.000000,-2.000000
1297623.882867,1.000000,-5.000000,-5.000000,2.000000,8.000000,2.000000,-4.000000,-2.000000
1297623.882891,0.000000,0.000000,1.000000,1.000000,0.000000,0.000000,-3.000000,0.000000
1297623.883888,0.000000,-3.000000,3.000000,-3.000000,1.000000,-1.000000,-2.000000,-1.000000
1297623.883924,-2.000000,-1.000000,-2.000000,-3.000000,4.000000,-1.000000,0.000000,1.000000
1297623.890782,-3.000000,-1.000000,1.000000,0.000000,-2.000000,-1.000000,-5.000000,-3.000000
1297623.890804,-1.000000,0.000000,-2.000000,4.000000,-2.000000,-1.000000,-1.000000,-3.000000
1297623.897578,0.000000,1.000000,-2.000000,-1.000000,5.000000,-1.000000,-1.000000,2.000000
1297623.897619,-1.000000,2.000000,2.000000,3.000000,4.000000,0.000000,-1.000000,-1.000000
1297623.920761,1.000000,1.000000,0.000000,-3.000000,-4.000000,-1.000000,1.000000,-3.000000
1297623.920781,-2.000000,-1.000000,-4.000000,-3.000000,-4.000000,-3.000000,-2.000000,-1.000000
1297623.921386,1.000000,-3.000000,-3.000000,-5.000000,-3.000000,0.000000,-2.000000,-2.000000
1297623.921424,-2.000000,-1.000000,-3.000000,0.000000,-1.000000,-3.000000,0.000000,-3.000000
1297623.928170,-1.000000,-7.000000,-2.000000,-5.000000,1.000000,-4.000000,-1.000000,0.000000
1297623.928190,-1.000000,-1.000000,2.000000,-1.000000,0.000000,0.000000,-1.000000,-1.000000
1297623.957730,0.000000,-4.000000,-4.000000,1.000000,-2.000000,-3.000000,-2.000000,-1.000000
1297623.957759,-1.000000,0.000000,-1.000000,3.000000,0.000000,0.000000,0.000000,-1.000000
1297623.972656,-4.000000,-2.000000,-4.000000,-2.000000,-1.000000,0.000000,-1.000000,-1.000000
1297623.972676,-3.000000,-1.000000,-1.000000,4.000000,-1.000000,0.000000,0.000000,-2.000000
1297623.987602,3.000000,2.000000,2.000000,-2.000000,-5.000000,1.000000,-1.000000,-2.000000
1297623.987642,-2.000000,0.000000,-2.000000,-3.000000,1.000000,1.000000,0.000000,-1.000000
1297624.003341,-1.000000,1.000000,0.000000,-1.000000,-2.000000,-2.000000,-4.000000,0.000000
1297624.003505,0.000000,-1.000000,-3.000000,-2.000000,-3.000000,-3.000000,-1.000000,0.000000
1297624.003894,1.000000,2.000000,-1.000000,-3.000000,1.000000,-2.000000,-1.000000,-1.000000
1297624.003932,-2.000000,-1.000000,-3.000000,0.000000,-2.000000,0.000000,0.000000,1.000000
1297624.011431,1.000000,1.000000,3.000000,2.000000,-4.000000,-3.000000,-1.000000,2.000000
1297624.011656,-3.000000,-2.000000,-9.000000,-27.000000,-4.000000,-3.000000,0.000000,1.000000
1297624.012171,-4.000000,-2.000000,-1.000000,5.000000,0.000000,-1.000000,0.000000,-3.000000
1297624.012191,-3.000000,0.000000,-1.000000,3.000000,1.000000,-1.000000,-3.000000,-1.000000
1297624.012910,-3.000000,-4.000000,-4.000000,-5.000000,-1.000000,-1.000000,1.000000,-1.000000
1297624.012927,-3.000000,-5.000000,-1.000000,2.000000,-2.000000,-1.000000,2.000000,0.000000
1297624.040281,-1.000000,-1.000000,-2.000000,-13.000000,0.000000,0.000000,1.000000,0.000000
1297624.040334,1.000000,-2.000000,2.000000,3.000000,-4.000000,0.000000,-2.000000,-1.000000
1297624.042060,-2.000000,-1.000000,-1.000000,-1.000000,-2.000000,0.000000,-2.000000,-3.000000
1297624.042077,-6.000000,-3.000000,-7.000000,3.000000,-6.000000,-1.000000,-4.000000,-1.000000
1297624.042170,-2.000000,-3.000000,-3.000000,3.000000,1.000000,3.000000,-2.000000,-2.000000
1297624.042180,-1.000000,2.000000,1.000000,1.000000,-5.000000,-2.000000,-1.000000,2.000000
1297624.077637,-2.000000,-1.000000,1.000000,2.000000,-5.000000,-3.000000,-1.000000,0.000000
1297624.077661,2.000000,-1.000000,-1.000000,1.000000,1.000000,2.000000,1.000000,1.000000
1297624.084900,0.000000,0.000000,1.000000,-3.000000,-1.000000,0.000000,-1.000000,0.000000
1297624.084942,-3.000000,0.000000,0.000000,0.000000,-1.000000,-1.000000,-1.000000,0.000000
1297624.100001,0.000000,2.000000,2.000000,-5.000000,-4.000000,-4.000000,-4.000000,0.000000
1297624.100042,-2.000000,-2.000000,-4.000000,-9.000000,-2.000000,1.000000,0.000000,-3.000000
1297624.115474,-1.000000,0.000000,-1.000000,1.000000,-2.000000,1.000000,-1.000000,0.000000
1297624.115566,1.000000,1.000000,0.000000,-1.000000,-3.000000,-1.000000,-2.000000,1.000000
1297624.116792,-1.000000,1.000000,0.000000,13.000000,0.000000,-4.000000,-1.000000,-1.000000
1297624.116833,1.000000,1.000000,0.000000,-4.000000,2.000000,-2.000000,-1.000000,2.000000
1297624.117432,-2.000000,0.000000,1.000000,-3.000000,-3.000000,-2.000000,0.000000,0.000000
1297624.117522,0.000000,-1.000000,1.000000,-1.000000,2.000000,3.000000,2.000000,0.000000
1297624.118745,0.000000,0.000000,0.000000,5.000000,-3.000000,-1.000000,0.000000,-2.000000
1297624.118785,-2.000000,-1.000000,0.000000,2.000000,-1.000000,0.000000,-5.000000,-2.000000
1297624.122731,1.000000,2.000000,1.000000,-3.000000,1.000000,-1.000000,0.000000,-5.000000
1297624.122772,-1.000000,-5.000000,-4.000000,-1.000000,-3.000000,0.000000,0.000000,-2.000000
1297624.130783,0.000000,-1.000000,0.000000,0.000000,-1.000000,1.000000,-1.000000,-1.000000
1297624.130819,-1.000000,0.000000,0.000000,-4.000000,-2.000000,-3.000000,0.000000,-2.000000
1297624.137479,-3.000000,-4.000000,-5.000000,-1.000000,0.000000,-2.000000,5.000000,1.000000
1297624.137499,1.000000,5.000000,-1.000000,-16.000000,0.000000,-1.000000,0.000000,2.000000
1297624.152550,2.000000,1.000000,4.000000,1.000000,1.000000,1.000000,-1.000000,0.000000
1297624.152571,2.000000,0.000000,-3.000000,-1.000000,-7.000000,-2.000000,-1.000000,0.000000
1297624.160030,-1.000000,-4.000000,0.000000,7.000000,2.000000,-5.000000,-3.000000,-2.000000
1297624.160050,0.000000,0.000000,2.000000,1.000000,-3.000000,0.000000,-1.000000,-2.000000
1297624.175607,1.000000,-2.000000,1.000000,4.000000,1.000000,-2.000000,-3.000000,-1.000000
1297624.175658,-3.000000,-1.000000,-2.000000,3.000000,-8.000000,0.000000,-1.000000,-1.000000
1297624.183137,0.000000,-1.000000,-4.000000,-19.000000,-1.000000,-1.000000,-1.000000,0.000000
1297624.183187,-2.000000,0.000000,5.000000,4.000000,-6.000000,0.000000,0.000000,-2.000000
1297624.205568,0.000000,1.000000,-1.000000,8.000000,1.000000,0.000000,-2.000000,-1.000000
1297624.205622,2.000000,0.000000,-1.000000,-4.000000,0.000000,0.000000,-1.000000,-1.000000
1297624.213011,-2.000000,-1.000000,1.000000,4.000000,3.000000,4.000000,1.000000,-1.000000
1297624.213039,2.000000,1.000000,-1.000000,5.000000,1.000000,-2.000000,0.000000,-3.000000
1297624.228626,0.000000,-2.000000,-3.000000,-8.000000,1.000000,-3.000000,2.000000,-1.000000
1297624.228651,0.000000,1.000000,-1.000000,-4.000000,-5.000000,-2.000000,1.000000,-4.000000
1297624.235322,-1.000000,0.000000,-3.000000,-5.000000,0.000000,-2.000000,1.000000,1.000000
1297624.235531,-1.000000,-2.000000,-1.000000,-8.000000,0.000000,0.000000,0.000000,0.000000
1297624.237002,3.000000,-1.000000,-1.000000,2.000000,-5.000000,-1.000000,1.000000,2.000000
1297624.237062,0.000000,2.000000,-2.000000,1.000000,0.000000,-1.000000,1.000000,0.000000
1297624.243104,0.000000,1.000000,0.000000,2.000000,-5.000000,0.000000,-1.000000,1.000000
1297624.243159,-4.000000,2.000000,2.000000,3.000000,-4.000000,-3.000000,-1.000000,0.000000
1297624.251379,-2.000000,0.000000,3.000000,0.000000,-2.000000,0.000000,0.000000,-1.000000
1297624.251445,-2.000000,0.000000,-1.000000,-9.000000,1.000000,0.000000,-1.000000,-1.000000
1297624.280485,-1.000000,-5.000000,0.000000,9.000000,0.000000,-2.000000,-1.000000,-2.000000
1297624.280656,-1.000000,-1.000000,-1.000000,-11.000000,-4.000000,-1.000000,3.000000,1.000000
1297624.282281,-1.000000,1.000000,-3.000000,-9.000000,3.000000,1.000000,-1.000000,-1.000000
1297624.282333,2.000000,1.000000,0.000000,4.000000,0.000000,-3.000000,-1.000000,-1.000000
1297624.282671,0.000000,-1.000000,-4.000000,-3.000000,1.000000,0.000000,-1.000000,-2.000000
1297624.282721,1.000000,-1.000000,-2.000000,1.000000,-3.000000,0.000000,-1.000000,-3.000000
1297624.302972,-1.000000,-1.000000,-3.000000,-2.000000,-5.000000,-1.000000,0.000000,1.000000
1297624.303032,-1.000000,2.000000,-2.000000,-1.000000,2.000000,2.000000,1.000000,0.000000
1297624.317911,1.000000,1.000000,2.000000,-5.000000,0.000000,-1.000000,0.000000,0.000000
1297624.317958,0.000000,-1.000000,-1.000000,-20.000000,0.000000,-1.000000,-1.000000,-2.000000
1297624.356381,0.000000,-1.000000,4.000000,0.000000,-3.000000,0.000000,-4.000000,-1.000000
1297624.356424,-4.000000,-1.000000,0.000000,3.000000,7.000000,0.000000,1.000000,1.000000
1297624.357367,2.000000,3.000000,0.000000,0.000000,1.000000,0.000000,0.000000,-2.000000
1297624.357396,-1.000000,-2.000000,2.000000,4.000000,-1.000000,-2.000000,-1.000000,-2.000000
1297624.358313,-3.000000,0.000000,-1.000000,-1.000000,-2.000000,1.000000,-1.000000,-3.000000
1297624.358364,0.000000,-4.000000,-4.000000,-3.000000,-6.000000,-1.000000,0.000000,0.000000
1297624.360389,0.000000,0.000000,-1.000000,-3.000000,1.000000,-3.000000,0.000000,0.000000
1297624.360441,2.000000,-1.000000,-3.000000,9.000000,-1.000000,-1.000000,-3.000000,-2.000000
1297624.360777,-1.000000,4.000000,0.000000,6.000000,1.000000,-5.000000,0.000000,-2.000000
1297624.360803,-1.000000,-1.000000,1.000000,-3.000000,-1.000000,0.000000,-4.000000,1.000000
1297624.362957,0.000000,-1.000000,-5.000000,-24.000000,-4.000000,0.000000,-5.000000,1.000000
1297624.362983,-1.000000,0.000000,0.000000,-5.000000,-4.000000,-1.000000,0.000000,0.000000
1297624.371260,-2.000000,-4.000000,-4.000000,-2.000000,0.000000,0.000000,-1.000000,0.000000
1297624.371298,3.000000,1.000000,2.000000,0.000000,1.000000,-1.000000,-5.000000,0.000000
1297624.393704,-4.000000,-1.000000,-2.000000,-1.000000,-5.000000,-3.000000,-1.000000,-1.000000
1297624.393936,-2.000000,1.000000,-3.000000,-1.000000,-1.000000,-2.000000,0.000000,-4.000000
1297624.394740,-1.000000,-3.000000,-3.000000,1.000000,0.000000,-2.000000,-3.000000,-2.000000
1297624.394792,-4.000000,-4.000000,-3.000000,-2.000000,2.000000,-4.000000,-1.000000,-4.000000
1297624.400637,-1.000000,-5.000000,1.000000,1.000000,2.000000,-1.000000,-2.000000,-2.000000
1297624.400662,-2.000000,1.000000,3.000000,7.000000,1.000000,2.000000,0.000000,0.000000
1297624.430671,-3.000000,-4.000000,-5.000000,-12.000000,-3.000000,1.000000,-1.000000,-6.000000
1297624.430721,2.000000,-2.000000,-5.000000,-2.000000,-1.000000,-1.000000,2.000000,-1.000000
1297624.445893,1.000000,-2.000000,1.000000,-6.000000,-1.000000,0.000000,-2.000000,-1.000000
1297624.445957,2.000000,-4.000000,1.000000,5.000000,-4.000000,-1.000000,0.000000,0.000000
1297624.460802,1.000000,3.000000,1.000000,0.000000,2.000000,-1.000000,1.000000,2.000000
1297624.460837,-2.000000,-1.000000,-1.000000,-4.000000,2.000000,-1.000000,0.000000,-3.000000
1297624.468292,-1.000000,-4.000000,-1.000000,-4.000000,-2.000000,-2.000000,-4.000000,1.000000
1297624.468917,-3.000000,-7.000000,-2.000000,2.000000,-4.000000,0.000000,-4.000000,0.000000
1297624.470233,-4.000000,-3.000000,-3.000000,2.000000,0.000000,1.000000,0.000000,1.000000
1297624.470286,1.000000,2.000000,-1.000000,-23.000000,-3.000000,2.000000,-1.000000,-1.000000
1297624.470560,-3.000000,-5.000000,-7.000000,2.000000,2.000000,-2.000000,1.000000,-1.000000
1297624.470986,2.000000,0.000000,-1.000000,2.000000,-3.000000,0.000000,0.000000,0.000000
1297624.475872,-3.000000,-3.000000,2.000000,2.000000,-2.000000,-3.000000,0.000000,1.000000
1297624.475925,0.000000,-3.000000,-4.000000,-1.000000,0.000000,-2.000000,0.000000,0.000000
1297624.483272,-2.000000,0.000000,1.000000,2.000000,1.000000,-3.000000,0.000000,-2.000000
1297624.483303,0.000000,-1.000000,-1.000000,-1.000000,-4.000000,0.000000,-1.000000,-3.000000
1297624.492338,-4.000000,-6.000000,-1.000000,3.000000,5.000000,2.000000,1.000000,-2.000000
1297624.492366,2.000000,3.000000,2.000000,1.000000,-4.000000,0.000000,2.000000,1.000000
1297624.505651,-1.000000,0.000000,-1.000000,-2.000000,1.000000,0.000000,1.000000,-3.000000
1297624.505706,-1.000000,1.000000,1.000000,0.000000,1.000000,1.000000,1.000000,2.000000
1297624.514302,0.000000,1.000000,-3.000000,-1.000000,-2.000000,0.000000,-5.000000,0.000000
1297624.514354,1.000000,-3.000000,-1.000000,1.000000,-3.000000,2.000000,0.000000,0.000000
1297624.520701,1.000000,1.000000,1.000000,-3.000000,0.000000,-1.000000,0.000000,-2.000000
1297624.520730,-1.000000,-3.000000,2.000000,-3.000000,2.000000,0.000000,-1.000000,-4.000000
1297624.558566,1.000000,-2.000000,-4.000000,-6.000000,-4.000000,0.000000,-1.000000,-3.000000
1297624.558593,-1.000000,4.000000,-2.000000,0.000000,1.000000,-4.000000,-2.000000,1.000000
1297624.566049,0.000000,-1.000000,-5.000000,1.000000,1.000000,-2.000000,0.000000,-1.000000
1297624.566097,-2.000000,2.000000,9.000000,5.000000,-3.000000,-1.000000,-1.000000,0.000000
1297624.596897,0.000000,2.000000,4.000000,1.000000,3.000000,1.000000,1.000000,-1.000000
1297624.597612,-1.000000,-1.000000,1.000000,3.000000,0.000000,0.000000,0.000000,2.000000
1297624.598875,1.000000,4.000000,1.000000,2.000000,-4.000000,2.000000,0.000000,-2.000000
1297624.598922,1.000000,0.000000,-5.000000,5.000000,-2.000000,0.000000,-3.000000,-2.000000
1297624.599707,-3.000000,1.000000,1.000000,1.000000,1.000000,1.000000,1.000000,-2.000000
1297624.599735,-2.000000,3.000000,0.000000,1.000000,-4.000000,-1.000000,0.000000,-2.000000
1297624.600906,-1.000000,-1.000000,1.000000,1.000000,4.000000,-1.000000,0.000000,-2.000000
1297624.600930,-2.000000,-2.000000,-3.000000,-3.000000,-1.000000,-1.000000,-2.000000,-1.000000
1297624.603006,-1.000000,-1.000000,-3.000000,1.000000,2.000000,-4.000000,2.000000,0.000000
1297624.603049,-5.000000,-3.000000,0.000000,1.000000,0.000000,-1.000000,0.000000,-2.000000
1297624.633282,2.000000,1.000000,-2.000000,2.000000,1.000000,-1.000000,0.000000,1.000000
1297624.633333,-4.000000,4.000000,1.000000,3.000000,3.000000,-1.000000,-1.000000,-2.000000
1297624.640590,2.000000,-3.000000,0.000000,-1.000000,-5.000000,2.000000,0.000000,0.000000
1297624.640643,1.000000,-1.000000,1.000000,-6.000000,1.000000,2.000000,0.000000,0.000000
1297624.655627,-1.000000,-4.000000,-6.000000,-13.000000,-7.000000,1.000000,-2.000000,-1.000000
1297624.655655,0.000000,0.000000,2.000000,-7.000000,0.000000,-2.000000,1.000000,-2.000000
1297624.671085,0.000000,-2.000000,-1.000000,-3.000000,3.000000,-2.000000,-2.000000,-1.000000
1297624.671186,-3.000000,-5.000000,-3.000000,0.000000,-3.000000,-3.000000,1.000000,-1.000000
1297624.685463,0.000000,-2.000000,-1.000000,0.000000,-1.000000,-3.000000,-1.000000,2.000000
1297624.685491,1.000000,1.000000,-1.000000,2.000000,0.000000,0.000000,-3.000000,-2.000000
1297624.693127,-1.000000,-1.000000,-3.000000,-1.000000,-2.000000,-1.000000,0.000000,0.000000
1297624.693156,-1.000000,0.000000,-3.000000,-3.000000,3.000000,0.000000,0.000000,3.000000
1297624.715533,-2.000000,-4.000000,-1.000000,-4.000000,-3.000000,-3.000000,-1.000000,1.000000
1297624.715587,0.000000,-4.000000,-1.000000,2.000000,-1.000000,0.000000,0.000000,-3.000000
1297624.717973,-2.000000,2.000000,-2.000000,2.000000,0.000000,-3.000000,1.000000,-1.000000
1297624.718013,0.000000,-5.000000,-5.000000,5.000000,-4.000000,-3.000000,0.000000,-3.000000
1297624.718472,-1.000000,-4.000000,1.000000,-2.000000,0.000000,-3.000000,-1.000000,-2.000000
1297624.718497,0.000000,-2.000000,3.000000,6.000000,-2.000000,-1.000000,2.000000,-2.000000
1297624.718923,-5.000000,-5.000000,-2.000000,-5.000000,5.000000,-1.000000,-1.000000,0.000000
1297624.718949,-1.000000,-1.000000,-6.000000,0.000000,-1.000000,1.000000,-1.000000,-2.000000
1297624.725094,-1.000000,-3.000000,-3.000000,-12.000000,-3.000000,-3.000000,-3.000000,-2.000000
1297624.725416,0.000000,-4.000000,-4.000000,-18.000000,-2.000000,3.000000,-1.000000,-1.000000
1297624.725665,0.000000,-2.000000,1.000000,6.000000,4.000000,1.000000,0.000000,-1.000000
1297624.725689,-1.000000,-1.000000,1.000000,6.000000,-3.000000,-3.000000,-1.000000,1.000000
1297624.731264,-2.000000,-2.000000,-1.000000,4.000000,0.000000,-1.000000,-1.000000,-1.000000
1297624.731311,-4.000000,-2.000000,-2.000000,-1.000000,-4.000000,-2.000000,1.000000,1.000000
1297624.753804,-2.000000,-4.000000,2.000000,0.000000,0.000000,-1.000000,0.000000,-2.000000
1297624.753832,0.000000,-3.000000,-4.000000,-1.000000,-4.000000,-1.000000,1.000000,1.000000
1297624.755236,-1.000000,2.000000,0.000000,-5.000000,-7.000000,0.000000,0.000000,-1.000000
1297624.755270,1.000000,-3.000000,-1.000000,-3.000000,-2.000000,-1.000000,-2.000000,-1.000000
1297624.760939,1.000000,-1.000000,-4.000000,2.000000,4.000000,0.000000,-1.000000,-2.000000
1297624.760974,1.000000,-1.000000,2.000000,-4.000000,0.000000,-5.000000,-2.000000,1.000000
1297624.791400,0.000000,1.000000,0.000000,2.000000,1.000000,-1.000000,0.000000,-1.000000
1297624.791460,-1.000000,-2.000000,-6.000000,-10.000000,0.000000,3.000000,0.000000,-2.000000
1297624.798271,0.000000,0.000000,-2.000000,5.000000,0.000000,0.000000,0.000000,0.000000
1297624.798341,4.000000,-1.000000,1.000000,0.000000,0.000000,-2.000000,-1.000000,0.000000
1297624.835784,0.000000,1.000000,2.000000,-7.000000,1.000000,-3.000000,-1.000000,-1.000000
1297624.835834,2.000000,-1.000000,-2.000000,9.000000,0.000000,1.000000,0.000000,0.000000
1297624.842834,-1.000000,-4.000000,0.000000,-22.000000,-4.000000,0.000000,-3.000000,0.000000
1297624.842862,0.000000,0.000000,-3.000000,6.000000,0.000000,0.000000,1.000000,2.000000
1297624.873776,-2.000000,-4.000000,-3.000000,-1.000000,-4.000000,-1.000000,-1.000000,-3.000000
1297624.873815,-3.000000,-1.000000,1.000000,3.000000,-2.000000,-3.000000,-2.000000,2.000000
1297624.875470,0.000000,3.000000,-3.000000,4.000000,-1.000000,-3.000000,-4.000000,-1.000000
1297624.875516,-1.000000,-3.000000,0.000000,-1.000000,-1.000000,-2.000000,0.000000,-2.000000
1297624.877484,-1.000000,2.000000,-1.000000,-4.000000,-2.000000,0.000000,-3.000000,0.000000
1297624.877522,0.000000,-3.000000,-2.000000,3.000000,-1.000000,1.000000,-2.000000,-1.000000
1297624.877756,-1.000000,1.000000,1.000000,1.000000,-2.000000,-1.000000,0.000000,-1.000000
1297624.877786,0.000000,-2.000000,-2.000000,-1.000000,2.000000,1.000000,1.000000,1.000000
1297624.878322,0.000000,-3.000000,-2.000000,-3.000000,-1.000000,-2.000000,-2.000000,-2.000000
1297624.878348,0.000000,1.000000,1.000000,-12.000000,-1.000000,-3.000000,-2.000000,-2.000000
1297624.880577,-1.000000,2.000000,0.000000,3.000000,0.000000,-1.000000,-2.000000,-2.000000
1297624.880707,-2.000000,0.000000,0.000000,9.000000,-1.000000,0.000000,2.000000,-1.000000
1297624.917971,-1.000000,-2.000000,-7.000000,-5.000000,-9.000000,-3.000000,1.000000,2.000000
1297624.917996,-2.000000,-4.000000,-6.000000,-7.000000,-3.000000,-4.000000,-1.000000,-2.000000
1297624.925179,-1.000000,1.000000,-5.000000,-15.000000,-1.000000,-1.000000,-1.000000,-1.000000
1297624.925204,-1.000000,-1.000000,3.000000,4.000000,5.000000,0.000000,-3.000000,-5.000000
1297624.956151,-3.000000,-4.000000,-1.000000,5.000000,-3.000000,-3.000000,0.000000,-1.000000
1297624.956604,-1.000000,1.000000,2.000000,6.000000,-3.000000,0.000000,-1.000000,-2.000000
1297624.957545,-1.000000,1.000000,2.000000,10.000000,1.000000,-1.000000,-4.000000,-2.000000
1297624.957583,0.000000,2.000000,1.000000,-3.000000,-5.000000,-2.000000,-1.000000,-2.000000
1297624.960169,1.000000,1.000000,-3.000000,-4.000000,1.000000,0.000000,-1.000000,-1.000000
1297624.960201,2.000000,0.000000,1.000000,4.000000,-6.000000,-2.000000,4.000000,-2.000000
1297624.961102,-2.000000,-4.000000,4.000000,6.000000,-5.000000,-2.000000,0.000000,-1.000000
1297624.961128,2.000000,0.000000,1.000000,2.000000,2.000000,-3.000000,-2.000000,1.000000
1297624.963127,2.000000,-5.000000,1.000000,0.000000,3.000000,-1.000000,-2.000000,1.000000
1297624.963183,-1.000000,-1.000000,-1.000000,-9.000000,-5.000000,1.000000,-4.000000,0.000000
1297625.007755,0.000000,-1.000000,-5.000000,-6.000000,-6.000000,2.000000,-4.000000,-1.000000
1297625.007784,-1.000000,-1.000000,-2.000000,-4.000000,0.000000,-4.000000,-1.000000,-2.000000
1297625.023148,-4.000000,-3.000000,1.000000,1.000000,-1.000000,-3.000000,0.000000,-4.000000
1297625.023186,-1.000000,-3.000000,-1.000000,1.000000,2.000000,-6.000000,1.000000,-1.000000
1297625.068209,1.000000,-5.000000,-5.000000,-6.000000,-6.000000,3.000000,-3.000000,-1.000000
1297625.068270,-1.000000,-1.000000,-4.000000,3.000000,0.000000,-3.000000,-1.000000,0.000000
1297625.068705,-3.000000,-1.000000,-4.000000,4.000000,-7.000000,-5.000000,2.000000,0.000000
1297625.068739,2.000000,6.000000,0.000000,0.000000,0.000000,-1.000000,2.000000,-3.000000
1297625.070365,-2.000000,3.000000,3.000000,-2.000000,-3.000000,-2.000000,-1.000000,1.000000
1297625.070544,-3.000000,-2.000000,2.000000,-19.000000,-3.000000,2.000000,-1.000000,-3.000000
1297625.071401,0.000000,-1.000000,2.000000,7.000000,0.000000,-1.000000,3.000000,1.000000
1297625.071429,-1.000000,-2.000000,4.000000,-17.000000,-3.000000,-4.000000,-2.000000,0.000000
1297625.071602,-2.000000,1.000000,-1.000000,1.000000,-1.000000,0.000000,0.000000,-2.000000
1297625.071632,1.000000,2.000000,4.000000,-3.000000,-1.000000,2.000000,2.000000,-2.000000
1297625.072524,0.000000,-2.000000,-1.000000,-2.000000,-5.000000,-1.000000,-1.000000,0.000000
1297625.072567,-1.000000,1.000000,2.000000,1.000000,0.000000,0.000000,-4.000000,0.000000
1297625.075254,-1.000000,-3.000000,-2.000000,-2.000000,-5.000000,-1.000000,-5.000000,-2.000000
1297625.075288,-1.000000,1.000000,-4.000000,-6.000000,-3.000000,0.000000,-1.000000,2.000000
1297625.082868,-2.000000,0.000000,0.000000,1.000000,1.000000,0.000000,-2.000000,-1.000000
1297625.083079,-3.000000,-3.000000,-1.000000,-1.000000,2.000000,0.000000,-3.000000,-3.000000
1297625.097821,0.000000,-2.000000,2.000000,3.000000,0.000000,-2.000000,-3.000000,-1.000000
1297625.097848,-1.000000,0.000000,-1.000000,1.000000,-1.000000,0.000000,-1.000000,0.000000
1297625.113834,1.000000,2.000000,0.000000,11.000000,-3.000000,-2.000000,-3.000000,-1.000000
1297625.113868,0.000000,-1.000000,-1.000000,-8.000000,-4.000000,-1.000000,-2.000000,-1.000000
1297625.114983,1.000000,-1.000000,1.000000,13.000000,-1.000000,3.000000,-1.000000,1.000000
1297625.115014,-2.000000,-4.000000,-8.000000,-36.000000,-3.000000,-3.000000,-2.000000,1.000000
1297625.120255,-2.000000,-1.000000,0.000000,1.000000,-3.000000,-3.000000,0.000000,-2.000000
1297625.120306,-1.000000,-2.000000,0.000000,7.000000,2.000000,3.000000,-2.000000,-2.000000
1297625.189562,-2.000000,1.000000,-2.000000,2.000000,-1.000000,1.000000,-4.000000,-6.000000
1297625.189829,-3.000000,-7.000000,-1.000000,-6.000000,-2.000000,-3.000000,-3.000000,-1.000000
1297625.190725,1.000000,-3.000000,-1.000000,0.000000,1.000000,-4.000000,-2.000000,-3.000000
1297625.191008,-1.000000,4.000000,-3.000000,-1.000000,5.000000,1.000000,-1.000000,2.000000
1297625.191999,1.000000,-3.000000,5.000000,0.000000,-5.000000,-4.000000,-2.000000,-1.000000
1297625.192018,0.000000,1.000000,1.000000,-1.000000,0.000000,0.000000,-3.000000,1.000000
1297625.192253,-1.000000,2.000000,-1.000000,2.000000,3.000000,-2.000000,-2.000000,-2.000000
1297625.192287,-1.000000,1.000000,-2.000000,-1.000000,0.000000,1.000000,-3.000000,1.000000
1297625.195424,0.000000,2.000000,-2.000000,-4.000000,2.000000,-1.000000,1.000000,0.000000
1297625.195475,-2.000000,-5.000000,0.000000,2.000000,2.000000,-1.000000,-2.000000,2.000000
1297625.202852,2.000000,1.000000,1.000000,-7.000000,2.000000,2.000000,-4.000000,0.000000
1297625.202876,0.000000,1.000000,2.000000,4.000000,1.000000,2.000000,-2.000000,-4.000000
1297625.225943,-1.000000,1.000000,0.000000,5.000000,0.000000,-1.000000,-1.000000,0.000000
1297625.226273,0.000000,-1.000000,-3.000000,-34.000000,-8.000000,-2.000000,-1.000000,1.000000
1297625.226629,-2.000000,-3.000000,-4.000000,-8.000000,-3.000000,-1.000000,-1.000000,-5.000000
1297625.226676,-5.000000,-1.000000,2.000000,9.000000,-3.000000,1.000000,-1.000000,-2.000000
1297625.232797,0.000000,-2.000000,-2.000000,6.000000,-2.000000,-1.000000,1.000000,-3.000000
1297625.232888,1.000000,-3.000000,0.000000,-5.000000,-3.000000,-3.000000,-2.000000,-5.000000
1297625.270757,1.000000,-5.000000,-5.000000,11.000000,5.000000,-1.000000,0.000000,-2.000000
1297625.270806,-2.000000,-3.000000,-2.000000,-5.000000,1.000000,1.000000,-1.000000,-3.000000
1297625.300434,2.000000,-1.000000,3.000000,4.000000,-5.000000,-1.000000,-4.000000,-1.000000
1297625.300484,0.000000,-3.000000,-1.000000,5.000000,2.000000,-3.000000,-1.000000,-2.000000
1297625.308261,-3.000000,-1.000000,0.000000,-4.000000,0.000000,-3.000000,-3.000000,-4.000000
1297625.308310,0.000000,-1.000000,-2.000000,-10.000000,-2.000000,2.000000,-2.000000,0.000000
1297625.316362,2.000000,-1.000000,0.000000,3.000000,-4.000000,-2.000000,1.000000,-3.000000
1297625.316421,-3.000000,0.000000,3.000000,10.000000,3.000000,0.000000,-2.000000,1.000000
1297625.318156,-1.000000,-2.000000,-6.000000,-3.000000,-8.000000,-1.000000,-1.000000,1.000000
1297625.318187,0.000000,-2.000000,0.000000,-8.000000,-1.000000,0.000000,-2.000000,-2.000000
1297625.318666,-3.000000,-2.000000,1.000000,-1.000000,-1.000000,-4.000000,-4.000000,-2.000000
1297625.318718,-3.000000,6.000000,1.000000,-2.000000,-3.000000,0.000000,-2.000000,-2.000000
1297625.322754,-3.000000,0.000000,-4.000000,-7.000000,3.000000,0.000000,-2.000000,0.000000
1297625.322789,-1.000000,-7.000000,-1.000000,1.000000,2.000000,0.000000,0.000000,-3.000000
1297625.345288,-1.000000,1.000000,3.000000,4.000000,-5.000000,-5.000000,1.000000,-2.000000
1297625.345536,0.000000,-2.000000,3.000000,8.000000,-7.000000,-1.000000,-4.000000,-1.000000
1297625.346032,-2.000000,-4.000000,-2.000000,-11.000000,-1.000000,0.000000,-1.000000,-1.000000
1297625.346057,-1.000000,-4.000000,-5.000000,-4.000000,-2.000000,-1.000000,0.000000,-1.000000
1297625.352865,-1.000000,-1.000000,1.000000,4.000000,1.000000,0.000000,-2.000000,0.000000
1297625.352921,-1.000000,0.000000,-1.000000,5.000000,3.000000,2.000000,0.000000,0.000000
1297625.398247,-1.000000,2.000000,0.000000,-4.000000,-1.000000,1.000000,1.000000,-4.000000
1297625.398294,-1.000000,2.000000,1.000000,5.000000,1.000000,-1.000000,-4.000000,-3.000000
1297625.400110,-3.000000,0.000000,-3.000000,-5.000000,2.000000,-3.000000,-2.000000,-1.000000
1297625.400147,-3.000000,-1.000000,-1.000000,3.000000,2.000000,1.000000,1.000000,3.000000
1297625.400821,0.000000,-3.000000,-1.000000,3.000000,1.000000,-2.000000,-1.000000,-1.000000
1297625.400867,0.000000,-2.000000,-1.000000,0.000000,-4.000000,0.000000,-1.000000,-1.000000
1297625.402230,0.000000,-3.000000,-3.000000,-2.000000,-1.000000,1.000000,-4.000000,-2.000000
1297625.402252,-4.000000,-1.000000,-4.000000,0.000000,-1.000000,1.000000,-3.000000,-2.000000
1297625.412853,-2.000000,-1.000000,-3.000000,-18.000000,-3.000000,0.000000,-4.000000,4.000000
1297625.412905,-1.000000,2.000000,1.000000,1.000000,-4.000000,-2.000000,2.000000,-2.000000
1297625.435294,-3.000000,-1.000000,-5.000000,11.000000,1.000000,-1.000000,-4.000000,3.000000
1297625.435351,-1.000000,0.000000,-1.000000,-1.000000,-3.000000,-4.000000,-4.000000,-1.000000
1297625.450452,-1.000000,1.000000,0.000000,-4.000000,-2.000000,3.000000,-1.000000,0.000000
1297625.450499,0.000000,-2.000000,0.000000,-3.000000,-2.000000,-3.000000,-3.000000,-2.000000
1297625.467277,0.000000,0.000000,-2.000000,4.000000,-1.000000,0.000000,-1.000000,-1.000000
1297625.467327,-3.000000,-2.000000,-1.000000,-2.000000,-4.000000,2.000000,-1.000000,1.000000
1297625.467687,0.000000,-4.000000,-2.000000,-1.000000,0.000000,-3.000000,-4.000000,-4.000000
1297625.467739,-4.000000,2.000000,2.000000,0.000000,-3.000000,-3.000000,-2.000000,-3.000000
1297625.470342,-3.000000,-5.000000,-5.000000,-7.000000,0.000000,1.000000,-4.000000,-3.000000
1297625.470376,0.000000,-2.000000,0.000000,0.000000,0.000000,1.000000,-3.000000,1.000000
1297625.470574,1.000000,-1.000000,2.000000,6.000000,-1.000000,0.000000,-1.000000,1.000000
1297625.470590,3.000000,-3.000000,-2.000000,5.000000,-3.000000,1.000000,0.000000,-1.000000
1297625.472675,0.000000,-3.000000,-2.000000,6.000000,-1.000000,-2.000000,-1.000000,-2.000000
1297625.472724,3.000000,0.000000,1.000000,-11.000000,-5.000000,2.000000,-1.000000,0.000000
1297625.502922,0.000000,-4.000000,2.000000,6.000000,-3.000000,-2.000000,0.000000,-3.000000
1297625.502983,-2.000000,-1.000000,-1.000000,3.000000,-2.000000,-2.000000,-2.000000,-3.000000
1297625.517823,0.000000,-3.000000,-3.000000,3.000000,-1.000000,0.000000,0.000000,2.000000
1297625.517871,0.000000,1.000000,-1.000000,2.000000,-3.000000,-1.000000,0.000000,-3.000000
1297625.540148,-4.000000,-1.000000,0.000000,6.000000,0.000000,0.000000,-1.000000,-3.000000
1297625.540376,2.000000,1.000000,-3.000000,-11.000000,-3.000000,-2.000000,-4.000000,0.000000
1297625.547630,-1.000000,0.000000,-1.000000,4.000000,1.000000,-1.000000,-2.000000,1.000000
1297625.547929,-2.000000,-3.000000,-3.000000,-2.000000,1.000000,4.000000,-3.000000,2.000000
1297625.548830,1.000000,3.000000,-1.000000,1.000000,1.000000,-3.000000,-2.000000,-2.000000
1297625.548891,-1.000000,-3.000000,-3.000000,1.000000,-1.000000,0.000000,0.000000,-4.000000
1297625.551149,-1.000000,-3.000000,-1.000000,-6.000000,-2.000000,0.000000,-2.000000,1.000000
1297625.551309,-1.000000,0.000000,-1.000000,6.000000,3.000000,2.000000,-1.000000,-2.000000
1297625.551532,0.000000,0.000000,-2.000000,-3.000000,-5.000000,-2.000000,-1.000000,1.000000
1297625.551580,-3.000000,0.000000,1.000000,-1.000000,0.000000,-6.000000,-1.000000,-1.000000
1297625.555334,0.000000,-2.000000,-5.000000,-30.000000,-5.000000,1.000000,1.000000,-1.000000
1297625.555385,1.000000,-3.000000,0.000000,0.000000,0.000000,-1.000000,-3.000000,0.000000
1297625.562861,3.000000,-1.000000,-1.000000,7.000000,3.000000,0.000000,-1.000000,0.000000
1297625.562914,-1.000000,-5.000000,0.000000,5.000000,0.000000,-1.000000,-2.000000,-1.000000
1297625.578555,1.000000,-4.000000,-1.000000,3.000000,2.000000,1.000000,-2.000000,0.000000
1297625.578647,-2.000000,-4.000000,-7.000000,-5.000000,-4.000000,0.000000,0.000000,-1.000000
1297625.585273,0.000000,0.000000,-2.000000,-8.000000,3.000000,-2.000000,-3.000000,1.000000
1297625.585323,-4.000000,-1.000000,-2.000000,-3.000000,-3.000000,0.000000,-2.000000,-2.000000
1297625.592938,0.000000,-5.000000,0.000000,-2.000000,3.000000,-3.000000,-2.000000,-1.000000
1297625.592989,2.000000,1.000000,-1.000000,5.000000,-2.000000,4.000000,-1.000000,1.000000
1297625.630257,0.000000,-1.000000,-2.000000,0.000000,0.000000,0.000000,0.000000,1.000000
1297625.630372,-2.000000,-3.000000,2.000000,-6.000000,0.000000,-1.000000,-3.000000,-2.000000
1297625.638158,-1.000000,0.000000,1.000000,9.000000,1.000000,-3.000000,0.000000,-2.000000
1297625.638208,-2.000000,1.000000,-4.000000,-15.000000,-3.000000,-1.000000,-4.000000,-1.000000
1297625.639731,2.000000,0.000000,-6.000000,-4.000000,0.000000,-4.000000,1.000000,-2.000000
1297625.639867,1.000000,-1.000000,2.000000,6.000000,1.000000,-4.000000,1.000000,-1.000000
1297625.640259,0.000000,0.000000,-2.000000,5.000000,-4.000000,1.000000,-2.000000,-1.000000
1297625.640308,-2.000000,0.000000,-2.000000,-12.000000,-4.000000,0.000000,0.000000,-4.000000
1297625.667745,1.000000,-1.000000,-4.000000,3.000000,-2.000000,0.000000,0.000000,-2.000000
1297625.667791,-1.000000,-1.000000,0.000000,4.000000,-2.000000,0.000000,-3.000000,-4.000000
1297625.669048,-1.000000,-2.000000,-6.000000,-5.000000,-1.000000,1.000000,-1.000000,-1.000000
1297625.669073,3.000000,0.000000,1.000000,-10.000000,-2.000000,-3.000000,-4.000000,-1.000000
1297625.670219,1.000000,-3.000000,1.000000,0.000000,1.000000,-3.000000,-3.000000,-3.000000
1297625.670241,-2.000000,1.000000,-2.000000,5.000000,4.000000,-2.000000,2.000000,-1.000000
1297625.675297,0.000000,-3.000000,-3.000000,1.000000,0.000000,-1.000000,-2.000000,-1.000000
1297625.675348,-2.000000,-3.000000,2.000000,-4.000000,-2.000000,0.000000,-2.000000,-2.000000
1297625.705637,-1.000000,1.000000,-3.000000,-8.000000,2.000000,1.000000,-1.000000,-1.000000
1297625.705717,0.000000,4.000000,-16.000000,-3.000000,0.000000,3.000000,-2.000000,0.000000
1297625.713360,-2.000000,-1.000000,8.000000,3.000000,2.000000,0.000000,-3.000000,1.000000
1297625.713391,-2.000000,0.000000,1.000000,-1.000000,-4.000000,-3.000000,1.000000,0.000000
1297625.742683,1.000000,1.000000,0.000000,1.000000,1.000000,-1.000000,-2.000000,0.000000
1297625.742709,-3.000000,-1.000000,3.000000,-1.000000,-3.000000,0.000000,1.000000,1.000000
1297625.750290,-1.000000,-1.000000,2.000000,-2.000000,1.000000,-2.000000,2.000000,-1.000000
1297625.750316,-4.000000,-3.000000,-1.000000,-3.000000,1.000000,0.000000,1.000000,-4.000000
1297625.772715,1.000000,2.000000,-1.000000,0.000000,-2.000000,-4.000000,-1.000000,-3.000000
1297625.772925,0.000000,1.000000,0.000000,7.000000,4.000000,0.000000,-2.000000,1.000000
1297625.773409,0.000000,-5.000000,-6.000000,-16.000000,-1.000000,2.000000,-2.000000,-1.000000
1297625.773456,0.000000,1.000000,5.000000,-1.000000,3.000000,0.000000,1.000000,-3.000000
1297625.781435,-1.000000,-1.000000,0.000000,2.000000,3.000000,-1.000000,-1.000000,0.000000
1297625.781662,-1.000000,2.000000,-6.000000,-2.000000,-3.000000,0.000000,2.000000,-3.000000
1297625.781973,-3.000000,-3.000000,-1.000000,1.000000,1.000000,0.000000,3.000000,-3.000000
1297625.781998,0.000000,-4.000000,-3.000000,-1.000000,-2.000000,-1.000000,-3.000000,-3.000000
1297625.783170,2.000000,-1.000000,-2.000000,-1.000000,3.000000,1.000000,0.000000,0.000000
1297625.783219,-1.000000,-1.000000,-1.000000,-5.000000,-5.000000,-1.000000,2.000000,0.000000
1297625.788252,-1.000000,0.000000,2.000000,13.000000,2.000000,-1.000000,-3.000000,4.000000
1297625.788419,1.000000,-2.000000,-5.000000,-16.000000,-3.000000,0.000000,1.000000,2.000000
1297625.796147,0.000000,0.000000,1.000000,1.000000,-3.000000,-1.000000,-4.000000,2.000000
1297625.796185,-2.000000,-2.000000,0.000000,0.000000,1.000000,-2.000000,-1.000000,1.000000
1297625.832922,-1.000000,-5.000000,0.000000,4.000000,-5.000000,0.000000,2.000000,-4.000000
1297625.833020,2.000000,3.000000,0.000000,2.000000,1.000000,2.000000,0.000000,2.000000
1297625.840675,-1.000000,-1.000000,1.000000,-2.000000,1.000000,-3.000000,0.000000,0.000000
1297625.840803,1.000000,-1.000000,-4.000000,0.000000,-3.000000,-1.000000,0.000000,-4.000000
1297625.870614,-2.000000,3.000000,-1.000000,2.000000,-2.000000,1.000000,-1.000000,-2.000000
1297625.870678,3.000000,1.000000,-1.000000,-4.000000,1.000000,2.000000,1.000000,-3.000000
1297625.878023,-3.000000,-3.000000,0.000000,-2.000000,0.000000,-4.000000,-2.000000,2.000000
1297625.878078,1.000000,0.000000,0.000000,4.000000,1.000000,0.000000,-1.000000,-1.000000
1297625.901811,-1.000000,0.000000,2.000000,-1.000000,-6.000000,2.000000,-3.000000,-1.000000
1297625.901857,-1.000000,-2.000000,1.000000,-6.000000,-2.000000,-4.000000,1.000000,0.000000
1297625.902639,0.000000,-1.000000,-3.000000,-2.000000,-1.000000,-3.000000,-3.000000,-3.000000
1297625.902680,-4.000000,1.000000,-2.000000,1.000000,1.000000,-2.000000,-1.000000,-1.000000
1297625.904971,1.000000,0.000000,2.000000,2.000000,-3.000000,1.000000,-1.000000,-1.000000
1297625.905018,-2.000000,-4.000000,-1.000000,-2.000000,-2.000000,-1.000000,1.000000,0.000000
1297625.905267,2.000000,-5.000000,-2.000000,-1.000000,2.000000,-2.000000,-1.000000,0.000000
1297625.905318,-2.000000,1.000000,0.000000,-1.000000,-2.000000,-3.000000,0.000000,1.000000
1297625.908462,0.000000,2.000000,1.000000,12.000000,1.000000,-1.000000,-3.000000,1.000000
1297625.908508,-2.000000,-3.000000,-1.000000,-6.000000,1.000000,0.000000,-1.000000,-4.000000
1297625.915398,0.000000,0.000000,0.000000,-4.000000,0.000000,-2.000000,-1.000000,0.000000
1297625.915425,0.000000,1.000000,2.000000,1.000000,-3.000000,-1.000000,-1.000000,-3.000000
1297625.952887,0.000000,-6.000000,-2.000000,3.000000,-3.000000,3.000000,0.000000,-3.000000
1297625.952933,-3.000000,-1.000000,0.000000,3.000000,-1.000000,0.000000,-3.000000,1.000000
1297625.983094,1.000000,-1.000000,0.000000,-2.000000,-1.000000,-2.000000,-1.000000,2.000000
1297625.983190,1.000000,-1.000000,3.000000,-7.000000,1.000000,1.000000,-3.000000,1.000000
1297626.020990,1.000000,2.000000,0.000000,-1.000000,2.000000,-1.000000,-1.000000,0.000000
1297626.021374,-1.000000,-4.000000,0.000000,1.000000,-1.000000,-1.000000,-4.000000,-1.000000
1297626.022480,-1.000000,-2.000000,-5.000000,-14.000000,-6.000000,-6.000000,-4.000000,0.000000
1297626.022587,0.000000,0.000000,2.000000,-1.000000,0.000000,-2.000000,-1.000000,1.000000
1297626.023759,-3.000000,2.000000,1.000000,2.000000,-6.000000,0.000000,-1.000000,-4.000000
1297626.023798,0.000000,2.000000,-3.000000,-1.000000,-4.000000,-1.000000,-3.000000,-3.000000
1297626.024751,0.000000,3.000000,3.000000,3.000000,2.000000,-2.000000,0.000000,-1.000000
1297626.024780,-5.000000,-2.000000,-4.000000,-7.000000,-4.000000,1.000000,-1.000000,-2.000000
1297626.025386,2.000000,1.000000,-2.000000,1.000000,-1.000000,1.000000,-1.000000,2.000000
1297626.025417,-1.000000,1.000000,1.000000,-13.000000,-1.000000,-3.000000,-3.000000,-1.000000
1297626.028672,-3.000000,-3.000000,-2.000000,-1.000000,-2.000000,-1.000000,-3.000000,-2.000000
1297626.028722,-3.000000,-1.000000,-3.000000,2.000000,-3.000000,-1.000000,0.000000,-2.000000
1297626.035185,-1.000000,1.000000,3.000000,2.000000,0.000000,0.000000,0.000000,0.000000
1297626.035211,0.000000,1.000000,-2.000000,-2.000000,-5.000000,-5.000000,2.000000,-1.000000
1297626.058048,-3.000000,-1.000000,4.000000,3.000000,-3.000000,-2.000000,0.000000,-1.000000
1297626.058098,0.000000,1.000000,-1.000000,0.000000,5.000000,5.000000,2.000000,-2.000000
1297626.065333,-1.000000,-3.000000,-4.000000,3.000000,0.000000,-2.000000,-1.000000,2.000000
1297626.065384,-2.000000,-2.000000,2.000000,1.000000,0.000000,0.000000,-3.000000,0.000000
1297626.095561,3.000000,2.000000,2.000000,-11.000000,-2.000000,-1.000000,-2.000000,0.000000
1297626.095589,-2.000000,2.000000,3.000000,2.000000,0.000000,2.000000,1.000000,1.000000
1297626.102867,0.000000,0.000000,-4.000000,0.000000,0.000000,-4.000000,-5.000000,-4.000000
1297626.102910,-3.000000,0.000000,2.000000,-2.000000,-4.000000,-1.000000,-4.000000,-2.000000
1297626.117662,-1.000000,-1.000000,-12.000000,-1.000000,-1.000000,-2.000000,-2.000000,-1.000000
1297626.117689,2.000000,1.000000,2.000000,7.000000,-3.000000,-8.000000,-1.000000,-1.000000
1297626.140909,0.000000,1.000000,2.000000,-2.000000,-1.000000,-3.000000,-2.000000,0.000000
1297626.140957,0.000000,3.000000,0.000000,11.000000,-1.000000,-2.000000,1.000000,-1.000000
1297626.155196,-1.000000,-2.000000,3.000000,-2.000000,1.000000,0.000000,-2.000000,-1.000000
1297626.155316,1.000000,1.000000,3.000000,-3.000000,-1.000000,-2.000000,-4.000000,2.000000
1297626.177863,0.000000,1.000000,0.000000,-4.000000,1.000000,1.000000,2.000000,-3.000000
1297626.178077,-2.000000,1.000000,1.000000,4.000000,-2.000000,1.000000,0.000000,-2.000000
1297626.192991,-2.000000,1.000000,-1.000000,0.000000,-2.000000,0.000000,2.000000,-3.000000
1297626.193119,2.000000,3.000000,-2.000000,3.000000,4.000000,2.000000,1.000000,-1.000000
1297626.223025,2.000000,-5.000000,2.000000,0.000000,0.000000,-3.000000,1.000000,-1.000000
1297626.223053,0.000000,2.000000,-2.000000,-3.000000,-2.000000,-1.000000,-3.000000,-1.000000
1297626.230711,1.000000,-1.000000,-1.000000,0.000000,3.000000,-2.000000,-1.000000,-4.000000
1297626.230748,-1.000000,-5.000000,-5.000000,-7.000000,-1.000000,1.000000,-2.000000,-1.000000
1297626.246400,-2.000000,-4.000000,1.000000,4.000000,2.000000,-1.000000,0.000000,-1.000000
1297626.246645,-3.000000,-2.000000,3.000000,1.000000,-3.000000,2.000000,-3.000000,-2.000000
1297626.246989,2.000000,-1.000000,-2.000000,3.000000,0.000000,-1.000000,-1.000000,-1.000000
1297626.247034,-1.000000,0.000000,0.000000,-1.000000,0.000000,-3.000000,-2.000000,1.000000
1297626.261838,-3.000000,-6.000000,-2.000000,-3.000000,-1.000000,0.000000,-3.000000,-1.000000
1297626.261887,-3.000000,-3.000000,-4.000000,1.000000,-5.000000,0.000000,-1.000000,0.000000
1297626.263177,-2.000000,-2.000000,-4.000000,-7.000000,-1.000000,0.000000,0.000000,-1.000000
1297626.263530,0.000000,-1.000000,0.000000,-2.000000,1.000000,0.000000,1.000000,-5.000000
1297626.263837,1.000000,-1.000000,-3.000000,4.000000,4.000000,0.000000,1.000000,-2.000000
1297626.263887,-1.000000,0.000000,-1.000000,2.000000,-4.000000,1.000000,2.000000,-1.000000
1297626.267954,1.000000,1.000000,3.000000,-4.000000,-3.000000,-1.000000,1.000000,-1.000000
1297626.267984,0.000000,0.000000,-2.000000,3.000000,-2.000000,0.000000,-1.000000,0.000000
1297626.297498,-6.000000,-4.000000,2.000000,-2.000000,-1.000000,1.000000,-3.000000,-1.000000
1297626.297528,-3.000000,-2.000000,0.000000,4.000000,-1.000000,-1.000000,0.000000,-3.000000
1297626.320041,-1.000000,0.000000,-6.000000,3.000000,0.000000,-1.000000,-3.000000,-1.000000
1297626.320070,-1.000000,0.000000,0.000000,0.000000,-4.000000,-1.000000,0.000000,2.000000
1297626.334940,1.000000,-2.000000,3.000000,0.000000,0.000000,0.000000,-1.000000,1.000000
1297626.334959,-1.000000,1.000000,-3.000000,-1.000000,0.000000,0.000000,-1.000000,-2.000000
1297626.343211,-1.000000,-3.000000,-6.000000,-24.000000,-4.000000,-4.000000,-1.000000,-3.000000
1297626.343406,-1.000000,0.000000,1.000000,-1.000000,-2.000000,-5.000000,-3.000000,-3.000000
1297626.343838,-1.000000,2.000000,0.000000,1.000000,-1.000000,1.000000,-3.000000,3.000000
1297626.344071,-1.000000,-2.000000,0.000000,-6.000000,-6.000000,-2.000000,-2.000000,1.000000
1297626.344891,0.000000,-3.000000,3.000000,2.000000,-1.000000,0.000000,-1.000000,-1.000000
1297626.344918,-3.000000,-1.000000,0.000000,0.000000,-3.000000,2.000000,1.000000,-1.000000
1297626.345563,0.000000,0.000000,-3.000000,2.000000,0.000000,-1.000000,-1.000000,0.000000
1297626.345579,0.000000,-3.000000,-3.000000,-5.000000,0.000000,-1.000000,-2.000000,-1.000000
1297626.349866,-1.000000,0.000000,0.000000,0.000000,0.000000,-3.000000,0.000000,2.000000
1297626.349897,1.000000,0.000000,0.000000,1.000000,-4.000000,-1.000000,-2.000000,0.000000
1297626.357374,-4.000000,-4.000000,1.000000,-3.000000,-1.000000,1.000000,0.000000,0.000000
1297626.357392,1.000000,-1.000000,0.000000,0.000000,1.000000,0.000000,-1.000000,-3.000000
1297626.373200,3.000000,-2.000000,-4.000000,-2.000000,-3.000000,-2.000000,0.000000,-2.000000
1297626.373231,1.000000,-3.000000,0.000000,-3.000000,-2.000000,0.000000,1.000000,-1.000000
1297626.379920,-2.000000,-3.000000,1.000000,2.000000,-3.000000,0.000000,1.000000,-2.000000
1297626.379953,-4.000000,-2.000000,0.000000,2.000000,-3.000000,-2.000000,0.000000,2.000000
1297626.387998,-1.000000,-7.000000,-4.000000,-3.000000,-6.000000,-4.000000,-1.000000,-3.000000
1297626.388019,0.000000,-3.000000,2.000000,3.000000,-1.000000,-1.000000,-3.000000,1.000000
1297626.402289,-3.000000,0.000000,-2.000000,3.000000,-5.000000,-2.000000,2.000000,-4.000000
1297626.402328,-1.000000,0.000000,-1.000000,2.000000,6.000000,-1.000000,0.000000,-1.000000
1297626.410463,0.000000,-1.000000,0.000000,0.000000,-1.000000,1.000000,-4.000000,-2.000000
1297626.410494,-4.000000,-1.000000,2.000000,0.000000,-4.000000,-2.000000,1.000000,-2.000000
1297626.417948,-2.000000,0.000000,-1.000000,4.000000,0.000000,1.000000,1.000000,-1.000000
1297626.417988,-3.000000,-2.000000,-2.000000,-1.000000,-2.000000,2.000000,1.000000,1.000000
1297626.432289,1.000000,-1.000000,-4.000000,-6.000000,-1.000000,1.000000,-3.000000,-2.000000
1297626.432320,0.000000,1.000000,0.000000,2.000000,-1.000000,-1.000000,-3.000000,-2.000000
1297626.454927,-1.000000,-4.000000,3.000000,1.000000,-3.000000,-3.000000,0.000000,1.000000
1297626.454963,-1.000000,-1.000000,-2.000000,-1.000000,2.000000,2.000000,-1.000000,-1.000000
1297626.463246,2.000000,-2.000000,1.000000,-4.000000,-2.000000,2.000000,-2.000000,0.000000
1297626.463276,-2.000000,-2.000000,1.000000,-3.000000,0.000000,1.000000,1.000000,0.000000
1297626.463971,-3.000000,-2.000000,-1.000000,-1.000000,-1.000000,-4.000000,0.000000,0.000000
1297626.464005,-3.000000,-1.000000,-1.000000,8.000000,-3.000000,1.000000,0.000000,2.000000
1297626.470883,-1.000000,0.000000,-3.000000,-15.000000,2.000000,1.000000,-3.000000,-2.000000
1297626.470919,1.000000,1.000000,-1.000000,-10.000000,-1.000000,-2.000000,-1.000000,-2.000000
1297626.485154,0.000000,2.000000,2.000000,3.000000,1.000000,-1.000000,0.000000,-1.000000
1297626.485188,0.000000,-2.000000,1.000000,0.000000,2.000000,-1.000000,0.000000,1.000000
1297626.500870,0.000000,-3.000000,-1.000000,-6.000000,-1.000000,-3.000000,2.000000,1.000000
1297626.500890,-3.000000,-7.000000,-4.000000,0.000000,-3.000000,-2.000000,-3.000000,-2.000000
1297626.501116,2.000000,3.000000,1.000000,3.000000,-2.000000,2.000000,0.000000,0.000000
1297626.501152,3.000000,0.000000,-2.000000,0.000000,0.000000,-2.000000,-4.000000,-1.000000
1297626.508001,0.000000,1.000000,0.000000,-2.000000,0.000000,-1.000000,-1.000000,-1.000000
1297626.508017,0.000000,2.000000,-2.000000,-2.000000,-5.000000,-4.000000,-4.000000,-5.000000
1297626.537987,1.000000,-1.000000,-3.000000,1.000000,-1.000000,0.000000,0.000000,0.000000
1297626.538009,0.000000,0.000000,-1.000000,-4.000000,-3.000000,-3.000000,-2.000000,2.000000
1297626.559902,-4.000000,-5.000000,0.000000,1.000000,-1.000000,2.000000,1.000000,0.000000
1297626.559935,-2.000000,-1.000000,-2.000000,-1.000000,-2.000000,0.000000,0.000000,1.000000
1297626.574769,-3.000000,1.000000,-1.000000,0.000000,-3.000000,0.000000,-1.000000,-1.000000
1297626.574785,-1.000000,-1.000000,-3.000000,7.000000,0.000000,-3.000000,-2.000000,-2.000000
1297626.590025,0.000000,-2.000000,1.000000,-9.000000,0.000000,0.000000,-2.000000,-4.000000
1297626.590058,0.000000,0.000000,0.000000,1.000000,1.000000,-3.000000,-2.000000,-3.000000
1297626.605254,-4.000000,-1.000000,-2.000000,-4.000000,3.000000,-2.000000,0.000000,-2.000000
1297626.605288,3.000000,-4.000000,-4.000000,6.000000,0.000000,-1.000000,4.000000,-1.000000
1297626.612780,-2.000000,-1.000000,-7.000000,-11.000000,-1.000000,-2.000000,-2.000000,-2.000000
1297626.612814,-2.000000,-1.000000,-4.000000,9.000000,2.000000,0.000000,-4.000000,-1.000000
1297626.613990,-1.000000,-3.000000,1.000000,-7.000000,3.000000,-1.000000,-1.000000,-2.000000
1297626.614019,0.000000,-4.000000,-1.000000,2.000000,2.000000,-3.000000,-2.000000,0.000000
1297626.614650,3.000000,-1.000000,1.000000,-3.000000,-2.000000,-1.000000,-4.000000,-2.000000
1297626.614682,-3.000000,-1.000000,3.000000,5.000000,1.000000,-1.000000,0.000000,0.000000
1297626.619637,1.000000,0.000000,4.000000,6.000000,4.000000,0.000000,-2.000000,-2.000000
1297626.619653,-1.000000,-3.000000,-1.000000,-18.000000,-5.000000,-6.000000,-1.000000,0.000000
1297626.628199,-3.000000,-2.000000,-1.000000,2.000000,-3.000000,-2.000000,-1.000000,-2.000000
1297626.628216,0.000000,0.000000,0.000000,0.000000,0.000000,-1.000000,0.000000,0.000000
1297626.664851,-2.000000,-2.000000,-3.000000,1.000000,-2.000000,0.000000,-3.000000,0.000000
1297626.664884,0.000000,-4.000000,-4.000000,-4.000000,-1.000000,1.000000,-2.000000,-1.000000
1297626.695316,0.000000,0.000000,-3.000000,2.000000,-3.000000,-2.000000,0.000000,-2.000000
1297626.695338,0.000000,1.000000,1.000000,-3.000000,3.000000,-1.000000,-3.000000,0.000000
1297626.702458,-4.000000,1.000000,-3.000000,-4.000000,-4.000000,0.000000,0.000000,-2.000000
1297626.702488,0.000000,-1.000000,-4.000000,-11.000000,2.000000,-1.000000,1.000000,1.000000
1297626.717318,-3.000000,0.000000,4.000000,0.000000,-1.000000,0.000000,1.000000,-3.000000
1297626.717406,-1.000000,-1.000000,-3.000000,3.000000,-1.000000,-2.000000,-1.000000,0.000000
1297626.732432,-5.000000,-10.000000,-4.000000,2.000000,0.000000,-3.000000,-1.000000,-1.000000
1297626.732450,3.000000,5.000000,0.000000,3.000000,2.000000,-3.000000,2.000000,-2.000000
1297626.747747,-2.000000,-2.000000,-4.000000,-3.000000,-1.000000,0.000000,-3.000000,0.000000
1297626.747826,-1.000000,-1.000000,-1.000000,5.000000,4.000000,1.000000,-1.000000,-1.000000
1297626.748066,1.000000,1.000000,2.000000,1.000000,-6.000000,-1.000000,3.000000,-1.000000
1297626.748218,2.000000,-2.000000,-3.000000,-12.000000,-7.000000,-2.000000,-1.000000,-1.000000
1297626.748525,0.000000,0.000000,1.000000,1.000000,2.000000,-2.000000,0.000000,-1.000000
1297626.748549,0.000000,0.000000,-1.000000,1.000000,0.000000,-3.000000,0.000000,-5.000000
1297626.749822,0.000000,-1.000000,-2.000000,3.000000,0.000000,0.000000,-2.000000,0.000000
1297626.749857,1.000000,0.000000,1.000000,4.000000,0.000000,-2.000000,-1.000000,3.000000
1297626.754833,-2.000000,-6.000000,1.000000,-12.000000,4.000000,0.000000,-4.000000,-3.000000
1297626.754868,0.000000,-2.000000,-3.000000,-4.000000,0.000000,-2.000000,-3.000000,-1.000000
1297626.777890,-3.000000,-1.000000,2.000000,-2.000000,-1.000000,-4.000000,0.000000,1.000000
1297626.777931,-2.000000,0.000000,-2.000000,-1.000000,-1.000000,-2.000000,-3.000000,1.000000
1297626.785331,-4.000000,-1.000000,-3.000000,-1.000000,-1.000000,-1.000000,0.000000,-3.000000
1297626.785370,-2.000000,-2.000000,0.000000,2.000000,2.000000,0.000000,-1.000000,2.000000
1297626.815221,2.000000,2.000000,0.000000,-4.000000,-1.000000,-2.000000,-1.000000,-1.000000
1297626.815239,0.000000,1.000000,0.000000,1.000000,-4.000000,-1.000000,1.000000,-1.000000
1297626.822536,-2.000000,0.000000,0.000000,-2.000000,-4.000000,1.000000,-1.000000,-2.000000
1297626.822569,0.000000,0.000000,1.000000,3.000000,-3.000000,-1.000000,-1.000000,3.000000
1297626.837843,-2.000000,-7.000000,-2.000000,-2.000000,-1.000000,-3.000000,-2.000000,0.000000
1297626.837874,-1.000000,-3.000000,1.000000,0.000000,-3.000000,0.000000,1.000000,0.000000
1297626.852330,-2.000000,1.000000,1.000000,-7.000000,-4.000000,0.000000,1.000000,-1.000000
1297626.852564,-3.000000,-3.000000,-3.000000,-1.000000,0.000000,-2.000000,-2.000000,0.000000
1297626.853635,0.000000,-5.000000,-3.000000,-4.000000,2.000000,2.000000,-3.000000,-2.000000
1297626.853816,-1.000000,3.000000,-1.000000,13.000000,-3.000000,0.000000,-2.000000,1.000000
1297626.854249,0.000000,0.000000,0.000000,0.000000,-4.000000,-4.000000,0.000000,-1.000000
1297626.854266,1.000000,3.000000,2.000000,-1.000000,0.000000,-2.000000,-2.000000,-3.000000
1297626.855673,-1.000000,0.000000,-1.000000,0.000000,-2.000000,-3.000000,-1.000000,1.000000
1297626.855693,-3.000000,1.000000,-1.000000,5.000000,2.000000,-1.000000,-1.000000,-2.000000
1297626.859920,0.000000,-1.000000,0.000000,-1.000000,-4.000000,-2.000000,-1.000000,1.000000
1297626.859940,1.000000,0.000000,-1.000000,-2.000000,-2.000000,1.000000,-1.000000,-2.000000
1297626.868104,-1.000000,-3.000000,-3.000000,3.000000,2.000000,-2.000000,0.000000,-3.000000
1297626.868141,1.000000,0.000000,-7.000000,0.000000,2.000000,-2.000000,-1.000000,-1.000000
1297626.875150,0.000000,0.000000,-1.000000,-7.000000,-2.000000,0.000000,-3.000000,-1.000000
1297626.875190,-1.000000,0.000000,-2.000000,-8.000000,-2.000000,-3.000000,-1.000000,-1.000000
1297626.898174,2.000000,3.000000,-3.000000,-5.000000,-6.000000,1.000000,-2.000000,1.000000
1297626.898217,-4.000000,-3.000000,2.000000,12.000000,2.000000,1.000000,0.000000,-1.000000
1297626.905659,1.000000,0.000000,-1.000000,-4.000000,-1.000000,-1.000000,-3.000000,0.000000
1297626.905697,1.000000,0.000000,-2.000000,-6.000000,0.000000,1.000000,0.000000,0.000000
1297626.943178,-2.000000,-3.000000,-3.000000,7.000000,-3.000000,-1.000000,0.000000,1.000000
1297626.943210,-1.000000,-3.000000,-1.000000,0.000000,2.000000,-3.000000,-1.000000,0.000000
1297626.950844,-4.000000,-4.000000,-1.000000,-4.000000,-2.000000,-1.000000,1.000000,-2.000000
1297626.950893,0.000000,-2.000000,0.000000,-2.000000,-4.000000,-1.000000,-1.000000,-3.000000
1297626.973287,-1.000000,-1.000000,3.000000,-2.000000,-2.000000,0.000000,-1.000000,-1.000000
1297626.973896,-1.000000,3.000000,1.000000,7.000000,3.000000,-3.000000,-1.000000,0.000000
1297626.975518,-2.000000,-4.000000,-4.000000,-9.000000,-4.000000,-3.000000,0.000000,-2.000000
1297626.975570,0.000000,4.000000,-2.000000,-4.000000,-1.000000,-4.000000,1.000000,-1.000000
1297626.976120,1.000000,1.000000,-1.000000,-7.000000,-1.000000,-4.000000,-2.000000,0.000000
1297626.976157,-2.000000,-4.000000,1.000000,-5.000000,-6.000000,0.000000,-1.000000,2.000000
1297626.977504,0.000000,-2.000000,-4.000000,2.000000,-3.000000,0.000000,-2.000000,2.000000
1297626.977567,1.000000,-1.000000,-3.000000,2.000000,-3.000000,-1.000000,-1.000000,-3.000000
1297626.978603,-4.000000,-2.000000,2.000000,3.000000,-2.000000,0.000000,0.000000,-1.000000
1297626.978658,-1.000000,-1.000000,-2.000000,0.000000,2.000000,-1.000000,0.000000,-2.000000
1297626.980701,0.000000,-1.000000,2.000000,0.000000,2.000000,1.000000,0.000000,-1.000000
1297626.980767,-1.000000,0.000000,0.000000,-4.000000,-3.000000,-3.000000,1.000000,-3.000000
1297626.995735,1.000000,0.000000,-2.000000,0.000000,-1.000000,0.000000,0.000000,-2.000000
1297626.995801,-1.000000,-1.000000,-3.000000,2.000000,1.000000,-4.000000,-1.000000,-1.000000
1297627.010592,0.000000,-2.000000,-2.000000,7.000000,-4.000000,0.000000,-6.000000,2.000000
1297627.010662,0.000000,2.000000,3.000000,6.000000,-2.000000,2.000000,0.000000,-1.000000
1297627.025507,3.000000,1.000000,1.000000,-3.000000,2.000000,0.000000,-2.000000,1.000000
1297627.025535,-3.000000,-4.000000,-1.000000,7.000000,-7.000000,-1.000000,-2.000000,-1.000000
1297627.048248,0.000000,-1.000000,0.000000,13.000000,-1.000000,-3.000000,0.000000,-3.000000
1297627.048278,0.000000,-1.000000,-5.000000,-26.000000,-8.000000,3.000000,-3.000000,-2.000000
1297627.056285,2.000000,-5.000000,-1.000000,-4.000000,-3.000000,-4.000000,-2.000000,0.000000
1297627.056316,-1.000000,-2.000000,2.000000,6.000000,1.000000,-3.000000,-1.000000,-1.000000
1297627.058306,-1.000000,1.000000,-1.000000,3.000000,-2.000000,2.000000,0.000000,-3.000000
1297627.058750,2.000000,-3.000000,0.000000,0.000000,-4.000000,-2.000000,-1.000000,0.000000
1297627.059705,-2.000000,-3.000000,-1.000000,-2.000000,-1.000000,-3.000000,1.000000,-3.000000
1297627.059744,2.000000,-3.000000,-3.000000,-1.000000,-2.000000,-2.000000,-2.000000,1.000000
1297627.060145,-2.000000,-1.000000,-2.000000,-3.000000,1.000000,-1.000000,0.000000,-1.000000
1297627.060201,-1.000000,-1.000000,-1.000000,5.000000,-1.000000,-2.000000,0.000000,-2.000000
1297627.078928,2.000000,-2.000000,-6.000000,-4.000000,-4.000000,-1.000000,1.000000,0.000000
1297627.078989,0.000000,4.000000,-1.000000,3.000000,-2.000000,2.000000,2.000000,0.000000
1297627.079243,-1.000000,-5.000000,-3.000000,-5.000000,-2.000000,-1.000000,2.000000,-3.000000
1297627.079271,-1.000000,2.000000,1.000000,2.000000,4.000000,1.000000,-2.000000,-1.000000
1297627.094692,0.000000,-1.000000,-1.000000,-3.000000,-5.000000,-2.000000,-1.000000,-1.000000
1297627.094728,-2.000000,0.000000,2.000000,4.000000,-1.000000,-4.000000,-1.000000,-1.000000
1297627.100520,0.000000,-2.000000,-1.000000,-6.000000,-4.000000,-2.000000,-2.000000,-3.000000
1297627.100585,-1.000000,1.000000,0.000000,6.000000,-2.000000,0.000000,-1.000000,-4.000000
1297627.130652,0.000000,-2.000000,-1.000000,-11.000000,-2.000000,1.000000,-1.000000,-1.000000
1297627.130702,-1.000000,1.000000,-2.000000,-2.000000,-2.000000,-3.000000,-1.000000,-3.000000
1297627.138245,0.000000,-1.000000,-2.000000,6.000000,0.000000,-2.000000,-3.000000,-3.000000
1297627.138301,-1.000000,-2.000000,3.000000,7.000000,0.000000,2.000000,-2.000000,-1.000000
1297627.168247,0.000000,1.000000,3.000000,-4.000000,0.000000,3.000000,0.000000,0.000000
1297627.168301,0.000000,-3.000000,1.000000,1.000000,-1.000000,1.000000,-3.000000,-2.000000
1297627.183368,1.000000,-2.000000,-1.000000,2.000000,-1.000000,-1.000000,-3.000000,-3.000000
1297627.183415,-1.000000,-5.000000,-3.000000,1.000000,-1.000000,-5.000000,-1.000000,0.000000
1297627.185118,2.000000,-1.000000,-2.000000,-1.000000,-1.000000,-1.000000,-3.000000,2.000000
1297627.185172,-1.000000,1.000000,1.000000,-5.000000,-2.000000,-1.000000,-1.000000,-2.000000
1297627.187408,-3.000000,0.000000,0.000000,3.000000,0.000000,1.000000,0.000000,1.000000
1297627.187434,-1.000000,-1.000000,-4.000000,-5.000000,-6.000000,-1.000000,-1.000000,-1.000000
1297627.188061,-1.000000,-1.000000,1.000000,1.000000,-4.000000,-3.000000,-1.000000,0.000000
1297627.188322,0.000000,-1.000000,-1.000000,3.000000,-1.000000,-4.000000,0.000000,0.000000
1297627.188537,-1.000000,2.000000,-3.000000,-1.000000,-6.000000,1.000000,-2.000000,0.000000
1297627.188563,0.000000,-3.000000,1.000000,0.000000,-4.000000,-4.000000,-3.000000,1.000000
1297627.205882,-1.000000,0.000000,-1.000000,0.000000,5.000000,0.000000,-2.000000,0.000000
1297627.205911,-2.000000,-2.000000,-2.000000,-5.000000,-2.000000,-3.000000,-4.000000,0.000000
1297627.213588,2.000000,1.000000,-1.000000,2.000000,1.000000,-3.000000,-1.000000,-4.000000
1297627.213996,-2.000000,0.000000,0.000000,-14.000000,-2.000000,0.000000,-1.000000,-1.000000
1297627.214935,-2.000000,-1.000000,0.000000,0.000000,-1.000000,-2.000000,-1.000000,-1.000000
1297627.214983,0.000000,-1.000000,-5.000000,-1.000000,-4.000000,-2.000000,0.000000,-3.000000
1297627.220619,-3.000000,-2.000000,1.000000,0.000000,3.000000,-4.000000,-2.000000,0.000000
1297627.220837,-3.000000,1.000000,0.000000,-1.000000,-1.000000,-2.000000,-1.000000,0.000000
1297627.258256,1.000000,-1.000000,-1.000000,1.000000,3.000000,0.000000,-1.000000,1.000000
1297627.258312,-1.000000,0.000000,-1.000000,-1.000000,-1.000000,-3.000000,-1.000000,0.000000
1297627.265732,-3.000000,3.000000,0.000000,1.000000,-4.000000,-3.000000,-3.000000,0.000000
1297627.265788,2.000000,0.000000,1.000000,-1.000000,2.000000,2.000000,1.000000,-1.000000
1297627.302967,-3.000000,-2.000000,2.000000,4.000000,1.000000,-3.000000,-2.000000,-4.000000
1297627.302994,1.000000,1.000000,3.000000,1.000000,-5.000000,-1.000000,0.000000,-2.000000
1297627.310410,-1.000000,-2.000000,2.000000,3.000000,-1.000000,-2.000000,-2.000000,-4.000000
1297627.310466,1.000000,-1.000000,-1.000000,3.000000,1.000000,-2.000000,2.000000,-1.000000
1297627.318700,3.000000,0.000000,-2.000000,0.000000,-2.000000,0.000000,0.000000,1.000000
1297627.318725,1.000000,1.000000,-2.000000,-3.000000,0.000000,1.000000,-1.000000,0.000000
1297627.333716,-1.000000,-1.000000,-2.000000,0.000000,1.000000,0.000000,-3.000000,0.000000
1297627.333760,0.000000,-2.000000,2.000000,1.000000,-2.000000,1.000000,2.000000,-2.000000
1297627.335696,0.000000,4.000000,3.000000,1.000000,-3.000000,-4.000000,1.000000,-1.000000
1297627.335746,-2.000000,-1.000000,0.000000,4.000000,-1.000000,0.000000,0.000000,-1.000000
1297627.335915,2.000000,1.000000,1.000000,-3.000000,-3.000000,2.000000,-3.000000,1.000000
1297627.335930,-2.000000,-2.000000,-3.000000,-2.000000,2.000000,-3.000000,-3.000000,-2.000000
1297627.340686,-1.000000,-4.000000,1.000000,4.000000,-6.000000,0.000000,-1.000000,2.000000
1297627.340714,-3.000000,0.000000,-1.000000,2.000000,6.000000,-1.000000,-1.000000,-1.000000
1297627.370614,-2.000000,1.000000,-3.000000,-22.000000,-5.000000,0.000000,1.000000,-2.000000
1297627.370666,-2.000000,0.000000,1.000000,0.000000,-4.000000,-1.000000,-2.000000,-1.000000
1297627.392922,-2.000000,0.000000,2.000000,4.000000,-2.000000,1.000000,1.000000,0.000000
1297627.392970,1.000000,0.000000,0.000000,2.000000,0.000000,-3.000000,-2.000000,-2.000000
1297627.408003,-4.000000,-3.000000,-2.000000,1.000000,-1.000000,0.000000,-1.000000,-2.000000
1297627.408054,1.000000,3.000000,1.000000,-2.000000,2.000000,0.000000,-1.000000,-2.000000
1297627.423559,0.000000,1.000000,-3.000000,1.000000,-3.000000,-2.000000,-1.000000,-1.000000
1297627.423613,-1.000000,-1.000000,3.000000,4.000000,4.000000,3.000000,2.000000,0.000000
1297627.424376,-8.000000,-8.000000,0.000000,-2.000000,0.000000,0.000000,1.000000,-3.000000
1297627.424402,0.000000,-8.000000,-1.000000,0.000000,-4.000000,0.000000,3.000000,-1.000000
1297627.426054,-3.000000,0.000000,-3.000000,-4.000000,-4.000000,-2.000000,0.000000,-1.000000
1297627.426105,2.000000,3.000000,-4.000000,-4.000000,-7.000000,-2.000000,-3.000000,-3.000000
1297627.426518,6.000000,-27.000000,-6.000000,4.000000,-6.000000,0.000000,-3.000000,-3.000000
1297627.426556,0.000000,25.000000,3.000000,-2.000000,1.000000,0.000000,-1.000000,0.000000
1297627.445555,-3.000000,-28.000000,-7.000000,-1.000000,-2.000000,-1.000000,-2.000000,-1.000000
1297627.445779,2.000000,6.000000,-2.000000,-2.000000,-1.000000,-1.000000,1.000000,-3.000000
1297627.446219,-2.000000,-44.000000,-6.000000,1.000000,4.000000,1.000000,-2.000000,-1.000000
1297627.446243,-2.000000,4.000000,2.000000,3.000000,-2.000000,2.000000,-1.000000,2.000000
1297627.453238,-3.000000,-10.000000,-8.000000,-13.000000,-6.000000,3.000000,-3.000000,0.000000
1297627.453293,0.000000,-9.000000,0.000000,2.000000,2.000000,-3.000000,-1.000000,-2.000000
1297627.460760,-3.000000,-5.000000,0.000000,4.000000,0.000000,-2.000000,0.000000,-1.000000
1297627.460820,13.000000,81.000000,8.000000,-9.000000,2.000000,-2.000000,-2.000000,3.000000
1297627.490705,-4.000000,-47.000000,-10.000000,0.000000,-4.000000,-7.000000,-3.000000,-3.000000
1297627.490762,-2.000000,-24.000000,-10.000000,1.000000,1.000000,1.000000,-2.000000,0.000000
1297627.497736,-3.000000,1.000000,-1.000000,1.000000,-3.000000,1.000000,0.000000,0.000000
1297627.497788,-14.000000,-95.000000,-14.000000,-12.000000,-4.000000,-2.000000,1.000000,-3.000000
1297627.528105,0.000000,6.000000,0.000000,-2.000000,-3.000000,-1.000000,-2.000000,0.000000
1297627.528152,10.000000,7.000000,-6.000000,-1.000000,-4.000000,-1.000000,-4.000000,-1.000000
1297627.529594,1.000000,-6.000000,-4.000000,-3.000000,-3.000000,-4.000000,0.000000,0.000000
1297627.530204,-2.000000,2.000000,-1.000000,3.000000,-2.000000,-2.000000,0.000000,-3.000000
1297627.531672,2.000000,-10.000000,-2.000000,0.000000,-1.000000,-3.000000,-1.000000,-2.000000
1297627.531784,-1.000000,-2.000000,-4.000000,1.000000,-1.000000,-3.000000,2.000000,0.000000
1297627.532044,0.000000,0.000000,3.000000,-4.000000,-1.000000,-2.000000,-2.000000,0.000000
1297627.532083,-1.000000,-1.000000,1.000000,-4.000000,-4.000000,-1.000000,0.000000,-2.000000
1297627.532455,0.000000,-5.000000,-3.000000,2.000000,-5.000000,-4.000000,0.000000,-2.000000
1297627.532483,1.000000,1.000000,0.000000,0.000000,3.000000,0.000000,0.000000,-2.000000
1297627.543233,-2.000000,0.000000,-3.000000,-2.000000,-3.000000,-3.000000,-2.000000,1.000000
1297627.543672,-3.000000,0.000000,-3.000000,-1.000000,0.000000,4.000000,0.000000,-1.000000
1297627.558165,0.000000,-3.000000,-2.000000,3.000000,1.000000,0.000000,1.000000,1.000000
1297627.558473,-2.000000,-1.000000,-1.000000,-3.000000,0.000000,1.000000,-2.000000,1.000000
1297627.559335,-1.000000,2.000000,2.000000,0.000000,1.000000,-1.000000,0.000000,0.000000
1297627.559367,-3.000000,0.000000,1.000000,5.000000,-1.000000,-1.000000,-1.000000,1.000000
1297627.573214,1.000000,3.000000,-1.000000,-6.000000,1.000000,0.000000,-1.000000,-1.000000
1297627.573264,1.000000,32.000000,6.000000,5.000000,4.000000,0.000000,1.000000,0.000000
1297627.580507,0.000000,-2.000000,-3.000000,3.000000,-1.000000,-3.000000,0.000000,-2.000000
1297627.580562,0.000000,-4.000000,0.000000,-5.000000,0.000000,-2.000000,-3.000000,-2.000000
1297627.610628,-1.000000,-2.000000,-1.000000,-2.000000,2.000000,-2.000000,0.000000,0.000000
1297627.610682,4.000000,10.000000,-1.000000,-1.000000,-5.000000,-1.000000,-2.000000,-1.000000
1297627.617680,-9.000000,-6.000000,0.000000,-1.000000,4.000000,1.000000,0.000000,-2.000000
1297627.617706,0.000000,-1.000000,-6.000000,-10.000000,0.000000,1.000000,-3.000000,0.000000
1297627.655451,-4.000000,-3.000000,-1.000000,-5.000000,0.000000,-2.000000,1.000000,1.000000
1297627.655501,2.000000,-1.000000,-1.000000,-3.000000,-4.000000,-7.000000,1.000000,-1.000000
1297627.670952,2.000000,-3.000000,-4.000000,1.000000,0.000000,-1.000000,-1.000000,-2.000000
1297627.671000,1.000000,3.000000,2.000000,2.000000,0.000000,-3.000000,-2.000000,0.000000
1297627.685715,0.000000,-50.000000,-5.000000,-5.000000,-3.000000,-1.000000,-1.000000,-1.000000
1297627.685847,0.000000,3.000000,-1.000000,-2.000000,0.000000,0.000000,2.000000,-2.000000
1297627.686735,-1.000000,0.000000,-1.000000,1.000000,-1.000000,-2.000000,-3.000000,1.000000
1297627.686783,-2.000000,-4.000000,-1.000000,-1.000000,-4.000000,-1.000000,-2.000000,-2.000000
1297627.688804,-1.000000,0.000000,-1.000000,1.000000,2.000000,-2.000000,-3.000000,-1.000000
1297627.688838,2.000000,1.000000,0.000000,-2.000000,-1.000000,-2.000000,-2.000000,-1.000000
1297627.688967,1.000000,2.000000,-3.000000,-3.000000,0.000000,2.000000,-3.000000,-2.000000
1297627.688980,-4.000000,0.000000,1.000000,-1.000000,-1.000000,-1.000000,-5.000000,1.000000
1297627.689630,-3.000000,0.000000,6.000000,4.000000,3.000000,-1.000000,-3.000000,1.000000
1297627.689654,0.000000,1.000000,-3.000000,-7.000000,0.000000,-1.000000,0.000000,-2.000000
1297627.692910,-6.000000,3.000000,3.000000,2.000000,-2.000000,-3.000000,0.000000,-2.000000
1297627.692965,1.000000,1.000000,1.000000,1.000000,1.000000,0.000000,1.000000,1.000000
1297627.700377,5.000000,50.000000,3.000000,4.000000,3.000000,-1.000000,2.000000,0.000000
1297627.700427,-6.000000,-2.000000,0.000000,2.000000,-2.000000,0.000000,0.000000,-2.000000
1297627.723099,-2.000000,-4.000000,-1.000000,2.000000,-3.000000,-2.000000,1.000000,-3.000000
1297627.723150,2.000000,1.000000,-1.000000,2.000000,0.000000,-3.000000,-2.000000,-1.000000
1297627.737953,-2.000000,0.000000,-1.000000,-6.000000,1.000000,0.000000,0.000000,1.000000
1297627.738010,-3.000000,-2.000000,-2.000000,1.000000,1.000000,0.000000,1.000000,-4.000000
1297627.775765,-3.000000,0.000000,0.000000,-2.000000,0.000000,3.000000,-1.000000,0.000000
1297627.775813,0.000000,0.000000,1.000000,-3.000000,-3.000000,-5.000000,-1.000000,-1.000000
1297627.806093,0.000000,-2.000000,0.000000,0.000000,-1.000000,-4.000000,0.000000,0.000000
1297627.806466,0.000000,1.000000,1.000000,-2.000000,0.000000,-4.000000,2.000000,-1.000000
1297627.808207,-4.000000,-6.000000,-1.000000,1.000000,-2.000000,-4.000000,0.000000,-2.000000
1297627.808253,-3.000000,0.000000,-3.000000,-12.000000,-1.000000,-2.000000,-2.000000,-2.000000
1297627.808708,-3.000000,-6.000000,0.000000,-1.000000,-3.000000,-2.000000,-2.000000,-1.000000
1297627.808764,2.000000,-4.000000,-3.000000,-1.000000,-2.000000,-2.000000,1.000000,-2.000000
1297627.810199,2.000000,57.000000,2.000000,0.000000,2.000000,-2.000000,-1.000000,2.000000
1297627.810451,-2.000000,-4.000000,-2.000000,-1.000000,-2.000000,0.000000,-2.000000,-2.000000
1297627.810678,-2.000000,1.000000,0.000000,2.000000,2.000000,1.000000,1.000000,0.000000
1297627.810707,-6.000000,-5.000000,1.000000,-3.000000,-3.000000,2.000000,-2.000000,-1.000000
1297627.812819,-3.000000,-1.000000,-1.000000,3.000000,1.000000,-1.000000,-2.000000,-2.000000
1297627.812877,0.000000,-1.000000,1.000000,2.000000,-2.000000,1.000000,-1.000000,0.000000
1297627.820562,-4.000000,-21.000000,-5.000000,-5.000000,-3.000000,-2.000000,-3.000000,-1.000000
1297627.820590,0.000000,-4.000000,0.000000,1.000000,-1.000000,-1.000000,-2.000000,-3.000000
1297627.850439,0.000000,-1.000000,-1.000000,-1.000000,-3.000000,0.000000,-3.000000,0.000000
1297627.850493,-1.000000,-4.000000,0.000000,5.000000,4.000000,3.000000,-2.000000,1.000000
1297627.857771,-1.000000,-3.000000,-4.000000,4.000000,-3.000000,-4.000000,-2.000000,-1.000000
1297627.857822,-1.000000,-1.000000,-5.000000,-9.000000,-5.000000,1.000000,-4.000000,-1.000000
1297627.880374,-2.000000,-1.000000,0.000000,0.000000,-2.000000,-1.000000,1.000000,0.000000
1297627.880401,-1.000000,-2.000000,-1.000000,0.000000,0.000000,-2.000000,-2.000000,-2.000000
1297627.895663,-4.000000,-3.000000,-5.000000,-4.000000,-5.000000,-1.000000,-2.000000,-2.000000
1297627.895792,0.000000,-2.000000,0.000000,2.000000,1.000000,-2.000000,-3.000000,-1.000000
1297627.897038,0.000000,7.000000,2.000000,4.000000,0.000000,-1.000000,-3.000000,-4.000000
1297627.897419,-1.000000,2.000000,2.000000,-2.000000,-7.000000,-1.000000,-1.000000,0.000000
1297627.899361,-2.000000,-2.000000,0.000000,-13.000000,-4.000000,0.000000,2.000000,2.000000
1297627.899389,-3.000000,-5.000000,-3.000000,2.000000,-2.000000,0.000000,-2.000000,0.000000
1297627.899553,-9.000000,-9.000000,5.000000,5.000000,0.000000,-1.000000,1.000000,0.000000
1297627.899589,0.000000,0.000000,-1.000000,0.000000,-1.000000,0.000000,0.000000,-1.000000
1297627.910125,2.000000,1.000000,-3.000000,-4.000000,-1.000000,1.000000,-2.000000,-3.000000
1297627.910152,1.000000,-2.000000,0.000000,-1.000000,0.000000,-3.000000,-2.000000,1.000000
1297627.933241,-3.000000,-5.000000,-2.000000,3.000000,-2.000000,-4.000000,0.000000,0.000000
1297627.933834,-1.000000,0.000000,-1.000000,-3.000000,0.000000,-2.000000,-1.000000,1.000000
1297627.934351,0.000000,-1.000000,-2.000000,2.000000,1.000000,0.000000,-5.000000,-2.000000
1297627.934586,2.000000,2.000000,-4.000000,0.000000,-2.000000,-5.000000,-2.000000,2.000000
1297627.935275,0.000000,-1.000000,-2.000000,-8.000000,-4.000000,2.000000,1.000000,0.000000
1297627.935322,-1.000000,0.000000,3.000000,0.000000,-1.000000,-1.000000,0.000000,-1.000000
1297627.948790,0.000000,-2.000000,0.000000,-2.000000,-3.000000,1.000000,0.000000,1.000000
1297627.949123,1.000000,-2.000000,-3.000000,0.000000,-3.000000,0.000000,1.000000,-4.000000
1297627.950074,0.000000,-3.000000,2.000000,0.000000,1.000000,-3.000000,0.000000,1.000000
1297627.950100,-3.000000,-3.000000,-3.000000,-6.000000,1.000000,1.000000,-1.000000,-5.000000
1297627.963011,-1.000000,-5.000000,-4.000000,-2.000000,0.000000,1.000000,-1.000000,-1.000000
1297627.963066,-3.000000,-2.000000,2.000000,0.000000,-3.000000,-2.000000,0.000000,-1.000000
1297627.978117,-3.000000,-3.000000,-3.000000,1.000000,-1.000000,0.000000,2.000000,0.000000
1297627.978180,-3.000000,-6.000000,-1.000000,0.000000,-3.000000,-1.000000,-1.000000,1.000000
1297628.000480,3.000000,9.000000,0.000000,-3.000000,-7.000000,-5.000000,-3.000000,-1.000000
1297628.000622,0.000000,-4.000000,-1.000000,4.000000,2.000000,-2.000000,-3.000000,0.000000
1297628.015320,-1.000000,-5.000000,-1.000000,-3.000000,-4.000000,1.000000,-2.000000,1.000000
1297628.015358,1.000000,-2.000000,2.000000,1.000000,-3.000000,2.000000,-3.000000,-2.000000
1297628.038131,-1.000000,-1.000000,-3.000000,0.000000,-1.000000,-2.000000,0.000000,-2.000000
1297628.038185,-3.000000,-2.000000,0.000000,3.000000,-1.000000,-1.000000,3.000000,0.000000
1297628.046469,-3.000000,-4.000000,-3.000000,-1.000000,1.000000,0.000000,1.000000,1.000000
1297628.046843,0.000000,1.000000,-1.000000,6.000000,-4.000000,3.000000,0.000000,-1.000000
1297628.048140,1.000000,-3.000000,0.000000,0.000000,1.000000,3.000000,-3.000000,0.000000
1297628.048509,-2.000000,-2.000000,0.000000,3.000000,-5.000000,-4.000000,-3.000000,0.000000
1297628.048968,1.000000,-2.000000,1.000000,-1.000000,-3.000000,0.000000,-1.000000,-4.000000
1297628.049009,-2.000000,-6.000000,-1.000000,-2.000000,1.000000,0.000000,1.000000,0.000000
1297628.049584,0.000000,1.000000,2.000000,-4.000000,-3.000000,0.000000,-1.000000,0.000000
1297628.049636,-1.000000,-2.000000,0.000000,-2.000000,0.000000,-3.000000,-1.000000,-2.000000
1297628.052965,-1.000000,-4.000000,1.000000,3.000000,-4.000000,-5.000000,-2.000000,-2.000000
1297628.052991,0.000000,3.000000,0.000000,2.000000,0.000000,-3.000000,-1.000000,1.000000
1297628.060836,1.000000,0.000000,0.000000,4.000000,0.000000,-2.000000,-3.000000,-1.000000
1297628.060866,-3.000000,-3.000000,-2.000000,-1.000000,-1.000000,-3.000000,0.000000,-2.000000
1297628.082891,1.000000,4.000000,2.000000,2.000000,0.000000,0.000000,1.000000,0.000000
1297628.082944,-3.000000,1.000000,1.000000,-4.000000,-6.000000,-1.000000,1.000000,-2.000000
1297628.090370,-1.000000,0.000000,-3.000000,0.000000,0.000000,0.000000,1.000000,-1.000000
1297628.090421,-4.000000,1.000000,0.000000,-3.000000,-1.000000,-3.000000,-1.000000,-1.000000
1297628.121498,1.000000,-2.000000,0.000000,1.000000,1.000000,0.000000,-2.000000,-1.000000
1297628.121956,-1.000000,0.000000,-2.000000,0.000000,-4.000000,-5.000000,-1.000000,-1.000000
1297628.122185,0.000000,-3.000000,3.000000,3.000000,0.000000,-2.000000,-2.000000,-2.000000
1297628.122235,0.000000,0.000000,-1.000000,4.000000,1.000000,1.000000,0.000000,-2.000000
1297628.123411,-2.000000,-3.000000,-3.000000,2.000000,2.000000,0.000000,0.000000,-4.000000
1297628.123466,1.000000,-1.000000,0.000000,2.000000,-3.000000,0.000000,-2.000000,-2.000000
1297628.123671,-3.000000,0.000000,1.000000,-1.000000,-3.000000,-1.000000,-2.000000,-2.000000
1297628.123699,1.000000,1.000000,-1.000000,3.000000,-1.000000,3.000000,-1.000000,1.000000
1297628.135265,-3.000000,0.000000,1.000000,-3.000000,-3.000000,-1.000000,-3.000000,0.000000
1297628.135315,2.000000,-3.000000,-4.000000,-1.000000,1.000000,-2.000000,-1.000000,1.000000
1297628.150342,-4.000000,-1.000000,-5.000000,2.000000,-2.000000,-1.000000,-3.000000,-2.000000
1297628.150753,0.000000,4.000000,-1.000000,-2.000000,-1.000000,0.000000,-2.000000,2.000000
1297628.152056,0.000000,-2.000000,-3.000000,-2.000000,-3.000000,-2.000000,-1.000000,-2.000000
1297628.152098,0.000000,3.000000,1.000000,2.000000,0.000000,-1.000000,-1.000000,-3.000000
1297628.174012,-1.000000,-4.000000,-1.000000,-4.000000,3.000000,-1.000000,2.000000,1.000000
1297628.174039,0.000000,3.000000,2.000000,5.000000,-2.000000,-1.000000,-4.000000,-1.000000
1297628.174872,-1.000000,-1.000000,-4.000000,-6.000000,-3.000000,0.000000,1.000000,1.000000
1297628.174897,0.000000,2.000000,-1.000000,-3.000000,1.000000,3.000000,0.000000,-2.000000
1297628.202897,1.000000,-2.000000,-1.000000,-4.000000,1.000000,-4.000000,0.000000,3.000000
1297628.202947,0.000000,3.000000,3.000000,3.000000,0.000000,-1.000000,-5.000000,-1.000000
1297628.240498,1.000000,1.000000,-3.000000,2.000000,0.000000,4.000000,1.000000,-3.000000
1297628.240524,-2.000000,-1.000000,-1.000000,-2.000000,-1.000000,-1.000000,-3.000000,-2.000000
1297628.247955,-1.000000,-3.000000,-1.000000,-1.000000,0.000000,-4.000000,-2.000000,-4.000000
1297628.247999,-2.000000,0.000000,0.000000,2.000000,2.000000,1.000000,-4.000000,-2.000000
1297628.249599,-2.000000,1.000000,1.000000,-4.000000,0.000000,-1.000000,0.000000,0.000000
1297628.249950,-1.000000,1.000000,2.000000,4.000000,0.000000,2.000000,-2.000000,-2.000000
1297628.250867,0.000000,-4.000000,1.000000,-12.000000,-3.000000,0.000000,-1.000000,-1.000000
1297628.250925,-2.000000,3.000000,-2.000000,0.000000,0.000000,0.000000,-5.000000,1.000000
1297628.252495,1.000000,2.000000,-1.000000,-3.000000,3.000000,-4.000000,1.000000,-2.000000
1297628.252539,-2.000000,-5.000000,1.000000,1.000000,0.000000,2.000000,-2.000000,-2.000000
1297628.255381,1.000000,0.000000,-2.000000,3.000000,-3.000000,2.000000,1.000000,1.000000
1297628.255438,0.000000,2.000000,-1.000000,-1.000000,5.000000,-5.000000,-2.000000,-3.000000
1297628.262544,-3.000000,0.000000,-2.000000,-7.000000,-4.000000,-2.000000,0.000000,-3.000000
1297628.262570,-2.000000,-5.000000,-2.000000,1.000000,-1.000000,-3.000000,-3.000000,-1.000000
1297628.277969,-1.000000,1.000000,2.000000,-1.000000,-1.000000,-1.000000,0.000000,-3.000000
1297628.278017,-2.000000,-1.000000,1.000000,-2.000000,-2.000000,-4.000000,-1.000000,2.000000
1297628.285345,-1.000000,-3.000000,-2.000000,1.000000,0.000000,0.000000,-1.000000,0.000000
1297628.285372,-1.000000,-5.000000,-4.000000,-7.000000,2.000000,-1.000000,3.000000,-1.000000
1297628.293752,-1.000000,0.000000,-1.000000,-2.000000,-4.000000,-3.000000,-1.000000,-2.000000
1297628.293802,1.000000,-2.000000,1.000000,-3.000000,0.000000,0.000000,3.000000,0.000000
1297628.300430,-1.000000,-3.000000,-4.000000,3.000000,-1.000000,1.000000,-1.000000,-1.000000
1297628.300458,0.000000,3.000000,0.000000,-3.000000,2.000000,-3.000000,1.000000,-1.000000
1297628.330372,-4.000000,-2.000000,-1.000000,0.000000,2.000000,-1.000000,0.000000,1.000000
1297628.330423,1.000000,0.000000,1.000000,1.000000,1.000000,0.000000,-4.000000,1.000000
1297628.338163,-1.000000,0.000000,-2.000000,-2.000000,-2.000000,-1.000000,-1.000000,-2.000000
1297628.338217,1.000000,1.000000,3.000000,3.000000,-3.000000,-2.000000,-3.000000,1.000000
1297628.360669,1.000000,-1.000000,-1.000000,-4.000000,1.000000,0.000000,0.000000,-1.000000
1297628.360700,0.000000,-2.000000,-1.000000,2.000000,1.000000,-2.000000,-1.000000,0.000000
1297628.361345,1.000000,0.000000,-1.000000,-1.000000,-1.000000,2.000000,3.000000,0.000000
1297628.361381,-1.000000,1.000000,0.000000,2.000000,0.000000,-1.000000,-1.000000,-2.000000
1297628.363017,-1.000000,3.000000,-3.000000,-3.000000,2.000000,-2.000000,-1.000000,-1.000000
1297628.363122,-3.000000,0.000000,-1.000000,-1.000000,1.000000,0.000000,-3.000000,-3.000000
1297628.363530,-3.000000,2.000000,-2.000000,-4.000000,-2.000000,1.000000,1.000000,2.000000
1297628.363573,0.000000,1.000000,-1.000000,-1.000000,-3.000000,-1.000000,0.000000,0.000000
1297628.375461,-1.000000,0.000000,0.000000,1.000000,-2.000000,-2.000000,-1.000000,1.000000
1297628.375515,-3.000000,1.000000,-2.000000,-2.000000,-2.000000,-3.000000,-6.000000,1.000000
1297628.397824,-2.000000,0.000000,0.000000,1.000000,2.000000,-2.000000,0.000000,-3.000000
1297628.398105,-2.000000,1.000000,-2.000000,-1.000000,1.000000,0.000000,-2.000000,-1.000000
1297628.399441,-4.000000,0.000000,-5.000000,-4.000000,-3.000000,-2.000000,-3.000000,-2.000000
1297628.399489,0.000000,-3.000000,-4.000000,3.000000,3.000000,-1.000000,-2.000000,-1.000000
1297628.405316,1.000000,-5.000000,-2.000000,-4.000000,-2.000000,-2.000000,0.000000,-3.000000
1297628.405367,-2.000000,-5.000000,-1.000000,1.000000,1.000000,1.000000,2.000000,-2.000000
1297628.414038,-1.000000,-1.000000,-3.000000,0.000000,0.000000,-1.000000,1.000000,0.000000
1297628.414089,1.000000,0.000000,1.000000,0.000000,1.000000,1.000000,-2.000000,-2.000000
1297628.428208,-4.000000,-4.000000,-3.000000,-3.000000,-3.000000,0.000000,0.000000,-2.000000
1297628.428261,-3.000000,-3.000000,1.000000,1.000000,-2.000000,-3.000000,0.000000,-1.000000
1297628.450322,-4.000000,-5.000000,1.000000,-1.000000,3.000000,0.000000,-2.000000,-1.000000
1297628.450369,-1.000000,-3.000000,0.000000,-2.000000,1.000000,2.000000,-1.000000,1.000000
1297628.457882,2.000000,1.000000,-2.000000,-2.000000,3.000000,-4.000000,-3.000000,0.000000
1297628.457933,-1.000000,-5.000000,-3.000000,-1.000000,-1.000000,-3.000000,-4.000000,-1.000000
1297628.487997,1.000000,-3.000000,-2.000000,-5.000000,-1.000000,1.000000,-2.000000,-1.000000
1297628.488045,1.000000,1.000000,0.000000,-4.000000,-4.000000,0.000000,-2.000000,-1.000000
1297628.518477,-1.000000,-5.000000,-2.000000,-1.000000,-1.000000,-3.000000,0.000000,2.000000
1297628.518534,2.000000,4.000000,-1.000000,0.000000,6.000000,1.000000,3.000000,-1.000000
1297628.520347,2.000000,2.000000,4.000000,6.000000,1.000000,0.000000,0.000000,-6.000000
1297628.520862,0.000000,-1.000000,-2.000000,-1.000000,0.000000,-1.000000,-1.000000,-3.000000
1297628.521197,1.000000,-5.000000,0.000000,-3.000000,2.000000,-1.000000,2.000000,-2.000000
1297628.521483,-1.000000,-3.000000,-2.000000,-1.000000,-3.000000,-4.000000,-4.000000,0.000000
1297628.522268,-3.000000,-4.000000,-4.000000,-2.000000,2.000000,3.000000,0.000000,0.000000
1297628.522291,-2.000000,-3.000000,2.000000,-3.000000,-2.000000,-2.000000,-3.000000,-1.000000
1297628.522449,-3.000000,0.000000,-3.000000,-2.000000,-1.000000,-2.000000,0.000000,-1.000000
1297628.522487,-5.000000,2.000000,0.000000,0.000000,-4.000000,-3.000000,3.000000,1.000000
1297628.525160,0.000000,-5.000000,-4.000000,-3.000000,-2.000000,1.000000,1.000000,1.000000
1297628.525185,0.000000,1.000000,0.000000,-4.000000,-1.000000,1.000000,0.000000,-2.000000
1297628.540526,0.000000,1.000000,-2.000000,1.000000,1.000000,-1.000000,1.000000,-2.000000
1297628.540580,1.000000,-2.000000,-3.000000,3.000000,4.000000,-1.000000,-1.000000,-1.000000
1297628.555576,-1.000000,-3.000000,-1.000000,-4.000000,1.000000,0.000000,-3.000000,2.000000
1297628.555608,-1.000000,0.000000,1.000000,-2.000000,1.000000,1.000000,-2.000000,0.000000
1297628.570399,0.000000,1.000000,-4.000000,1.000000,0.000000,-1.000000,-2.000000,-2.000000
1297628.570441,-2.000000,-3.000000,-1.000000,0.000000,1.000000,0.000000,-3.000000,-2.000000
1297628.593523,2.000000,-3.000000,-4.000000,-4.000000,-1.000000,-1.000000,-6.000000,-1.000000
1297628.593550,-2.000000,2.000000,-5.000000,0.000000,-3.000000,-2.000000,2.000000,2.000000
1297628.607937,-2.000000,2.000000,-1.000000,-3.000000,0.000000,-3.000000,0.000000,3.000000
1297628.607988,0.000000,1.000000,0.000000,2.000000,-2.000000,1.000000,-1.000000,0.000000
1297628.615673,2.000000,1.000000,-2.000000,-2.000000,1.000000,3.000000,0.000000,-5.000000
1297628.615725,-3.000000,2.000000,1.000000,4.000000,3.000000,-2.000000,0.000000,-3.000000
1297628.645308,1.000000,0.000000,-3.000000,8.000000,0.000000,-1.000000,0.000000,-1.000000
1297628.645334,-5.000000,-1.000000,0.000000,-18.000000,-2.000000,2.000000,0.000000,-3.000000
1297628.653391,-1.000000,1.000000,-3.000000,1.000000,3.000000,0.000000,-1.000000,-2.000000
1297628.654021,1.000000,-2.000000,0.000000,-3.000000,-2.000000,0.000000,-1.000000,0.000000
1297628.655661,-5.000000,-4.000000,-4.000000,1.000000,3.000000,-5.000000,-1.000000,1.000000
1297628.655861,-4.000000,-3.000000,-2.000000,1.000000,-2.000000,0.000000,-4.000000,-1.000000
1297628.656104,-1.000000,0.000000,1.000000,-2.000000,-1.000000,4.000000,-2.000000,2.000000
1297628.656152,-1.000000,-4.000000,-1.000000,1.000000,-3.000000,-1.000000,-1.000000,-3.000000
1297628.656573,0.000000,3.000000,-3.000000,-2.000000,-1.000000,-1.000000,-1.000000,-2.000000
1297628.656614,-3.000000,-7.000000,-5.000000,-4.000000,0.000000,1.000000,0.000000,-1.000000
1297628.656927,-3.000000,-1.000000,-2.000000,6.000000,4.000000,2.000000,0.000000,-2.000000
1297628.656981,-1.000000,0.000000,1.000000,1.000000,-3.000000,2.000000,1.000000,-2.000000
1297628.675417,-2.000000,4.000000,-1.000000,-1.000000,-3.000000,-3.000000,0.000000,-3.000000
1297628.675477,1.000000,2.000000,1.000000,-3.000000,-2.000000,1.000000,-3.000000,2.000000
1297628.690429,-1.000000,-2.000000,-1.000000,-4.000000,-2.000000,0.000000,-3.000000,1.000000
1297628.690456,0.000000,1.000000,4.000000,-3.000000,-1.000000,1.000000,-3.000000,3.000000
1297628.705399,2.000000,0.000000,0.000000,1.000000,0.000000,1.000000,-1.000000,-3.000000
1297628.705425,0.000000,-5.000000,-2.000000,2.000000,-1.000000,-3.000000,0.000000,-2.000000
1297628.721666,3.000000,3.000000,1.000000,4.000000,2.000000,-4.000000,2.000000,0.000000
1297628.721894,-2.000000,-1.000000,-6.000000,-9.000000,-5.000000,-4.000000,2.000000,-1.000000
1297628.722266,-2.000000,1.000000,3.000000,0.000000,1.000000,-2.000000,-3.000000,-2.000000
1297628.722298,-3.000000,-2.000000,0.000000,1.000000,1.000000,0.000000,-1.000000,-1.000000
1297628.729316,-1.000000,-3.000000,2.000000,2.000000,2.000000,1.000000,-1.000000,-3.000000
1297628.729684,0.000000,7.000000,2.000000,-3.000000,-1.000000,-3.000000,1.000000,-1.000000
1297628.730504,-3.000000,1.000000,1.000000,-1.000000,1.000000,-2.000000,1.000000,1.000000
1297628.730527,-3.000000,2.000000,0.000000,-4.000000,-2.000000,-3.000000,-3.000000,-4.000000
1297628.743619,1.000000,-10.000000,-5.000000,1.000000,-1.000000,1.000000,0.000000,0.000000
1297628.743648,0.000000,1.000000,0.000000,-1.000000,-3.000000,0.000000,-2.000000,0.000000
1297628.757950,-1.000000,2.000000,-2.000000,1.000000,-1.000000,0.000000,-1.000000,-2.000000
1297628.758234,0.000000,2.000000,1.000000,0.000000,3.000000,0.000000,-5.000000,-4.000000
1297628.758646,-2.000000,1.000000,-2.000000,-2.000000,0.000000,-3.000000,-1.000000,1.000000
1297628.758671,0.000000,0.000000,-1.000000,-1.000000,-2.000000,-1.000000,-1.000000,-1.000000
1297628.766150,-3.000000,-7.000000,-3.000000,6.000000,4.000000,-1.000000,1.000000,-1.000000
1297628.766193,0.000000,-2.000000,-6.000000,-7.000000,-1.000000,-3.000000,-3.000000,-3.000000
1297628.795449,2.000000,-1.000000,4.000000,-2.000000,-1.000000,-6.000000,1.000000,-1.000000
1297628.795500,-2.000000,-3.000000,-2.000000,2.000000,-2.000000,-4.000000,-3.000000,-1.000000
1297628.810504,-1.000000,0.000000,0.000000,-4.000000,-6.000000,1.000000,0.000000,0.000000
1297628.810580,-2.000000,0.000000,0.000000,1.000000,4.000000,-1.000000,0.000000,1.000000
1297628.832958,-2.000000,3.000000,1.000000,-1.000000,0.000000,-1.000000,-4.000000,0.000000
1297628.833010,-2.000000,-2.000000,1.000000,0.000000,-5.000000,-3.000000,0.000000,-2.000000
1297628.842099,4.000000,12.000000,-1.000000,-3.000000,-3.000000,1.000000,-2.000000,-1.000000
1297628.842161,-1.000000,-1.000000,1.000000,1.000000,-1.000000,-1.000000,1.000000,0.000000
1297628.842453,-1.000000,-1.000000,-1.000000,-5.000000,-1.000000,0.000000,0.000000,-1.000000
1297628.842957,0.000000,1.000000,-1.000000,-4.000000,-5.000000,2.000000,-2.000000,-2.000000
1297628.844168,-2.000000,2.000000,1.000000,0.000000,-2.000000,-1.000000,-1.000000,-1.000000
1297628.844208,0.000000,1.000000,0.000000,3.000000,-2.000000,0.000000,-2.000000,-3.000000
1297628.847679,-1.000000,1.000000,0.000000,0.000000,0.000000,-3.000000,0.000000,-3.000000
1297628.847714,-1.000000,-1.000000,-4.000000,-2.000000,-2.000000,-4.000000,-3.000000,-1.000000
1297628.849517,0.000000,-2.000000,-1.000000,-1.000000,-4.000000,-1.000000,1.000000,0.000000
1297628.849542,-1.000000,-1.000000,0.000000,1.000000,-1.000000,0.000000,-4.000000,-1.000000
1297628.855478,-2.000000,0.000000,1.000000,-3.000000,-6.000000,-2.000000,0.000000,0.000000
1297628.855530,-1.000000,0.000000,1.000000,0.000000,3.000000,0.000000,-1.000000,-2.000000
1297628.877836,-3.000000,1.000000,-2.000000,-10.000000,-2.000000,1.000000,-3.000000,0.000000
1297628.877882,1.000000,1.000000,-2.000000,-12.000000,1.000000,-1.000000,-1.000000,0.000000
1297628.878744,0.000000,1.000000,-1.000000,-1.000000,-3.000000,-4.000000,-1.000000,-3.000000
1297628.878795,0.000000,1.000000,2.000000,-1.000000,-2.000000,-1.000000,2.000000,0.000000
1297628.886080,-7.000000,1.000000,3.000000,2.000000,0.000000,1.000000,-1.000000,1.000000
1297628.886194,1.000000,0.000000,3.000000,7.000000,3.000000,2.000000,-1.000000,-1.000000
1297628.893011,0.000000,-1.000000,-3.000000,0.000000,-1.000000,-2.000000,-3.000000,-3.000000
1297628.893062,-3.000000,0.000000,-3.000000,-2.000000,-2.000000,-1.000000,-2.000000,2.000000
1297628.915302,-1.000000,-1.000000,-4.000000,-2.000000,0.000000,1.000000,2.000000,1.000000
1297628.915350,2.000000,1.000000,0.000000,-3.000000,-3.000000,-2.000000,2.000000,-1.000000
1297628.922701,0.000000,1.000000,0.000000,-4.000000,-2.000000,-4.000000,2.000000,1.000000
1297628.922753,-2.000000,-3.000000,-2.000000,-1.000000,-1.000000,1.000000,-2.000000,-1.000000
1297628.953544,0.000000,-1.000000,-2.000000,-4.000000,-6.000000,-5.000000,-2.000000,0.000000
1297628.953793,1.000000,0.000000,2.000000,2.000000,-1.000000,0.000000,-3.000000,-2.000000
1297628.955091,-2.000000,1.000000,-4.000000,0.000000,-3.000000,0.000000,-3.000000,-3.000000
1297628.955133,2.000000,-1.000000,-1.000000,2.000000,-5.000000,-1.000000,-1.000000,3.000000
1297628.956116,-1.000000,0.000000,4.000000,-3.000000,1.000000,1.000000,0.000000,1.000000
1297628.956169,0.000000,-1.000000,1.000000,2.000000,-1.000000,-5.000000,0.000000,-3.000000
1297628.956689,-2.000000,-1.000000,-3.000000,-4.000000,-2.000000,0.000000,-2.000000,1.000000
1297628.956750,-3.000000,-1.000000,-2.000000,4.000000,-2.000000,0.000000,0.000000,0.000000
1297628.968877,1.000000,-2.000000,1.000000,1.000000,-4.000000,2.000000,1.000000,-3.000000
1297628.968923,-1.000000,1.000000,0.000000,-2.000000,0.000000,-4.000000,-3.000000,1.000000
1297628.982978,-3.000000,-6.000000,-1.000000,-5.000000,-2.000000,-3.000000,-2.000000,-2.000000
1297628.983015,4.000000,6.000000,-4.000000,2.000000,1.000000,-1.000000,3.000000,1.000000
1297628.998737,-1.000000,1.000000,0.000000,-1.000000,1.000000,-1.000000,-1.000000,-1.000000
1297628.999068,-1.000000,0.000000,-4.000000,1.000000,1.000000,-2.000000,-2.000000,-4.000000
1297628.999564,0.000000,-3.000000,-1.000000,-1.000000,-3.000000,0.000000,-1.000000,1.000000
1297628.999609,-1.000000,-2.000000,-5.000000,0.000000,-1.000000,0.000000,0.000000,-3.000000
1297629.006467,-1.000000,-1.000000,2.000000,-2.000000,-4.000000,-2.000000,-1.000000,-1.000000
1297629.006510,-1.000000,-4.000000,3.000000,-1.000000,-4.000000,-3.000000,0.000000,-3.000000
1297629.035526,-4.000000,-1.000000,1.000000,4.000000,0.000000,3.000000,1.000000,-2.000000
1297629.035552,-1.000000,0.000000,-1.000000,-17.000000,-4.000000,-2.000000,-1.000000,1.000000
1297629.044109,1.000000,-1.000000,1.000000,1.000000,-2.000000,0.000000,-2.000000,-2.000000
1297629.044140,0.000000,-3.000000,0.000000,-1.000000,-4.000000,-1.000000,-1.000000,1.000000
1297629.044840,-4.000000,-2.000000,-3.000000,1.000000,1.000000,2.000000,-1.000000,0.000000
1297629.044889,-1.000000,-5.000000,0.000000,2.000000,-3.000000,-3.000000,-2.000000,-1.000000
1297629.046036,-1.000000,0.000000,2.000000,-6.000000,-4.000000,-1.000000,3.000000,0.000000
1297629.046078,2.000000,2.000000,-4.000000,-3.000000,-1.000000,-1.000000,-1.000000,0.000000
1297629.065520,-1.000000,-1.000000,4.000000,2.000000,2.000000,-1.000000,1.000000,1.000000
1297629.065578,-1.000000,3.000000,0.000000,-1.000000,-4.000000,-1.000000,-3.000000,-4.000000
1297629.080257,-1.000000,0.000000,-6.000000,-1.000000,-3.000000,-1.000000,2.000000,0.000000
1297629.080318,-10.000000,-6.000000,-1.000000,0.000000,3.000000,0.000000,-2.000000,1.000000
1297629.081306,-2.000000,-4.000000,-4.000000,3.000000,5.000000,2.000000,2.000000,-3.000000
1297629.081351,-1.000000,-3.000000,0.000000,-2.000000,-3.000000,3.000000,-4.000000,2.000000
1297629.089015,0.000000,-1.000000,-1.000000,0.000000,-5.000000,-2.000000,-2.000000,0.000000
1297629.089067,-4.000000,-2.000000,0.000000,2.000000,6.000000,-2.000000,-1.000000,-4.000000
1297629.095716,0.000000,5.000000,3.000000,1.000000,-1.000000,-1.000000,-2.000000,-4.000000
1297629.095769,2.000000,1.000000,-4.000000,0.000000,-6.000000,-3.000000,-2.000000,-1.000000
1297629.110506,-1.000000,-6.000000,-2.000000,-4.000000,-1.000000,-3.000000,2.000000,1.000000
1297629.110568,-3.000000,2.000000,3.000000,-4.000000,0.000000,0.000000,-3.000000,0.000000
1297629.117956,0.000000,2.000000,-5.000000,-6.000000,-1.000000,-1.000000,-1.000000,-1.000000
1297629.118006,0.000000,-4.000000,-1.000000,0.000000,0.000000,1.000000,-1.000000,0.000000
1297629.126658,-1.000000,-2.000000,-1.000000,0.000000,-1.000000,2.000000,-1.000000,-1.000000
1297629.126684,-2.000000,1.000000,2.000000,-2.000000,2.000000,0.000000,1.000000,-1.000000
1297629.147768,0.000000,1.000000,-2.000000,1.000000,-1.000000,1.000000,1.000000,2.000000
1297629.147794,-9.000000,-3.000000,4.000000,1.000000,2.000000,1.000000,2.000000,-2.000000
1297629.162861,-4.000000,-3.000000,0.000000,-2.000000,1.000000,-2.000000,0.000000,-3.000000
1297629.162906,-2.000000,2.000000,2.000000,-1.000000,3.000000,-2.000000,1.000000,-1.000000
1297629.185736,-1.000000,1.000000,1.000000,1.000000,-2.000000,0.000000,1.000000,0.000000
1297629.185871,-1.000000,1.000000,5.000000,-2.000000,-1.000000,0.000000,-2.000000,-3.000000
1297629.195013,-2.000000,-4.000000,-4.000000,0.000000,0.000000,-3.000000,-2.000000,-1.000000
1297629.195067,-1.000000,-3.000000,-1.000000,0.000000,1.000000,-2.000000,-2.000000,1.000000
1297629.195335,1.000000,0.000000,-3.000000,1.000000,-4.000000,-1.000000,-1.000000,-1.000000
1297629.195388,-4.000000,1.000000,-4.000000,0.000000,-3.000000,-3.000000,1.000000,-1.000000
1297629.196767,-5.000000,0.000000,2.000000,-3.000000,-1.000000,-1.000000,-3.000000,-2.000000
1297629.196814,1.000000,3.000000,1.000000,-3.000000,0.000000,-1.000000,-6.000000,-2.000000
1297629.197044,1.000000,-1.000000,0.000000,-3.000000,3.000000,0.000000,-2.000000,-3.000000
1297629.197060,-3.000000,0.000000,-2.000000,0.000000,2.000000,-1.000000,2.000000,-4.000000
1297629.233908,0.000000,-4.000000,-1.000000,-2.000000,-1.000000,-4.000000,0.000000,0.000000
1297629.234032,2.000000,-4.000000,-3.000000,-2.000000,-2.000000,0.000000,-1.000000,-3.000000
1297629.234683,0.000000,0.000000,3.000000,1.000000,-3.000000,-1.000000,1.000000,0.000000
1297629.234726,-3.000000,-3.000000,-3.000000,-2.000000,-2.000000,-5.000000,0.000000,-2.000000
1297629.234979,-1.000000,1.000000,-1.000000,-3.000000,-1.000000,-1.000000,-2.000000,2.000000
1297629.234998,-1.000000,-1.000000,-1.000000,2.000000,-5.000000,-1.000000,-7.000000,0.000000
1297629.238381,-3.000000,-5.000000,1.000000,3.000000,-3.000000,0.000000,-1.000000,1.000000
1297629.238427,1.000000,-3.000000,-3.000000,-5.000000,1.000000,-4.000000,-4.000000,1.000000
1297629.246370,0.000000,1.000000,-1.000000,-3.000000,-3.000000,-1.000000,-1.000000,0.000000
1297629.246403,3.000000,4.000000,-2.000000,1.000000,-1.000000,-5.000000,-3.000000,0.000000
1297629.260391,1.000000,-1.000000,-2.000000,-2.000000,-2.000000,-4.000000,-2.000000,-1.000000
1297629.260437,-1.000000,-1.000000,-5.000000,-1.000000,-2.000000,0.000000,-1.000000,1.000000
1297629.283357,-3.000000,0.000000,-5.000000,-4.000000,-1.000000,2.000000,0.000000,-3.000000
1297629.283410,-4.000000,1.000000,-1.000000,5.000000,3.000000,5.000000,-1.000000,-3.000000
1297629.298759,0.000000,-1.000000,0.000000,-3.000000,2.000000,1.000000,0.000000,1.000000
1297629.298820,1.000000,-9.000000,0.000000,-7.000000,-4.000000,-3.000000,1.000000,0.000000
1297629.321051,-4.000000,4.000000,0.000000,2.000000,2.000000,-2.000000,0.000000,1.000000
1297629.321099,-1.000000,-1.000000,0.000000,1.000000,-3.000000,-2.000000,0.000000,1.000000
1297629.351113,2.000000,0.000000,-1.000000,-2.000000,-2.000000,-1.000000,1.000000,-1.000000
1297629.351511,-1.000000,-3.000000,0.000000,-4.000000,-3.000000,-2.000000,-1.000000,-1.000000
1297629.353479,1.000000,-1.000000,-3.000000,0.000000,0.000000,1.000000,-2.000000,0.000000
