# participant_id: P4
# gesture: baseline
# trial_number: 1
# stream_name: Myo_EMG
# stream_type: emg
# timestamp: 20260420_134316
# samples: 5693
# duration_sec: 30.524
# nominal_sample_rate: 200.0
# effective_sample_rate: 186.48
#
timestamp,emg_1,emg_2,emg_3,emg_4,emg_5,emg_6,emg_7,emg_8
1297287.988694,-12.000000,7.000000,4.000000,-8.000000,-4.000000,0.000000,2.000000,-6.000000
1297287.988720,-10.000000,-81.000000,-7.000000,1.000000,0.000000,2.000000,-3.000000,0.000000
1297287.989633,-4.000000,21.000000,2.000000,4.000000,7.000000,0.000000,-1.000000,-2.000000
1297287.989694,4.000000,-12.000000,-3.000000,4.000000,8.000000,-3.000000,-1.000000,2.000000
1297287.991286,-5.000000,15.000000,-2.000000,-7.000000,-10.000000,-3.000000,-4.000000,-2.000000
1297287.991311,9.000000,127.000000,2.000000,11.000000,25.000000,10.000000,-2.000000,3.000000
1297287.991643,-5.000000,-8.000000,-3.000000,0.000000,1.000000,1.000000,-1.000000,-2.000000
1297287.991703,0.000000,-4.000000,5.000000,1.000000,3.000000,-2.000000,-1.000000,-2.000000
1297287.995527,3.000000,-5.000000,5.000000,-3.000000,-10.000000,-1.000000,-2.000000,0.000000
1297287.995554,-4.000000,-15.000000,-8.000000,-6.000000,-2.000000,-1.000000,-2.000000,1.000000
1297288.024062,-3.000000,-7.000000,-11.000000,-4.000000,-5.000000,-5.000000,-2.000000,-2.000000
1297288.024095,-13.000000,6.000000,2.000000,4.000000,0.000000,0.000000,1.000000,-5.000000
1297288.025372,-1.000000,-6.000000,1.000000,-3.000000,-8.000000,0.000000,4.000000,0.000000
1297288.025416,0.000000,-3.000000,-1.000000,4.000000,-1.000000,1.000000,-2.000000,-2.000000
1297288.025953,3.000000,7.000000,-4.000000,1.000000,-6.000000,1.000000,1.000000,3.000000
1297288.025962,-7.000000,-1.000000,3.000000,-3.000000,-8.000000,-1.000000,-5.000000,-6.000000
1297288.038910,-17.000000,-72.000000,-5.000000,-11.000000,-6.000000,-6.000000,-1.000000,-1.000000
1297288.038921,-8.000000,5.000000,5.000000,-1.000000,-7.000000,-1.000000,0.000000,-3.000000
1297288.069125,4.000000,-15.000000,0.000000,-1.000000,-4.000000,-4.000000,-4.000000,1.000000
1297288.069154,9.000000,127.000000,-6.000000,5.000000,12.000000,7.000000,-2.000000,2.000000
1297288.106382,4.000000,-11.000000,-3.000000,2.000000,-8.000000,-4.000000,-1.000000,-1.000000
1297288.106392,-2.000000,-8.000000,-8.000000,3.000000,6.000000,-3.000000,0.000000,0.000000
1297288.106699,-11.000000,-6.000000,-5.000000,-1.000000,-4.000000,0.000000,0.000000,-5.000000
1297288.106708,15.000000,91.000000,3.000000,9.000000,17.000000,-1.000000,0.000000,4.000000
1297288.108089,-1.000000,-4.000000,-1.000000,-4.000000,3.000000,-2.000000,1.000000,2.000000
1297288.108120,0.000000,-10.000000,2.000000,3.000000,1.000000,0.000000,2.000000,-4.000000
1297288.108612,2.000000,-4.000000,4.000000,-8.000000,-2.000000,-4.000000,-1.000000,-1.000000
1297288.108621,5.000000,68.000000,0.000000,6.000000,8.000000,0.000000,-2.000000,2.000000
1297288.110182,-16.000000,2.000000,6.000000,3.000000,-2.000000,1.000000,0.000000,-4.000000
1297288.110192,-1.000000,-2.000000,5.000000,4.000000,-1.000000,-2.000000,-1.000000,-2.000000
1297288.114524,2.000000,-11.000000,-2.000000,-2.000000,4.000000,-2.000000,1.000000,0.000000
1297288.114535,-6.000000,2.000000,-12.000000,0.000000,5.000000,-3.000000,-2.000000,-2.000000
1297288.136726,0.000000,-3.000000,-1.000000,-3.000000,4.000000,1.000000,1.000000,-2.000000
1297288.136739,1.000000,-17.000000,-3.000000,-5.000000,1.000000,1.000000,0.000000,-5.000000
1297288.151940,14.000000,95.000000,0.000000,9.000000,14.000000,1.000000,-1.000000,2.000000
1297288.151951,-1.000000,-5.000000,4.000000,-2.000000,1.000000,-1.000000,0.000000,-1.000000
1297288.158882,-7.000000,40.000000,1.000000,5.000000,3.000000,2.000000,1.000000,2.000000
1297288.158910,-2.000000,-7.000000,-10.000000,-2.000000,2.000000,0.000000,-1.000000,0.000000
1297288.174169,-3.000000,-9.000000,-1.000000,-5.000000,-2.000000,2.000000,-2.000000,-2.000000
1297288.174182,0.000000,-25.000000,-4.000000,-4.000000,-8.000000,-3.000000,0.000000,0.000000
1297288.181937,0.000000,-7.000000,-1.000000,0.000000,-1.000000,-1.000000,-3.000000,-5.000000
1297288.181949,-6.000000,13.000000,0.000000,-3.000000,-10.000000,1.000000,1.000000,-5.000000
1297288.196427,-8.000000,-17.000000,6.000000,2.000000,-3.000000,-3.000000,1.000000,4.000000
1297288.196438,-4.000000,-7.000000,-5.000000,1.000000,4.000000,1.000000,-1.000000,4.000000
1297288.226889,6.000000,-4.000000,2.000000,-2.000000,3.000000,0.000000,-5.000000,0.000000
1297288.226902,0.000000,0.000000,-1.000000,-1.000000,1.000000,4.000000,-2.000000,1.000000
1297288.234815,-1.000000,0.000000,-2.000000,2.000000,-6.000000,-5.000000,4.000000,-1.000000
1297288.234827,8.000000,24.000000,7.000000,3.000000,6.000000,-2.000000,-2.000000,-3.000000
1297288.235227,1.000000,-4.000000,-5.000000,-1.000000,5.000000,-5.000000,1.000000,0.000000
1297288.235241,1.000000,73.000000,5.000000,-2.000000,-3.000000,1.000000,-1.000000,2.000000
1297288.236433,3.000000,-5.000000,-2.000000,4.000000,6.000000,0.000000,0.000000,-1.000000
1297288.236444,1.000000,-5.000000,2.000000,-4.000000,3.000000,1.000000,-1.000000,0.000000
1297288.237274,-7.000000,-50.000000,-7.000000,-4.000000,-4.000000,-4.000000,-3.000000,-1.000000
1297288.237284,-6.000000,33.000000,5.000000,3.000000,8.000000,-1.000000,-1.000000,0.000000
1297288.249501,-9.000000,-14.000000,5.000000,1.000000,6.000000,4.000000,-2.000000,-6.000000
1297288.249512,-4.000000,-7.000000,-3.000000,2.000000,-2.000000,-1.000000,-1.000000,-7.000000
1297288.264546,-3.000000,-5.000000,-2.000000,3.000000,5.000000,-4.000000,-6.000000,2.000000
1297288.264557,0.000000,-21.000000,0.000000,-3.000000,-7.000000,-3.000000,0.000000,0.000000
1297288.265238,5.000000,-11.000000,0.000000,5.000000,-3.000000,1.000000,-5.000000,3.000000
1297288.265247,2.000000,-10.000000,-6.000000,-6.000000,-2.000000,-3.000000,-1.000000,-4.000000
1297288.279208,2.000000,6.000000,-3.000000,-2.000000,0.000000,-2.000000,-3.000000,-7.000000
1297288.279222,-9.000000,4.000000,0.000000,-4.000000,6.000000,2.000000,0.000000,-3.000000
1297288.302929,3.000000,-13.000000,-4.000000,3.000000,6.000000,-3.000000,-4.000000,-1.000000
1297288.302961,2.000000,-5.000000,-3.000000,4.000000,-3.000000,-3.000000,0.000000,-2.000000
1297288.317576,1.000000,3.000000,-1.000000,-2.000000,-7.000000,2.000000,1.000000,-4.000000
1297288.317605,-3.000000,-16.000000,-7.000000,-3.000000,-1.000000,-3.000000,-3.000000,0.000000
1297288.347553,-1.000000,-35.000000,-6.000000,-6.000000,0.000000,-1.000000,2.000000,-5.000000
1297288.347584,-9.000000,-11.000000,2.000000,-2.000000,5.000000,0.000000,-1.000000,-4.000000
1297288.356077,3.000000,-3.000000,-2.000000,-3.000000,7.000000,-1.000000,1.000000,2.000000
1297288.356111,-2.000000,-11.000000,3.000000,-1.000000,-1.000000,-3.000000,1.000000,-4.000000
1297288.356279,-4.000000,-7.000000,-6.000000,5.000000,3.000000,1.000000,-3.000000,2.000000
1297288.356710,-3.000000,19.000000,5.000000,-1.000000,0.000000,-1.000000,-1.000000,1.000000
1297288.358613,-3.000000,-3.000000,0.000000,4.000000,0.000000,0.000000,-1.000000,-5.000000
1297288.358678,-6.000000,-30.000000,-2.000000,-2.000000,-7.000000,-6.000000,-3.000000,-1.000000
1297288.358990,-2.000000,17.000000,2.000000,-3.000000,4.000000,-1.000000,0.000000,0.000000
1297288.359024,1.000000,-1.000000,-8.000000,-3.000000,1.000000,3.000000,0.000000,1.000000
1297288.370564,1.000000,-2.000000,3.000000,2.000000,-2.000000,-2.000000,-3.000000,-1.000000
1297288.370615,0.000000,-17.000000,3.000000,-3.000000,-3.000000,0.000000,3.000000,3.000000
1297288.378292,8.000000,1.000000,6.000000,-6.000000,2.000000,1.000000,0.000000,1.000000
1297288.378338,-6.000000,-76.000000,-5.000000,-1.000000,6.000000,4.000000,-1.000000,-2.000000
1297288.385672,-5.000000,-8.000000,-4.000000,-4.000000,-3.000000,-4.000000,1.000000,0.000000
1297288.385733,4.000000,-9.000000,2.000000,-7.000000,-3.000000,3.000000,-1.000000,2.000000
1297288.393452,-6.000000,-13.000000,2.000000,-1.000000,1.000000,-3.000000,-1.000000,-3.000000
1297288.393487,2.000000,-2.000000,-6.000000,-1.000000,2.000000,-4.000000,-4.000000,0.000000
1297288.400166,-1.000000,8.000000,-1.000000,-4.000000,-16.000000,0.000000,-3.000000,0.000000
1297288.400197,-1.000000,-5.000000,2.000000,-2.000000,4.000000,-5.000000,2.000000,0.000000
1297288.415127,-6.000000,-15.000000,-3.000000,-4.000000,0.000000,0.000000,-2.000000,1.000000
1297288.415174,-1.000000,-2.000000,3.000000,2.000000,-4.000000,1.000000,-2.000000,0.000000
1297288.429917,0.000000,-11.000000,-6.000000,3.000000,3.000000,-2.000000,-4.000000,1.000000
1297288.429948,3.000000,20.000000,-4.000000,-2.000000,1.000000,-1.000000,-2.000000,1.000000
1297288.438033,4.000000,1.000000,1.000000,3.000000,1.000000,-2.000000,-2.000000,-5.000000
1297288.438080,-1.000000,0.000000,-3.000000,1.000000,2.000000,-3.000000,2.000000,-6.000000
1297288.467671,-2.000000,2.000000,-1.000000,1.000000,5.000000,9.000000,2.000000,6.000000
1297288.467701,6.000000,-3.000000,7.000000,-7.000000,-12.000000,-2.000000,1.000000,-2.000000
1297288.475184,1.000000,1.000000,-5.000000,-1.000000,-3.000000,-3.000000,1.000000,0.000000
1297288.475706,5.000000,-8.000000,-2.000000,0.000000,0.000000,1.000000,-5.000000,-1.000000
1297288.476693,15.000000,127.000000,1.000000,6.000000,15.000000,7.000000,-1.000000,8.000000
1297288.476717,-2.000000,-7.000000,4.000000,3.000000,-6.000000,-1.000000,0.000000,-4.000000
1297288.476826,-9.000000,10.000000,-5.000000,-6.000000,-8.000000,1.000000,1.000000,-1.000000
1297288.476842,1.000000,-4.000000,2.000000,0.000000,-3.000000,0.000000,2.000000,-3.000000
1297288.482237,0.000000,2.000000,1.000000,-3.000000,-2.000000,4.000000,-3.000000,-2.000000
1297288.482263,10.000000,101.000000,1.000000,12.000000,16.000000,6.000000,-5.000000,2.000000
1297288.505170,3.000000,1.000000,-2.000000,-1.000000,-4.000000,0.000000,1.000000,-1.000000
1297288.505203,-11.000000,4.000000,1.000000,1.000000,-7.000000,1.000000,-6.000000,-2.000000
1297288.512325,1.000000,-18.000000,1.000000,-4.000000,-8.000000,-2.000000,1.000000,1.000000
1297288.512411,-7.000000,0.000000,-4.000000,0.000000,2.000000,3.000000,2.000000,-4.000000
1297288.513515,3.000000,-2.000000,7.000000,-1.000000,-1.000000,2.000000,-1.000000,4.000000
1297288.513558,3.000000,0.000000,0.000000,-5.000000,2.000000,1.000000,1.000000,-1.000000
1297288.520296,-11.000000,-84.000000,0.000000,-2.000000,-9.000000,1.000000,-3.000000,-2.000000
1297288.520343,7.000000,-29.000000,-9.000000,-5.000000,-3.000000,1.000000,-2.000000,-5.000000
1297288.542740,-2.000000,-16.000000,0.000000,1.000000,1.000000,-3.000000,-4.000000,1.000000
1297288.542793,3.000000,-6.000000,2.000000,2.000000,-5.000000,-2.000000,-4.000000,0.000000
1297288.581308,-5.000000,-3.000000,-2.000000,-9.000000,-5.000000,1.000000,1.000000,0.000000
1297288.581462,4.000000,-8.000000,-3.000000,2.000000,2.000000,0.000000,1.000000,1.000000
1297288.581888,1.000000,-5.000000,2.000000,1.000000,2.000000,-2.000000,1.000000,-1.000000
1297288.581954,2.000000,0.000000,1.000000,-7.000000,-1.000000,0.000000,1.000000,-2.000000
1297288.584038,-1.000000,-1.000000,-10.000000,1.000000,-5.000000,-3.000000,-2.000000,1.000000
1297288.584078,15.000000,119.000000,6.000000,6.000000,11.000000,5.000000,-1.000000,5.000000
1297288.584645,0.000000,-16.000000,-4.000000,2.000000,-7.000000,-1.000000,1.000000,0.000000
1297288.584673,2.000000,-1.000000,-4.000000,0.000000,-6.000000,0.000000,-3.000000,-3.000000
1297288.585661,-4.000000,34.000000,3.000000,6.000000,7.000000,-3.000000,3.000000,5.000000
1297288.585684,-7.000000,5.000000,3.000000,4.000000,-1.000000,3.000000,1.000000,-7.000000
1297288.587315,-4.000000,31.000000,2.000000,-1.000000,2.000000,-3.000000,-3.000000,-4.000000
1297288.587341,3.000000,-2.000000,-5.000000,-6.000000,-8.000000,0.000000,-3.000000,-3.000000
1297288.617386,-2.000000,-5.000000,1.000000,-4.000000,-2.000000,-5.000000,-1.000000,1.000000
1297288.617415,-4.000000,4.000000,-1.000000,0.000000,-3.000000,-4.000000,-1.000000,-4.000000
1297288.624827,12.000000,50.000000,-4.000000,5.000000,9.000000,-1.000000,-1.000000,0.000000
1297288.624892,8.000000,127.000000,6.000000,17.000000,20.000000,6.000000,-3.000000,7.000000
1297288.626428,-3.000000,-8.000000,4.000000,3.000000,-5.000000,2.000000,-3.000000,-3.000000
1297288.626454,-4.000000,-7.000000,0.000000,-3.000000,2.000000,2.000000,1.000000,1.000000
1297288.632216,-4.000000,-5.000000,-2.000000,-4.000000,2.000000,-2.000000,0.000000,3.000000
1297288.632244,-21.000000,15.000000,-1.000000,-1.000000,2.000000,3.000000,1.000000,-7.000000
1297288.655065,7.000000,-7.000000,-5.000000,-3.000000,-3.000000,-1.000000,-5.000000,-1.000000
1297288.655093,6.000000,127.000000,5.000000,16.000000,22.000000,6.000000,-1.000000,8.000000
1297288.662448,1.000000,-6.000000,-7.000000,0.000000,1.000000,-4.000000,-1.000000,-4.000000
1297288.662567,1.000000,-7.000000,-3.000000,-1.000000,-2.000000,-3.000000,-1.000000,-1.000000
1297288.677482,-3.000000,-4.000000,0.000000,0.000000,-3.000000,-2.000000,-2.000000,0.000000
1297288.677512,-8.000000,4.000000,-8.000000,-2.000000,8.000000,4.000000,0.000000,-2.000000
1297288.684758,-4.000000,-3.000000,2.000000,3.000000,-1.000000,-1.000000,-6.000000,-1.000000
1297288.684787,-4.000000,30.000000,4.000000,0.000000,6.000000,-2.000000,-1.000000,0.000000
1297288.707762,-1.000000,4.000000,4.000000,4.000000,1.000000,3.000000,0.000000,2.000000
1297288.708057,-2.000000,-2.000000,1.000000,-2.000000,2.000000,-2.000000,0.000000,-3.000000
1297288.709555,-1.000000,23.000000,4.000000,-1.000000,-5.000000,2.000000,2.000000,5.000000
1297288.710067,-4.000000,-7.000000,-5.000000,-2.000000,2.000000,0.000000,1.000000,-4.000000
1297288.711080,4.000000,-2.000000,-7.000000,-7.000000,-4.000000,0.000000,3.000000,3.000000
1297288.711256,-2.000000,-9.000000,0.000000,5.000000,3.000000,3.000000,-3.000000,-2.000000
1297288.711685,-11.000000,-12.000000,1.000000,3.000000,-7.000000,-4.000000,-2.000000,-2.000000
1297288.711710,-2.000000,-10.000000,-6.000000,-1.000000,0.000000,1.000000,2.000000,1.000000
1297288.729865,-1.000000,-7.000000,-3.000000,-3.000000,-5.000000,-5.000000,-3.000000,-1.000000
1297288.729894,3.000000,-79.000000,-7.000000,-6.000000,0.000000,-3.000000,-5.000000,-4.000000
1297288.745014,-2.000000,-9.000000,2.000000,-1.000000,5.000000,-2.000000,-1.000000,-2.000000
1297288.745070,5.000000,-3.000000,-1.000000,2.000000,-4.000000,-1.000000,1.000000,-3.000000
1297288.746294,1.000000,6.000000,2.000000,0.000000,-1.000000,-6.000000,-4.000000,2.000000
1297288.746315,1.000000,0.000000,1.000000,-2.000000,0.000000,0.000000,-4.000000,0.000000
1297288.752853,-3.000000,-5.000000,-2.000000,1.000000,-4.000000,0.000000,-1.000000,-2.000000
1297288.752881,0.000000,-14.000000,3.000000,4.000000,1.000000,1.000000,-3.000000,-2.000000
1297288.767777,-6.000000,-9.000000,5.000000,-6.000000,-5.000000,0.000000,4.000000,-2.000000
1297288.767806,-4.000000,26.000000,-2.000000,-6.000000,-4.000000,-3.000000,-2.000000,2.000000
1297288.782958,1.000000,92.000000,-3.000000,5.000000,6.000000,6.000000,-2.000000,3.000000
1297288.783013,2.000000,-2.000000,-3.000000,-3.000000,-5.000000,-2.000000,1.000000,-1.000000
1297288.797607,19.000000,2.000000,1.000000,3.000000,-3.000000,3.000000,0.000000,3.000000
1297288.797653,0.000000,-59.000000,-11.000000,-5.000000,0.000000,-4.000000,1.000000,-4.000000
1297288.819960,-1.000000,18.000000,2.000000,-7.000000,-8.000000,-1.000000,-1.000000,2.000000
1297288.819989,3.000000,-6.000000,5.000000,6.000000,0.000000,-2.000000,-1.000000,-4.000000
1297288.857752,-2.000000,-28.000000,-7.000000,-6.000000,-8.000000,-1.000000,-2.000000,-1.000000
1297288.857791,-1.000000,-11.000000,-1.000000,-5.000000,4.000000,1.000000,-2.000000,3.000000
1297288.864798,5.000000,20.000000,5.000000,0.000000,8.000000,-2.000000,1.000000,2.000000
1297288.864825,-6.000000,-59.000000,0.000000,-5.000000,-7.000000,-3.000000,-1.000000,-1.000000
1297288.903096,5.000000,-13.000000,-6.000000,-1.000000,1.000000,-1.000000,-1.000000,-1.000000
1297288.903124,-4.000000,-48.000000,-4.000000,-5.000000,-7.000000,-5.000000,-4.000000,4.000000
1297288.903306,6.000000,23.000000,-2.000000,0.000000,0.000000,8.000000,0.000000,7.000000
1297288.903351,-3.000000,0.000000,7.000000,4.000000,-1.000000,-1.000000,0.000000,1.000000
1297288.905020,-8.000000,-2.000000,-2.000000,4.000000,9.000000,0.000000,-1.000000,4.000000
1297288.905071,-14.000000,11.000000,2.000000,-1.000000,8.000000,1.000000,2.000000,-2.000000
1297288.905665,1.000000,-4.000000,-3.000000,-7.000000,-8.000000,-4.000000,1.000000,0.000000
1297288.905694,0.000000,0.000000,-2.000000,-4.000000,1.000000,2.000000,-3.000000,-3.000000
1297288.907087,-3.000000,-16.000000,-3.000000,-10.000000,-5.000000,-1.000000,-1.000000,-5.000000
1297288.907140,5.000000,-9.000000,-2.000000,4.000000,4.000000,0.000000,-1.000000,3.000000
1297288.907371,-22.000000,-45.000000,0.000000,1.000000,-1.000000,-1.000000,-3.000000,-3.000000
1297288.907422,-11.000000,-29.000000,-6.000000,-9.000000,-4.000000,0.000000,4.000000,1.000000
1297288.909884,6.000000,-101.000000,-4.000000,-1.000000,-2.000000,-1.000000,-4.000000,-5.000000
1297288.909927,3.000000,-9.000000,2.000000,-4.000000,-4.000000,-4.000000,0.000000,1.000000
1297288.932912,-5.000000,-8.000000,-1.000000,1.000000,1.000000,2.000000,-3.000000,-4.000000
1297288.932939,0.000000,5.000000,0.000000,-9.000000,-4.000000,-4.000000,-1.000000,-3.000000
1297288.933076,-9.000000,-41.000000,0.000000,5.000000,2.000000,-8.000000,-1.000000,-8.000000
1297288.933092,1.000000,-14.000000,0.000000,1.000000,3.000000,0.000000,1.000000,-1.000000
1297288.939850,-34.000000,20.000000,6.000000,-4.000000,-4.000000,-2.000000,-1.000000,-4.000000
1297288.939901,-3.000000,-28.000000,-3.000000,-6.000000,0.000000,1.000000,-1.000000,2.000000
1297288.947325,21.000000,66.000000,-2.000000,10.000000,7.000000,6.000000,0.000000,6.000000
1297288.947351,4.000000,14.000000,-4.000000,-1.000000,4.000000,-4.000000,-6.000000,-1.000000
1297288.962508,-5.000000,38.000000,-10.000000,4.000000,9.000000,-3.000000,-2.000000,1.000000
1297288.962537,-2.000000,6.000000,-4.000000,0.000000,0.000000,1.000000,2.000000,-1.000000
1297288.970095,0.000000,-2.000000,-4.000000,-2.000000,-7.000000,-3.000000,-4.000000,3.000000
1297288.970126,4.000000,-6.000000,-4.000000,0.000000,2.000000,-1.000000,2.000000,1.000000
1297288.978536,-7.000000,-4.000000,-4.000000,-4.000000,-1.000000,1.000000,1.000000,-3.000000
1297288.978565,-5.000000,-1.000000,7.000000,-1.000000,2.000000,2.000000,-2.000000,-2.000000
1297289.022455,1.000000,26.000000,-3.000000,-1.000000,-1.000000,5.000000,0.000000,0.000000
1297289.022483,7.000000,-15.000000,-2.000000,-3.000000,0.000000,0.000000,-4.000000,-2.000000
1297289.045072,1.000000,-11.000000,-9.000000,-3.000000,-9.000000,-3.000000,-3.000000,-5.000000
1297289.045242,24.000000,82.000000,1.000000,-1.000000,0.000000,5.000000,-1.000000,6.000000
1297289.052584,8.000000,120.000000,4.000000,7.000000,12.000000,3.000000,-2.000000,2.000000
1297289.052615,2.000000,-4.000000,4.000000,-2.000000,-6.000000,-2.000000,-4.000000,-1.000000
1297289.061259,-2.000000,-50.000000,0.000000,-2.000000,-5.000000,-3.000000,-4.000000,-4.000000
1297289.061324,1.000000,-4.000000,6.000000,4.000000,-5.000000,-1.000000,-6.000000,-3.000000
1297289.061838,0.000000,-3.000000,1.000000,0.000000,3.000000,-2.000000,-1.000000,2.000000
1297289.061887,3.000000,4.000000,3.000000,2.000000,-6.000000,-5.000000,1.000000,2.000000
1297289.064824,-11.000000,-62.000000,-6.000000,-2.000000,-1.000000,-1.000000,-5.000000,-5.000000
1297289.064869,-8.000000,-13.000000,1.000000,-2.000000,-1.000000,-5.000000,-6.000000,-5.000000
1297289.065020,-3.000000,-3.000000,-3.000000,-3.000000,-6.000000,-4.000000,-3.000000,-4.000000
1297289.065053,-1.000000,-1.000000,4.000000,-5.000000,1.000000,1.000000,0.000000,-3.000000
1297289.065966,8.000000,71.000000,2.000000,3.000000,8.000000,5.000000,1.000000,1.000000
1297289.066012,-4.000000,-54.000000,-10.000000,-4.000000,-9.000000,-7.000000,-2.000000,-4.000000
1297289.067446,-20.000000,-8.000000,-3.000000,2.000000,0.000000,1.000000,-1.000000,-4.000000
1297289.067475,5.000000,-11.000000,4.000000,-3.000000,-4.000000,-3.000000,-2.000000,4.000000
1297289.097515,10.000000,107.000000,1.000000,7.000000,7.000000,3.000000,-4.000000,0.000000
1297289.097573,-3.000000,5.000000,-2.000000,-5.000000,-3.000000,-3.000000,-2.000000,-1.000000
1297289.098898,-9.000000,-4.000000,-1.000000,-3.000000,-7.000000,0.000000,0.000000,-8.000000
1297289.098924,-8.000000,-20.000000,2.000000,0.000000,-5.000000,-1.000000,-1.000000,-2.000000
1297289.100148,-1.000000,15.000000,-3.000000,-4.000000,-2.000000,-1.000000,0.000000,1.000000
1297289.100180,-5.000000,-2.000000,-3.000000,0.000000,1.000000,-2.000000,-5.000000,-1.000000
1297289.112783,4.000000,2.000000,5.000000,-3.000000,-8.000000,3.000000,1.000000,2.000000
1297289.112981,-4.000000,3.000000,-4.000000,-3.000000,-6.000000,-4.000000,-3.000000,1.000000
1297289.142793,-5.000000,34.000000,3.000000,-4.000000,7.000000,0.000000,1.000000,5.000000
1297289.142822,2.000000,-5.000000,-1.000000,3.000000,2.000000,-5.000000,-1.000000,-4.000000
1297289.149896,14.000000,96.000000,2.000000,10.000000,18.000000,3.000000,-2.000000,0.000000
1297289.149925,-4.000000,-7.000000,4.000000,1.000000,-5.000000,-1.000000,2.000000,-5.000000
1297289.181803,5.000000,-19.000000,0.000000,-7.000000,-5.000000,0.000000,-2.000000,1.000000
1297289.182351,-5.000000,-10.000000,-5.000000,-6.000000,-9.000000,-5.000000,-3.000000,-6.000000
1297289.183792,-4.000000,-7.000000,-3.000000,-2.000000,1.000000,4.000000,-2.000000,3.000000
1297289.183821,-3.000000,3.000000,4.000000,5.000000,0.000000,-1.000000,-5.000000,-1.000000
1297289.183966,5.000000,23.000000,2.000000,5.000000,13.000000,0.000000,1.000000,1.000000
1297289.184003,-11.000000,-78.000000,-1.000000,-4.000000,0.000000,0.000000,-2.000000,-5.000000
1297289.184227,-6.000000,-71.000000,-8.000000,-5.000000,1.000000,-2.000000,1.000000,-5.000000
1297289.184274,-7.000000,19.000000,5.000000,1.000000,0.000000,-2.000000,0.000000,0.000000
1297289.187766,6.000000,-3.000000,-1.000000,-7.000000,-3.000000,-4.000000,-3.000000,-4.000000
1297289.187796,-1.000000,0.000000,-7.000000,-3.000000,-3.000000,0.000000,-2.000000,-2.000000
1297289.209798,-3.000000,-1.000000,-4.000000,3.000000,0.000000,-3.000000,-2.000000,-3.000000
1297289.209837,7.000000,-1.000000,-4.000000,-2.000000,4.000000,3.000000,-1.000000,-3.000000
1297289.217184,-6.000000,-3.000000,0.000000,-13.000000,-13.000000,-4.000000,0.000000,-4.000000
1297289.217236,3.000000,-7.000000,-5.000000,1.000000,-5.000000,0.000000,1.000000,-4.000000
1297289.218736,3.000000,-17.000000,-2.000000,-3.000000,-4.000000,-1.000000,-3.000000,-5.000000
1297289.218762,0.000000,9.000000,1.000000,-3.000000,-5.000000,-1.000000,-3.000000,-1.000000
1297289.232646,17.000000,69.000000,-4.000000,3.000000,11.000000,3.000000,-2.000000,3.000000
1297289.232680,-2.000000,-4.000000,-5.000000,-2.000000,4.000000,1.000000,-1.000000,-1.000000
1297289.255298,2.000000,-5.000000,4.000000,-5.000000,-11.000000,-5.000000,1.000000,-1.000000
1297289.255390,1.000000,72.000000,-5.000000,2.000000,-3.000000,9.000000,2.000000,4.000000
1297289.262733,-8.000000,-47.000000,-3.000000,-3.000000,0.000000,2.000000,3.000000,-2.000000
1297289.262759,-9.000000,-8.000000,-2.000000,1.000000,3.000000,-3.000000,0.000000,-4.000000
1297289.300273,-10.000000,-9.000000,4.000000,3.000000,6.000000,2.000000,-3.000000,-1.000000
1297289.300425,2.000000,-9.000000,0.000000,4.000000,-1.000000,-1.000000,1.000000,-10.000000
1297289.308146,12.000000,115.000000,3.000000,5.000000,0.000000,5.000000,0.000000,5.000000
1297289.308421,-1.000000,-8.000000,-5.000000,-1.000000,3.000000,-2.000000,-1.000000,1.000000
1297289.310093,7.000000,-1.000000,4.000000,0.000000,-1.000000,-2.000000,-4.000000,2.000000
1297289.310136,-5.000000,28.000000,2.000000,-1.000000,-15.000000,4.000000,3.000000,-2.000000
1297289.311328,-14.000000,21.000000,3.000000,-4.000000,2.000000,2.000000,0.000000,0.000000
1297289.311380,3.000000,-3.000000,-2.000000,1.000000,0.000000,1.000000,2.000000,0.000000
1297289.312343,7.000000,51.000000,-6.000000,5.000000,11.000000,3.000000,3.000000,-1.000000
1297289.312397,7.000000,69.000000,1.000000,11.000000,9.000000,2.000000,-3.000000,8.000000
1297289.323273,3.000000,-7.000000,-1.000000,3.000000,-7.000000,-5.000000,-2.000000,1.000000
1297289.323306,-7.000000,-15.000000,-9.000000,2.000000,1.000000,-3.000000,4.000000,-1.000000
1297289.324538,10.000000,45.000000,-6.000000,-4.000000,4.000000,4.000000,-2.000000,-4.000000
1297289.324565,1.000000,19.000000,-1.000000,0.000000,6.000000,-1.000000,2.000000,0.000000
1297289.338094,-6.000000,-8.000000,-4.000000,-1.000000,2.000000,-1.000000,0.000000,-5.000000
1297289.338142,5.000000,2.000000,-4.000000,2.000000,-1.000000,0.000000,-1.000000,1.000000
1297289.352713,-6.000000,-5.000000,-6.000000,-5.000000,1.000000,3.000000,1.000000,-5.000000
1297289.352741,1.000000,-11.000000,3.000000,-10.000000,-14.000000,-1.000000,4.000000,0.000000
1297289.375085,2.000000,-5.000000,-9.000000,-3.000000,2.000000,-4.000000,-5.000000,-1.000000
1297289.375116,-3.000000,1.000000,-7.000000,4.000000,-4.000000,1.000000,-3.000000,2.000000
1297289.390056,-3.000000,-67.000000,-7.000000,-7.000000,-8.000000,-5.000000,0.000000,-6.000000
1297289.390084,7.000000,1.000000,4.000000,0.000000,4.000000,-2.000000,-2.000000,-2.000000
1297289.413557,-10.000000,17.000000,0.000000,-1.000000,4.000000,1.000000,1.000000,-1.000000
1297289.413596,0.000000,-4.000000,-5.000000,2.000000,4.000000,-1.000000,-3.000000,-4.000000
1297289.415155,-1.000000,6.000000,2.000000,-5.000000,-3.000000,-2.000000,2.000000,-1.000000
1297289.415180,0.000000,-3.000000,-4.000000,0.000000,1.000000,-1.000000,2.000000,2.000000
1297289.415339,-2.000000,14.000000,3.000000,2.000000,0.000000,-2.000000,-3.000000,0.000000
1297289.415399,-1.000000,-3.000000,-6.000000,-2.000000,7.000000,1.000000,-3.000000,2.000000
1297289.419883,-2.000000,2.000000,-3.000000,1.000000,8.000000,-2.000000,0.000000,3.000000
1297289.419911,18.000000,98.000000,-3.000000,7.000000,17.000000,1.000000,-3.000000,8.000000
1297289.427394,-4.000000,10.000000,2.000000,3.000000,-4.000000,1.000000,-2.000000,-5.000000
1297289.427421,1.000000,-10.000000,1.000000,0.000000,1.000000,2.000000,-2.000000,-1.000000
1297289.457684,5.000000,70.000000,0.000000,8.000000,4.000000,4.000000,0.000000,1.000000
1297289.457712,-4.000000,0.000000,6.000000,-3.000000,-1.000000,-1.000000,-3.000000,-3.000000
1297289.464775,-4.000000,-7.000000,-1.000000,9.000000,-7.000000,-4.000000,-5.000000,-1.000000
1297289.464802,16.000000,59.000000,0.000000,5.000000,-7.000000,4.000000,1.000000,3.000000
1297289.502544,-17.000000,8.000000,2.000000,0.000000,6.000000,-1.000000,-2.000000,0.000000
1297289.502573,4.000000,-12.000000,-1.000000,3.000000,1.000000,1.000000,-3.000000,2.000000
1297289.509867,-4.000000,0.000000,-4.000000,-4.000000,3.000000,-3.000000,2.000000,0.000000
1297289.509895,4.000000,-4.000000,-8.000000,-1.000000,1.000000,-1.000000,-3.000000,-3.000000
1297289.527016,6.000000,-14.000000,-11.000000,-6.000000,-6.000000,-4.000000,-4.000000,-4.000000
1297289.527048,6.000000,-15.000000,5.000000,-2.000000,-8.000000,-1.000000,1.000000,-3.000000
1297289.527695,0.000000,-1.000000,-1.000000,-2.000000,-1.000000,-2.000000,-1.000000,-4.000000
1297289.527730,3.000000,23.000000,1.000000,7.000000,7.000000,-2.000000,-3.000000,5.000000
1297289.528128,6.000000,-14.000000,-6.000000,-3.000000,-6.000000,1.000000,0.000000,-3.000000
1297289.528152,0.000000,-4.000000,0.000000,0.000000,-2.000000,2.000000,4.000000,-2.000000
1297289.532620,-10.000000,-73.000000,-9.000000,-6.000000,-4.000000,-2.000000,-3.000000,-4.000000
1297289.532648,-1.000000,-10.000000,1.000000,-2.000000,-4.000000,-2.000000,2.000000,-5.000000
1297289.533486,9.000000,35.000000,-17.000000,-5.000000,-1.000000,2.000000,-2.000000,1.000000
1297289.533512,6.000000,45.000000,2.000000,6.000000,8.000000,-2.000000,-4.000000,3.000000
1297289.534773,6.000000,5.000000,4.000000,-6.000000,-15.000000,0.000000,1.000000,-4.000000
1297289.534800,-4.000000,-7.000000,-4.000000,-3.000000,0.000000,-3.000000,-5.000000,0.000000
1297289.539842,-7.000000,-9.000000,-3.000000,1.000000,-1.000000,0.000000,-1.000000,0.000000
1297289.539870,-7.000000,5.000000,-2.000000,0.000000,-3.000000,-1.000000,0.000000,-3.000000
1297289.562314,0.000000,1.000000,-5.000000,0.000000,-3.000000,-4.000000,0.000000,2.000000
1297289.562343,-2.000000,-6.000000,1.000000,5.000000,-7.000000,-3.000000,-4.000000,-3.000000
1297289.571322,-1.000000,-15.000000,-7.000000,-1.000000,-2.000000,-1.000000,0.000000,-2.000000
1297289.571350,-3.000000,2.000000,-3.000000,-3.000000,2.000000,-1.000000,-1.000000,1.000000
1297289.585419,2.000000,7.000000,4.000000,0.000000,1.000000,-2.000000,3.000000,2.000000
1297289.585474,-2.000000,-2.000000,-12.000000,-3.000000,-4.000000,-3.000000,-3.000000,-6.000000
1297289.600190,-3.000000,-5.000000,8.000000,-5.000000,-2.000000,-4.000000,-3.000000,-1.000000
1297289.600242,-3.000000,-3.000000,-2.000000,1.000000,6.000000,-2.000000,0.000000,-4.000000
1297289.614737,-1.000000,-3.000000,1.000000,-1.000000,1.000000,0.000000,0.000000,-2.000000
1297289.614765,-10.000000,-19.000000,-3.000000,-1.000000,-2.000000,-2.000000,1.000000,-5.000000
1297289.622406,-1.000000,1.000000,-3.000000,-6.000000,-3.000000,-2.000000,-2.000000,1.000000
1297289.622435,-1.000000,-5.000000,1.000000,-3.000000,0.000000,3.000000,1.000000,-3.000000
1297289.653303,14.000000,4.000000,1.000000,-4.000000,-8.000000,-4.000000,-2.000000,0.000000
1297289.653356,-4.000000,-35.000000,0.000000,-5.000000,-8.000000,-1.000000,-3.000000,-2.000000
1297289.653686,6.000000,-14.000000,2.000000,3.000000,5.000000,-3.000000,2.000000,-7.000000
1297289.653724,-1.000000,-5.000000,-3.000000,-1.000000,0.000000,-1.000000,-2.000000,-2.000000
1297289.655812,2.000000,-32.000000,-4.000000,-5.000000,0.000000,-2.000000,-2.000000,1.000000
1297289.655838,-18.000000,3.000000,0.000000,-1.000000,5.000000,-1.000000,-1.000000,-4.000000
1297289.655968,-12.000000,-77.000000,-1.000000,-9.000000,-12.000000,-6.000000,-5.000000,-1.000000
1297289.655986,0.000000,9.000000,-2.000000,1.000000,-1.000000,-1.000000,-4.000000,2.000000
1297289.657126,2.000000,-2.000000,2.000000,1.000000,-9.000000,-4.000000,-3.000000,2.000000
1297289.657152,1.000000,-1.000000,-3.000000,2.000000,-4.000000,-1.000000,3.000000,-2.000000
1297289.659814,-5.000000,-63.000000,0.000000,-5.000000,0.000000,0.000000,-3.000000,-2.000000
1297289.659842,-6.000000,-12.000000,0.000000,-9.000000,-11.000000,0.000000,-1.000000,-1.000000
1297289.682282,1.000000,1.000000,-1.000000,-3.000000,1.000000,1.000000,-5.000000,-1.000000
1297289.682309,8.000000,30.000000,-2.000000,4.000000,4.000000,2.000000,-1.000000,1.000000
1297289.689857,0.000000,-15.000000,-12.000000,-7.000000,-7.000000,-1.000000,0.000000,0.000000
1297289.690118,8.000000,-8.000000,3.000000,-3.000000,-3.000000,3.000000,-2.000000,-1.000000
1297289.697480,4.000000,-2.000000,-8.000000,-3.000000,2.000000,0.000000,-4.000000,-1.000000
1297289.697508,2.000000,18.000000,0.000000,2.000000,0.000000,-2.000000,-1.000000,-1.000000
1297289.705571,-6.000000,-8.000000,-5.000000,3.000000,-2.000000,-3.000000,-3.000000,-2.000000
1297289.705642,-1.000000,0.000000,-8.000000,-4.000000,3.000000,-3.000000,2.000000,1.000000
1297289.742356,2.000000,9.000000,2.000000,-5.000000,3.000000,-4.000000,1.000000,-1.000000
1297289.742387,4.000000,-15.000000,3.000000,-1.000000,-1.000000,1.000000,1.000000,-1.000000
1297289.773856,-3.000000,-11.000000,-3.000000,-1.000000,3.000000,0.000000,-1.000000,1.000000
1297289.773905,5.000000,-29.000000,1.000000,3.000000,-3.000000,-1.000000,4.000000,-1.000000
1297289.775337,1.000000,-8.000000,-3.000000,-1.000000,-9.000000,-4.000000,2.000000,-1.000000
1297289.775398,0.000000,-6.000000,6.000000,-2.000000,-11.000000,-1.000000,0.000000,3.000000
1297289.775973,-11.000000,-50.000000,3.000000,2.000000,1.000000,-3.000000,-7.000000,-6.000000
1297289.776760,-4.000000,-6.000000,-5.000000,0.000000,-1.000000,-2.000000,-3.000000,-2.000000
1297289.777836,-1.000000,77.000000,-4.000000,1.000000,-8.000000,4.000000,-2.000000,1.000000
1297289.777859,-4.000000,-33.000000,2.000000,-2.000000,-2.000000,-3.000000,0.000000,2.000000
1297289.777970,2.000000,-21.000000,-8.000000,2.000000,4.000000,-3.000000,0.000000,-3.000000
1297289.777985,-6.000000,-1.000000,2.000000,-5.000000,-1.000000,2.000000,-1.000000,-3.000000
1297289.779678,2.000000,-9.000000,-3.000000,-4.000000,-6.000000,0.000000,-1.000000,-5.000000
1297289.779705,-5.000000,-17.000000,-6.000000,-2.000000,2.000000,1.000000,-2.000000,-1.000000
1297289.802406,-2.000000,25.000000,2.000000,6.000000,4.000000,1.000000,2.000000,0.000000
1297289.802458,-2.000000,-72.000000,3.000000,-11.000000,-8.000000,-4.000000,-4.000000,-2.000000
1297289.803526,0.000000,-8.000000,-1.000000,0.000000,1.000000,-1.000000,-1.000000,-3.000000
1297289.803738,2.000000,-3.000000,2.000000,-13.000000,-2.000000,1.000000,-2.000000,-1.000000
1297289.817792,-11.000000,3.000000,-5.000000,3.000000,-3.000000,-2.000000,-2.000000,-3.000000
1297289.817821,2.000000,3.000000,-4.000000,-6.000000,-7.000000,-2.000000,-5.000000,-6.000000
1297289.825399,-1.000000,-12.000000,-2.000000,0.000000,7.000000,-1.000000,-4.000000,-7.000000
1297289.825457,0.000000,13.000000,8.000000,-3.000000,-13.000000,-3.000000,1.000000,-5.000000
1297289.855061,0.000000,19.000000,5.000000,1.000000,-1.000000,2.000000,2.000000,-4.000000
1297289.855125,1.000000,-5.000000,-3.000000,0.000000,-8.000000,-2.000000,-1.000000,-1.000000
1297289.863234,-5.000000,2.000000,2.000000,-2.000000,-1.000000,-4.000000,-3.000000,1.000000
1297289.863267,6.000000,-1.000000,3.000000,-3.000000,-6.000000,-1.000000,-1.000000,0.000000
1297289.864855,1.000000,-2.000000,6.000000,-2.000000,-1.000000,6.000000,0.000000,-1.000000
1297289.864881,5.000000,-6.000000,-6.000000,3.000000,-3.000000,-5.000000,-2.000000,-2.000000
1297289.865021,5.000000,-1.000000,1.000000,-4.000000,7.000000,2.000000,-1.000000,0.000000
1297289.865038,-3.000000,-24.000000,-7.000000,-8.000000,3.000000,0.000000,-2.000000,0.000000
1297289.893934,2.000000,-6.000000,0.000000,-3.000000,-7.000000,0.000000,1.000000,-4.000000
1297289.894539,-9.000000,-73.000000,-1.000000,-9.000000,-3.000000,-5.000000,-2.000000,-1.000000
1297289.895232,-4.000000,-38.000000,0.000000,-4.000000,-9.000000,-5.000000,-1.000000,-5.000000
1297289.895259,-15.000000,-14.000000,2.000000,-4.000000,-6.000000,-2.000000,-3.000000,-4.000000
1297289.895785,4.000000,-9.000000,-1.000000,1.000000,2.000000,3.000000,3.000000,2.000000
1297289.895811,2.000000,-9.000000,2.000000,1.000000,7.000000,-5.000000,-3.000000,-2.000000
1297289.900741,2.000000,-5.000000,-1.000000,-1.000000,-2.000000,-1.000000,2.000000,-6.000000
1297289.900819,-3.000000,-11.000000,-1.000000,-3.000000,0.000000,1.000000,1.000000,3.000000
1297289.937330,6.000000,-9.000000,2.000000,-3.000000,-3.000000,-1.000000,-1.000000,2.000000
1297289.937358,0.000000,-9.000000,-7.000000,-6.000000,-5.000000,-3.000000,-3.000000,-1.000000
1297289.944986,-4.000000,-3.000000,6.000000,1.000000,-3.000000,-5.000000,-4.000000,-4.000000
1297289.945015,6.000000,-8.000000,-1.000000,-11.000000,-5.000000,3.000000,0.000000,5.000000
1297289.974872,21.000000,76.000000,0.000000,-4.000000,-8.000000,0.000000,-1.000000,-1.000000
1297289.974901,-1.000000,-7.000000,-5.000000,-8.000000,4.000000,-2.000000,0.000000,-3.000000
1297289.983137,-1.000000,1.000000,6.000000,-7.000000,-18.000000,-5.000000,1.000000,0.000000
1297289.983202,0.000000,24.000000,1.000000,0.000000,-2.000000,1.000000,0.000000,3.000000
1297289.985133,0.000000,-23.000000,1.000000,2.000000,-1.000000,-2.000000,-1.000000,-3.000000
1297289.985163,-19.000000,17.000000,-4.000000,2.000000,14.000000,-3.000000,-4.000000,-4.000000
1297289.985630,-8.000000,10.000000,3.000000,6.000000,-2.000000,0.000000,-2.000000,2.000000
1297289.985658,-2.000000,-13.000000,-2.000000,-4.000000,2.000000,-4.000000,-2.000000,1.000000
1297289.986881,-1.000000,-14.000000,2.000000,-2.000000,-8.000000,0.000000,-3.000000,0.000000
1297289.986905,8.000000,93.000000,-6.000000,5.000000,8.000000,5.000000,0.000000,4.000000
1297290.013859,1.000000,-6.000000,6.000000,-1.000000,-6.000000,3.000000,1.000000,-1.000000
1297290.013892,0.000000,-3.000000,-1.000000,-5.000000,-5.000000,2.000000,-4.000000,5.000000
1297290.014068,6.000000,12.000000,9.000000,-1.000000,-11.000000,0.000000,0.000000,-3.000000
1297290.014100,-6.000000,-8.000000,-2.000000,-2.000000,-7.000000,-1.000000,-1.000000,2.000000
1297290.015755,-6.000000,-16.000000,-3.000000,0.000000,5.000000,1.000000,1.000000,-4.000000
1297290.015785,1.000000,13.000000,2.000000,1.000000,0.000000,0.000000,2.000000,-4.000000
1297290.020215,-1.000000,-43.000000,-3.000000,-7.000000,-6.000000,-2.000000,-7.000000,-4.000000
1297290.020243,-3.000000,10.000000,-1.000000,2.000000,1.000000,2.000000,0.000000,-1.000000
1297290.065163,-10.000000,-20.000000,-5.000000,-1.000000,0.000000,2.000000,0.000000,-4.000000
1297290.065309,-3.000000,42.000000,-6.000000,2.000000,12.000000,1.000000,1.000000,3.000000
1297290.079937,-18.000000,-84.000000,-6.000000,-6.000000,-10.000000,-3.000000,-2.000000,-8.000000
1297290.079965,-4.000000,-2.000000,1.000000,0.000000,-2.000000,-5.000000,-4.000000,2.000000
1297290.095384,1.000000,43.000000,7.000000,-14.000000,-20.000000,-1.000000,-3.000000,0.000000
1297290.095435,10.000000,-42.000000,-6.000000,-4.000000,7.000000,1.000000,2.000000,0.000000
1297290.102818,-1.000000,-10.000000,3.000000,7.000000,5.000000,-2.000000,0.000000,-3.000000
1297290.102847,-7.000000,9.000000,-1.000000,-3.000000,1.000000,-1.000000,0.000000,0.000000
1297290.139901,-3.000000,5.000000,3.000000,4.000000,-1.000000,5.000000,-3.000000,-7.000000
1297290.139930,3.000000,-16.000000,-5.000000,-1.000000,-8.000000,0.000000,0.000000,1.000000
1297290.170813,-8.000000,-4.000000,3.000000,3.000000,-7.000000,-6.000000,-1.000000,-8.000000
1297290.170876,-10.000000,11.000000,-1.000000,-2.000000,1.000000,-1.000000,1.000000,0.000000
1297290.173466,3.000000,-4.000000,-2.000000,-1.000000,-8.000000,-2.000000,-6.000000,1.000000
1297290.173494,3.000000,-4.000000,0.000000,-8.000000,-4.000000,-1.000000,0.000000,-2.000000
1297290.173638,1.000000,34.000000,3.000000,6.000000,14.000000,-1.000000,-3.000000,-2.000000
1297290.173685,-4.000000,-17.000000,-3.000000,2.000000,4.000000,1.000000,-3.000000,-4.000000
1297290.175210,-15.000000,-53.000000,-6.000000,-4.000000,-9.000000,-1.000000,-7.000000,-3.000000
1297290.175267,8.000000,-16.000000,-1.000000,-4.000000,-5.000000,-7.000000,-2.000000,1.000000
1297290.185479,2.000000,-1.000000,-4.000000,-1.000000,-8.000000,-2.000000,-4.000000,1.000000
1297290.185583,-1.000000,-11.000000,-1.000000,0.000000,4.000000,1.000000,0.000000,-3.000000
1297290.208700,-8.000000,9.000000,-3.000000,-3.000000,-4.000000,1.000000,1.000000,-4.000000
1297290.208726,-2.000000,-10.000000,0.000000,2.000000,0.000000,-4.000000,0.000000,-4.000000
1297290.209138,0.000000,-9.000000,2.000000,-7.000000,-5.000000,-5.000000,3.000000,0.000000
1297290.209163,2.000000,11.000000,3.000000,0.000000,1.000000,2.000000,-1.000000,-2.000000
1297290.216248,4.000000,9.000000,-10.000000,4.000000,3.000000,0.000000,2.000000,0.000000
1297290.216276,-5.000000,-9.000000,4.000000,3.000000,3.000000,-3.000000,-1.000000,0.000000
1297290.222970,-7.000000,-3.000000,3.000000,-2.000000,-1.000000,-1.000000,-5.000000,-5.000000
1297290.222997,0.000000,-57.000000,-9.000000,-3.000000,-1.000000,-8.000000,1.000000,0.000000
1297290.245091,1.000000,-19.000000,-5.000000,-1.000000,0.000000,-4.000000,-4.000000,-5.000000
1297290.245122,19.000000,75.000000,0.000000,4.000000,9.000000,2.000000,-4.000000,5.000000
1297290.246127,0.000000,1.000000,3.000000,-1.000000,-1.000000,2.000000,0.000000,-3.000000
1297290.246153,4.000000,-6.000000,-3.000000,0.000000,5.000000,0.000000,-4.000000,-7.000000
1297290.253457,0.000000,1.000000,-5.000000,4.000000,1.000000,0.000000,-4.000000,0.000000
1297290.253507,1.000000,-1.000000,1.000000,4.000000,1.000000,-6.000000,-2.000000,-3.000000
1297290.290001,-4.000000,-13.000000,-4.000000,-1.000000,-6.000000,1.000000,0.000000,1.000000
1297290.290113,-10.000000,12.000000,-4.000000,-4.000000,-3.000000,-1.000000,-3.000000,0.000000
1297290.319659,0.000000,-2.000000,-1.000000,-1.000000,0.000000,0.000000,-3.000000,-1.000000
1297290.319685,14.000000,41.000000,0.000000,5.000000,5.000000,-2.000000,1.000000,1.000000
1297290.327232,4.000000,44.000000,-1.000000,-11.000000,-5.000000,0.000000,1.000000,-2.000000
1297290.327261,5.000000,28.000000,5.000000,7.000000,6.000000,0.000000,-1.000000,1.000000
1297290.328747,0.000000,-1.000000,1.000000,0.000000,3.000000,0.000000,-2.000000,2.000000
1297290.328806,2.000000,15.000000,1.000000,2.000000,5.000000,-1.000000,-1.000000,-1.000000
1297290.330632,-1.000000,11.000000,-1.000000,0.000000,7.000000,-2.000000,-3.000000,3.000000
1297290.330654,-11.000000,5.000000,2.000000,-2.000000,4.000000,6.000000,-1.000000,-3.000000
1297290.330965,-2.000000,-97.000000,3.000000,-3.000000,-2.000000,-1.000000,0.000000,-5.000000
1297290.331017,-6.000000,-58.000000,-6.000000,0.000000,0.000000,-3.000000,-1.000000,-3.000000
1297290.331878,0.000000,-2.000000,-2.000000,-2.000000,-1.000000,-3.000000,1.000000,-6.000000
1297290.331904,1.000000,-8.000000,2.000000,10.000000,3.000000,1.000000,-2.000000,0.000000
1297290.335964,-1.000000,-2.000000,-3.000000,-1.000000,-3.000000,0.000000,3.000000,-1.000000
1297290.335993,-2.000000,14.000000,6.000000,4.000000,7.000000,2.000000,-3.000000,1.000000
1297290.343161,1.000000,0.000000,-3.000000,1.000000,-4.000000,-1.000000,-2.000000,0.000000
1297290.343196,-7.000000,-5.000000,-2.000000,-3.000000,-5.000000,0.000000,2.000000,-1.000000
1297290.358557,2.000000,-11.000000,0.000000,4.000000,-2.000000,-2.000000,-2.000000,2.000000
1297290.358587,19.000000,42.000000,4.000000,4.000000,13.000000,-3.000000,-2.000000,4.000000
1297290.365136,0.000000,20.000000,3.000000,-3.000000,-8.000000,0.000000,1.000000,1.000000
1297290.365166,-2.000000,-1.000000,2.000000,2.000000,0.000000,-2.000000,-3.000000,-3.000000
1297290.373380,0.000000,21.000000,6.000000,-4.000000,-8.000000,5.000000,4.000000,1.000000
1297290.373406,1.000000,6.000000,1.000000,-5.000000,-3.000000,-3.000000,3.000000,0.000000
1297290.409884,8.000000,44.000000,-8.000000,4.000000,9.000000,1.000000,-5.000000,3.000000
1297290.409913,-7.000000,24.000000,-1.000000,-3.000000,5.000000,1.000000,0.000000,-1.000000
1297290.432439,-12.000000,92.000000,4.000000,4.000000,-4.000000,1.000000,-1.000000,-1.000000
1297290.432466,-5.000000,-6.000000,-12.000000,2.000000,3.000000,1.000000,2.000000,1.000000
1297290.447752,0.000000,-17.000000,-4.000000,0.000000,-6.000000,-2.000000,1.000000,-2.000000
1297290.448198,-1.000000,-6.000000,1.000000,1.000000,1.000000,-1.000000,-1.000000,2.000000
1297290.449175,-4.000000,-21.000000,-3.000000,-4.000000,-1.000000,0.000000,2.000000,-2.000000
1297290.449200,0.000000,3.000000,2.000000,1.000000,5.000000,-4.000000,-2.000000,-2.000000
1297290.450294,-1.000000,-1.000000,-5.000000,-2.000000,4.000000,1.000000,1.000000,-3.000000
1297290.450319,-1.000000,-15.000000,5.000000,0.000000,-1.000000,1.000000,-3.000000,-2.000000
1297290.451186,3.000000,-17.000000,-4.000000,-2.000000,0.000000,-1.000000,2.000000,4.000000
1297290.451209,9.000000,127.000000,-2.000000,11.000000,20.000000,8.000000,-2.000000,5.000000
1297290.455773,2.000000,-8.000000,4.000000,3.000000,-3.000000,3.000000,-3.000000,2.000000
1297290.455800,5.000000,-20.000000,-2.000000,6.000000,0.000000,-3.000000,-1.000000,-2.000000
1297290.462310,-10.000000,10.000000,6.000000,-8.000000,-4.000000,3.000000,0.000000,1.000000
1297290.462338,4.000000,27.000000,4.000000,-4.000000,-6.000000,-3.000000,-2.000000,-7.000000
1297290.486239,5.000000,56.000000,-3.000000,2.000000,2.000000,0.000000,0.000000,-1.000000
1297290.486264,3.000000,-8.000000,-5.000000,-2.000000,0.000000,-1.000000,1.000000,-3.000000
1297290.486791,5.000000,0.000000,0.000000,4.000000,-7.000000,-4.000000,2.000000,1.000000
1297290.486821,-5.000000,13.000000,-8.000000,-8.000000,-6.000000,-4.000000,1.000000,1.000000
1297290.493240,-7.000000,-30.000000,3.000000,1.000000,2.000000,-4.000000,-2.000000,-1.000000
1297290.493267,-7.000000,-20.000000,-2.000000,-2.000000,1.000000,-2.000000,-1.000000,-5.000000
1297290.522304,5.000000,-15.000000,-6.000000,1.000000,7.000000,-2.000000,-3.000000,-1.000000
1297290.522331,-2.000000,24.000000,-3.000000,-5.000000,-6.000000,2.000000,1.000000,4.000000
1297290.537549,4.000000,-9.000000,-2.000000,0.000000,-3.000000,-1.000000,0.000000,-1.000000
1297290.537576,1.000000,-42.000000,0.000000,-7.000000,-5.000000,-2.000000,2.000000,0.000000
1297290.546000,-11.000000,7.000000,4.000000,3.000000,-1.000000,-2.000000,-1.000000,2.000000
1297290.546051,2.000000,4.000000,-5.000000,-3.000000,-6.000000,-2.000000,-1.000000,-2.000000
1297290.575209,3.000000,3.000000,-1.000000,0.000000,2.000000,-1.000000,-2.000000,-4.000000
1297290.575236,-1.000000,-16.000000,-11.000000,-4.000000,4.000000,4.000000,1.000000,3.000000
1297290.606207,-16.000000,34.000000,1.000000,2.000000,1.000000,0.000000,-2.000000,-1.000000
1297290.606775,3.000000,-1.000000,6.000000,-5.000000,-13.000000,-3.000000,-2.000000,1.000000
1297290.608825,-2.000000,7.000000,-1.000000,-1.000000,0.000000,-1.000000,2.000000,0.000000
1297290.609084,-2.000000,-72.000000,-1.000000,-4.000000,-4.000000,0.000000,-1.000000,-4.000000
1297290.609459,-6.000000,-35.000000,0.000000,-4.000000,2.000000,0.000000,0.000000,-3.000000
1297290.609514,-5.000000,-8.000000,-1.000000,-11.000000,1.000000,3.000000,0.000000,-4.000000
1297290.610643,-1.000000,-2.000000,-2.000000,4.000000,-2.000000,-5.000000,0.000000,-2.000000
1297290.610667,-2.000000,-3.000000,2.000000,0.000000,0.000000,2.000000,-1.000000,-5.000000
1297290.613230,-1.000000,-6.000000,-3.000000,-3.000000,-4.000000,-4.000000,2.000000,3.000000
1297290.613257,1.000000,-41.000000,-9.000000,-3.000000,-3.000000,0.000000,-1.000000,0.000000
1297290.642495,10.000000,29.000000,11.000000,7.000000,13.000000,1.000000,-2.000000,2.000000
1297290.642521,-1.000000,-5.000000,3.000000,-7.000000,-6.000000,-2.000000,-3.000000,1.000000
1297290.657348,0.000000,-4.000000,-3.000000,-3.000000,1.000000,-1.000000,0.000000,-6.000000
1297290.657373,-1.000000,6.000000,1.000000,-4.000000,-1.000000,-2.000000,-2.000000,1.000000
1297290.687607,-3.000000,-17.000000,-4.000000,2.000000,1.000000,1.000000,3.000000,-2.000000
1297290.687941,-2.000000,-5.000000,-3.000000,0.000000,-2.000000,-1.000000,0.000000,-4.000000
1297290.689339,-8.000000,-53.000000,-1.000000,-6.000000,-2.000000,1.000000,-2.000000,-2.000000
1297290.689386,-2.000000,-3.000000,-7.000000,0.000000,3.000000,0.000000,-2.000000,-2.000000
1297290.690195,-3.000000,-12.000000,-2.000000,2.000000,4.000000,-5.000000,-1.000000,3.000000
1297290.690217,-7.000000,-44.000000,-2.000000,0.000000,1.000000,2.000000,-2.000000,-3.000000
1297290.691710,11.000000,-10.000000,-1.000000,-1.000000,3.000000,1.000000,0.000000,2.000000
1297290.691762,7.000000,16.000000,-1.000000,-3.000000,-3.000000,0.000000,1.000000,-2.000000
1297290.692090,-2.000000,-20.000000,-7.000000,-7.000000,0.000000,-4.000000,-1.000000,-5.000000
1297290.692114,2.000000,-12.000000,-4.000000,-3.000000,-4.000000,-2.000000,-3.000000,-1.000000
1297290.725484,2.000000,11.000000,-2.000000,3.000000,6.000000,-2.000000,2.000000,-5.000000
1297290.725514,-8.000000,11.000000,2.000000,6.000000,-3.000000,0.000000,-5.000000,0.000000
1297290.733710,4.000000,-5.000000,-5.000000,-2.000000,-7.000000,1.000000,1.000000,2.000000
1297290.733742,-5.000000,-19.000000,7.000000,-3.000000,0.000000,0.000000,0.000000,-1.000000
1297290.736036,-7.000000,2.000000,-6.000000,-1.000000,-3.000000,-1.000000,1.000000,-1.000000
1297290.736062,1.000000,-3.000000,-8.000000,-4.000000,5.000000,-2.000000,-1.000000,-1.000000
1297290.736274,-5.000000,-11.000000,-3.000000,-5.000000,1.000000,-1.000000,-4.000000,2.000000
1297290.736315,-5.000000,2.000000,4.000000,-4.000000,-8.000000,-6.000000,-2.000000,-3.000000
1297290.736982,-8.000000,6.000000,-3.000000,-1.000000,-2.000000,2.000000,0.000000,-1.000000
1297290.737007,-3.000000,6.000000,3.000000,-1.000000,-10.000000,-2.000000,-3.000000,1.000000
1297290.762242,-5.000000,-7.000000,0.000000,2.000000,8.000000,0.000000,-2.000000,-1.000000
1297290.762268,9.000000,9.000000,7.000000,1.000000,-1.000000,1.000000,-1.000000,-1.000000
1297290.777162,-2.000000,0.000000,3.000000,-2.000000,-1.000000,0.000000,0.000000,1.000000
1297290.777188,-23.000000,14.000000,9.000000,2.000000,1.000000,-2.000000,3.000000,-7.000000
1297290.784754,-6.000000,1.000000,-7.000000,4.000000,-4.000000,-2.000000,-2.000000,-2.000000
1297290.784780,-1.000000,24.000000,0.000000,1.000000,1.000000,-1.000000,-2.000000,-1.000000
1297290.801503,0.000000,0.000000,2.000000,-2.000000,-3.000000,1.000000,0.000000,-5.000000
1297290.801557,4.000000,-4.000000,-9.000000,-3.000000,-8.000000,-1.000000,2.000000,3.000000
1297290.801820,-13.000000,-99.000000,-2.000000,-4.000000,2.000000,-2.000000,-2.000000,-4.000000
1297290.802022,13.000000,-6.000000,-6.000000,4.000000,-2.000000,-1.000000,-4.000000,2.000000
1297290.802791,2.000000,-7.000000,2.000000,-7.000000,-7.000000,0.000000,-3.000000,-4.000000
1297290.802820,-4.000000,-3.000000,0.000000,2.000000,6.000000,-1.000000,1.000000,-2.000000
1297290.807024,0.000000,9.000000,0.000000,1.000000,-7.000000,-2.000000,2.000000,1.000000
1297290.807048,1.000000,-8.000000,1.000000,0.000000,0.000000,-5.000000,-2.000000,0.000000
1297290.816092,-4.000000,-4.000000,-8.000000,-4.000000,0.000000,4.000000,-1.000000,0.000000
1297290.816117,1.000000,2.000000,-1.000000,-3.000000,-4.000000,-1.000000,-3.000000,-1.000000
1297290.822187,-19.000000,-64.000000,-1.000000,-9.000000,-17.000000,-9.000000,-2.000000,-9.000000
1297290.822225,-3.000000,63.000000,3.000000,11.000000,17.000000,3.000000,-1.000000,2.000000
1297290.846519,-3.000000,34.000000,-1.000000,3.000000,5.000000,0.000000,0.000000,-1.000000
1297290.846552,1.000000,-5.000000,5.000000,0.000000,-6.000000,-1.000000,-4.000000,-1.000000
1297290.847126,-8.000000,6.000000,-8.000000,2.000000,1.000000,-4.000000,-4.000000,-4.000000
1297290.847157,-1.000000,3.000000,-6.000000,-3.000000,-3.000000,-3.000000,2.000000,2.000000
1297290.853436,1.000000,49.000000,13.000000,0.000000,-18.000000,1.000000,4.000000,1.000000
1297290.853462,2.000000,-7.000000,-5.000000,-4.000000,0.000000,0.000000,2.000000,-3.000000
1297290.875000,-1.000000,-5.000000,-3.000000,-3.000000,-2.000000,0.000000,-2.000000,-1.000000
1297290.875028,3.000000,5.000000,1.000000,5.000000,0.000000,-4.000000,-2.000000,-1.000000
1297290.897443,0.000000,0.000000,-1.000000,-2.000000,4.000000,0.000000,0.000000,2.000000
1297290.897470,2.000000,-4.000000,0.000000,-1.000000,-4.000000,-3.000000,-3.000000,-4.000000
1297290.912555,1.000000,-2.000000,0.000000,1.000000,-9.000000,-1.000000,-1.000000,-2.000000
1297290.912603,-8.000000,-24.000000,0.000000,4.000000,4.000000,-1.000000,3.000000,-4.000000
1297290.915007,2.000000,52.000000,0.000000,7.000000,7.000000,0.000000,-3.000000,2.000000
1297290.915034,-2.000000,-5.000000,4.000000,-3.000000,-16.000000,1.000000,2.000000,-1.000000
1297290.915546,-1.000000,-10.000000,-2.000000,-3.000000,-3.000000,-4.000000,2.000000,1.000000
1297290.915576,-8.000000,-51.000000,-5.000000,-9.000000,-4.000000,-5.000000,-2.000000,-5.000000
1297290.921253,-2.000000,-11.000000,7.000000,0.000000,-7.000000,-2.000000,1.000000,0.000000
1297290.921310,-5.000000,13.000000,3.000000,-5.000000,-1.000000,-2.000000,-5.000000,-4.000000
1297290.927572,-4.000000,-20.000000,-7.000000,1.000000,-4.000000,1.000000,0.000000,0.000000
1297290.927597,4.000000,-15.000000,-3.000000,0.000000,-2.000000,-2.000000,0.000000,-4.000000
1297290.935348,5.000000,-38.000000,4.000000,-3.000000,-12.000000,-5.000000,-3.000000,-3.000000
1297290.935401,6.000000,-11.000000,-3.000000,4.000000,5.000000,-3.000000,-1.000000,-5.000000
1297290.957167,2.000000,-3.000000,-6.000000,2.000000,-1.000000,-1.000000,-2.000000,-4.000000
1297290.957194,-5.000000,-25.000000,-7.000000,-9.000000,-9.000000,-5.000000,1.000000,-1.000000
1297290.966561,-2.000000,-56.000000,-4.000000,-10.000000,-6.000000,-1.000000,-5.000000,3.000000
1297290.966586,2.000000,-5.000000,6.000000,6.000000,-9.000000,-2.000000,-2.000000,-4.000000
1297290.966895,-1.000000,-5.000000,-4.000000,-3.000000,1.000000,-1.000000,-1.000000,-2.000000
1297290.966915,-23.000000,-128.000000,-7.000000,-4.000000,-7.000000,-2.000000,-3.000000,-6.000000
1297290.973768,-3.000000,-11.000000,-4.000000,-4.000000,2.000000,-3.000000,-5.000000,-3.000000
1297290.973945,8.000000,61.000000,2.000000,1.000000,2.000000,6.000000,2.000000,4.000000
1297291.002436,8.000000,14.000000,4.000000,-5.000000,-7.000000,-1.000000,2.000000,5.000000
1297291.002465,-5.000000,-10.000000,-3.000000,-5.000000,3.000000,0.000000,1.000000,-2.000000
1297291.017760,-11.000000,-7.000000,4.000000,-3.000000,0.000000,-1.000000,-3.000000,-1.000000
1297291.017796,-7.000000,1.000000,-8.000000,-1.000000,-3.000000,-4.000000,3.000000,-3.000000
1297291.040620,4.000000,-16.000000,-5.000000,1.000000,0.000000,0.000000,-2.000000,1.000000
1297291.040696,1.000000,-1.000000,-1.000000,2.000000,7.000000,0.000000,-1.000000,-3.000000
1297291.043037,-2.000000,5.000000,3.000000,-7.000000,-6.000000,2.000000,-3.000000,1.000000
1297291.043382,1.000000,-2.000000,-3.000000,4.000000,3.000000,-8.000000,2.000000,-2.000000
1297291.044173,3.000000,-13.000000,1.000000,1.000000,-8.000000,-4.000000,-1.000000,2.000000
1297291.044211,-5.000000,-12.000000,-6.000000,-4.000000,1.000000,-3.000000,-4.000000,-2.000000
1297291.044891,0.000000,-4.000000,0.000000,0.000000,-9.000000,-1.000000,3.000000,-3.000000
1297291.044983,-1.000000,2.000000,8.000000,-3.000000,1.000000,3.000000,-3.000000,-2.000000
1297291.055157,7.000000,26.000000,3.000000,7.000000,9.000000,1.000000,-1.000000,3.000000
1297291.055574,-2.000000,-4.000000,-3.000000,-6.000000,-7.000000,-3.000000,-1.000000,-3.000000
1297291.056760,1.000000,-5.000000,-1.000000,-5.000000,2.000000,2.000000,0.000000,1.000000
1297291.056781,10.000000,40.000000,-12.000000,-2.000000,9.000000,0.000000,2.000000,1.000000
1297291.078186,-9.000000,10.000000,7.000000,0.000000,-1.000000,-6.000000,0.000000,1.000000
1297291.078215,0.000000,-6.000000,-2.000000,0.000000,-2.000000,-3.000000,0.000000,-4.000000
1297291.079242,-2.000000,-11.000000,1.000000,-1.000000,-4.000000,-2.000000,-1.000000,-1.000000
1297291.079269,3.000000,72.000000,-5.000000,9.000000,15.000000,1.000000,-2.000000,5.000000
1297291.084975,-3.000000,13.000000,0.000000,-4.000000,-6.000000,-7.000000,-1.000000,2.000000
1297291.085003,-15.000000,5.000000,1.000000,2.000000,0.000000,0.000000,0.000000,1.000000
1297291.093419,-11.000000,16.000000,-1.000000,-7.000000,4.000000,-2.000000,-3.000000,1.000000
1297291.093449,-3.000000,-11.000000,-3.000000,0.000000,-4.000000,0.000000,3.000000,-4.000000
1297291.122376,-4.000000,-62.000000,-1.000000,-2.000000,-9.000000,-4.000000,2.000000,0.000000
1297291.122403,-1.000000,-21.000000,-3.000000,-2.000000,1.000000,0.000000,1.000000,-4.000000
1297291.144850,2.000000,5.000000,-1.000000,3.000000,8.000000,0.000000,0.000000,-1.000000
1297291.144877,6.000000,0.000000,1.000000,1.000000,4.000000,0.000000,-5.000000,-1.000000
1297291.160052,0.000000,0.000000,-1.000000,0.000000,5.000000,-5.000000,3.000000,-1.000000
1297291.160279,-1.000000,0.000000,-8.000000,-3.000000,-2.000000,-2.000000,-1.000000,1.000000
1297291.161732,0.000000,-4.000000,6.000000,-4.000000,-5.000000,-1.000000,-1.000000,-1.000000
1297291.161759,1.000000,-9.000000,-8.000000,-3.000000,-2.000000,-1.000000,1.000000,2.000000
1297291.161977,-8.000000,-33.000000,1.000000,-6.000000,-7.000000,-1.000000,1.000000,-5.000000
1297291.162029,-19.000000,14.000000,-1.000000,3.000000,-2.000000,1.000000,3.000000,3.000000
1297291.163539,-6.000000,8.000000,-2.000000,0.000000,-1.000000,-3.000000,-4.000000,-6.000000
1297291.163581,-25.000000,-128.000000,-8.000000,-7.000000,4.000000,-5.000000,-4.000000,-6.000000
1297291.167533,5.000000,-33.000000,-4.000000,-8.000000,-1.000000,-2.000000,-4.000000,4.000000
1297291.167732,9.000000,40.000000,1.000000,11.000000,5.000000,3.000000,-1.000000,3.000000
1297291.175340,-7.000000,10.000000,-3.000000,-3.000000,-5.000000,-1.000000,0.000000,2.000000
1297291.175381,-16.000000,3.000000,3.000000,4.000000,5.000000,3.000000,2.000000,0.000000
1297291.189790,2.000000,8.000000,2.000000,1.000000,2.000000,3.000000,2.000000,0.000000
1297291.189834,-2.000000,-7.000000,-2.000000,1.000000,1.000000,-2.000000,0.000000,0.000000
1297291.197372,2.000000,7.000000,-6.000000,-4.000000,0.000000,0.000000,4.000000,-4.000000
1297291.197398,-1.000000,4.000000,-5.000000,-1.000000,6.000000,-1.000000,0.000000,0.000000
1297291.204816,1.000000,0.000000,-6.000000,-1.000000,-1.000000,1.000000,-1.000000,1.000000
1297291.204841,1.000000,-3.000000,2.000000,-3.000000,-3.000000,-3.000000,-4.000000,-2.000000
1297291.242360,-1.000000,3.000000,0.000000,0.000000,7.000000,-3.000000,0.000000,1.000000
1297291.242386,-3.000000,0.000000,-2.000000,-2.000000,1.000000,0.000000,0.000000,4.000000
1297291.249842,0.000000,-7.000000,4.000000,-3.000000,-2.000000,-4.000000,0.000000,0.000000
1297291.249886,-3.000000,-7.000000,-7.000000,-1.000000,1.000000,1.000000,-1.000000,0.000000
1297291.264885,0.000000,-2.000000,0.000000,-6.000000,1.000000,1.000000,-2.000000,-3.000000
1297291.264914,-3.000000,-3.000000,4.000000,0.000000,-6.000000,0.000000,-2.000000,-1.000000
1297291.279854,-9.000000,-2.000000,1.000000,-3.000000,2.000000,0.000000,-2.000000,2.000000
1297291.279879,3.000000,-1.000000,0.000000,-3.000000,5.000000,1.000000,-5.000000,2.000000
1297291.288745,3.000000,-7.000000,1.000000,-5.000000,2.000000,-3.000000,-3.000000,-3.000000
1297291.288796,0.000000,4.000000,0.000000,-1.000000,-4.000000,0.000000,1.000000,-3.000000
1297291.289048,-14.000000,-92.000000,3.000000,-5.000000,-16.000000,-4.000000,0.000000,-3.000000
1297291.289090,-12.000000,-14.000000,4.000000,2.000000,5.000000,1.000000,-1.000000,-8.000000
1297291.290554,0.000000,-7.000000,-5.000000,-3.000000,-1.000000,-5.000000,0.000000,-3.000000
1297291.290584,-9.000000,-28.000000,-1.000000,2.000000,0.000000,-1.000000,1.000000,-1.000000
1297291.291464,18.000000,86.000000,-7.000000,8.000000,9.000000,3.000000,0.000000,3.000000
1297291.291486,5.000000,-1.000000,6.000000,5.000000,-1.000000,2.000000,-2.000000,-5.000000
1297291.295759,-3.000000,-2.000000,4.000000,2.000000,2.000000,-6.000000,2.000000,0.000000
1297291.295785,-1.000000,11.000000,-1.000000,4.000000,2.000000,-2.000000,-1.000000,1.000000
1297291.317114,-3.000000,19.000000,-3.000000,-6.000000,-4.000000,2.000000,1.000000,2.000000
1297291.317454,1.000000,3.000000,1.000000,-1.000000,-1.000000,-1.000000,-2.000000,0.000000
1297291.318663,-6.000000,1.000000,3.000000,-1.000000,8.000000,-1.000000,-1.000000,-2.000000
1297291.318687,2.000000,-7.000000,-6.000000,-2.000000,0.000000,0.000000,-4.000000,0.000000
1297291.324822,-7.000000,-32.000000,-6.000000,-6.000000,-7.000000,-3.000000,-2.000000,-4.000000
1297291.324850,0.000000,-7.000000,-1.000000,4.000000,3.000000,0.000000,1.000000,-3.000000
1297291.355745,5.000000,0.000000,-3.000000,-4.000000,4.000000,-8.000000,0.000000,2.000000
1297291.355784,1.000000,-2.000000,1.000000,0.000000,-5.000000,-4.000000,-1.000000,-2.000000
1297291.362475,-1.000000,-29.000000,-3.000000,-2.000000,1.000000,-1.000000,-1.000000,-3.000000
1297291.362516,3.000000,29.000000,-3.000000,-1.000000,-10.000000,0.000000,0.000000,0.000000
1297291.377754,-4.000000,-10.000000,-15.000000,0.000000,-3.000000,-4.000000,-2.000000,-5.000000
1297291.377805,-1.000000,-5.000000,0.000000,-11.000000,0.000000,-1.000000,-1.000000,0.000000
1297291.400635,-6.000000,-60.000000,-4.000000,-6.000000,1.000000,-4.000000,-4.000000,-1.000000
1297291.400675,-5.000000,4.000000,2.000000,-3.000000,-3.000000,2.000000,0.000000,-4.000000
1297291.437413,5.000000,98.000000,1.000000,9.000000,14.000000,7.000000,-4.000000,9.000000
1297291.437439,1.000000,-7.000000,-2.000000,-6.000000,-3.000000,-4.000000,-1.000000,4.000000
1297291.444745,-1.000000,-5.000000,-6.000000,-2.000000,-8.000000,-3.000000,0.000000,-6.000000
1297291.444768,3.000000,-2.000000,3.000000,-1.000000,-6.000000,-2.000000,1.000000,-2.000000
1297291.459592,-7.000000,-41.000000,-2.000000,-2.000000,-10.000000,-3.000000,-3.000000,-3.000000
1297291.459617,3.000000,25.000000,-1.000000,0.000000,-6.000000,-2.000000,-1.000000,2.000000
1297291.467411,-4.000000,-5.000000,-2.000000,-3.000000,0.000000,-2.000000,-1.000000,-5.000000
1297291.467464,-1.000000,-3.000000,6.000000,-4.000000,-2.000000,-2.000000,2.000000,-5.000000
1297291.469113,-17.000000,-45.000000,-3.000000,6.000000,0.000000,-1.000000,0.000000,0.000000
1297291.469135,3.000000,-3.000000,-4.000000,1.000000,-2.000000,-2.000000,0.000000,-1.000000
1297291.476426,-4.000000,-2.000000,-7.000000,-1.000000,9.000000,1.000000,2.000000,2.000000
1297291.476470,-6.000000,-30.000000,-2.000000,1.000000,-11.000000,-1.000000,0.000000,-2.000000
1297291.477525,-3.000000,-10.000000,8.000000,0.000000,3.000000,-5.000000,0.000000,0.000000
1297291.477549,2.000000,-3.000000,-5.000000,-4.000000,-3.000000,-5.000000,-3.000000,-3.000000
1297291.478022,-20.000000,7.000000,-6.000000,-6.000000,-2.000000,-2.000000,1.000000,-3.000000
1297291.478043,1.000000,1.000000,3.000000,-2.000000,3.000000,-2.000000,2.000000,-4.000000
1297291.489790,-4.000000,2.000000,-3.000000,-6.000000,4.000000,-1.000000,-5.000000,-2.000000
1297291.489815,-5.000000,-44.000000,-3.000000,2.000000,-1.000000,-1.000000,1.000000,-1.000000
1297291.520265,-5.000000,-9.000000,-5.000000,-9.000000,2.000000,2.000000,-4.000000,0.000000
1297291.520294,3.000000,-4.000000,-8.000000,-6.000000,0.000000,0.000000,-1.000000,-5.000000
1297291.520407,0.000000,-3.000000,-5.000000,-1.000000,-2.000000,-2.000000,-2.000000,1.000000
1297291.520424,2.000000,6.000000,-1.000000,4.000000,6.000000,1.000000,-1.000000,2.000000
1297291.522224,-5.000000,-47.000000,-16.000000,-7.000000,1.000000,3.000000,0.000000,-3.000000
1297291.522275,-15.000000,7.000000,2.000000,-1.000000,9.000000,-1.000000,0.000000,-2.000000
1297291.527231,2.000000,-12.000000,-1.000000,-9.000000,-18.000000,-5.000000,3.000000,-3.000000
1297291.527257,2.000000,-3.000000,1.000000,-1.000000,-4.000000,0.000000,-3.000000,2.000000
1297291.543418,-9.000000,20.000000,-4.000000,-1.000000,5.000000,3.000000,-4.000000,-1.000000
1297291.543444,5.000000,-8.000000,0.000000,1.000000,9.000000,0.000000,2.000000,1.000000
1297291.557786,5.000000,25.000000,-6.000000,1.000000,-7.000000,-2.000000,1.000000,-4.000000
1297291.557891,1.000000,44.000000,9.000000,-10.000000,-4.000000,0.000000,-3.000000,-1.000000
1297291.572583,1.000000,-4.000000,-5.000000,2.000000,-10.000000,-8.000000,-3.000000,-4.000000
1297291.572611,-2.000000,0.000000,-2.000000,0.000000,2.000000,-1.000000,-1.000000,-2.000000
1297291.579744,-3.000000,-12.000000,-3.000000,1.000000,5.000000,2.000000,1.000000,-2.000000
1297291.579771,0.000000,-1.000000,-4.000000,-6.000000,-8.000000,-1.000000,2.000000,0.000000
1297291.609915,7.000000,-1.000000,-5.000000,-2.000000,0.000000,-5.000000,-4.000000,-1.000000
1297291.609966,-1.000000,-6.000000,-4.000000,-8.000000,2.000000,-6.000000,-3.000000,1.000000
1297291.617210,8.000000,-9.000000,-4.000000,-1.000000,-1.000000,0.000000,-5.000000,-2.000000
1297291.617236,5.000000,4.000000,0.000000,-5.000000,-3.000000,-3.000000,0.000000,-1.000000
1297291.633355,-9.000000,-5.000000,4.000000,-8.000000,-9.000000,-2.000000,2.000000,-1.000000
1297291.633605,-7.000000,-46.000000,-1.000000,0.000000,-13.000000,-3.000000,-3.000000,-1.000000
1297291.634156,17.000000,82.000000,0.000000,4.000000,1.000000,6.000000,4.000000,4.000000
1297291.634211,3.000000,-5.000000,-3.000000,-4.000000,3.000000,0.000000,3.000000,0.000000
1297291.635975,-1.000000,-4.000000,3.000000,1.000000,2.000000,-3.000000,1.000000,4.000000
1297291.636003,0.000000,-11.000000,2.000000,-3.000000,-4.000000,0.000000,1.000000,-2.000000
1297291.636216,2.000000,1.000000,3.000000,-1.000000,4.000000,0.000000,-2.000000,0.000000
1297291.636266,4.000000,0.000000,-6.000000,-6.000000,-7.000000,1.000000,1.000000,0.000000
1297291.639624,0.000000,0.000000,-8.000000,-7.000000,-10.000000,-4.000000,-3.000000,3.000000
1297291.639649,0.000000,-2.000000,3.000000,0.000000,1.000000,0.000000,-2.000000,1.000000
1297291.647403,-4.000000,-6.000000,-1.000000,-3.000000,-6.000000,0.000000,0.000000,-7.000000
1297291.647448,1.000000,40.000000,7.000000,-1.000000,-2.000000,-3.000000,-2.000000,1.000000
1297291.655897,0.000000,-40.000000,0.000000,-7.000000,-3.000000,-5.000000,0.000000,-2.000000
1297291.655923,0.000000,-3.000000,-1.000000,-1.000000,7.000000,0.000000,-5.000000,3.000000
1297291.677265,0.000000,-6.000000,-5.000000,3.000000,1.000000,1.000000,-4.000000,-3.000000
1297291.677291,-6.000000,6.000000,6.000000,2.000000,-7.000000,-2.000000,0.000000,-1.000000
1297291.715340,8.000000,-2.000000,0.000000,1.000000,-9.000000,-4.000000,-1.000000,0.000000
1297291.715394,1.000000,-5.000000,1.000000,-2.000000,-1.000000,-3.000000,2.000000,0.000000
1297291.722299,3.000000,8.000000,3.000000,4.000000,8.000000,3.000000,-1.000000,1.000000
1297291.722328,2.000000,-14.000000,-7.000000,-5.000000,-4.000000,-3.000000,-1.000000,-4.000000
1297291.737819,9.000000,36.000000,1.000000,6.000000,4.000000,-3.000000,1.000000,0.000000
1297291.738167,15.000000,127.000000,-3.000000,16.000000,18.000000,5.000000,0.000000,3.000000
1297291.738842,-4.000000,-13.000000,-7.000000,-4.000000,-2.000000,-5.000000,3.000000,-1.000000
1297291.738893,0.000000,-8.000000,1.000000,-2.000000,-3.000000,-3.000000,-1.000000,-5.000000
1297291.739778,3.000000,-6.000000,1.000000,-1.000000,-3.000000,-2.000000,2.000000,-1.000000
1297291.739804,2.000000,-13.000000,-1.000000,2.000000,-3.000000,-1.000000,1.000000,-1.000000
1297291.744796,-9.000000,-6.000000,0.000000,2.000000,3.000000,3.000000,2.000000,0.000000
1297291.744823,1.000000,-16.000000,-3.000000,-5.000000,-7.000000,-4.000000,-1.000000,-2.000000
1297291.752369,-5.000000,-13.000000,12.000000,10.000000,-6.000000,0.000000,1.000000,-5.000000
1297291.752419,1.000000,-8.000000,-14.000000,-3.000000,2.000000,-3.000000,-2.000000,2.000000
1297291.753259,-5.000000,-27.000000,-4.000000,-2.000000,-7.000000,-3.000000,-2.000000,-2.000000
1297291.753286,9.000000,100.000000,5.000000,4.000000,10.000000,3.000000,-1.000000,-2.000000
1297291.759700,-2.000000,-5.000000,-3.000000,-3.000000,-6.000000,-3.000000,0.000000,-1.000000
1297291.759731,2.000000,-7.000000,0.000000,-2.000000,-2.000000,-1.000000,-1.000000,1.000000
1297291.767464,-5.000000,13.000000,-3.000000,5.000000,2.000000,3.000000,-1.000000,-5.000000
1297291.767491,3.000000,-5.000000,-1.000000,-1.000000,1.000000,-4.000000,3.000000,0.000000
1297291.804928,-6.000000,-51.000000,-6.000000,-1.000000,1.000000,-8.000000,-3.000000,-3.000000
1297291.804957,-4.000000,-12.000000,-4.000000,1.000000,-8.000000,-1.000000,-2.000000,2.000000
1297291.819963,0.000000,-8.000000,-8.000000,1.000000,6.000000,2.000000,0.000000,-2.000000
1297291.819993,-7.000000,-14.000000,3.000000,-9.000000,-1.000000,0.000000,3.000000,-3.000000
1297291.842430,-7.000000,6.000000,-8.000000,-3.000000,-7.000000,-1.000000,1.000000,0.000000
1297291.842479,-3.000000,-24.000000,4.000000,0.000000,0.000000,-1.000000,-5.000000,1.000000
1297291.843470,-2.000000,-4.000000,8.000000,-1.000000,-5.000000,-1.000000,1.000000,0.000000
1297291.844010,0.000000,3.000000,2.000000,-3.000000,0.000000,-3.000000,-1.000000,1.000000
1297291.846371,4.000000,-3.000000,-7.000000,-6.000000,0.000000,0.000000,-4.000000,-4.000000
1297291.846400,-6.000000,-3.000000,5.000000,-2.000000,-4.000000,1.000000,1.000000,-2.000000
1297291.846653,-3.000000,19.000000,2.000000,6.000000,5.000000,1.000000,-2.000000,-4.000000
1297291.846695,-2.000000,-12.000000,-10.000000,-7.000000,6.000000,3.000000,-2.000000,1.000000
1297291.849978,-13.000000,31.000000,-4.000000,3.000000,8.000000,-3.000000,0.000000,0.000000
1297291.850126,1.000000,5.000000,-11.000000,-7.000000,-4.000000,-4.000000,-3.000000,-2.000000
1297291.865206,1.000000,7.000000,4.000000,2.000000,-4.000000,-2.000000,-3.000000,-3.000000
1297291.865250,-3.000000,1.000000,-3.000000,-4.000000,0.000000,0.000000,0.000000,-3.000000
1297291.872414,0.000000,-12.000000,6.000000,0.000000,1.000000,-3.000000,-1.000000,-3.000000
1297291.872457,-7.000000,-18.000000,-6.000000,-4.000000,-6.000000,3.000000,-1.000000,1.000000
1297291.879811,6.000000,-8.000000,2.000000,5.000000,-7.000000,-4.000000,0.000000,-1.000000
1297291.879840,0.000000,-1.000000,-3.000000,4.000000,5.000000,-5.000000,-3.000000,-1.000000
1297291.887405,0.000000,-59.000000,-1.000000,-5.000000,1.000000,-2.000000,-3.000000,2.000000
1297291.887431,-4.000000,-31.000000,-1.000000,-6.000000,-13.000000,0.000000,-1.000000,-3.000000
1297291.917333,-2.000000,69.000000,3.000000,6.000000,17.000000,7.000000,2.000000,-3.000000
1297291.917359,1.000000,-6.000000,-4.000000,1.000000,6.000000,0.000000,2.000000,-1.000000
1297291.925024,4.000000,-12.000000,-2.000000,-3.000000,-4.000000,-5.000000,0.000000,-1.000000
1297291.925051,4.000000,-9.000000,-3.000000,-1.000000,-3.000000,-3.000000,-3.000000,-3.000000
1297291.962808,-1.000000,-23.000000,-1.000000,-2.000000,3.000000,2.000000,-1.000000,5.000000
1297291.962867,-4.000000,-64.000000,0.000000,-2.000000,0.000000,-4.000000,-7.000000,-4.000000
1297291.963357,13.000000,127.000000,1.000000,3.000000,6.000000,4.000000,0.000000,6.000000
1297291.963401,-7.000000,-5.000000,0.000000,4.000000,2.000000,-1.000000,1.000000,4.000000
1297291.965392,-1.000000,-6.000000,-3.000000,0.000000,-2.000000,3.000000,-4.000000,-4.000000
1297291.965421,4.000000,-7.000000,0.000000,-3.000000,-4.000000,-4.000000,0.000000,-3.000000
1297291.965547,-1.000000,-11.000000,-5.000000,3.000000,-1.000000,-1.000000,0.000000,-2.000000
1297291.965569,-3.000000,-38.000000,-9.000000,-4.000000,-14.000000,-4.000000,-2.000000,-1.000000
1297291.984906,-6.000000,-29.000000,-7.000000,-1.000000,5.000000,-2.000000,-4.000000,-3.000000
1297291.984932,-16.000000,28.000000,6.000000,3.000000,8.000000,2.000000,1.000000,-4.000000
1297291.999790,4.000000,-4.000000,-3.000000,-8.000000,-5.000000,-2.000000,-5.000000,-2.000000
1297291.999817,5.000000,-4.000000,-1.000000,3.000000,-3.000000,-3.000000,2.000000,5.000000
1297292.007299,-2.000000,2.000000,8.000000,-5.000000,-8.000000,-1.000000,-4.000000,0.000000
1297292.007322,1.000000,-3.000000,0.000000,1.000000,-4.000000,-5.000000,-1.000000,-4.000000
1297292.022417,3.000000,-15.000000,-4.000000,1.000000,-6.000000,-1.000000,-4.000000,-2.000000
1297292.022448,-4.000000,-7.000000,0.000000,-1.000000,-1.000000,-1.000000,1.000000,-1.000000
1297292.023794,1.000000,-8.000000,-9.000000,-1.000000,-4.000000,-4.000000,-7.000000,-2.000000
1297292.023823,-5.000000,4.000000,4.000000,-6.000000,2.000000,1.000000,0.000000,-1.000000
1297292.029629,-1.000000,-7.000000,-7.000000,-2.000000,-1.000000,-1.000000,-4.000000,1.000000
1297292.029655,-3.000000,-7.000000,-1.000000,2.000000,-3.000000,-1.000000,-1.000000,-3.000000
1297292.037169,-2.000000,-8.000000,3.000000,-11.000000,-1.000000,-1.000000,-1.000000,-3.000000
1297292.037212,7.000000,-8.000000,-5.000000,-4.000000,4.000000,-1.000000,-5.000000,-1.000000
1297292.075098,5.000000,-4.000000,-1.000000,-2.000000,-1.000000,0.000000,-2.000000,-4.000000
1297292.075153,-6.000000,-23.000000,-1.000000,1.000000,-4.000000,-5.000000,1.000000,-3.000000
1297292.082805,-8.000000,-2.000000,2.000000,-1.000000,9.000000,-5.000000,-3.000000,-7.000000
1297292.082832,-9.000000,13.000000,-10.000000,1.000000,-6.000000,-1.000000,0.000000,1.000000
1297292.112412,-1.000000,-2.000000,5.000000,0.000000,-2.000000,0.000000,0.000000,3.000000
1297292.112468,5.000000,17.000000,5.000000,11.000000,7.000000,3.000000,0.000000,0.000000
1297292.113637,-1.000000,-3.000000,4.000000,-1.000000,-4.000000,-3.000000,0.000000,2.000000
1297292.113665,-1.000000,-2.000000,-2.000000,-4.000000,-3.000000,-2.000000,-3.000000,-1.000000
1297292.114845,12.000000,-21.000000,-2.000000,-6.000000,-4.000000,-1.000000,0.000000,1.000000
1297292.114871,1.000000,-4.000000,0.000000,-2.000000,4.000000,-1.000000,-1.000000,-4.000000
1297292.115899,1.000000,3.000000,-1.000000,-1.000000,-13.000000,-2.000000,-2.000000,-5.000000
1297292.115922,-9.000000,-94.000000,0.000000,-6.000000,-1.000000,-5.000000,3.000000,-6.000000
1297292.116072,-12.000000,-53.000000,-1.000000,-5.000000,0.000000,-3.000000,-5.000000,-4.000000
1297292.116122,-3.000000,13.000000,-3.000000,1.000000,6.000000,0.000000,-3.000000,-3.000000
1297292.119991,-3.000000,1.000000,6.000000,-3.000000,-6.000000,4.000000,1.000000,2.000000
1297292.120279,-2.000000,-38.000000,-1.000000,-5.000000,-11.000000,-1.000000,-1.000000,0.000000
1297292.120989,3.000000,-11.000000,-1.000000,2.000000,2.000000,-3.000000,-3.000000,-1.000000
1297292.121031,4.000000,25.000000,-1.000000,-3.000000,-7.000000,-5.000000,-2.000000,0.000000
1297292.127222,-4.000000,8.000000,-4.000000,-6.000000,-3.000000,-1.000000,1.000000,1.000000
1297292.127248,-3.000000,0.000000,7.000000,2.000000,-4.000000,-2.000000,-1.000000,-4.000000
1297292.165390,-4.000000,-2.000000,-3.000000,-3.000000,6.000000,3.000000,0.000000,3.000000
1297292.165420,-14.000000,65.000000,6.000000,11.000000,12.000000,4.000000,-3.000000,2.000000
1297292.172440,-5.000000,6.000000,-2.000000,-9.000000,2.000000,-2.000000,-1.000000,-3.000000
1297292.172476,-2.000000,1.000000,-1.000000,0.000000,-6.000000,-3.000000,4.000000,0.000000
1297292.195140,-2.000000,0.000000,-1.000000,-3.000000,-3.000000,-1.000000,-5.000000,-3.000000
1297292.195290,17.000000,90.000000,-12.000000,-6.000000,10.000000,0.000000,-4.000000,-2.000000
1297292.203762,0.000000,12.000000,1.000000,-4.000000,-3.000000,2.000000,-1.000000,-2.000000
1297292.203796,0.000000,-8.000000,-3.000000,0.000000,-6.000000,-3.000000,2.000000,1.000000
1297292.205171,-9.000000,4.000000,-3.000000,2.000000,2.000000,-4.000000,-1.000000,-4.000000
1297292.205232,-10.000000,5.000000,-1.000000,2.000000,10.000000,5.000000,-4.000000,0.000000
1297292.205992,1.000000,-10.000000,-5.000000,-5.000000,-3.000000,-3.000000,-1.000000,-3.000000
1297292.206053,-6.000000,9.000000,6.000000,0.000000,-8.000000,-4.000000,-3.000000,1.000000
1297292.206858,2.000000,3.000000,-2.000000,-1.000000,2.000000,1.000000,-2.000000,5.000000
1297292.206884,5.000000,15.000000,-4.000000,3.000000,11.000000,0.000000,-3.000000,2.000000
1297292.209893,1.000000,-4.000000,4.000000,-3.000000,-4.000000,-2.000000,-1.000000,0.000000
1297292.210159,2.000000,3.000000,3.000000,1.000000,3.000000,-2.000000,-3.000000,-8.000000
1297292.232664,0.000000,4.000000,-3.000000,-4.000000,-3.000000,0.000000,0.000000,0.000000
1297292.232713,-1.000000,-1.000000,4.000000,2.000000,-7.000000,-3.000000,-2.000000,-1.000000
1297292.233700,0.000000,-4.000000,-4.000000,-2.000000,-3.000000,-2.000000,5.000000,-3.000000
1297292.233723,7.000000,-6.000000,-2.000000,3.000000,2.000000,-3.000000,-2.000000,2.000000
1297292.239854,4.000000,-7.000000,4.000000,-4.000000,1.000000,-3.000000,-4.000000,-6.000000
1297292.239879,-5.000000,-82.000000,-5.000000,-6.000000,-8.000000,-8.000000,-2.000000,-6.000000
1297292.262693,-2.000000,-12.000000,3.000000,0.000000,2.000000,-2.000000,0.000000,-4.000000
1297292.262746,0.000000,-38.000000,-3.000000,-5.000000,-1.000000,-5.000000,-2.000000,-4.000000
1297292.285126,-1.000000,-8.000000,-4.000000,-8.000000,-8.000000,-5.000000,2.000000,3.000000
1297292.285167,-5.000000,-5.000000,-4.000000,0.000000,-1.000000,-4.000000,0.000000,-2.000000
1297292.299901,1.000000,-6.000000,-5.000000,-6.000000,0.000000,-1.000000,2.000000,-3.000000
1297292.299928,-3.000000,-1.000000,6.000000,-1.000000,-3.000000,0.000000,-4.000000,-1.000000
1297292.323019,5.000000,-2.000000,0.000000,2.000000,5.000000,2.000000,-4.000000,1.000000
1297292.323208,14.000000,60.000000,-2.000000,-2.000000,1.000000,-2.000000,-3.000000,7.000000
1297292.324012,-4.000000,1.000000,-2.000000,-4.000000,-6.000000,2.000000,0.000000,0.000000
1297292.324384,4.000000,-15.000000,-4.000000,-1.000000,-2.000000,0.000000,1.000000,0.000000
1297292.326068,-4.000000,9.000000,1.000000,-3.000000,-2.000000,-1.000000,-5.000000,0.000000
1297292.326264,-4.000000,3.000000,3.000000,2.000000,11.000000,1.000000,2.000000,2.000000
1297292.326525,-2.000000,-69.000000,-3.000000,-8.000000,-1.000000,-7.000000,0.000000,-6.000000
1297292.326565,-1.000000,-22.000000,-6.000000,-2.000000,0.000000,-2.000000,0.000000,0.000000
1297292.344938,2.000000,-3.000000,2.000000,-1.000000,1.000000,0.000000,0.000000,3.000000
1297292.344964,2.000000,19.000000,1.000000,-7.000000,-2.000000,-1.000000,0.000000,1.000000
1297292.353612,-6.000000,-41.000000,-1.000000,-3.000000,-6.000000,-5.000000,-3.000000,0.000000
1297292.353650,-7.000000,-50.000000,-4.000000,-1.000000,3.000000,-2.000000,0.000000,1.000000
1297292.355162,-13.000000,13.000000,8.000000,3.000000,-1.000000,2.000000,-4.000000,-2.000000
1297292.355299,-1.000000,-3.000000,-3.000000,1.000000,-2.000000,3.000000,-2.000000,1.000000
1297292.360294,0.000000,-1.000000,-2.000000,9.000000,1.000000,0.000000,-1.000000,-2.000000
1297292.360322,1.000000,6.000000,4.000000,3.000000,0.000000,-2.000000,-3.000000,-1.000000
1297292.375412,-3.000000,-1.000000,-7.000000,-3.000000,0.000000,-1.000000,-1.000000,-1.000000
1297292.375451,-4.000000,-2.000000,-5.000000,-2.000000,-4.000000,2.000000,2.000000,0.000000
1297292.390330,-1.000000,1.000000,4.000000,1.000000,0.000000,-2.000000,-3.000000,-6.000000
1297292.390389,-1.000000,-3.000000,-2.000000,3.000000,3.000000,1.000000,0.000000,-1.000000
1297292.397420,0.000000,-5.000000,-2.000000,-4.000000,2.000000,1.000000,-1.000000,-5.000000
1297292.397447,0.000000,-3.000000,8.000000,-2.000000,-6.000000,-3.000000,3.000000,-1.000000
1297292.420129,2.000000,-4.000000,-1.000000,-6.000000,2.000000,4.000000,-4.000000,2.000000
1297292.420156,-3.000000,1.000000,2.000000,-4.000000,-9.000000,-1.000000,2.000000,2.000000
1297292.427318,-2.000000,-5.000000,8.000000,0.000000,3.000000,-2.000000,-1.000000,-4.000000
1297292.427347,-2.000000,-20.000000,-1.000000,-4.000000,-8.000000,-4.000000,-3.000000,0.000000
1297292.442933,-5.000000,-15.000000,2.000000,-7.000000,1.000000,3.000000,3.000000,-7.000000
1297292.443016,-29.000000,-52.000000,4.000000,-4.000000,-5.000000,-4.000000,-3.000000,-8.000000
1297292.444995,-2.000000,-11.000000,-7.000000,2.000000,6.000000,0.000000,-1.000000,-4.000000
1297292.445041,-5.000000,-45.000000,-3.000000,-4.000000,-4.000000,-2.000000,-5.000000,-5.000000
1297292.445517,1.000000,-8.000000,1.000000,-3.000000,-1.000000,3.000000,-2.000000,3.000000
1297292.445569,3.000000,-9.000000,-1.000000,0.000000,-1.000000,-5.000000,-3.000000,-1.000000
1297292.450355,-1.000000,-2.000000,-4.000000,-3.000000,6.000000,-3.000000,-2.000000,-1.000000
1297292.450406,1.000000,-3.000000,0.000000,0.000000,-3.000000,0.000000,-2.000000,2.000000
1297292.464875,0.000000,-4.000000,-1.000000,-1.000000,-1.000000,1.000000,2.000000,-4.000000
1297292.464903,-3.000000,-8.000000,6.000000,-7.000000,-8.000000,-3.000000,-4.000000,-7.000000
1297292.472697,3.000000,120.000000,3.000000,3.000000,-6.000000,4.000000,-4.000000,-1.000000
1297292.472948,-6.000000,-8.000000,-3.000000,0.000000,1.000000,-3.000000,3.000000,-2.000000
1297292.480281,-2.000000,-5.000000,-2.000000,-3.000000,-2.000000,-1.000000,-3.000000,-3.000000
1297292.480308,5.000000,2.000000,2.000000,1.000000,7.000000,1.000000,-2.000000,-1.000000
1297292.510367,-2.000000,-3.000000,0.000000,3.000000,-1.000000,-4.000000,-3.000000,-3.000000
1297292.510395,9.000000,41.000000,-9.000000,8.000000,2.000000,3.000000,3.000000,6.000000
1297292.539806,3.000000,22.000000,-4.000000,-4.000000,-5.000000,3.000000,2.000000,4.000000
1297292.539834,-12.000000,-74.000000,-4.000000,-5.000000,-8.000000,-4.000000,-1.000000,-4.000000
1297292.547057,5.000000,-3.000000,-6.000000,-3.000000,-5.000000,-4.000000,-3.000000,-6.000000
1297292.547100,1.000000,-5.000000,-1.000000,-5.000000,3.000000,0.000000,-2.000000,0.000000
1297292.548545,0.000000,-3.000000,4.000000,3.000000,3.000000,0.000000,0.000000,-1.000000
1297292.548565,0.000000,13.000000,5.000000,0.000000,-4.000000,-2.000000,2.000000,-5.000000
1297292.549515,4.000000,-2.000000,-3.000000,-1.000000,-6.000000,1.000000,1.000000,-2.000000
1297292.549539,10.000000,85.000000,-8.000000,2.000000,16.000000,2.000000,1.000000,7.000000
1297292.550517,5.000000,-12.000000,4.000000,0.000000,4.000000,0.000000,-2.000000,3.000000
1297292.550539,-2.000000,-8.000000,2.000000,-3.000000,2.000000,1.000000,0.000000,-1.000000
1297292.562274,0.000000,-6.000000,-1.000000,-3.000000,2.000000,0.000000,-2.000000,-2.000000
1297292.562302,-2.000000,-9.000000,-3.000000,2.000000,-2.000000,-1.000000,-2.000000,0.000000
1297292.584737,6.000000,-9.000000,-5.000000,1.000000,2.000000,0.000000,-3.000000,-2.000000
1297292.584767,2.000000,2.000000,4.000000,-1.000000,-11.000000,0.000000,0.000000,2.000000
1297292.586171,-9.000000,3.000000,0.000000,-4.000000,2.000000,-4.000000,-4.000000,-3.000000
1297292.586207,-16.000000,-91.000000,-2.000000,-6.000000,-3.000000,-2.000000,-3.000000,-3.000000
1297292.593251,-5.000000,11.000000,-8.000000,2.000000,6.000000,-2.000000,-1.000000,-7.000000
1297292.593276,-1.000000,-35.000000,6.000000,3.000000,1.000000,-1.000000,1.000000,-6.000000
1297292.599682,-1.000000,1.000000,-2.000000,-8.000000,-2.000000,0.000000,-2.000000,0.000000
1297292.599708,-15.000000,8.000000,-6.000000,-6.000000,-2.000000,-1.000000,0.000000,-2.000000
1297292.637496,6.000000,-5.000000,-3.000000,-1.000000,8.000000,-1.000000,1.000000,0.000000
1297292.637522,-3.000000,43.000000,-5.000000,2.000000,4.000000,4.000000,1.000000,2.000000
1297292.652549,-14.000000,6.000000,1.000000,-4.000000,-1.000000,2.000000,-2.000000,1.000000
1297292.652575,1.000000,-1.000000,-2.000000,-4.000000,0.000000,-3.000000,-4.000000,0.000000
1297292.667301,1.000000,-10.000000,1.000000,-14.000000,-4.000000,-3.000000,-1.000000,0.000000
1297292.667327,-4.000000,-2.000000,-4.000000,2.000000,-4.000000,2.000000,0.000000,-3.000000
1297292.674767,-1.000000,-3.000000,2.000000,0.000000,-3.000000,-2.000000,1.000000,0.000000
1297292.674801,1.000000,-3.000000,0.000000,-2.000000,-2.000000,-3.000000,-1.000000,-3.000000
1297292.705135,-18.000000,-71.000000,-9.000000,-11.000000,-7.000000,0.000000,-2.000000,-6.000000
1297292.705198,0.000000,-4.000000,0.000000,-3.000000,-1.000000,1.000000,1.000000,-1.000000
1297292.712650,5.000000,48.000000,7.000000,2.000000,-1.000000,-2.000000,-2.000000,0.000000
1297292.712744,-2.000000,-3.000000,2.000000,-3.000000,-7.000000,0.000000,-4.000000,0.000000
1297292.742786,0.000000,0.000000,-3.000000,-5.000000,3.000000,0.000000,-1.000000,-2.000000
1297292.743006,-14.000000,-7.000000,-3.000000,-1.000000,-5.000000,1.000000,-1.000000,-4.000000
1297292.750846,0.000000,23.000000,6.000000,5.000000,1.000000,0.000000,0.000000,0.000000
1297292.750905,7.000000,0.000000,0.000000,-7.000000,-8.000000,-2.000000,-1.000000,-6.000000
1297292.753122,6.000000,-6.000000,-3.000000,1.000000,1.000000,-1.000000,0.000000,0.000000
1297292.753152,0.000000,-8.000000,-2.000000,2.000000,6.000000,0.000000,2.000000,3.000000
1297292.753864,-8.000000,-22.000000,-5.000000,-3.000000,1.000000,1.000000,3.000000,0.000000
1297292.753891,0.000000,0.000000,-3.000000,1.000000,-7.000000,0.000000,1.000000,-1.000000
1297292.755280,2.000000,1.000000,2.000000,-3.000000,2.000000,1.000000,4.000000,-2.000000
1297292.755307,-11.000000,-65.000000,1.000000,-5.000000,-13.000000,-7.000000,0.000000,-8.000000
1297292.757218,3.000000,-5.000000,1.000000,0.000000,2.000000,-4.000000,-2.000000,-3.000000
1297292.757246,-9.000000,-55.000000,-2.000000,3.000000,-7.000000,-2.000000,-3.000000,-4.000000
1297292.788425,-4.000000,4.000000,2.000000,-3.000000,-5.000000,0.000000,-3.000000,0.000000
1297292.788449,3.000000,-14.000000,1.000000,2.000000,-6.000000,1.000000,0.000000,-1.000000
1297292.788669,4.000000,-12.000000,-8.000000,-3.000000,7.000000,2.000000,-1.000000,0.000000
1297292.788681,-3.000000,1.000000,1.000000,2.000000,-4.000000,2.000000,4.000000,-1.000000
1297292.795556,1.000000,27.000000,3.000000,2.000000,1.000000,1.000000,2.000000,-2.000000
1297292.795582,1.000000,9.000000,7.000000,0.000000,-1.000000,-3.000000,-1.000000,-1.000000
1297292.824780,14.000000,28.000000,-8.000000,-7.000000,-10.000000,-1.000000,-2.000000,1.000000
1297292.824804,-5.000000,7.000000,1.000000,-5.000000,-1.000000,-6.000000,-3.000000,4.000000
1297292.826079,2.000000,-4.000000,4.000000,1.000000,-2.000000,1.000000,-1.000000,-1.000000
1297292.826317,2.000000,1.000000,3.000000,1.000000,5.000000,-5.000000,-1.000000,1.000000
1297292.826833,-1.000000,-30.000000,2.000000,2.000000,-4.000000,0.000000,-1.000000,-2.000000
1297292.826856,-24.000000,-46.000000,9.000000,2.000000,-4.000000,-2.000000,-3.000000,-8.000000
1297292.832792,-5.000000,-16.000000,1.000000,-14.000000,3.000000,-4.000000,-1.000000,-4.000000
1297292.832817,4.000000,32.000000,-1.000000,-1.000000,-1.000000,0.000000,-1.000000,-1.000000
1297292.839627,2.000000,-14.000000,1.000000,-3.000000,1.000000,-2.000000,-2.000000,-1.000000
1297292.839652,0.000000,12.000000,4.000000,-2.000000,4.000000,-1.000000,2.000000,-3.000000
1297292.870118,1.000000,-14.000000,-5.000000,-4.000000,1.000000,1.000000,-3.000000,-3.000000
1297292.870146,-2.000000,4.000000,2.000000,2.000000,-2.000000,1.000000,0.000000,3.000000
1297292.877409,-3.000000,-2.000000,-1.000000,-6.000000,6.000000,3.000000,-1.000000,2.000000
1297292.877471,-9.000000,-14.000000,-3.000000,-3.000000,-5.000000,-4.000000,0.000000,-3.000000
1297292.900648,0.000000,-1.000000,0.000000,0.000000,2.000000,-1.000000,2.000000,3.000000
1297292.900671,-4.000000,-4.000000,-5.000000,-3.000000,-8.000000,0.000000,-1.000000,-3.000000
1297292.907340,6.000000,76.000000,-3.000000,8.000000,13.000000,4.000000,1.000000,1.000000
1297292.907397,-12.000000,5.000000,-1.000000,-5.000000,-7.000000,2.000000,-1.000000,-1.000000
1297292.908815,1.000000,-2.000000,-4.000000,0.000000,-2.000000,-1.000000,-2.000000,-4.000000
1297292.908835,-1.000000,-11.000000,3.000000,-4.000000,-2.000000,-2.000000,2.000000,-1.000000
1297292.909462,-3.000000,-12.000000,-1.000000,-5.000000,-4.000000,-2.000000,0.000000,0.000000
1297292.909485,-9.000000,36.000000,-1.000000,-2.000000,0.000000,3.000000,-5.000000,-1.000000
1297292.916186,-15.000000,0.000000,-2.000000,4.000000,-4.000000,0.000000,-1.000000,1.000000
1297292.916211,-2.000000,-3.000000,0.000000,-1.000000,-1.000000,-3.000000,5.000000,-1.000000
1297292.922526,-4.000000,-8.000000,-6.000000,-4.000000,-4.000000,-2.000000,-3.000000,-2.000000
1297292.922550,-5.000000,-14.000000,7.000000,-3.000000,-6.000000,-5.000000,-2.000000,-1.000000
1297292.930981,-5.000000,-12.000000,-5.000000,-1.000000,-2.000000,-1.000000,-2.000000,-3.000000
1297292.931014,4.000000,2.000000,-2.000000,1.000000,2.000000,-1.000000,-1.000000,-4.000000
1297292.944989,-1.000000,-2.000000,0.000000,1.000000,-10.000000,-2.000000,2.000000,-2.000000
1297292.945017,-2.000000,-15.000000,2.000000,0.000000,4.000000,0.000000,0.000000,2.000000
1297292.953336,-4.000000,-7.000000,-6.000000,2.000000,-3.000000,1.000000,-3.000000,-1.000000
1297292.953479,3.000000,91.000000,8.000000,9.000000,22.000000,2.000000,-2.000000,-2.000000
1297292.959761,1.000000,13.000000,-3.000000,0.000000,2.000000,-1.000000,2.000000,-2.000000
1297292.959787,-7.000000,-105.000000,-13.000000,-4.000000,-4.000000,-6.000000,-3.000000,4.000000
1297292.990106,-3.000000,-8.000000,-7.000000,3.000000,-2.000000,-4.000000,-4.000000,2.000000
1297292.990133,0.000000,-7.000000,-1.000000,-4.000000,2.000000,-3.000000,1.000000,-4.000000
1297292.997141,1.000000,-6.000000,-1.000000,-4.000000,-3.000000,2.000000,2.000000,3.000000
1297292.997190,0.000000,-3.000000,-1.000000,1.000000,1.000000,2.000000,1.000000,-3.000000
1297293.019854,1.000000,7.000000,-1.000000,0.000000,-2.000000,-4.000000,-1.000000,-2.000000
1297293.019884,-1.000000,-2.000000,3.000000,-1.000000,-3.000000,-1.000000,1.000000,0.000000
1297293.020761,2.000000,-2.000000,-4.000000,-6.000000,2.000000,-4.000000,0.000000,-1.000000
1297293.020802,2.000000,-6.000000,-2.000000,5.000000,-1.000000,0.000000,-1.000000,1.000000
1297293.022133,9.000000,15.000000,-6.000000,-3.000000,-6.000000,-4.000000,0.000000,-1.000000
1297293.022154,3.000000,-1.000000,-8.000000,0.000000,-2.000000,-2.000000,0.000000,-2.000000
1297293.022906,1.000000,-5.000000,-2.000000,1.000000,-4.000000,0.000000,-2.000000,-4.000000
1297293.022929,-9.000000,9.000000,11.000000,7.000000,1.000000,1.000000,0.000000,-1.000000
1297293.036458,2.000000,-3.000000,-1.000000,-9.000000,-4.000000,-2.000000,-1.000000,5.000000
1297293.036513,-23.000000,-70.000000,-8.000000,-7.000000,-2.000000,-1.000000,-3.000000,-3.000000
1297293.064744,-3.000000,-96.000000,0.000000,-16.000000,-7.000000,-7.000000,-1.000000,-1.000000
1297293.064770,-2.000000,-93.000000,-5.000000,-5.000000,-13.000000,-6.000000,-5.000000,-5.000000
1297293.066059,-3.000000,-10.000000,0.000000,-3.000000,3.000000,0.000000,-3.000000,1.000000
1297293.066114,-2.000000,-11.000000,-12.000000,-4.000000,-2.000000,2.000000,-2.000000,-6.000000
1297293.067009,0.000000,-9.000000,1.000000,0.000000,-8.000000,-5.000000,0.000000,-6.000000
1297293.067034,-1.000000,-1.000000,5.000000,3.000000,2.000000,-3.000000,-1.000000,2.000000
1297293.073465,4.000000,3.000000,-4.000000,-1.000000,1.000000,0.000000,0.000000,0.000000
1297293.073489,-3.000000,-8.000000,4.000000,-4.000000,1.000000,-3.000000,0.000000,0.000000
1297293.095679,1.000000,0.000000,-8.000000,3.000000,-1.000000,-2.000000,1.000000,3.000000
1297293.095735,5.000000,-10.000000,0.000000,5.000000,3.000000,1.000000,1.000000,-2.000000
1297293.110104,5.000000,80.000000,2.000000,6.000000,3.000000,0.000000,0.000000,-1.000000
1297293.110138,-9.000000,16.000000,-6.000000,-7.000000,3.000000,2.000000,-3.000000,1.000000
1297293.117357,-9.000000,-7.000000,-3.000000,3.000000,4.000000,5.000000,-2.000000,-4.000000
1297293.117384,-1.000000,-32.000000,0.000000,1.000000,-4.000000,-1.000000,-2.000000,-2.000000
1297293.132227,1.000000,-5.000000,1.000000,2.000000,4.000000,-4.000000,-3.000000,-1.000000
1297293.132250,-10.000000,17.000000,-4.000000,-2.000000,-2.000000,-3.000000,0.000000,-5.000000
1297293.139802,-1.000000,40.000000,3.000000,-2.000000,-12.000000,2.000000,-1.000000,3.000000
1297293.139826,-2.000000,-3.000000,-8.000000,-2.000000,2.000000,-1.000000,-2.000000,0.000000
1297293.141150,0.000000,9.000000,2.000000,4.000000,1.000000,0.000000,0.000000,-2.000000
1297293.141174,1.000000,-21.000000,6.000000,-4.000000,-8.000000,-6.000000,-1.000000,-6.000000
1297293.141843,-12.000000,-64.000000,-4.000000,1.000000,-1.000000,-3.000000,0.000000,1.000000
1297293.141867,-6.000000,-11.000000,-2.000000,5.000000,4.000000,-4.000000,0.000000,-7.000000
1297293.154994,2.000000,-9.000000,0.000000,-4.000000,1.000000,2.000000,0.000000,1.000000
1297293.155132,-1.000000,-6.000000,-6.000000,-2.000000,-2.000000,1.000000,-3.000000,-1.000000
1297293.185323,-2.000000,8.000000,-1.000000,-3.000000,1.000000,0.000000,1.000000,1.000000
1297293.185354,-9.000000,-1.000000,-1.000000,-3.000000,-5.000000,-5.000000,-3.000000,3.000000
1297293.186307,-2.000000,-6.000000,-3.000000,-2.000000,0.000000,0.000000,-2.000000,-3.000000
1297293.186351,5.000000,-17.000000,-16.000000,4.000000,-9.000000,-1.000000,-1.000000,-2.000000
1297293.187268,-7.000000,2.000000,-3.000000,-1.000000,5.000000,-3.000000,0.000000,-1.000000
1297293.187315,-6.000000,-15.000000,3.000000,-4.000000,-4.000000,-1.000000,1.000000,-1.000000
1297293.193000,8.000000,107.000000,1.000000,5.000000,8.000000,5.000000,-2.000000,-2.000000
1297293.193024,-1.000000,1.000000,2.000000,3.000000,-2.000000,-6.000000,0.000000,0.000000
1297293.207300,-5.000000,-4.000000,-3.000000,-2.000000,-2.000000,0.000000,-1.000000,-5.000000
1297293.207325,-6.000000,0.000000,-5.000000,2.000000,1.000000,1.000000,2.000000,0.000000
1297293.229770,2.000000,-3.000000,-3.000000,-1.000000,1.000000,-3.000000,2.000000,-3.000000
1297293.229814,-3.000000,11.000000,-4.000000,-3.000000,-6.000000,-2.000000,-2.000000,-6.000000
1297293.244798,0.000000,-5.000000,-7.000000,-1.000000,-4.000000,-1.000000,0.000000,1.000000
1297293.244824,1.000000,-16.000000,5.000000,-1.000000,7.000000,3.000000,1.000000,-1.000000
1297293.267335,0.000000,8.000000,4.000000,-1.000000,-5.000000,-5.000000,3.000000,-2.000000
1297293.267361,-12.000000,-29.000000,-4.000000,1.000000,-3.000000,1.000000,-5.000000,-7.000000
1297293.274734,10.000000,80.000000,-4.000000,6.000000,11.000000,-4.000000,-2.000000,4.000000
1297293.274759,-19.000000,0.000000,6.000000,2.000000,2.000000,4.000000,2.000000,3.000000
1297293.297221,-7.000000,-15.000000,0.000000,0.000000,3.000000,3.000000,0.000000,-1.000000
1297293.297247,4.000000,-2.000000,-2.000000,-7.000000,2.000000,0.000000,1.000000,-1.000000
1297293.297829,1.000000,-3.000000,0.000000,-3.000000,-6.000000,0.000000,-1.000000,3.000000
1297293.298279,0.000000,1.000000,-4.000000,-1.000000,4.000000,0.000000,-2.000000,1.000000
1297293.300646,-8.000000,4.000000,-2.000000,-9.000000,-3.000000,-3.000000,1.000000,-2.000000
1297293.300710,-3.000000,-6.000000,2.000000,-2.000000,5.000000,-3.000000,-3.000000,-4.000000
1297293.301211,-14.000000,-7.000000,0.000000,-3.000000,-5.000000,-3.000000,-2.000000,-4.000000
1297293.301238,13.000000,69.000000,-16.000000,3.000000,6.000000,2.000000,-1.000000,5.000000
1297293.305051,8.000000,64.000000,-7.000000,6.000000,18.000000,5.000000,2.000000,7.000000
1297293.305080,-2.000000,-20.000000,1.000000,-5.000000,-3.000000,1.000000,-1.000000,-2.000000
1297293.313362,-7.000000,-38.000000,-5.000000,-5.000000,-4.000000,-1.000000,-4.000000,-6.000000
1297293.313413,1.000000,80.000000,5.000000,5.000000,-5.000000,2.000000,-1.000000,0.000000
1297293.327352,-7.000000,26.000000,2.000000,0.000000,1.000000,0.000000,-1.000000,-2.000000
1297293.327378,-4.000000,-4.000000,1.000000,-1.000000,3.000000,0.000000,0.000000,-1.000000
1297293.349844,-3.000000,-7.000000,-4.000000,-5.000000,-5.000000,-1.000000,0.000000,0.000000
1297293.349870,5.000000,-7.000000,-5.000000,-4.000000,1.000000,3.000000,-3.000000,1.000000
1297293.365044,-5.000000,3.000000,-4.000000,-2.000000,-7.000000,-5.000000,-2.000000,1.000000
1297293.365074,0.000000,-17.000000,-9.000000,-10.000000,-3.000000,-3.000000,-2.000000,1.000000
1297293.383210,-6.000000,-17.000000,2.000000,-1.000000,-7.000000,-4.000000,-1.000000,-3.000000
1297293.383737,0.000000,6.000000,8.000000,-1.000000,3.000000,-2.000000,0.000000,0.000000
1297293.384774,0.000000,-21.000000,-2.000000,1.000000,0.000000,-1.000000,-3.000000,-3.000000
1297293.384929,-2.000000,-41.000000,2.000000,-6.000000,1.000000,-4.000000,-1.000000,-2.000000
1297293.385165,3.000000,-9.000000,3.000000,3.000000,-3.000000,-1.000000,0.000000,-1.000000
1297293.385191,-12.000000,-4.000000,-1.000000,0.000000,-1.000000,-3.000000,-2.000000,-2.000000
1297293.385498,0.000000,-33.000000,-3.000000,-8.000000,-8.000000,-2.000000,-4.000000,3.000000
1297293.385522,7.000000,60.000000,-1.000000,4.000000,6.000000,5.000000,-1.000000,2.000000
1297293.394993,-6.000000,-3.000000,-4.000000,-4.000000,-1.000000,0.000000,1.000000,1.000000
1297293.395058,-8.000000,4.000000,1.000000,-2.000000,8.000000,1.000000,-2.000000,-4.000000
1297293.402681,3.000000,-7.000000,-1.000000,-3.000000,-11.000000,-1.000000,-2.000000,-3.000000
1297293.402737,2.000000,5.000000,-7.000000,4.000000,-1.000000,0.000000,-2.000000,-5.000000
1297293.418589,1.000000,0.000000,6.000000,2.000000,-1.000000,0.000000,-3.000000,-2.000000
1297293.418616,1.000000,-5.000000,-15.000000,-2.000000,0.000000,-1.000000,-1.000000,-3.000000
1297293.424896,-3.000000,-46.000000,-2.000000,-10.000000,-6.000000,-3.000000,-3.000000,-2.000000
1297293.424923,11.000000,110.000000,2.000000,11.000000,17.000000,6.000000,3.000000,4.000000
1297293.433891,1.000000,-4.000000,-2.000000,-2.000000,0.000000,-7.000000,-1.000000,0.000000
1297293.433919,19.000000,91.000000,-10.000000,3.000000,12.000000,11.000000,-3.000000,7.000000
1297293.454938,0.000000,-5.000000,3.000000,-2.000000,-1.000000,2.000000,-1.000000,0.000000
1297293.454968,-6.000000,-97.000000,-5.000000,-5.000000,-3.000000,-4.000000,-1.000000,-5.000000
1297293.470087,-8.000000,-8.000000,-1.000000,0.000000,1.000000,1.000000,-3.000000,2.000000
1297293.470134,7.000000,42.000000,-8.000000,3.000000,7.000000,0.000000,0.000000,0.000000
1297293.477114,-2.000000,-5.000000,-4.000000,-1.000000,1.000000,-1.000000,1.000000,1.000000
1297293.477144,1.000000,-14.000000,2.000000,5.000000,3.000000,1.000000,-1.000000,-2.000000
1297293.500963,4.000000,-33.000000,-2.000000,-1.000000,-8.000000,0.000000,-2.000000,-1.000000
1297293.501018,-3.000000,6.000000,2.000000,1.000000,-4.000000,-1.000000,0.000000,1.000000
1297293.501218,-17.000000,5.000000,-3.000000,0.000000,0.000000,-2.000000,4.000000,0.000000
1297293.501255,-3.000000,-2.000000,-5.000000,-6.000000,-2.000000,0.000000,-1.000000,1.000000
1297293.502825,4.000000,34.000000,6.000000,4.000000,6.000000,5.000000,-1.000000,-1.000000
1297293.502848,-1.000000,-4.000000,0.000000,-1.000000,2.000000,-2.000000,-2.000000,-2.000000
1297293.503648,-8.000000,-78.000000,1.000000,-1.000000,-16.000000,-3.000000,-3.000000,-4.000000
1297293.503673,2.000000,-14.000000,-4.000000,-3.000000,-5.000000,-3.000000,-2.000000,3.000000
1297293.514842,5.000000,-8.000000,9.000000,-1.000000,1.000000,-2.000000,-2.000000,-4.000000
1297293.514869,1.000000,1.000000,-7.000000,-1.000000,11.000000,2.000000,-2.000000,0.000000
1297293.530240,5.000000,-10.000000,1.000000,3.000000,2.000000,-2.000000,2.000000,0.000000
1297293.530296,-3.000000,-11.000000,-1.000000,-10.000000,-16.000000,-7.000000,2.000000,1.000000
1297293.538286,-1.000000,-12.000000,0.000000,-1.000000,5.000000,3.000000,-3.000000,1.000000
1297293.538311,-4.000000,-3.000000,-7.000000,-2.000000,-3.000000,-1.000000,0.000000,-2.000000
1297293.544910,2.000000,-14.000000,-2.000000,4.000000,-5.000000,0.000000,-2.000000,-5.000000
1297293.544935,-2.000000,4.000000,-2.000000,-2.000000,13.000000,-1.000000,-5.000000,2.000000
1297293.553143,3.000000,-1.000000,1.000000,-1.000000,-5.000000,-2.000000,-2.000000,-4.000000
1297293.553172,-4.000000,59.000000,8.000000,-1.000000,-15.000000,2.000000,1.000000,-1.000000
1297293.574932,4.000000,-10.000000,0.000000,2.000000,1.000000,2.000000,2.000000,-3.000000
1297293.574958,-2.000000,-4.000000,-5.000000,-1.000000,1.000000,-3.000000,1.000000,-3.000000
1297293.590069,2.000000,-1.000000,3.000000,-2.000000,5.000000,-1.000000,-2.000000,4.000000
1297293.590121,1.000000,-1.000000,-6.000000,2.000000,-1.000000,-3.000000,-3.000000,0.000000
1297293.619913,-4.000000,0.000000,-1.000000,-1.000000,1.000000,0.000000,1.000000,1.000000
1297293.619971,0.000000,-7.000000,-18.000000,-4.000000,5.000000,0.000000,-1.000000,2.000000
1297293.628104,-1.000000,-16.000000,-1.000000,-1.000000,4.000000,1.000000,-1.000000,-2.000000
1297293.628125,-4.000000,-9.000000,-3.000000,3.000000,5.000000,2.000000,-3.000000,-4.000000
1297293.628980,-16.000000,-6.000000,-6.000000,-4.000000,2.000000,-2.000000,-1.000000,-2.000000
1297293.629036,10.000000,1.000000,10.000000,5.000000,-6.000000,-1.000000,-1.000000,1.000000
1297293.630528,-32.000000,-53.000000,-7.000000,-10.000000,-4.000000,-8.000000,-3.000000,-3.000000
1297293.630554,-3.000000,-10.000000,-4.000000,-2.000000,-5.000000,-1.000000,5.000000,-4.000000
1297293.631373,0.000000,-25.000000,9.000000,8.000000,4.000000,-5.000000,-1.000000,-1.000000
1297293.631396,0.000000,2.000000,-1.000000,-5.000000,-3.000000,-1.000000,0.000000,-2.000000
1297293.657816,-4.000000,-73.000000,-3.000000,-4.000000,5.000000,2.000000,1.000000,-1.000000
1297293.657846,-1.000000,-6.000000,-3.000000,-1.000000,-8.000000,-1.000000,-3.000000,-2.000000
1297293.658068,-3.000000,-2.000000,-1.000000,-1.000000,8.000000,-4.000000,2.000000,-5.000000
1297293.658106,4.000000,-22.000000,-3.000000,-4.000000,-3.000000,-2.000000,-1.000000,-1.000000
1297293.659897,-4.000000,23.000000,0.000000,-3.000000,-7.000000,-3.000000,0.000000,1.000000
1297293.659925,-5.000000,-34.000000,-3.000000,-15.000000,-6.000000,0.000000,0.000000,-3.000000
1297293.664878,6.000000,11.000000,0.000000,-1.000000,0.000000,-6.000000,2.000000,-1.000000
1297293.664903,-6.000000,14.000000,9.000000,-5.000000,-5.000000,-5.000000,-1.000000,-3.000000
1297293.673075,-3.000000,-4.000000,2.000000,2.000000,5.000000,2.000000,-2.000000,0.000000
1297293.673101,4.000000,-15.000000,-1.000000,-5.000000,1.000000,3.000000,-4.000000,1.000000
1297293.679711,-4.000000,63.000000,2.000000,-9.000000,-5.000000,1.000000,0.000000,2.000000
1297293.679736,0.000000,-8.000000,-2.000000,1.000000,-3.000000,-1.000000,1.000000,0.000000
1297293.694914,-9.000000,-8.000000,-1.000000,-1.000000,-1.000000,1.000000,-1.000000,-3.000000
1297293.694940,3.000000,-3.000000,-2.000000,-6.000000,-3.000000,0.000000,1.000000,0.000000
1297293.702516,-1.000000,8.000000,3.000000,0.000000,-1.000000,-3.000000,-1.000000,-4.000000
1297293.702543,8.000000,118.000000,8.000000,9.000000,8.000000,6.000000,-1.000000,3.000000
1297293.740358,6.000000,-7.000000,-3.000000,-3.000000,-5.000000,-4.000000,-2.000000,1.000000
1297293.740580,-3.000000,-5.000000,0.000000,1.000000,4.000000,-1.000000,-1.000000,2.000000
1297293.740845,5.000000,-2.000000,-2.000000,2.000000,-6.000000,0.000000,1.000000,-4.000000
1297293.741200,2.000000,3.000000,-1.000000,-5.000000,-10.000000,-2.000000,1.000000,-2.000000
1297293.742052,3.000000,5.000000,5.000000,0.000000,-2.000000,0.000000,-1.000000,-2.000000
1297293.742074,-1.000000,23.000000,3.000000,-5.000000,-9.000000,2.000000,1.000000,-3.000000
1297293.742577,8.000000,-11.000000,0.000000,-10.000000,-11.000000,-3.000000,-4.000000,4.000000
1297293.742600,6.000000,-13.000000,9.000000,-2.000000,-13.000000,-4.000000,1.000000,1.000000
1297293.754857,8.000000,-22.000000,7.000000,-3.000000,0.000000,1.000000,-4.000000,1.000000
1297293.754884,0.000000,-9.000000,-2.000000,-1.000000,-5.000000,1.000000,-3.000000,-3.000000
1297293.762638,-6.000000,-5.000000,-7.000000,5.000000,8.000000,3.000000,-5.000000,1.000000
1297293.762685,-8.000000,6.000000,0.000000,1.000000,2.000000,2.000000,1.000000,3.000000
1297293.778067,-4.000000,-84.000000,4.000000,-8.000000,-12.000000,-5.000000,1.000000,-5.000000
1297293.778108,-1.000000,-28.000000,-3.000000,-3.000000,5.000000,-6.000000,0.000000,-7.000000
1297293.784669,11.000000,48.000000,7.000000,11.000000,7.000000,5.000000,2.000000,-5.000000
1297293.784694,-2.000000,-10.000000,-5.000000,6.000000,1.000000,1.000000,-1.000000,3.000000
1297293.807370,-2.000000,-5.000000,3.000000,1.000000,-2.000000,-3.000000,-1.000000,1.000000
1297293.807397,-3.000000,3.000000,-6.000000,1.000000,-1.000000,1.000000,-4.000000,-2.000000
1297293.814852,-3.000000,2.000000,-9.000000,-7.000000,3.000000,-2.000000,-2.000000,-1.000000
1297293.814879,-1.000000,-3.000000,5.000000,-1.000000,-4.000000,-2.000000,-2.000000,-1.000000
1297293.844634,1.000000,46.000000,-5.000000,4.000000,5.000000,0.000000,1.000000,4.000000
1297293.844660,-6.000000,-9.000000,7.000000,3.000000,-5.000000,-1.000000,1.000000,3.000000
1297293.852635,-5.000000,-1.000000,0.000000,2.000000,5.000000,1.000000,-3.000000,-2.000000
1297293.852662,0.000000,-10.000000,-4.000000,-3.000000,-2.000000,3.000000,2.000000,0.000000
1297293.853991,-21.000000,-75.000000,1.000000,2.000000,-3.000000,0.000000,-4.000000,-5.000000
1297293.854018,-4.000000,-1.000000,2.000000,0.000000,-5.000000,0.000000,0.000000,-4.000000
1297293.854534,1.000000,-5.000000,4.000000,-1.000000,4.000000,0.000000,-1.000000,4.000000
1297293.854650,-8.000000,-53.000000,-5.000000,-6.000000,0.000000,-1.000000,-3.000000,-2.000000
1297293.855719,-7.000000,-5.000000,-2.000000,2.000000,1.000000,-2.000000,-1.000000,1.000000
1297293.855743,-6.000000,5.000000,-25.000000,-5.000000,-4.000000,-5.000000,-1.000000,1.000000
1297293.859616,1.000000,-3.000000,5.000000,-4.000000,-1.000000,0.000000,-4.000000,1.000000
1297293.859640,2.000000,127.000000,-6.000000,9.000000,19.000000,5.000000,1.000000,2.000000
1297293.897637,-5.000000,-15.000000,-2.000000,-9.000000,-9.000000,-3.000000,-4.000000,0.000000
1297293.897664,0.000000,-7.000000,1.000000,0.000000,-1.000000,-2.000000,-4.000000,-3.000000
1297293.904799,2.000000,-2.000000,2.000000,-6.000000,-1.000000,-3.000000,-4.000000,-1.000000
1297293.904826,1.000000,-4.000000,8.000000,-4.000000,-10.000000,-3.000000,-2.000000,-2.000000
1297293.927475,-7.000000,-7.000000,1.000000,3.000000,5.000000,2.000000,3.000000,-1.000000
1297293.927503,32.000000,127.000000,-11.000000,20.000000,27.000000,12.000000,1.000000,6.000000
1297293.935011,-5.000000,-4.000000,-2.000000,0.000000,-5.000000,0.000000,-3.000000,-2.000000
1297293.935057,3.000000,-2.000000,6.000000,3.000000,4.000000,-3.000000,0.000000,-1.000000
1297293.949912,-17.000000,-53.000000,-6.000000,-2.000000,-4.000000,0.000000,-2.000000,-1.000000
1297293.949961,-2.000000,-2.000000,2.000000,3.000000,3.000000,4.000000,1.000000,-1.000000
1297293.972303,-4.000000,20.000000,-2.000000,0.000000,3.000000,1.000000,-4.000000,-3.000000
1297293.972329,-2.000000,-15.000000,-1.000000,-6.000000,-4.000000,-7.000000,-4.000000,-1.000000
1297293.981742,-1.000000,-3.000000,0.000000,-4.000000,1.000000,-1.000000,1.000000,-1.000000
1297293.981777,-6.000000,-118.000000,-8.000000,-8.000000,-7.000000,-6.000000,-4.000000,-3.000000
1297293.982005,-9.000000,-8.000000,1.000000,0.000000,-2.000000,1.000000,-1.000000,-4.000000
1297293.982041,4.000000,-15.000000,3.000000,-4.000000,2.000000,2.000000,-1.000000,1.000000
1297293.982910,4.000000,17.000000,2.000000,-1.000000,-3.000000,-1.000000,-4.000000,0.000000
1297293.982933,2.000000,-5.000000,1.000000,1.000000,4.000000,-2.000000,1.000000,-1.000000
1297294.017321,-1.000000,-25.000000,-4.000000,-4.000000,0.000000,-3.000000,-3.000000,-4.000000
1297294.017347,-11.000000,5.000000,-8.000000,-1.000000,-3.000000,0.000000,-3.000000,-2.000000
1297294.025052,-4.000000,-59.000000,5.000000,1.000000,1.000000,-2.000000,2.000000,-4.000000
1297294.025093,-4.000000,-7.000000,-1.000000,0.000000,-3.000000,-1.000000,-2.000000,0.000000
1297294.055139,6.000000,34.000000,5.000000,0.000000,-1.000000,0.000000,-2.000000,2.000000
1297294.055166,1.000000,-27.000000,-10.000000,-2.000000,9.000000,-1.000000,-4.000000,1.000000
1297294.055538,0.000000,-28.000000,0.000000,-17.000000,-15.000000,-6.000000,1.000000,-2.000000
1297294.055565,2.000000,-10.000000,3.000000,2.000000,-3.000000,0.000000,2.000000,-1.000000
1297294.056829,6.000000,-9.000000,-3.000000,1.000000,-5.000000,-1.000000,-3.000000,-1.000000
1297294.056850,6.000000,13.000000,-3.000000,-2.000000,-11.000000,3.000000,0.000000,3.000000
1297294.058028,-7.000000,6.000000,0.000000,-3.000000,7.000000,-5.000000,4.000000,2.000000
1297294.058056,1.000000,11.000000,1.000000,4.000000,-5.000000,-4.000000,1.000000,-3.000000
1297294.059162,-2.000000,3.000000,-9.000000,-6.000000,-5.000000,2.000000,0.000000,2.000000
1297294.059204,5.000000,1.000000,8.000000,0.000000,-4.000000,-1.000000,0.000000,1.000000
1297294.062243,1.000000,-4.000000,1.000000,3.000000,-1.000000,0.000000,1.000000,-4.000000
1297294.062268,-3.000000,-5.000000,4.000000,2.000000,-2.000000,-6.000000,1.000000,-4.000000
1297294.092817,3.000000,-5.000000,-2.000000,-5.000000,-6.000000,-2.000000,-1.000000,4.000000
1297294.092857,4.000000,2.000000,-2.000000,-1.000000,-1.000000,4.000000,-2.000000,0.000000
1297294.093018,3.000000,-6.000000,-1.000000,-3.000000,11.000000,4.000000,-1.000000,0.000000
1297294.093056,-3.000000,-23.000000,-2.000000,0.000000,-1.000000,-4.000000,0.000000,-1.000000
1297294.094605,-3.000000,-5.000000,-2.000000,-1.000000,-3.000000,-1.000000,-1.000000,-4.000000
1297294.094712,3.000000,35.000000,-1.000000,8.000000,11.000000,3.000000,1.000000,-5.000000
1297294.130168,2.000000,-3.000000,0.000000,0.000000,-8.000000,-1.000000,-2.000000,-2.000000
1297294.130543,-4.000000,0.000000,0.000000,1.000000,3.000000,-3.000000,2.000000,1.000000
1297294.131647,-3.000000,6.000000,6.000000,1.000000,6.000000,0.000000,-4.000000,-4.000000
1297294.131670,4.000000,8.000000,-4.000000,-1.000000,3.000000,0.000000,1.000000,0.000000
1297294.132496,3.000000,6.000000,7.000000,1.000000,2.000000,0.000000,2.000000,0.000000
1297294.132519,-1.000000,-8.000000,0.000000,0.000000,-3.000000,-4.000000,0.000000,0.000000
1297294.137381,-13.000000,-2.000000,3.000000,4.000000,7.000000,3.000000,1.000000,-2.000000
1297294.137407,-20.000000,-15.000000,-1.000000,-6.000000,4.000000,-4.000000,0.000000,-4.000000
1297294.144727,-10.000000,-72.000000,-10.000000,-3.000000,0.000000,-2.000000,-2.000000,-5.000000
1297294.144754,-3.000000,-5.000000,-4.000000,0.000000,1.000000,-2.000000,-1.000000,-3.000000
1297294.182334,-6.000000,-11.000000,-5.000000,-3.000000,3.000000,3.000000,-4.000000,0.000000
1297294.182361,0.000000,46.000000,-8.000000,15.000000,11.000000,2.000000,0.000000,-4.000000
1297294.212929,-9.000000,-25.000000,-9.000000,-12.000000,-5.000000,-3.000000,-2.000000,-6.000000
1297294.213147,-11.000000,-3.000000,0.000000,0.000000,-4.000000,2.000000,1.000000,-1.000000
1297294.214105,-6.000000,13.000000,-1.000000,1.000000,-1.000000,-1.000000,1.000000,2.000000
1297294.214128,4.000000,30.000000,-2.000000,1.000000,6.000000,4.000000,-3.000000,3.000000
1297294.214862,3.000000,-3.000000,3.000000,1.000000,-1.000000,-5.000000,1.000000,1.000000
1297294.214886,3.000000,38.000000,3.000000,3.000000,11.000000,3.000000,-1.000000,2.000000
1297294.220745,-19.000000,6.000000,6.000000,2.000000,3.000000,-3.000000,3.000000,0.000000
1297294.220792,0.000000,-12.000000,-6.000000,1.000000,-3.000000,-2.000000,-4.000000,-4.000000
1297294.221645,3.000000,-7.000000,2.000000,-3.000000,-6.000000,-2.000000,-1.000000,-3.000000
1297294.221670,-2.000000,-5.000000,-3.000000,-3.000000,1.000000,1.000000,0.000000,2.000000
1297294.227161,2.000000,-2.000000,1.000000,-3.000000,-5.000000,-1.000000,-3.000000,2.000000
1297294.227190,-2.000000,71.000000,-9.000000,-2.000000,-2.000000,2.000000,1.000000,1.000000
1297294.242651,8.000000,-9.000000,-1.000000,1.000000,1.000000,0.000000,1.000000,-3.000000
1297294.242702,-6.000000,-50.000000,-5.000000,3.000000,6.000000,-1.000000,2.000000,1.000000
1297294.249911,1.000000,42.000000,1.000000,2.000000,5.000000,0.000000,-3.000000,-2.000000
1297294.249938,2.000000,-2.000000,-5.000000,-1.000000,3.000000,3.000000,-2.000000,-6.000000
1297294.257321,1.000000,-3.000000,-3.000000,-1.000000,4.000000,-1.000000,-2.000000,-1.000000
1297294.257415,1.000000,-2.000000,0.000000,-1.000000,-5.000000,-4.000000,-4.000000,-1.000000
1297294.264762,0.000000,-3.000000,2.000000,-5.000000,0.000000,-3.000000,-2.000000,-1.000000
1297294.264787,-6.000000,14.000000,-5.000000,1.000000,-6.000000,-4.000000,-1.000000,0.000000
1297294.295025,-4.000000,-8.000000,1.000000,1.000000,0.000000,-4.000000,3.000000,1.000000
1297294.295154,3.000000,8.000000,-5.000000,-9.000000,-1.000000,-1.000000,1.000000,-1.000000
1297294.302426,-4.000000,-3.000000,3.000000,-1.000000,0.000000,-2.000000,-6.000000,-2.000000
1297294.302452,-1.000000,-1.000000,2.000000,3.000000,1.000000,-1.000000,-1.000000,-1.000000
1297294.332398,-3.000000,1.000000,0.000000,0.000000,-1.000000,0.000000,0.000000,0.000000
1297294.332447,-9.000000,3.000000,-5.000000,1.000000,-7.000000,1.000000,2.000000,-3.000000
1297294.334306,1.000000,2.000000,3.000000,-1.000000,1.000000,-3.000000,3.000000,-1.000000
1297294.334355,1.000000,-10.000000,-2.000000,0.000000,1.000000,-2.000000,-1.000000,2.000000
1297294.335249,-2.000000,-128.000000,-21.000000,-14.000000,-12.000000,-6.000000,-2.000000,-1.000000
1297294.335292,1.000000,-8.000000,0.000000,1.000000,-3.000000,-1.000000,-1.000000,-1.000000
1297294.336027,2.000000,-53.000000,-1.000000,-3.000000,-7.000000,-4.000000,-1.000000,0.000000
1297294.336049,-5.000000,-12.000000,5.000000,4.000000,2.000000,3.000000,0.000000,0.000000
1297294.336789,2.000000,0.000000,3.000000,-2.000000,2.000000,-5.000000,0.000000,2.000000
1297294.336809,-2.000000,1.000000,-5.000000,-1.000000,-5.000000,5.000000,0.000000,-1.000000
1297294.347674,5.000000,36.000000,-2.000000,-6.000000,-1.000000,-1.000000,1.000000,-2.000000
1297294.347730,-13.000000,-74.000000,-4.000000,-6.000000,-4.000000,-4.000000,-2.000000,-8.000000
1297294.369951,-10.000000,-2.000000,-3.000000,-7.000000,2.000000,-1.000000,1.000000,-2.000000
1297294.369976,3.000000,2.000000,0.000000,-16.000000,0.000000,-3.000000,-2.000000,5.000000
1297294.371195,4.000000,34.000000,1.000000,-4.000000,-7.000000,0.000000,1.000000,-3.000000
1297294.371305,2.000000,-2.000000,-1.000000,1.000000,1.000000,0.000000,-2.000000,0.000000
1297294.384870,-7.000000,-96.000000,-2.000000,-10.000000,-7.000000,-2.000000,-1.000000,-1.000000
1297294.384896,-1.000000,-10.000000,-5.000000,0.000000,2.000000,1.000000,-2.000000,-2.000000
1297294.392683,-6.000000,7.000000,1.000000,-3.000000,-1.000000,-1.000000,2.000000,3.000000
1297294.392712,-5.000000,-3.000000,8.000000,2.000000,-3.000000,-1.000000,0.000000,-3.000000
1297294.415055,3.000000,-4.000000,-10.000000,-2.000000,8.000000,5.000000,1.000000,0.000000
1297294.415084,-2.000000,-4.000000,-4.000000,3.000000,0.000000,1.000000,1.000000,-5.000000
1297294.422857,0.000000,5.000000,6.000000,4.000000,3.000000,0.000000,-1.000000,-4.000000
1297294.422912,-3.000000,1.000000,-8.000000,-5.000000,-1.000000,-4.000000,-1.000000,-1.000000
1297294.453864,3.000000,34.000000,-4.000000,-2.000000,4.000000,3.000000,-1.000000,0.000000
1297294.453890,3.000000,-3.000000,7.000000,-4.000000,-1.000000,-3.000000,0.000000,-2.000000
1297294.454023,-2.000000,-8.000000,3.000000,-4.000000,1.000000,-3.000000,-1.000000,-4.000000
1297294.454037,-2.000000,54.000000,-3.000000,5.000000,-1.000000,4.000000,-1.000000,2.000000
1297294.460730,-3.000000,83.000000,-6.000000,-7.000000,6.000000,3.000000,0.000000,3.000000
1297294.460752,8.000000,66.000000,0.000000,14.000000,32.000000,7.000000,-2.000000,-1.000000
1297294.461626,-3.000000,-59.000000,-1.000000,-2.000000,-24.000000,-2.000000,-1.000000,-2.000000
1297294.461650,-6.000000,-1.000000,-6.000000,-7.000000,-1.000000,0.000000,-4.000000,1.000000
1297294.482455,1.000000,0.000000,6.000000,-1.000000,1.000000,-1.000000,-1.000000,-1.000000
1297294.482482,2.000000,-6.000000,-4.000000,-2.000000,0.000000,-3.000000,-3.000000,0.000000
1297294.490656,-3.000000,19.000000,-2.000000,5.000000,-1.000000,-2.000000,-2.000000,1.000000
1297294.490682,-6.000000,9.000000,5.000000,8.000000,4.000000,1.000000,-1.000000,2.000000
1297294.491654,4.000000,-13.000000,-5.000000,-2.000000,-1.000000,-1.000000,-5.000000,0.000000
1297294.491680,8.000000,84.000000,-4.000000,7.000000,13.000000,3.000000,0.000000,-1.000000
1297294.497309,-11.000000,-22.000000,-4.000000,9.000000,16.000000,3.000000,-3.000000,-10.000000
1297294.497335,6.000000,9.000000,0.000000,-5.000000,-7.000000,-3.000000,4.000000,4.000000
1297294.504679,-5.000000,-1.000000,2.000000,-3.000000,-6.000000,4.000000,0.000000,-4.000000
1297294.504704,-1.000000,-20.000000,-7.000000,-9.000000,0.000000,-2.000000,0.000000,0.000000
1297294.527282,4.000000,-7.000000,4.000000,-7.000000,3.000000,-2.000000,-4.000000,3.000000
1297294.527307,-5.000000,-60.000000,0.000000,0.000000,-7.000000,-4.000000,0.000000,-3.000000
1297294.534807,-1.000000,-7.000000,0.000000,-2.000000,0.000000,-1.000000,-1.000000,-5.000000
1297294.534834,1.000000,-4.000000,2.000000,-3.000000,-5.000000,-3.000000,-1.000000,0.000000
1297294.550088,-3.000000,-17.000000,-4.000000,1.000000,-6.000000,-4.000000,1.000000,-3.000000
1297294.550140,14.000000,-21.000000,4.000000,-3.000000,-1.000000,3.000000,0.000000,4.000000
1297294.565000,0.000000,-3.000000,-3.000000,-1.000000,1.000000,-3.000000,-5.000000,-1.000000
1297294.565029,4.000000,-7.000000,-1.000000,-3.000000,-6.000000,-1.000000,3.000000,-1.000000
1297294.579957,-5.000000,8.000000,3.000000,0.000000,-3.000000,-1.000000,2.000000,-2.000000
1297294.579981,0.000000,-7.000000,5.000000,0.000000,-9.000000,0.000000,-1.000000,0.000000
1297294.581026,-4.000000,-9.000000,-6.000000,-11.000000,-10.000000,-3.000000,-4.000000,-3.000000
1297294.581348,-5.000000,-24.000000,-3.000000,-4.000000,-11.000000,-3.000000,0.000000,-4.000000
1297294.582012,0.000000,-11.000000,2.000000,-1.000000,-7.000000,-4.000000,0.000000,4.000000
1297294.582036,2.000000,64.000000,-3.000000,8.000000,9.000000,3.000000,-3.000000,0.000000
1297294.587606,3.000000,10.000000,4.000000,-6.000000,-3.000000,-6.000000,-1.000000,-2.000000
1297294.587635,4.000000,-44.000000,3.000000,6.000000,3.000000,2.000000,0.000000,2.000000
1297294.617525,1.000000,-21.000000,0.000000,4.000000,0.000000,4.000000,1.000000,-4.000000
1297294.617552,-2.000000,-6.000000,-5.000000,1.000000,-5.000000,-7.000000,-3.000000,-3.000000
1297294.624695,-6.000000,-2.000000,4.000000,-1.000000,-4.000000,0.000000,2.000000,-3.000000
1297294.624721,3.000000,12.000000,-8.000000,-1.000000,-4.000000,-2.000000,-2.000000,-4.000000
1297294.655113,0.000000,3.000000,-6.000000,-6.000000,-9.000000,-5.000000,2.000000,2.000000
1297294.655235,-1.000000,0.000000,-4.000000,6.000000,-6.000000,0.000000,-3.000000,-3.000000
1297294.662823,3.000000,57.000000,1.000000,5.000000,3.000000,3.000000,1.000000,2.000000
1297294.662875,1.000000,-5.000000,-1.000000,-4.000000,-1.000000,0.000000,-3.000000,-2.000000
1297294.684688,4.000000,7.000000,1.000000,0.000000,-6.000000,-3.000000,-2.000000,-4.000000
1297294.684732,-10.000000,8.000000,2.000000,0.000000,-1.000000,0.000000,-1.000000,-4.000000
1297294.685549,3.000000,64.000000,0.000000,1.000000,-8.000000,6.000000,-2.000000,-3.000000
1297294.685606,4.000000,14.000000,-1.000000,-3.000000,-2.000000,1.000000,3.000000,2.000000
1297294.692449,2.000000,-3.000000,14.000000,0.000000,-9.000000,-6.000000,1.000000,1.000000
1297294.692491,-6.000000,-2.000000,-4.000000,7.000000,1.000000,-2.000000,-3.000000,-2.000000
1297294.693726,-1.000000,-10.000000,-4.000000,-9.000000,-13.000000,3.000000,2.000000,1.000000
1297294.693750,-1.000000,-15.000000,2.000000,-5.000000,3.000000,1.000000,2.000000,-2.000000
1297294.694438,1.000000,-1.000000,-5.000000,-2.000000,-2.000000,-4.000000,0.000000,-4.000000
1297294.694463,-3.000000,-9.000000,-3.000000,-10.000000,-1.000000,3.000000,0.000000,-1.000000
1297294.696247,4.000000,-2.000000,2.000000,3.000000,1.000000,5.000000,0.000000,-1.000000
1297294.696298,-2.000000,14.000000,6.000000,-4.000000,-2.000000,-3.000000,-4.000000,-3.000000
1297294.730056,-4.000000,-19.000000,-3.000000,1.000000,-3.000000,-1.000000,2.000000,-2.000000
1297294.730113,-10.000000,-41.000000,-13.000000,-2.000000,-2.000000,-2.000000,-5.000000,-5.000000
1297294.745358,-9.000000,-24.000000,5.000000,-7.000000,-12.000000,3.000000,3.000000,-3.000000
1297294.745419,6.000000,35.000000,1.000000,-3.000000,-8.000000,4.000000,0.000000,2.000000
1297294.760176,-1.000000,-25.000000,2.000000,-4.000000,-10.000000,-4.000000,-4.000000,4.000000
1297294.760204,2.000000,-6.000000,-1.000000,-4.000000,2.000000,2.000000,0.000000,-2.000000
1297294.775390,2.000000,-1.000000,-5.000000,5.000000,-5.000000,-2.000000,0.000000,-4.000000
1297294.775451,-4.000000,-8.000000,-1.000000,-1.000000,-10.000000,-1.000000,-4.000000,0.000000
1297294.782845,-4.000000,-75.000000,2.000000,-1.000000,-1.000000,-3.000000,-2.000000,-7.000000
1297294.782885,-2.000000,-11.000000,2.000000,-1.000000,-1.000000,-4.000000,1.000000,-2.000000
1297294.807366,-11.000000,6.000000,1.000000,-1.000000,0.000000,0.000000,-4.000000,-2.000000
1297294.807787,-3.000000,-10.000000,-6.000000,-3.000000,-9.000000,-1.000000,-3.000000,-1.000000
1297294.808372,1.000000,-7.000000,1.000000,2.000000,1.000000,-1.000000,1.000000,-4.000000
1297294.808398,-8.000000,-43.000000,5.000000,2.000000,-2.000000,-2.000000,-1.000000,0.000000
1297294.809168,4.000000,-37.000000,-1.000000,1.000000,-1.000000,-4.000000,-1.000000,0.000000
1297294.809192,0.000000,38.000000,-8.000000,-6.000000,-1.000000,3.000000,1.000000,-2.000000
1297294.809605,-17.000000,-62.000000,-2.000000,-4.000000,-3.000000,-3.000000,1.000000,0.000000
1297294.809633,-5.000000,-13.000000,3.000000,-3.000000,-2.000000,-4.000000,-1.000000,1.000000
1297294.810026,16.000000,21.000000,12.000000,9.000000,-2.000000,1.000000,-2.000000,-1.000000
1297294.810050,-5.000000,-51.000000,-8.000000,-7.000000,-10.000000,-7.000000,-1.000000,-1.000000
1297294.813620,-2.000000,28.000000,3.000000,-4.000000,-9.000000,2.000000,2.000000,1.000000
1297294.813642,-6.000000,-1.000000,2.000000,-1.000000,0.000000,2.000000,0.000000,-5.000000
1297294.834925,-8.000000,1.000000,-14.000000,-9.000000,1.000000,-5.000000,-1.000000,-1.000000
1297294.834952,2.000000,-5.000000,3.000000,-2.000000,5.000000,0.000000,-3.000000,-1.000000
1297294.872424,1.000000,10.000000,-7.000000,-4.000000,-2.000000,-1.000000,1.000000,-2.000000
1297294.872449,2.000000,2.000000,3.000000,1.000000,0.000000,-3.000000,-5.000000,-1.000000
1297294.879779,0.000000,-6.000000,3.000000,-3.000000,-3.000000,-1.000000,1.000000,-6.000000
