# participant_id: P11
# gesture: hard
# trial_number: 2
# stream_name: Myo_EMG
# stream_type: emg
# timestamp: 20260420_171615
# samples: 5416
# duration_sec: 30.563
# nominal_sample_rate: 200.0
# effective_sample_rate: 177.18
#
timestamp,emg_1,emg_2,emg_3,emg_4,emg_5,emg_6,emg_7,emg_8
1310067.189845,-31.000000,20.000000,-8.000000,30.000000,12.000000,-16.000000,33.000000,72.000000
1310067.189857,-2.000000,-3.000000,-25.000000,-17.000000,-37.000000,-66.000000,-128.000000,-128.000000
1310067.212397,41.000000,0.000000,25.000000,10.000000,-20.000000,-14.000000,80.000000,1.000000
1310067.212412,-4.000000,18.000000,37.000000,63.000000,28.000000,56.000000,-98.000000,44.000000
1310067.227283,-57.000000,2.000000,2.000000,65.000000,23.000000,-10.000000,-98.000000,-53.000000
1310067.227299,127.000000,-7.000000,57.000000,127.000000,38.000000,99.000000,127.000000,30.000000
1310067.228266,22.000000,14.000000,45.000000,127.000000,23.000000,-94.000000,-128.000000,27.000000
1310067.228280,-128.000000,-7.000000,20.000000,-27.000000,0.000000,-6.000000,2.000000,-3.000000
1310067.228959,-128.000000,-9.000000,-72.000000,6.000000,-4.000000,41.000000,127.000000,-84.000000
1310067.228992,-84.000000,-7.000000,-2.000000,-18.000000,-7.000000,-1.000000,-40.000000,-5.000000
1310067.230484,7.000000,3.000000,-16.000000,-98.000000,-49.000000,-16.000000,-57.000000,27.000000
1310067.230497,-128.000000,4.000000,13.000000,18.000000,47.000000,0.000000,88.000000,46.000000
1310067.249934,-128.000000,0.000000,2.000000,4.000000,-21.000000,-4.000000,22.000000,-56.000000
1310067.249963,-128.000000,-12.000000,-53.000000,-33.000000,-12.000000,-11.000000,-108.000000,-38.000000
1310067.257431,105.000000,8.000000,24.000000,33.000000,20.000000,-41.000000,-128.000000,47.000000
1310067.257452,-6.000000,-3.000000,9.000000,-72.000000,3.000000,31.000000,-128.000000,0.000000
1310067.287251,-128.000000,0.000000,-16.000000,-15.000000,-20.000000,-16.000000,-18.000000,1.000000
1310067.287261,-128.000000,3.000000,-5.000000,-16.000000,-20.000000,-23.000000,-128.000000,-98.000000
1310067.302378,-111.000000,11.000000,-22.000000,-29.000000,10.000000,8.000000,127.000000,103.000000
1310067.302389,62.000000,-8.000000,-2.000000,-15.000000,-8.000000,11.000000,0.000000,-17.000000
1310067.324714,-128.000000,-9.000000,-2.000000,5.000000,6.000000,41.000000,-106.000000,-30.000000
1310067.324735,127.000000,16.000000,-12.000000,-2.000000,-31.000000,-76.000000,127.000000,33.000000
1310067.325228,-98.000000,1.000000,13.000000,104.000000,19.000000,21.000000,127.000000,65.000000
1310067.325240,18.000000,-12.000000,27.000000,-6.000000,16.000000,11.000000,-128.000000,-15.000000
1310067.326398,-128.000000,3.000000,38.000000,45.000000,17.000000,4.000000,127.000000,-108.000000
1310067.326407,107.000000,-6.000000,-3.000000,64.000000,59.000000,-14.000000,127.000000,90.000000
1310067.326950,71.000000,-7.000000,9.000000,34.000000,-4.000000,-23.000000,127.000000,12.000000
1310067.326958,-9.000000,5.000000,-53.000000,-27.000000,14.000000,-25.000000,-106.000000,-30.000000
1310067.327541,-109.000000,-18.000000,-1.000000,-10.000000,3.000000,-16.000000,31.000000,-21.000000
1310067.327549,61.000000,11.000000,26.000000,33.000000,22.000000,35.000000,47.000000,49.000000
1310067.339645,-128.000000,-9.000000,-60.000000,2.000000,1.000000,33.000000,-51.000000,11.000000
1310067.339657,81.000000,-14.000000,29.000000,-2.000000,-52.000000,-102.000000,-128.000000,0.000000
1310067.340102,127.000000,2.000000,2.000000,-41.000000,-3.000000,33.000000,92.000000,20.000000
1310067.340112,85.000000,5.000000,36.000000,21.000000,4.000000,4.000000,57.000000,52.000000
1310067.362251,-128.000000,-8.000000,-14.000000,3.000000,-13.000000,-14.000000,-49.000000,-29.000000
1310067.362271,4.000000,5.000000,-9.000000,-14.000000,9.000000,10.000000,-1.000000,-12.000000
1310067.362619,127.000000,7.000000,-21.000000,-47.000000,-7.000000,9.000000,-87.000000,11.000000
1310067.362627,-127.000000,-7.000000,-1.000000,-41.000000,-5.000000,-13.000000,-128.000000,-84.000000
1310067.369573,20.000000,-1.000000,46.000000,78.000000,9.000000,-7.000000,-128.000000,27.000000
1310067.369583,-128.000000,4.000000,19.000000,-1.000000,7.000000,-32.000000,127.000000,-10.000000
1310067.384803,127.000000,7.000000,-22.000000,-50.000000,-12.000000,17.000000,-57.000000,7.000000
1310067.384812,81.000000,-27.000000,31.000000,89.000000,21.000000,-3.000000,-104.000000,24.000000
1310067.429833,57.000000,-4.000000,63.000000,102.000000,48.000000,13.000000,-128.000000,-12.000000
1310067.429844,-28.000000,5.000000,7.000000,-28.000000,-4.000000,21.000000,103.000000,36.000000
1310067.445371,-128.000000,-12.000000,-10.000000,-25.000000,-5.000000,1.000000,-53.000000,-70.000000
1310067.445424,127.000000,8.000000,50.000000,28.000000,35.000000,-18.000000,-116.000000,0.000000
1310067.467551,-113.000000,12.000000,21.000000,21.000000,0.000000,-11.000000,3.000000,-24.000000
1310067.467560,-99.000000,-9.000000,-52.000000,-26.000000,-27.000000,37.000000,-6.000000,-24.000000
1310067.468140,127.000000,-4.000000,12.000000,-18.000000,-25.000000,-44.000000,-128.000000,5.000000
1310067.468149,-89.000000,9.000000,-36.000000,-65.000000,-33.000000,-41.000000,-128.000000,-39.000000
1310067.469594,-128.000000,-2.000000,27.000000,53.000000,7.000000,25.000000,31.000000,21.000000
1310067.469620,46.000000,0.000000,1.000000,-28.000000,-31.000000,-19.000000,101.000000,14.000000
1310067.482250,127.000000,-5.000000,-42.000000,-75.000000,-48.000000,9.000000,82.000000,0.000000
1310067.482261,7.000000,1.000000,4.000000,-44.000000,28.000000,58.000000,127.000000,11.000000
1310067.483440,5.000000,4.000000,-5.000000,-8.000000,-32.000000,2.000000,-128.000000,-63.000000
1310067.483450,19.000000,-14.000000,-26.000000,-8.000000,-1.000000,-77.000000,-118.000000,25.000000
1310067.489683,-128.000000,4.000000,-43.000000,-21.000000,4.000000,14.000000,18.000000,5.000000
1310067.489694,-39.000000,1.000000,2.000000,-21.000000,2.000000,54.000000,25.000000,-14.000000
1310067.512194,127.000000,2.000000,27.000000,90.000000,33.000000,38.000000,76.000000,33.000000
1310067.512204,39.000000,3.000000,-9.000000,43.000000,21.000000,-80.000000,-128.000000,-44.000000
1310067.519787,-4.000000,3.000000,6.000000,17.000000,6.000000,16.000000,43.000000,10.000000
1310067.519795,67.000000,4.000000,12.000000,51.000000,-5.000000,1.000000,3.000000,-6.000000
1310067.527778,49.000000,-14.000000,-59.000000,-31.000000,-9.000000,-2.000000,-98.000000,-32.000000
1310067.527788,-128.000000,9.000000,46.000000,74.000000,7.000000,-56.000000,-128.000000,17.000000
1310067.542621,50.000000,-10.000000,4.000000,-6.000000,0.000000,-22.000000,-128.000000,-20.000000
1310067.542640,-128.000000,-5.000000,15.000000,30.000000,-19.000000,13.000000,69.000000,-40.000000
1310067.579765,-30.000000,1.000000,-33.000000,-43.000000,-17.000000,-19.000000,-51.000000,28.000000
1310067.579777,127.000000,17.000000,22.000000,35.000000,16.000000,127.000000,-6.000000,1.000000
1310067.587441,127.000000,-8.000000,-24.000000,-18.000000,-13.000000,-128.000000,-128.000000,30.000000
1310067.587462,52.000000,-2.000000,-19.000000,-57.000000,1.000000,4.000000,85.000000,32.000000
1310067.624628,-59.000000,9.000000,-19.000000,-32.000000,-9.000000,55.000000,15.000000,-13.000000
1310067.624640,127.000000,-10.000000,-2.000000,32.000000,-19.000000,-39.000000,-99.000000,-23.000000
1310067.625190,35.000000,-7.000000,1.000000,-26.000000,6.000000,4.000000,94.000000,-1.000000
1310067.625203,-86.000000,6.000000,-11.000000,-15.000000,-2.000000,10.000000,-57.000000,-34.000000
1310067.626535,127.000000,-10.000000,-22.000000,70.000000,-14.000000,-12.000000,-5.000000,24.000000
1310067.626552,-128.000000,1.000000,-33.000000,-29.000000,-2.000000,27.000000,-53.000000,-46.000000
1310067.627214,-128.000000,6.000000,2.000000,-23.000000,14.000000,-12.000000,127.000000,-1.000000
1310067.627230,50.000000,5.000000,1.000000,-6.000000,34.000000,40.000000,-25.000000,-6.000000
1310067.632329,-88.000000,-12.000000,8.000000,-22.000000,14.000000,53.000000,-23.000000,-25.000000
1310067.632352,-128.000000,-5.000000,23.000000,22.000000,-34.000000,14.000000,-51.000000,-69.000000
1310067.647322,127.000000,5.000000,3.000000,23.000000,-19.000000,-119.000000,-103.000000,-17.000000
1310067.647333,88.000000,-2.000000,1.000000,-6.000000,-11.000000,39.000000,62.000000,40.000000
1310067.662290,95.000000,-9.000000,-10.000000,-67.000000,-16.000000,64.000000,127.000000,29.000000
1310067.662300,127.000000,10.000000,48.000000,65.000000,14.000000,-35.000000,127.000000,-36.000000
1310067.684854,-35.000000,2.000000,-11.000000,-51.000000,-25.000000,3.000000,127.000000,36.000000
1310067.684874,39.000000,-7.000000,-30.000000,-42.000000,-1.000000,18.000000,-128.000000,-10.000000
1310067.685172,127.000000,-6.000000,11.000000,40.000000,54.000000,52.000000,52.000000,29.000000
1310067.685183,44.000000,10.000000,12.000000,-11.000000,-13.000000,-31.000000,107.000000,22.000000
1310067.686499,-70.000000,-6.000000,-40.000000,-29.000000,-17.000000,14.000000,13.000000,-19.000000
1310067.686508,127.000000,-14.000000,-32.000000,-1.000000,-13.000000,-62.000000,-128.000000,3.000000
1310067.699648,-128.000000,0.000000,4.000000,8.000000,21.000000,56.000000,-64.000000,-86.000000
1310067.699664,127.000000,9.000000,25.000000,56.000000,-6.000000,-16.000000,-44.000000,26.000000
1310067.707110,-81.000000,-7.000000,11.000000,75.000000,-5.000000,1.000000,96.000000,-38.000000
1310067.707119,-8.000000,-1.000000,1.000000,-39.000000,1.000000,52.000000,-105.000000,0.000000
1310067.722314,-77.000000,-1.000000,-27.000000,-13.000000,-24.000000,-107.000000,-128.000000,-29.000000
1310067.722326,-128.000000,-14.000000,-11.000000,-31.000000,-19.000000,10.000000,127.000000,47.000000
1310067.744663,-36.000000,1.000000,-6.000000,-13.000000,8.000000,0.000000,114.000000,-39.000000
1310067.744675,-33.000000,2.000000,-6.000000,-20.000000,3.000000,5.000000,-30.000000,11.000000
1310067.759825,-6.000000,10.000000,30.000000,40.000000,6.000000,23.000000,-33.000000,-9.000000
1310067.759837,-128.000000,-7.000000,9.000000,-53.000000,-60.000000,-33.000000,-48.000000,-121.000000
1310067.782222,101.000000,7.000000,24.000000,17.000000,43.000000,-17.000000,2.000000,29.000000
1310067.782233,27.000000,-1.000000,-16.000000,-40.000000,-21.000000,-1.000000,60.000000,-5.000000
1310067.797225,-62.000000,-10.000000,3.000000,-55.000000,-29.000000,57.000000,127.000000,16.000000
1310067.797254,-128.000000,3.000000,65.000000,75.000000,24.000000,-52.000000,127.000000,22.000000
1310067.798197,-128.000000,3.000000,-26.000000,-35.000000,13.000000,67.000000,25.000000,44.000000
1310067.798205,127.000000,-4.000000,-26.000000,-6.000000,-41.000000,-56.000000,-128.000000,-85.000000
1310067.798941,-122.000000,-3.000000,12.000000,-22.000000,1.000000,15.000000,-118.000000,9.000000
1310067.798949,-128.000000,17.000000,13.000000,-39.000000,1.000000,-1.000000,-82.000000,17.000000
1310067.800360,-128.000000,1.000000,-3.000000,-8.000000,-10.000000,-33.000000,-3.000000,-11.000000
1310067.800368,127.000000,-1.000000,-29.000000,-49.000000,-9.000000,-11.000000,-64.000000,-80.000000
1310067.805271,-60.000000,-11.000000,-18.000000,-38.000000,-4.000000,6.000000,105.000000,-24.000000
1310067.805281,-128.000000,-1.000000,-6.000000,47.000000,5.000000,23.000000,-47.000000,-30.000000
1310067.819750,127.000000,3.000000,-8.000000,-39.000000,-39.000000,-16.000000,-26.000000,86.000000
1310067.819761,127.000000,-16.000000,26.000000,5.000000,21.000000,17.000000,-11.000000,0.000000
1310067.820927,-73.000000,-1.000000,14.000000,85.000000,3.000000,3.000000,-42.000000,-28.000000
1310067.820936,127.000000,18.000000,0.000000,-23.000000,-18.000000,-35.000000,-15.000000,19.000000
1310067.842332,104.000000,3.000000,-29.000000,-37.000000,-10.000000,7.000000,-30.000000,-25.000000
1310067.842351,127.000000,7.000000,7.000000,125.000000,12.000000,-6.000000,127.000000,-6.000000
1310067.864952,7.000000,10.000000,-9.000000,6.000000,-19.000000,-11.000000,-65.000000,37.000000
1310067.864972,-48.000000,3.000000,-5.000000,-13.000000,6.000000,17.000000,33.000000,-22.000000
1310067.879864,-76.000000,-21.000000,-20.000000,-25.000000,-21.000000,-8.000000,39.000000,-67.000000
1310067.879880,-13.000000,-1.000000,11.000000,-26.000000,2.000000,-2.000000,-55.000000,40.000000
1310067.902979,-105.000000,3.000000,-23.000000,7.000000,-9.000000,-43.000000,-75.000000,-12.000000
1310067.903007,-128.000000,-8.000000,1.000000,-32.000000,-17.000000,17.000000,127.000000,11.000000
1310067.903486,-32.000000,-6.000000,-4.000000,-13.000000,10.000000,-13.000000,-98.000000,-34.000000
1310067.903513,127.000000,14.000000,-31.000000,-14.000000,-3.000000,37.000000,52.000000,-16.000000
1310067.904557,46.000000,9.000000,0.000000,-20.000000,-27.000000,-3.000000,58.000000,44.000000
1310067.904565,92.000000,-6.000000,-2.000000,-7.000000,8.000000,-13.000000,-1.000000,9.000000
1310067.905233,90.000000,14.000000,1.000000,-18.000000,6.000000,4.000000,-4.000000,61.000000
1310067.905240,-25.000000,-12.000000,7.000000,7.000000,-16.000000,-11.000000,2.000000,-59.000000
1310067.917289,-128.000000,0.000000,15.000000,62.000000,24.000000,-28.000000,29.000000,5.000000
1310067.917325,27.000000,-12.000000,19.000000,-5.000000,11.000000,26.000000,57.000000,-2.000000
1310067.925288,-53.000000,3.000000,-46.000000,-41.000000,4.000000,-2.000000,-107.000000,-3.000000
1310067.925299,12.000000,21.000000,10.000000,-10.000000,-3.000000,-15.000000,15.000000,31.000000
1310067.939965,-106.000000,-19.000000,-10.000000,12.000000,-14.000000,6.000000,41.000000,8.000000
1310067.939995,67.000000,-2.000000,-18.000000,-6.000000,-4.000000,-10.000000,-128.000000,-52.000000
1310067.941367,110.000000,12.000000,13.000000,-14.000000,12.000000,-3.000000,-63.000000,55.000000
1310067.941376,65.000000,2.000000,-10.000000,-18.000000,4.000000,-7.000000,107.000000,14.000000
1310067.962428,36.000000,-9.000000,13.000000,24.000000,56.000000,16.000000,23.000000,-6.000000
1310067.962450,-128.000000,-3.000000,-41.000000,-7.000000,-26.000000,-10.000000,16.000000,-41.000000
1310067.984739,125.000000,7.000000,21.000000,-7.000000,26.000000,76.000000,40.000000,41.000000
1310067.984755,5.000000,-7.000000,-7.000000,-5.000000,-20.000000,-99.000000,-128.000000,-12.000000
1310067.992629,-93.000000,-1.000000,-8.000000,-16.000000,4.000000,34.000000,127.000000,-53.000000
1310067.992646,127.000000,11.000000,-15.000000,-36.000000,2.000000,-79.000000,-128.000000,67.000000
1310068.014812,45.000000,-15.000000,11.000000,35.000000,11.000000,29.000000,-16.000000,-35.000000
1310068.014824,-61.000000,-10.000000,13.000000,-30.000000,3.000000,41.000000,-17.000000,23.000000
1310068.022036,-128.000000,-1.000000,2.000000,-16.000000,6.000000,-45.000000,-128.000000,-8.000000
1310068.022055,127.000000,-3.000000,18.000000,14.000000,37.000000,27.000000,56.000000,23.000000
1310068.023585,-128.000000,-13.000000,6.000000,14.000000,-38.000000,-65.000000,-49.000000,-63.000000
1310068.023606,-43.000000,5.000000,-22.000000,-31.000000,16.000000,77.000000,3.000000,3.000000
1310068.037229,127.000000,0.000000,8.000000,9.000000,-14.000000,-123.000000,-128.000000,-3.000000
1310068.037239,48.000000,-10.000000,3.000000,31.000000,-8.000000,5.000000,127.000000,20.000000
1310068.052111,-67.000000,8.000000,-2.000000,-28.000000,0.000000,36.000000,-4.000000,-26.000000
1310068.052122,-74.000000,9.000000,-9.000000,15.000000,21.000000,26.000000,22.000000,21.000000
1310068.059697,107.000000,-1.000000,-13.000000,13.000000,-1.000000,-31.000000,-46.000000,19.000000
1310068.059710,-50.000000,-5.000000,-1.000000,27.000000,28.000000,-7.000000,-38.000000,-42.000000
1310068.060723,-73.000000,0.000000,-4.000000,-29.000000,-19.000000,25.000000,76.000000,17.000000
1310068.060733,29.000000,-12.000000,32.000000,56.000000,23.000000,7.000000,127.000000,24.000000
1310068.061404,127.000000,-8.000000,-6.000000,-11.000000,0.000000,-9.000000,-128.000000,15.000000
1310068.061416,-63.000000,15.000000,-53.000000,-36.000000,7.000000,-13.000000,-1.000000,-10.000000
1310068.062921,115.000000,-5.000000,33.000000,0.000000,14.000000,16.000000,116.000000,46.000000
1310068.062932,127.000000,-8.000000,17.000000,29.000000,7.000000,9.000000,-46.000000,-40.000000
1310068.074853,35.000000,6.000000,-15.000000,-42.000000,-11.000000,-30.000000,-128.000000,11.000000
1310068.074864,-59.000000,7.000000,4.000000,44.000000,-4.000000,57.000000,127.000000,-1.000000
1310068.119663,127.000000,5.000000,-18.000000,91.000000,24.000000,51.000000,127.000000,33.000000
1310068.119674,-128.000000,-7.000000,21.000000,8.000000,-9.000000,-75.000000,-30.000000,-56.000000
1310068.134685,-19.000000,2.000000,-4.000000,-37.000000,7.000000,79.000000,-6.000000,54.000000
1310068.134694,4.000000,1.000000,22.000000,39.000000,-8.000000,-3.000000,127.000000,-9.000000
1310068.143049,49.000000,-7.000000,2.000000,1.000000,11.000000,2.000000,-60.000000,-26.000000
1310068.143104,-14.000000,7.000000,-12.000000,-25.000000,-20.000000,-30.000000,-107.000000,-27.000000
1310068.143668,-10.000000,-1.000000,5.000000,-14.000000,-7.000000,35.000000,4.000000,50.000000
1310068.143705,61.000000,1.000000,52.000000,104.000000,16.000000,12.000000,-51.000000,63.000000
1310068.144752,-9.000000,0.000000,-15.000000,-21.000000,-10.000000,-75.000000,-128.000000,-19.000000
1310068.144778,100.000000,5.000000,-11.000000,-10.000000,-3.000000,38.000000,127.000000,-16.000000
1310068.145440,-30.000000,-6.000000,-4.000000,-30.000000,-6.000000,24.000000,45.000000,13.000000
1310068.145462,127.000000,10.000000,-10.000000,-14.000000,-10.000000,-24.000000,-118.000000,18.000000
1310068.157517,0.000000,-9.000000,-7.000000,8.000000,10.000000,-2.000000,-6.000000,-1.000000
1310068.157538,-82.000000,5.000000,-18.000000,-24.000000,-14.000000,-27.000000,-6.000000,-21.000000
1310068.179783,-57.000000,-6.000000,-12.000000,-5.000000,-6.000000,14.000000,78.000000,54.000000
1310068.179794,-32.000000,-1.000000,9.000000,-3.000000,18.000000,43.000000,-25.000000,-20.000000
1310068.195076,14.000000,15.000000,-6.000000,5.000000,-23.000000,-103.000000,-128.000000,10.000000
1310068.195095,124.000000,3.000000,-11.000000,-6.000000,18.000000,37.000000,119.000000,-18.000000
1310068.217363,-58.000000,0.000000,-23.000000,26.000000,-14.000000,-23.000000,18.000000,13.000000
1310068.217373,21.000000,-4.000000,27.000000,54.000000,32.000000,42.000000,-98.000000,-28.000000
1310068.239851,-13.000000,10.000000,3.000000,-11.000000,-15.000000,3.000000,33.000000,20.000000
1310068.239880,-128.000000,-8.000000,-16.000000,-9.000000,-17.000000,-5.000000,-29.000000,-28.000000
1310068.262391,59.000000,-12.000000,7.000000,39.000000,-6.000000,0.000000,127.000000,31.000000
1310068.262421,13.000000,-1.000000,-15.000000,0.000000,11.000000,18.000000,-26.000000,9.000000
1310068.277123,66.000000,13.000000,19.000000,-2.000000,14.000000,11.000000,58.000000,43.000000
1310068.277134,28.000000,-12.000000,0.000000,82.000000,-16.000000,-30.000000,-128.000000,-50.000000
1310068.299974,-39.000000,-5.000000,-29.000000,-17.000000,14.000000,-13.000000,66.000000,-24.000000
1310068.300089,127.000000,14.000000,-1.000000,-3.000000,1.000000,21.000000,106.000000,61.000000
1310068.300446,-13.000000,6.000000,10.000000,45.000000,4.000000,-5.000000,31.000000,-5.000000
1310068.300463,66.000000,-13.000000,-17.000000,-24.000000,-1.000000,12.000000,-47.000000,-13.000000
1310068.300926,49.000000,-5.000000,-43.000000,1.000000,2.000000,-22.000000,-68.000000,-25.000000
1310068.300983,21.000000,-5.000000,3.000000,-19.000000,-6.000000,7.000000,-20.000000,-11.000000
1310068.301436,-98.000000,11.000000,-35.000000,-48.000000,7.000000,23.000000,42.000000,-23.000000
1310068.301458,34.000000,11.000000,13.000000,8.000000,7.000000,44.000000,107.000000,20.000000
1310068.303060,83.000000,4.000000,-1.000000,13.000000,18.000000,30.000000,87.000000,13.000000
1310068.303069,67.000000,-6.000000,-29.000000,3.000000,-22.000000,-21.000000,-34.000000,4.000000
1310068.322205,-128.000000,-5.000000,-53.000000,-25.000000,-10.000000,-27.000000,-20.000000,-28.000000
1310068.322217,95.000000,6.000000,1.000000,-5.000000,-21.000000,-4.000000,-82.000000,-5.000000
1310068.329837,-74.000000,-18.000000,31.000000,63.000000,9.000000,12.000000,79.000000,-19.000000
1310068.329849,49.000000,-15.000000,-21.000000,1.000000,-13.000000,6.000000,52.000000,-26.000000
1310068.352188,94.000000,8.000000,-12.000000,-15.000000,-10.000000,-54.000000,-107.000000,31.000000
1310068.352199,52.000000,0.000000,17.000000,57.000000,7.000000,38.000000,118.000000,29.000000
1310068.359605,61.000000,-6.000000,-5.000000,-21.000000,4.000000,-33.000000,-128.000000,5.000000
1310068.359615,-128.000000,-9.000000,-15.000000,22.000000,-25.000000,-28.000000,26.000000,-32.000000
1310068.374565,127.000000,14.000000,-14.000000,-61.000000,-21.000000,46.000000,12.000000,6.000000
1310068.374584,-128.000000,-12.000000,14.000000,-16.000000,6.000000,-10.000000,-128.000000,-35.000000
1310068.375527,127.000000,-3.000000,34.000000,14.000000,3.000000,22.000000,39.000000,4.000000
1310068.375537,-19.000000,2.000000,-19.000000,-11.000000,-2.000000,-18.000000,127.000000,-3.000000
1310068.376459,46.000000,-3.000000,-33.000000,-37.000000,-24.000000,6.000000,74.000000,55.000000
1310068.376469,127.000000,-13.000000,13.000000,5.000000,-6.000000,-36.000000,-128.000000,-47.000000
1310068.377299,127.000000,13.000000,-6.000000,-23.000000,6.000000,34.000000,54.000000,35.000000
1310068.377309,127.000000,9.000000,-10.000000,-6.000000,-15.000000,-44.000000,-112.000000,12.000000
1310068.397596,-22.000000,-2.000000,16.000000,59.000000,-4.000000,-8.000000,-21.000000,-7.000000
1310068.397605,-12.000000,-4.000000,-27.000000,-31.000000,-8.000000,-8.000000,-5.000000,2.000000
1310068.398365,-128.000000,4.000000,-11.000000,-31.000000,0.000000,26.000000,95.000000,-17.000000
1310068.398375,127.000000,-7.000000,-7.000000,6.000000,-37.000000,-34.000000,24.000000,-53.000000
1310068.412622,127.000000,-2.000000,10.000000,28.000000,-1.000000,-22.000000,5.000000,0.000000
1310068.412631,67.000000,-6.000000,7.000000,-20.000000,2.000000,38.000000,-56.000000,-5.000000
1310068.413374,-68.000000,-1.000000,-6.000000,10.000000,0.000000,24.000000,94.000000,-1.000000
1310068.413381,94.000000,-8.000000,-4.000000,24.000000,17.000000,4.000000,92.000000,-25.000000
1310068.434808,-90.000000,8.000000,-5.000000,-14.000000,5.000000,-29.000000,-34.000000,13.000000
1310068.434871,-56.000000,6.000000,1.000000,-7.000000,-18.000000,-7.000000,49.000000,-67.000000
1310068.457337,3.000000,-5.000000,-5.000000,15.000000,20.000000,20.000000,-55.000000,-30.000000
1310068.457350,-22.000000,-3.000000,-4.000000,-30.000000,5.000000,26.000000,9.000000,21.000000
1310068.479805,22.000000,17.000000,10.000000,25.000000,-2.000000,6.000000,-74.000000,-4.000000
1310068.479817,-62.000000,-21.000000,5.000000,-33.000000,-15.000000,-13.000000,106.000000,18.000000
1310068.487187,-128.000000,-2.000000,38.000000,13.000000,6.000000,3.000000,-128.000000,-86.000000
1310068.487198,7.000000,7.000000,-9.000000,27.000000,-6.000000,-28.000000,37.000000,71.000000
1310068.495315,-123.000000,-6.000000,18.000000,2.000000,5.000000,32.000000,58.000000,-17.000000
1310068.495335,-51.000000,-7.000000,10.000000,11.000000,-21.000000,-76.000000,-128.000000,-67.000000
1310068.495744,127.000000,4.000000,-12.000000,-22.000000,1.000000,20.000000,73.000000,20.000000
1310068.495753,47.000000,4.000000,2.000000,-21.000000,1.000000,27.000000,-25.000000,16.000000
1310068.497057,-60.000000,-5.000000,-10.000000,-17.000000,-19.000000,11.000000,127.000000,-62.000000
1310068.497067,17.000000,4.000000,9.000000,66.000000,1.000000,-36.000000,92.000000,0.000000
1310068.497962,-32.000000,15.000000,-22.000000,-48.000000,9.000000,19.000000,88.000000,25.000000
1310068.497971,33.000000,-3.000000,19.000000,-9.000000,-18.000000,14.000000,125.000000,-35.000000
1310068.517536,127.000000,-3.000000,-11.000000,-8.000000,-11.000000,-59.000000,-125.000000,-8.000000
1310068.517545,-128.000000,-1.000000,-34.000000,-17.000000,1.000000,28.000000,-63.000000,-19.000000
1310068.518376,109.000000,-4.000000,25.000000,0.000000,-6.000000,-14.000000,11.000000,58.000000
1310068.518398,-12.000000,-21.000000,-55.000000,-16.000000,-3.000000,0.000000,-27.000000,-46.000000
1310068.532756,20.000000,8.000000,-16.000000,-4.000000,17.000000,-11.000000,-93.000000,57.000000
1310068.532767,61.000000,-1.000000,-2.000000,-27.000000,8.000000,12.000000,5.000000,-5.000000
1310068.533529,-86.000000,-13.000000,-7.000000,-15.000000,-15.000000,-22.000000,-79.000000,-12.000000
1310068.533543,127.000000,1.000000,25.000000,9.000000,1.000000,-29.000000,22.000000,22.000000
1310068.554801,-46.000000,16.000000,-4.000000,-24.000000,-4.000000,6.000000,51.000000,-38.000000
1310068.554811,-127.000000,-3.000000,6.000000,18.000000,-4.000000,12.000000,-40.000000,3.000000
1310068.577596,31.000000,-8.000000,18.000000,36.000000,6.000000,-8.000000,-66.000000,-12.000000
1310068.577609,105.000000,9.000000,-16.000000,-28.000000,2.000000,21.000000,127.000000,40.000000
1310068.615125,-64.000000,-6.000000,-31.000000,23.000000,-5.000000,-13.000000,-82.000000,-33.000000
1310068.615150,-5.000000,-13.000000,26.000000,31.000000,8.000000,13.000000,-128.000000,21.000000
1310068.615674,52.000000,-7.000000,-3.000000,-7.000000,-24.000000,-47.000000,76.000000,53.000000
1310068.615700,-58.000000,6.000000,-12.000000,-11.000000,-16.000000,-34.000000,-50.000000,-18.000000
1310068.616495,28.000000,-4.000000,25.000000,-5.000000,5.000000,18.000000,43.000000,11.000000
1310068.616526,-128.000000,10.000000,11.000000,-18.000000,-1.000000,-15.000000,-128.000000,-72.000000
1310068.617112,20.000000,5.000000,13.000000,-6.000000,2.000000,-10.000000,-21.000000,47.000000
1310068.617137,9.000000,-2.000000,4.000000,15.000000,-11.000000,-1.000000,-5.000000,-20.000000
1310068.619004,-123.000000,-15.000000,13.000000,22.000000,-15.000000,-39.000000,-34.000000,-16.000000
1310068.619033,23.000000,-14.000000,-3.000000,6.000000,10.000000,-21.000000,-14.000000,0.000000
1310068.630953,-6.000000,5.000000,-8.000000,-11.000000,-6.000000,42.000000,33.000000,-2.000000
1310068.630997,-73.000000,4.000000,-21.000000,7.000000,12.000000,-39.000000,-37.000000,-9.000000
1310068.637105,46.000000,-18.000000,38.000000,-32.000000,-11.000000,7.000000,18.000000,-35.000000
1310068.637114,-45.000000,1.000000,-4.000000,-14.000000,-3.000000,-16.000000,2.000000,1.000000
1310068.652160,7.000000,6.000000,-39.000000,-28.000000,-11.000000,-14.000000,-90.000000,5.000000
1310068.652320,-74.000000,-15.000000,16.000000,0.000000,15.000000,22.000000,53.000000,15.000000
1310068.652846,71.000000,-9.000000,3.000000,13.000000,-13.000000,-2.000000,-85.000000,-22.000000
1310068.652854,127.000000,2.000000,-37.000000,-6.000000,-1.000000,-16.000000,26.000000,24.000000
1310068.682293,41.000000,-1.000000,-8.000000,-21.000000,-4.000000,-6.000000,52.000000,25.000000
1310068.682318,42.000000,-10.000000,22.000000,101.000000,30.000000,3.000000,-71.000000,1.000000
1310068.690091,90.000000,-2.000000,-12.000000,-27.000000,-18.000000,-10.000000,31.000000,-14.000000
1310068.690107,37.000000,1.000000,-24.000000,-47.000000,-14.000000,5.000000,-7.000000,2.000000
1310068.712362,-128.000000,-9.000000,-3.000000,-8.000000,2.000000,20.000000,34.000000,-11.000000
1310068.712373,95.000000,7.000000,-10.000000,-11.000000,-19.000000,-42.000000,-128.000000,-7.000000
1310068.736201,127.000000,3.000000,10.000000,-23.000000,14.000000,-39.000000,-128.000000,15.000000
1310068.736508,-33.000000,0.000000,-32.000000,9.000000,-9.000000,5.000000,60.000000,-14.000000
1310068.737705,-102.000000,-1.000000,-2.000000,-27.000000,1.000000,7.000000,19.000000,-51.000000
1310068.737746,24.000000,12.000000,-35.000000,-28.000000,-2.000000,-14.000000,118.000000,-9.000000
1310068.738200,-9.000000,-13.000000,26.000000,7.000000,0.000000,26.000000,12.000000,33.000000
1310068.738635,-63.000000,-12.000000,-1.000000,9.000000,9.000000,2.000000,-22.000000,-52.000000
1310068.739434,-128.000000,3.000000,14.000000,1.000000,12.000000,-4.000000,20.000000,-15.000000
1310068.739475,60.000000,1.000000,-27.000000,-34.000000,-3.000000,37.000000,127.000000,38.000000
1310068.740290,-2.000000,-11.000000,25.000000,16.000000,-18.000000,-34.000000,28.000000,-37.000000
1310068.740312,49.000000,11.000000,26.000000,-29.000000,2.000000,5.000000,120.000000,36.000000
1310068.751128,-63.000000,8.000000,12.000000,35.000000,23.000000,50.000000,59.000000,7.000000
1310068.751141,-3.000000,-3.000000,22.000000,-27.000000,-8.000000,-10.000000,-30.000000,-11.000000
1310068.757722,45.000000,-5.000000,13.000000,-18.000000,13.000000,-7.000000,-10.000000,12.000000
1310068.757742,127.000000,4.000000,-57.000000,-3.000000,-7.000000,11.000000,-16.000000,-11.000000
1310068.773135,117.000000,-10.000000,-15.000000,9.000000,0.000000,-27.000000,-5.000000,18.000000
1310068.773177,59.000000,0.000000,1.000000,-11.000000,0.000000,-9.000000,-8.000000,-13.000000
1310068.773628,-95.000000,-8.000000,-20.000000,10.000000,-16.000000,-9.000000,33.000000,15.000000
1310068.773641,-128.000000,-9.000000,12.000000,29.000000,17.000000,33.000000,-21.000000,-34.000000
1310068.809645,127.000000,1.000000,24.000000,11.000000,8.000000,-35.000000,-98.000000,-3.000000
1310068.809655,90.000000,3.000000,4.000000,-36.000000,6.000000,28.000000,127.000000,-5.000000
1310068.809979,107.000000,17.000000,-11.000000,5.000000,-9.000000,18.000000,94.000000,36.000000
1310068.809987,127.000000,-3.000000,-4.000000,-40.000000,-1.000000,9.000000,-32.000000,-12.000000
1310068.811503,-94.000000,-13.000000,12.000000,38.000000,-6.000000,-17.000000,-83.000000,-27.000000
1310068.811511,-34.000000,5.000000,-24.000000,-31.000000,-20.000000,-19.000000,39.000000,10.000000
1310068.817432,-128.000000,4.000000,15.000000,-31.000000,3.000000,10.000000,5.000000,24.000000
1310068.817445,10.000000,-13.000000,22.000000,44.000000,27.000000,12.000000,33.000000,-33.000000
1310068.854746,35.000000,2.000000,-21.000000,-33.000000,-2.000000,-23.000000,-97.000000,11.000000
1310068.854756,-109.000000,5.000000,25.000000,7.000000,17.000000,25.000000,40.000000,4.000000
1310068.869999,43.000000,-3.000000,-10.000000,1.000000,-7.000000,-27.000000,-3.000000,-9.000000
1310068.870010,-16.000000,-1.000000,26.000000,-8.000000,14.000000,15.000000,-9.000000,-14.000000
1310068.892216,88.000000,1.000000,-25.000000,-18.000000,-14.000000,-9.000000,-108.000000,75.000000
1310068.892226,127.000000,-2.000000,-20.000000,-14.000000,-9.000000,-32.000000,80.000000,-3.000000
1310068.907189,80.000000,0.000000,21.000000,-22.000000,3.000000,3.000000,-85.000000,-7.000000
1310068.907199,-99.000000,14.000000,2.000000,-26.000000,27.000000,46.000000,9.000000,-4.000000
1310068.922288,-128.000000,-12.000000,-32.000000,18.000000,-29.000000,-48.000000,-70.000000,-33.000000
1310068.922298,-18.000000,-2.000000,14.000000,3.000000,-9.000000,-35.000000,-105.000000,-38.000000
1310068.952343,-1.000000,-6.000000,-15.000000,-5.000000,12.000000,22.000000,21.000000,35.000000
1310068.952370,-128.000000,0.000000,-37.000000,-20.000000,-1.000000,41.000000,93.000000,31.000000
1310068.967670,2.000000,-2.000000,-3.000000,35.000000,4.000000,4.000000,2.000000,8.000000
1310068.967703,-128.000000,-3.000000,-41.000000,-56.000000,-4.000000,15.000000,0.000000,7.000000
1310068.968146,-5.000000,-11.000000,9.000000,-5.000000,37.000000,-6.000000,-95.000000,-47.000000
1310068.968172,127.000000,21.000000,-7.000000,-9.000000,-10.000000,-10.000000,9.000000,-38.000000
1310068.968935,-128.000000,-22.000000,6.000000,-9.000000,-5.000000,-7.000000,37.000000,-5.000000
1310068.968944,127.000000,13.000000,-10.000000,1.000000,17.000000,14.000000,0.000000,59.000000
1310068.970439,-102.000000,9.000000,-4.000000,-12.000000,-24.000000,-25.000000,-5.000000,2.000000
1310068.970448,-41.000000,-8.000000,-4.000000,-20.000000,-6.000000,-19.000000,-26.000000,-31.000000
1310068.975323,-76.000000,3.000000,2.000000,-18.000000,6.000000,32.000000,100.000000,28.000000
1310068.975340,-128.000000,-3.000000,3.000000,-18.000000,4.000000,0.000000,-27.000000,-85.000000
1310068.990534,127.000000,-17.000000,2.000000,4.000000,-17.000000,-25.000000,-15.000000,9.000000
1310068.990562,-4.000000,-2.000000,10.000000,-12.000000,7.000000,13.000000,8.000000,-8.000000
1310069.012516,127.000000,14.000000,-2.000000,-25.000000,-11.000000,25.000000,-23.000000,58.000000
1310069.012538,-128.000000,-5.000000,-7.000000,2.000000,10.000000,-19.000000,4.000000,-56.000000
1310069.049871,86.000000,1.000000,23.000000,2.000000,26.000000,-5.000000,-9.000000,25.000000
1310069.049883,-40.000000,14.000000,3.000000,-30.000000,-24.000000,-30.000000,8.000000,-116.000000
1310069.072183,127.000000,-9.000000,-16.000000,-2.000000,6.000000,59.000000,56.000000,43.000000
1310069.072193,-128.000000,-15.000000,10.000000,-16.000000,2.000000,-29.000000,-89.000000,9.000000
1310069.087712,125.000000,-1.000000,30.000000,24.000000,-5.000000,-83.000000,-82.000000,21.000000
1310069.087722,9.000000,-1.000000,3.000000,-2.000000,2.000000,43.000000,57.000000,-17.000000
1310069.088198,83.000000,-10.000000,14.000000,1.000000,2.000000,27.000000,9.000000,-7.000000
1310069.088218,15.000000,2.000000,10.000000,13.000000,41.000000,0.000000,9.000000,-15.000000
1310069.089457,31.000000,6.000000,-23.000000,-28.000000,8.000000,0.000000,-22.000000,-14.000000
1310069.089465,-57.000000,1.000000,-18.000000,-41.000000,-20.000000,23.000000,-23.000000,3.000000
1310069.091230,-128.000000,-11.000000,11.000000,2.000000,-15.000000,-26.000000,-51.000000,-34.000000
1310069.091239,127.000000,17.000000,6.000000,-8.000000,15.000000,12.000000,11.000000,3.000000
1310069.094542,-19.000000,2.000000,-3.000000,-9.000000,15.000000,20.000000,35.000000,-2.000000
1310069.094551,31.000000,-7.000000,18.000000,-11.000000,-8.000000,-11.000000,61.000000,48.000000
1310069.109840,127.000000,7.000000,-41.000000,-14.000000,8.000000,6.000000,-26.000000,-9.000000
1310069.109852,-58.000000,11.000000,11.000000,34.000000,3.000000,-14.000000,-108.000000,6.000000
1310069.132293,-128.000000,-3.000000,18.000000,-20.000000,2.000000,15.000000,18.000000,-17.000000
1310069.132313,24.000000,-8.000000,-16.000000,-18.000000,-11.000000,-8.000000,-34.000000,11.000000
1310069.154819,-128.000000,2.000000,-11.000000,-22.000000,-11.000000,1.000000,42.000000,-36.000000
1310069.154829,57.000000,-10.000000,-38.000000,-19.000000,-14.000000,0.000000,12.000000,9.000000
1310069.170031,-97.000000,-4.000000,-2.000000,-7.000000,-22.000000,-31.000000,-24.000000,-13.000000
1310069.170050,127.000000,-9.000000,6.000000,-7.000000,1.000000,-4.000000,80.000000,10.000000
1310069.192235,-91.000000,3.000000,-9.000000,-2.000000,-15.000000,12.000000,37.000000,15.000000
1310069.192246,127.000000,2.000000,-4.000000,0.000000,17.000000,30.000000,-6.000000,5.000000
1310069.192604,53.000000,-6.000000,-13.000000,36.000000,-7.000000,-66.000000,-107.000000,-17.000000
1310069.192614,-128.000000,-3.000000,11.000000,5.000000,11.000000,13.000000,127.000000,-74.000000
1310069.193866,32.000000,-6.000000,-12.000000,-41.000000,-11.000000,3.000000,-128.000000,-37.000000
1310069.193877,103.000000,10.000000,22.000000,24.000000,-18.000000,-74.000000,-77.000000,121.000000
1310069.194525,-128.000000,7.000000,-19.000000,-29.000000,15.000000,47.000000,23.000000,-1.000000
1310069.194534,127.000000,-10.000000,-44.000000,2.000000,-37.000000,-29.000000,-102.000000,-77.000000
1310069.207532,10.000000,-1.000000,-22.000000,-30.000000,-20.000000,-8.000000,-79.000000,5.000000
1310069.207558,38.000000,-14.000000,29.000000,22.000000,33.000000,28.000000,34.000000,3.000000
1310069.208710,91.000000,3.000000,-3.000000,-47.000000,-24.000000,-13.000000,-35.000000,11.000000
1310069.208725,-128.000000,-9.000000,38.000000,33.000000,24.000000,20.000000,37.000000,42.000000
1310069.229708,-46.000000,-7.000000,-14.000000,-21.000000,-12.000000,30.000000,-29.000000,-9.000000
1310069.229732,127.000000,3.000000,9.000000,18.000000,4.000000,-42.000000,65.000000,-40.000000
1310069.230939,127.000000,8.000000,4.000000,-39.000000,19.000000,23.000000,-2.000000,-17.000000
1310069.230948,-32.000000,-5.000000,-3.000000,53.000000,8.000000,-20.000000,-128.000000,50.000000
1310069.244782,-128.000000,-4.000000,6.000000,-33.000000,10.000000,37.000000,80.000000,-75.000000
1310069.244794,127.000000,7.000000,17.000000,-11.000000,7.000000,44.000000,-72.000000,-4.000000
1310069.245933,76.000000,10.000000,-22.000000,11.000000,-8.000000,-17.000000,127.000000,19.000000
1310069.245942,127.000000,0.000000,14.000000,11.000000,-13.000000,12.000000,14.000000,12.000000
1310069.267297,-111.000000,1.000000,-8.000000,-10.000000,-20.000000,-16.000000,-128.000000,-14.000000
1310069.267319,127.000000,1.000000,15.000000,-19.000000,6.000000,-2.000000,-128.000000,30.000000
1310069.282285,120.000000,10.000000,11.000000,23.000000,2.000000,-24.000000,-30.000000,-17.000000
1310069.282296,-71.000000,-3.000000,24.000000,-33.000000,-15.000000,-13.000000,-69.000000,35.000000
1310069.289677,-128.000000,3.000000,-20.000000,-44.000000,-1.000000,-17.000000,-96.000000,-51.000000
1310069.289685,2.000000,-9.000000,-48.000000,-21.000000,-13.000000,14.000000,-6.000000,-10.000000
1310069.327138,-18.000000,-15.000000,63.000000,66.000000,12.000000,-6.000000,-15.000000,-20.000000
1310069.327148,-128.000000,-7.000000,4.000000,-6.000000,-15.000000,6.000000,18.000000,21.000000
1310069.349725,41.000000,2.000000,32.000000,13.000000,64.000000,47.000000,49.000000,16.000000
1310069.349736,77.000000,-10.000000,-17.000000,-6.000000,-20.000000,-31.000000,-55.000000,32.000000
1310069.365121,-31.000000,4.000000,9.000000,15.000000,4.000000,-25.000000,-68.000000,-25.000000
1310069.365168,127.000000,16.000000,-34.000000,-3.000000,16.000000,15.000000,69.000000,-27.000000
1310069.365933,127.000000,2.000000,-20.000000,19.000000,-6.000000,5.000000,6.000000,51.000000
1310069.365953,-39.000000,-1.000000,11.000000,-21.000000,3.000000,9.000000,-2.000000,-30.000000
1310069.387429,-128.000000,7.000000,3.000000,-28.000000,-3.000000,11.000000,-11.000000,-66.000000
1310069.387441,127.000000,-3.000000,-28.000000,36.000000,-1.000000,41.000000,127.000000,13.000000
1310069.424786,-35.000000,12.000000,-17.000000,-70.000000,-4.000000,26.000000,-27.000000,7.000000
1310069.424798,-59.000000,-5.000000,31.000000,18.000000,7.000000,-20.000000,-25.000000,26.000000
1310069.447048,109.000000,-2.000000,-12.000000,8.000000,-11.000000,-31.000000,-71.000000,-16.000000
1310069.447059,-26.000000,6.000000,0.000000,-11.000000,-3.000000,6.000000,-88.000000,-37.000000
1310069.447494,1.000000,4.000000,10.000000,16.000000,-1.000000,12.000000,87.000000,41.000000
1310069.447507,111.000000,-11.000000,-11.000000,-15.000000,-4.000000,31.000000,-128.000000,-7.000000
1310069.448868,7.000000,-11.000000,-28.000000,-25.000000,1.000000,-11.000000,9.000000,-11.000000
1310069.448884,-31.000000,2.000000,-26.000000,-40.000000,-11.000000,-7.000000,-94.000000,-16.000000
1310069.450084,47.000000,-2.000000,-16.000000,18.000000,-10.000000,-34.000000,-49.000000,-41.000000
1310069.450093,11.000000,1.000000,-5.000000,-47.000000,12.000000,25.000000,18.000000,-13.000000
1310069.451077,31.000000,8.000000,-26.000000,39.000000,-4.000000,-26.000000,-128.000000,-4.000000
1310069.451093,21.000000,-12.000000,11.000000,8.000000,-20.000000,-58.000000,10.000000,-12.000000
1310069.462143,127.000000,2.000000,18.000000,17.000000,12.000000,21.000000,88.000000,60.000000
1310069.462158,-15.000000,11.000000,-14.000000,-15.000000,-5.000000,2.000000,-121.000000,-55.000000
1310069.477333,-128.000000,-1.000000,1.000000,6.000000,4.000000,-3.000000,-2.000000,11.000000
1310069.477345,11.000000,1.000000,-30.000000,-6.000000,1.000000,-17.000000,107.000000,-10.000000
1310069.484804,127.000000,16.000000,-12.000000,-12.000000,8.000000,33.000000,113.000000,37.000000
1310069.484816,127.000000,-1.000000,3.000000,18.000000,-6.000000,2.000000,2.000000,-20.000000
1310069.514695,-108.000000,-19.000000,11.000000,-4.000000,-35.000000,-45.000000,-88.000000,-2.000000
1310069.514704,-93.000000,8.000000,0.000000,2.000000,-5.000000,-1.000000,60.000000,-31.000000
1310069.522100,-39.000000,-2.000000,-17.000000,-25.000000,15.000000,78.000000,73.000000,19.000000
1310069.522110,31.000000,-9.000000,7.000000,24.000000,-24.000000,-90.000000,-78.000000,0.000000
1310069.544822,-8.000000,5.000000,-37.000000,-31.000000,11.000000,17.000000,101.000000,-4.000000
1310069.544833,20.000000,4.000000,13.000000,11.000000,3.000000,20.000000,-110.000000,48.000000
1310069.559619,67.000000,-15.000000,-7.000000,-23.000000,-17.000000,-2.000000,-1.000000,-6.000000
1310069.559629,98.000000,14.000000,-63.000000,-46.000000,-16.000000,-28.000000,-86.000000,-21.000000
1310069.567572,21.000000,11.000000,11.000000,-11.000000,-4.000000,-10.000000,16.000000,6.000000
1310069.567597,-128.000000,-9.000000,35.000000,-23.000000,-5.000000,39.000000,86.000000,60.000000
1310069.568246,-121.000000,-12.000000,10.000000,28.000000,-7.000000,-17.000000,-96.000000,-60.000000
1310069.568255,-54.000000,-4.000000,-17.000000,5.000000,-4.000000,-93.000000,-128.000000,7.000000
1310069.569550,-79.000000,-6.000000,-19.000000,-16.000000,-3.000000,43.000000,120.000000,-14.000000
1310069.569560,-26.000000,-10.000000,1.000000,40.000000,-6.000000,-45.000000,-128.000000,-7.000000
1310069.570165,-9.000000,2.000000,12.000000,13.000000,27.000000,27.000000,-72.000000,-22.000000
1310069.570175,-128.000000,9.000000,-10.000000,-20.000000,-11.000000,-8.000000,102.000000,4.000000
1310069.571041,127.000000,-9.000000,0.000000,11.000000,-6.000000,-14.000000,-45.000000,5.000000
1310069.571051,127.000000,6.000000,-1.000000,17.000000,-3.000000,-2.000000,-42.000000,-3.000000
1310069.582264,-128.000000,5.000000,4.000000,-13.000000,8.000000,19.000000,-61.000000,31.000000
1310069.582283,87.000000,-1.000000,-1.000000,-7.000000,-18.000000,-39.000000,102.000000,13.000000
1310069.589836,50.000000,-5.000000,1.000000,1.000000,1.000000,23.000000,-18.000000,15.000000
1310069.589850,-48.000000,-1.000000,-14.000000,-42.000000,-19.000000,-6.000000,-12.000000,10.000000
1310069.604834,127.000000,-4.000000,-1.000000,2.000000,-4.000000,24.000000,40.000000,-5.000000
1310069.604846,127.000000,-11.000000,-3.000000,9.000000,-1.000000,-13.000000,-62.000000,-6.000000
1310069.634800,-128.000000,0.000000,17.000000,-23.000000,2.000000,7.000000,-16.000000,-3.000000
1310069.634816,-128.000000,1.000000,-9.000000,-30.000000,-14.000000,20.000000,-7.000000,5.000000
1310069.642144,39.000000,2.000000,11.000000,37.000000,35.000000,-3.000000,94.000000,14.000000
1310069.642164,-113.000000,4.000000,5.000000,16.000000,-7.000000,-22.000000,-48.000000,-6.000000
1310069.664848,-24.000000,7.000000,11.000000,-36.000000,2.000000,38.000000,109.000000,17.000000
1310069.664861,77.000000,-11.000000,-40.000000,-30.000000,-22.000000,-35.000000,109.000000,18.000000
1310069.672290,86.000000,-6.000000,-3.000000,-9.000000,1.000000,-2.000000,55.000000,3.000000
1310069.672313,-114.000000,0.000000,-6.000000,12.000000,-4.000000,-63.000000,-128.000000,-66.000000
1310069.687591,127.000000,3.000000,20.000000,-15.000000,10.000000,40.000000,121.000000,26.000000
1310069.687601,125.000000,-10.000000,-15.000000,0.000000,2.000000,16.000000,-19.000000,18.000000
1310069.688270,28.000000,-3.000000,-23.000000,-31.000000,-5.000000,-20.000000,-128.000000,-8.000000
1310069.688280,120.000000,19.000000,5.000000,27.000000,4.000000,7.000000,34.000000,13.000000
1310069.689584,-11.000000,-1.000000,9.000000,-13.000000,-6.000000,-8.000000,-26.000000,-27.000000
1310069.689601,8.000000,13.000000,-10.000000,90.000000,-2.000000,-24.000000,-128.000000,-10.000000
1310069.690316,-52.000000,13.000000,-32.000000,-9.000000,-2.000000,-41.000000,-59.000000,12.000000
1310069.690330,126.000000,-2.000000,-10.000000,-25.000000,9.000000,40.000000,40.000000,-12.000000
1310069.690987,56.000000,-8.000000,34.000000,23.000000,0.000000,-18.000000,-42.000000,8.000000
1310069.690997,127.000000,9.000000,19.000000,-1.000000,35.000000,38.000000,32.000000,25.000000
1310069.702254,-95.000000,4.000000,5.000000,12.000000,-39.000000,-19.000000,-20.000000,17.000000
1310069.702283,23.000000,-5.000000,-6.000000,0.000000,-6.000000,9.000000,-88.000000,-33.000000
1310069.709955,-62.000000,6.000000,19.000000,-6.000000,3.000000,31.000000,126.000000,37.000000
1310069.709966,127.000000,7.000000,26.000000,-15.000000,16.000000,13.000000,127.000000,27.000000
1310069.724716,40.000000,-8.000000,-51.000000,17.000000,2.000000,-38.000000,67.000000,-1.000000
1310069.724726,-128.000000,3.000000,2.000000,-30.000000,-4.000000,-1.000000,89.000000,-17.000000
1310069.747313,91.000000,6.000000,-40.000000,-17.000000,21.000000,56.000000,32.000000,-83.000000
1310069.747326,-128.000000,-8.000000,29.000000,-4.000000,-14.000000,-64.000000,-128.000000,-52.000000
1310069.755014,127.000000,-7.000000,-19.000000,-12.000000,-16.000000,19.000000,45.000000,-25.000000
1310069.755025,-89.000000,2.000000,-15.000000,-6.000000,-38.000000,-18.000000,31.000000,27.000000
1310069.784568,55.000000,-8.000000,33.000000,-49.000000,14.000000,17.000000,59.000000,28.000000
1310069.784579,-49.000000,-9.000000,-11.000000,31.000000,8.000000,26.000000,-23.000000,13.000000
1310069.785221,-14.000000,13.000000,4.000000,-1.000000,6.000000,32.000000,127.000000,-7.000000
1310069.785243,-73.000000,2.000000,-33.000000,-42.000000,2.000000,-25.000000,-59.000000,-18.000000
1310069.786258,127.000000,-11.000000,11.000000,-18.000000,-12.000000,8.000000,22.000000,38.000000
1310069.786268,127.000000,3.000000,-8.000000,14.000000,2.000000,1.000000,-28.000000,-40.000000
1310069.786916,-90.000000,6.000000,-7.000000,-17.000000,1.000000,-13.000000,-20.000000,36.000000
1310069.786925,-15.000000,-7.000000,17.000000,19.000000,7.000000,24.000000,43.000000,15.000000
1310069.788505,-6.000000,-8.000000,-16.000000,-18.000000,-19.000000,-43.000000,-118.000000,-20.000000
1310069.788524,-13.000000,9.000000,3.000000,-5.000000,-5.000000,-24.000000,43.000000,-2.000000
1310069.800030,-2.000000,-5.000000,-3.000000,-12.000000,10.000000,56.000000,127.000000,5.000000
1310069.800062,127.000000,-8.000000,-2.000000,19.000000,0.000000,-63.000000,-103.000000,7.000000
1310069.807576,-6.000000,7.000000,-14.000000,-15.000000,-3.000000,4.000000,-9.000000,-19.000000
1310069.807605,-15.000000,-10.000000,-13.000000,34.000000,49.000000,55.000000,11.000000,-22.000000
1310069.814927,107.000000,-11.000000,1.000000,5.000000,-30.000000,-35.000000,-122.000000,15.000000
1310069.814944,-38.000000,7.000000,-8.000000,-10.000000,-6.000000,-23.000000,4.000000,-19.000000
1310069.844935,11.000000,4.000000,14.000000,-17.000000,4.000000,30.000000,57.000000,20.000000
1310069.844950,84.000000,9.000000,17.000000,-3.000000,-10.000000,21.000000,-53.000000,-26.000000
1310069.860104,127.000000,-1.000000,-16.000000,32.000000,-16.000000,-11.000000,55.000000,72.000000
1310069.860115,-128.000000,-11.000000,5.000000,-29.000000,12.000000,-15.000000,-123.000000,-45.000000
1310069.882318,127.000000,-10.000000,-28.000000,25.000000,-5.000000,1.000000,22.000000,-5.000000
1310069.882334,13.000000,-15.000000,20.000000,-6.000000,-9.000000,2.000000,47.000000,26.000000
1310069.905448,-2.000000,14.000000,20.000000,11.000000,16.000000,-2.000000,-54.000000,13.000000
1310069.905556,-91.000000,-2.000000,-1.000000,13.000000,1.000000,-19.000000,127.000000,-20.000000
1310069.906206,-51.000000,-10.000000,-23.000000,-23.000000,-8.000000,15.000000,35.000000,-16.000000
1310069.906222,127.000000,8.000000,-18.000000,-50.000000,3.000000,10.000000,-111.000000,3.000000
1310069.906626,-128.000000,1.000000,-17.000000,5.000000,-9.000000,-3.000000,127.000000,-30.000000
1310069.906642,127.000000,-11.000000,32.000000,-1.000000,21.000000,-10.000000,-107.000000,1.000000
1310069.908003,127.000000,10.000000,-2.000000,7.000000,-18.000000,0.000000,31.000000,3.000000
1310069.908015,127.000000,2.000000,5.000000,12.000000,9.000000,-1.000000,-46.000000,39.000000
1310069.908611,-120.000000,-15.000000,-15.000000,-10.000000,10.000000,12.000000,44.000000,16.000000
1310069.908619,57.000000,2.000000,2.000000,22.000000,-15.000000,-3.000000,-28.000000,-21.000000
1310069.919454,-93.000000,3.000000,-11.000000,-9.000000,-3.000000,-27.000000,-105.000000,-54.000000
1310069.919464,127.000000,-3.000000,13.000000,-28.000000,1.000000,16.000000,33.000000,56.000000
1310069.927266,67.000000,13.000000,-18.000000,-8.000000,11.000000,31.000000,69.000000,-27.000000
1310069.927281,59.000000,4.000000,-25.000000,8.000000,-21.000000,-32.000000,-90.000000,4.000000
1310069.942425,127.000000,-2.000000,32.000000,-36.000000,4.000000,-10.000000,-87.000000,70.000000
1310069.942439,-128.000000,9.000000,-11.000000,-16.000000,-27.000000,-29.000000,7.000000,-103.000000
1310069.964962,3.000000,3.000000,-9.000000,1.000000,-15.000000,0.000000,36.000000,41.000000
1310069.964992,-128.000000,-8.000000,1.000000,-7.000000,-7.000000,-12.000000,-44.000000,-128.000000
1310069.979793,81.000000,11.000000,-19.000000,-27.000000,-13.000000,35.000000,46.000000,17.000000
1310069.979822,-15.000000,-12.000000,10.000000,12.000000,-8.000000,-58.000000,-59.000000,52.000000
1310070.017275,127.000000,-19.000000,9.000000,62.000000,18.000000,12.000000,10.000000,-63.000000
1310070.017286,127.000000,3.000000,-24.000000,-7.000000,-14.000000,-2.000000,-10.000000,106.000000
1310070.032281,127.000000,18.000000,1.000000,22.000000,-20.000000,-16.000000,-96.000000,-128.000000
1310070.032293,-61.000000,-3.000000,-9.000000,-29.000000,-2.000000,-67.000000,-128.000000,-55.000000
1310070.040510,127.000000,0.000000,29.000000,0.000000,29.000000,40.000000,127.000000,127.000000
1310070.040521,103.000000,11.000000,-53.000000,-26.000000,-16.000000,22.000000,-37.000000,35.000000
1310070.041002,127.000000,3.000000,10.000000,36.000000,9.000000,-20.000000,65.000000,-52.000000
1310070.041012,-102.000000,-12.000000,-28.000000,-11.000000,0.000000,13.000000,-44.000000,-60.000000
1310070.042107,83.000000,1.000000,23.000000,3.000000,6.000000,11.000000,45.000000,45.000000
1310070.042118,-24.000000,-6.000000,-53.000000,-24.000000,-1.000000,26.000000,72.000000,10.000000
1310070.042830,-128.000000,5.000000,-12.000000,13.000000,-46.000000,-128.000000,-128.000000,-87.000000
1310070.042840,127.000000,6.000000,1.000000,-14.000000,23.000000,26.000000,124.000000,16.000000
1310070.062293,79.000000,7.000000,-45.000000,-11.000000,-20.000000,7.000000,0.000000,79.000000
1310070.062312,-128.000000,-10.000000,32.000000,46.000000,15.000000,19.000000,-36.000000,-44.000000
1310070.077465,-122.000000,4.000000,-20.000000,-15.000000,-39.000000,-77.000000,-128.000000,-42.000000
1310070.077476,127.000000,-3.000000,-22.000000,-12.000000,10.000000,65.000000,55.000000,127.000000
1310070.099959,-128.000000,-7.000000,24.000000,-6.000000,-27.000000,-64.000000,-128.000000,-128.000000
1310070.099981,127.000000,4.000000,8.000000,-15.000000,4.000000,45.000000,127.000000,56.000000
1310070.107095,127.000000,7.000000,9.000000,43.000000,-1.000000,-86.000000,-3.000000,60.000000
1310070.107104,103.000000,6.000000,14.000000,-13.000000,22.000000,42.000000,44.000000,-29.000000
1310070.137459,127.000000,-4.000000,-23.000000,21.000000,-24.000000,4.000000,-73.000000,-53.000000
1310070.137471,-128.000000,10.000000,14.000000,-36.000000,1.000000,-2.000000,-14.000000,-58.000000
1310070.144676,35.000000,-4.000000,25.000000,-26.000000,5.000000,27.000000,-7.000000,41.000000
1310070.144686,71.000000,-6.000000,14.000000,47.000000,-1.000000,-4.000000,-4.000000,-33.000000
1310070.159812,-49.000000,-5.000000,18.000000,-30.000000,15.000000,30.000000,94.000000,25.000000
1310070.159833,-19.000000,-9.000000,18.000000,32.000000,9.000000,-15.000000,41.000000,18.000000
1310070.197244,-5.000000,-9.000000,-24.000000,-6.000000,-13.000000,-8.000000,-22.000000,-16.000000
1310070.197254,0.000000,1.000000,27.000000,55.000000,13.000000,5.000000,25.000000,-18.000000
1310070.220027,127.000000,0.000000,-16.000000,7.000000,-19.000000,-79.000000,-128.000000,117.000000
1310070.220037,-128.000000,19.000000,4.000000,-16.000000,-1.000000,10.000000,68.000000,-9.000000
1310070.227359,-98.000000,-12.000000,7.000000,-14.000000,12.000000,41.000000,127.000000,-19.000000
1310070.227386,-128.000000,-7.000000,9.000000,-5.000000,2.000000,25.000000,-58.000000,-21.000000
1310070.242145,-128.000000,-4.000000,5.000000,9.000000,-7.000000,-96.000000,-128.000000,-107.000000
1310070.242155,127.000000,-4.000000,-29.000000,-25.000000,-8.000000,21.000000,127.000000,28.000000
1310070.257521,-128.000000,-22.000000,21.000000,-5.000000,0.000000,37.000000,9.000000,-37.000000
1310070.257544,107.000000,-4.000000,-13.000000,-18.000000,-11.000000,-22.000000,-69.000000,90.000000
1310070.258035,127.000000,7.000000,35.000000,13.000000,11.000000,-4.000000,2.000000,9.000000
1310070.258061,110.000000,-5.000000,-4.000000,-24.000000,0.000000,7.000000,-27.000000,13.000000
1310070.258566,-12.000000,3.000000,9.000000,-8.000000,0.000000,15.000000,127.000000,43.000000
1310070.258592,102.000000,-4.000000,2.000000,4.000000,-8.000000,-24.000000,-62.000000,42.000000
1310070.259120,127.000000,-6.000000,2.000000,16.000000,-11.000000,-45.000000,-31.000000,-18.000000
1310070.259147,-128.000000,0.000000,-5.000000,11.000000,17.000000,21.000000,-16.000000,-18.000000
1310070.259699,-14.000000,3.000000,4.000000,8.000000,3.000000,29.000000,5.000000,3.000000
1310070.259720,22.000000,-1.000000,-10.000000,-35.000000,-5.000000,58.000000,44.000000,7.000000
1310070.261231,-109.000000,5.000000,19.000000,5.000000,10.000000,-10.000000,36.000000,31.000000
1310070.261258,-128.000000,-2.000000,5.000000,-19.000000,-11.000000,-18.000000,-32.000000,-18.000000
1310070.279972,55.000000,-13.000000,-1.000000,-6.000000,3.000000,3.000000,-40.000000,-6.000000
1310070.280105,15.000000,12.000000,11.000000,35.000000,1.000000,9.000000,-2.000000,23.000000
1310070.280327,-16.000000,9.000000,-21.000000,-17.000000,21.000000,27.000000,-26.000000,20.000000
1310070.280344,-128.000000,-3.000000,-6.000000,-1.000000,-19.000000,-15.000000,51.000000,-42.000000
1310070.294694,-128.000000,6.000000,7.000000,-23.000000,3.000000,-10.000000,-128.000000,-9.000000
1310070.294722,21.000000,7.000000,11.000000,12.000000,5.000000,19.000000,112.000000,30.000000
1310070.302073,-90.000000,-2.000000,22.000000,0.000000,5.000000,-15.000000,-11.000000,-6.000000
1310070.302093,-22.000000,1.000000,-22.000000,-23.000000,-8.000000,11.000000,-114.000000,-66.000000
1310070.317788,108.000000,6.000000,-5.000000,30.000000,6.000000,42.000000,61.000000,94.000000
1310070.317798,-22.000000,-3.000000,-7.000000,5.000000,-15.000000,-112.000000,-128.000000,-4.000000
1310070.339844,-19.000000,-5.000000,-20.000000,11.000000,-5.000000,-13.000000,-100.000000,-119.000000
1310070.339854,6.000000,-8.000000,47.000000,3.000000,31.000000,7.000000,-72.000000,-9.000000
1310070.362746,35.000000,3.000000,-109.000000,-30.000000,-22.000000,24.000000,54.000000,10.000000
1310070.362766,8.000000,-16.000000,17.000000,-8.000000,-11.000000,8.000000,-19.000000,-2.000000
1310070.377241,127.000000,3.000000,17.000000,-11.000000,-4.000000,-15.000000,18.000000,-12.000000
1310070.377252,-128.000000,8.000000,4.000000,-22.000000,3.000000,35.000000,127.000000,46.000000
1310070.378265,-83.000000,-1.000000,13.000000,17.000000,-4.000000,-40.000000,-128.000000,-15.000000
1310070.378274,67.000000,-7.000000,-36.000000,-10.000000,-26.000000,-54.000000,127.000000,-32.000000
1310070.378817,127.000000,5.000000,-3.000000,-23.000000,4.000000,24.000000,-48.000000,17.000000
1310070.378825,-75.000000,5.000000,37.000000,17.000000,31.000000,14.000000,54.000000,11.000000
1310070.380742,-128.000000,0.000000,2.000000,39.000000,-3.000000,26.000000,7.000000,-52.000000
1310070.380765,-60.000000,-5.000000,-25.000000,-17.000000,-26.000000,-3.000000,-104.000000,12.000000
1310070.400198,-128.000000,3.000000,13.000000,-19.000000,11.000000,25.000000,26.000000,-99.000000
1310070.400208,124.000000,18.000000,-40.000000,29.000000,-2.000000,12.000000,76.000000,22.000000
1310070.400716,-49.000000,0.000000,13.000000,-8.000000,1.000000,-5.000000,-30.000000,-9.000000
1310070.400724,-44.000000,-2.000000,7.000000,18.000000,15.000000,18.000000,-88.000000,-1.000000
1310070.415323,-2.000000,1.000000,12.000000,-12.000000,2.000000,-27.000000,-128.000000,-86.000000
1310070.415373,94.000000,-10.000000,16.000000,14.000000,24.000000,30.000000,68.000000,13.000000
1310070.422438,-54.000000,-14.000000,-8.000000,-3.000000,-18.000000,-10.000000,104.000000,-18.000000
1310070.422487,72.000000,4.000000,1.000000,26.000000,9.000000,2.000000,18.000000,27.000000
1310070.437444,0.000000,-4.000000,-6.000000,-21.000000,-4.000000,11.000000,42.000000,-18.000000
1310070.437464,127.000000,-5.000000,-4.000000,-16.000000,-24.000000,-6.000000,60.000000,89.000000
1310070.459991,39.000000,10.000000,-5.000000,-15.000000,17.000000,-40.000000,-128.000000,-24.000000
1310070.460020,25.000000,6.000000,8.000000,4.000000,-3.000000,31.000000,111.000000,10.000000
1310070.482204,-71.000000,-3.000000,0.000000,-1.000000,3.000000,-37.000000,37.000000,7.000000
1310070.482214,127.000000,-9.000000,-41.000000,-12.000000,7.000000,15.000000,5.000000,13.000000
1310070.497384,-16.000000,1.000000,13.000000,-13.000000,0.000000,19.000000,25.000000,30.000000
1310070.497397,-43.000000,-15.000000,10.000000,9.000000,-7.000000,-28.000000,-23.000000,7.000000
1310070.498390,127.000000,-10.000000,-2.000000,0.000000,-4.000000,-10.000000,-55.000000,-40.000000
1310070.498400,36.000000,3.000000,6.000000,-15.000000,-8.000000,17.000000,17.000000,22.000000
1310070.498866,59.000000,-4.000000,37.000000,-14.000000,7.000000,18.000000,-63.000000,-13.000000
1310070.498875,-128.000000,-20.000000,-21.000000,5.000000,-7.000000,0.000000,-4.000000,26.000000
1310070.500250,-128.000000,1.000000,2.000000,5.000000,7.000000,-37.000000,-13.000000,-34.000000
1310070.500260,-74.000000,9.000000,11.000000,-19.000000,-13.000000,7.000000,54.000000,12.000000
1310070.501056,127.000000,5.000000,3.000000,-2.000000,-4.000000,-5.000000,-2.000000,8.000000
1310070.501065,19.000000,-10.000000,-14.000000,-33.000000,-12.000000,-10.000000,-23.000000,-11.000000
1310070.512468,37.000000,6.000000,25.000000,69.000000,27.000000,24.000000,18.000000,20.000000
1310070.512488,127.000000,-2.000000,3.000000,43.000000,-6.000000,9.000000,-1.000000,25.000000
1310070.520340,-3.000000,-5.000000,-9.000000,-4.000000,3.000000,4.000000,-26.000000,-15.000000
1310070.520349,-37.000000,6.000000,-22.000000,-14.000000,-14.000000,2.000000,92.000000,-7.000000
1310070.534781,-126.000000,-18.000000,14.000000,30.000000,-10.000000,-5.000000,46.000000,34.000000
1310070.534792,94.000000,-7.000000,9.000000,20.000000,27.000000,-7.000000,-16.000000,7.000000
1310070.543443,-8.000000,12.000000,3.000000,-22.000000,13.000000,27.000000,127.000000,-67.000000
1310070.543454,-32.000000,10.000000,2.000000,17.000000,16.000000,-7.000000,-99.000000,30.000000
1310070.557448,-48.000000,-5.000000,-10.000000,-4.000000,-16.000000,17.000000,55.000000,-20.000000
1310070.557459,19.000000,8.000000,9.000000,6.000000,-1.000000,1.000000,84.000000,1.000000
1310070.579698,-41.000000,10.000000,3.000000,-17.000000,-12.000000,-29.000000,-32.000000,-12.000000
1310070.579708,127.000000,-1.000000,-18.000000,15.000000,4.000000,39.000000,79.000000,26.000000
1310070.595051,2.000000,-4.000000,-1.000000,-20.000000,-5.000000,-29.000000,50.000000,4.000000
1310070.595080,37.000000,-5.000000,17.000000,-11.000000,11.000000,22.000000,95.000000,33.000000
1310070.617566,118.000000,1.000000,-38.000000,-1.000000,2.000000,-5.000000,-36.000000,-3.000000
1310070.617575,6.000000,-18.000000,6.000000,17.000000,-7.000000,-7.000000,3.000000,-24.000000
1310070.618284,-128.000000,5.000000,-5.000000,-48.000000,1.000000,10.000000,28.000000,-68.000000
1310070.618302,127.000000,18.000000,15.000000,21.000000,26.000000,54.000000,28.000000,30.000000
1310070.619480,-37.000000,3.000000,-8.000000,-9.000000,-13.000000,-34.000000,-128.000000,-19.000000
1310070.619489,127.000000,2.000000,-21.000000,2.000000,-12.000000,4.000000,127.000000,1.000000
1310070.620315,-128.000000,0.000000,-2.000000,-22.000000,2.000000,-8.000000,127.000000,-69.000000
1310070.620325,116.000000,-8.000000,-6.000000,-7.000000,3.000000,-34.000000,-128.000000,43.000000
1310070.632125,127.000000,-1.000000,5.000000,-8.000000,-15.000000,-20.000000,-30.000000,-48.000000
1310070.632135,-128.000000,6.000000,3.000000,6.000000,-2.000000,1.000000,23.000000,14.000000
1310070.640070,101.000000,4.000000,8.000000,-15.000000,18.000000,89.000000,127.000000,33.000000
1310070.640096,127.000000,7.000000,13.000000,47.000000,16.000000,-49.000000,-99.000000,-31.000000
1310070.641114,10.000000,5.000000,-17.000000,-27.000000,-24.000000,-4.000000,103.000000,-2.000000
1310070.641120,3.000000,5.000000,6.000000,-10.000000,2.000000,6.000000,50.000000,8.000000
1310070.654680,127.000000,-5.000000,-19.000000,-12.000000,-18.000000,9.000000,81.000000,25.000000
1310070.654690,85.000000,-13.000000,-7.000000,-32.000000,4.000000,-13.000000,12.000000,16.000000
1310070.677291,-30.000000,13.000000,14.000000,-20.000000,7.000000,5.000000,-58.000000,15.000000
1310070.677314,39.000000,2.000000,-3.000000,5.000000,-3.000000,10.000000,-77.000000,-1.000000
1310070.692460,-95.000000,-11.000000,-24.000000,-4.000000,-17.000000,-15.000000,-128.000000,-61.000000
1310070.692479,-10.000000,7.000000,14.000000,21.000000,26.000000,-2.000000,58.000000,1.000000
1310070.714800,-128.000000,0.000000,-4.000000,-19.000000,-11.000000,9.000000,27.000000,-40.000000
1310070.714820,-6.000000,-5.000000,-1.000000,-10.000000,-21.000000,11.000000,-88.000000,71.000000
1310070.722234,127.000000,3.000000,7.000000,50.000000,29.000000,12.000000,107.000000,-26.000000
1310070.722244,-128.000000,8.000000,21.000000,39.000000,-12.000000,-105.000000,-95.000000,21.000000
1310070.745169,127.000000,-9.000000,-26.000000,1.000000,-8.000000,20.000000,57.000000,10.000000
1310070.745256,-128.000000,4.000000,-3.000000,-17.000000,2.000000,5.000000,-128.000000,-50.000000
1310070.752054,127.000000,16.000000,-14.000000,-8.000000,-11.000000,61.000000,127.000000,44.000000
1310070.752064,-128.000000,-8.000000,-2.000000,6.000000,-20.000000,-110.000000,-128.000000,-111.000000
1310070.774632,127.000000,-1.000000,11.000000,-10.000000,16.000000,27.000000,59.000000,-4.000000
1310070.774642,-79.000000,5.000000,-14.000000,-23.000000,-31.000000,0.000000,-30.000000,-9.000000
1310070.775180,-7.000000,-11.000000,22.000000,22.000000,8.000000,6.000000,21.000000,7.000000
1310070.775190,127.000000,-11.000000,5.000000,45.000000,-13.000000,-12.000000,26.000000,7.000000
1310070.776303,1.000000,-5.000000,-9.000000,-14.000000,7.000000,25.000000,10.000000,5.000000
1310070.776330,127.000000,5.000000,12.000000,1.000000,-1.000000,-47.000000,-128.000000,36.000000
1310070.777851,127.000000,-5.000000,-48.000000,38.000000,-23.000000,-9.000000,46.000000,48.000000
1310070.777877,-67.000000,3.000000,19.000000,-33.000000,-7.000000,-54.000000,-128.000000,7.000000
1310070.797351,-128.000000,-11.000000,-26.000000,-53.000000,-1.000000,37.000000,32.000000,-40.000000
1310070.797360,127.000000,-15.000000,7.000000,13.000000,-1.000000,28.000000,35.000000,8.000000
1310070.812320,86.000000,15.000000,-3.000000,-25.000000,10.000000,13.000000,-128.000000,-15.000000
1310070.812330,-128.000000,3.000000,-13.000000,5.000000,-27.000000,-11.000000,-53.000000,-21.000000
1310070.827526,105.000000,-8.000000,-15.000000,-62.000000,-8.000000,-53.000000,-68.000000,13.000000
1310070.827540,127.000000,0.000000,7.000000,-4.000000,17.000000,10.000000,21.000000,-1.000000
1310070.834794,0.000000,-1.000000,23.000000,-21.000000,15.000000,15.000000,21.000000,-56.000000
1310070.834806,127.000000,-6.000000,-40.000000,-1.000000,-31.000000,5.000000,-126.000000,-16.000000
1310070.857228,39.000000,0.000000,19.000000,-7.000000,-6.000000,-10.000000,69.000000,62.000000
1310070.857239,-28.000000,8.000000,23.000000,53.000000,15.000000,13.000000,1.000000,-8.000000
1310070.864683,-102.000000,-4.000000,5.000000,-15.000000,-6.000000,5.000000,-3.000000,-20.000000
1310070.864711,-128.000000,-21.000000,-4.000000,14.000000,-3.000000,-16.000000,-51.000000,-12.000000
1310070.894594,-128.000000,5.000000,-2.000000,25.000000,-16.000000,-14.000000,18.000000,-20.000000
1310070.894629,13.000000,10.000000,18.000000,-4.000000,-8.000000,-12.000000,71.000000,3.000000
1310070.895162,61.000000,1.000000,-9.000000,-19.000000,-3.000000,19.000000,-2.000000,28.000000
1310070.895170,127.000000,15.000000,3.000000,6.000000,-12.000000,-44.000000,-113.000000,-56.000000
1310070.896399,127.000000,14.000000,20.000000,37.000000,-24.000000,-74.000000,-116.000000,63.000000
1310070.896413,39.000000,-7.000000,7.000000,-24.000000,-1.000000,1.000000,49.000000,26.000000
1310070.897059,-128.000000,-8.000000,-4.000000,10.000000,7.000000,51.000000,-49.000000,-60.000000
1310070.897086,70.000000,-7.000000,1.000000,-30.000000,3.000000,2.000000,-22.000000,14.000000
1310070.898617,124.000000,5.000000,0.000000,-26.000000,1.000000,-7.000000,-25.000000,7.000000
1310070.898645,-61.000000,2.000000,-13.000000,-27.000000,-6.000000,6.000000,-1.000000,-11.000000
1310070.917434,-91.000000,-1.000000,9.000000,-20.000000,1.000000,-4.000000,-43.000000,-6.000000
1310070.917444,48.000000,-4.000000,-29.000000,10.000000,-5.000000,-7.000000,-14.000000,-5.000000
1310070.932538,16.000000,4.000000,30.000000,-25.000000,3.000000,17.000000,50.000000,30.000000
1310070.932581,13.000000,4.000000,13.000000,42.000000,3.000000,-5.000000,24.000000,-4.000000
1310070.969983,-33.000000,-6.000000,4.000000,-2.000000,25.000000,32.000000,26.000000,25.000000
1310070.969994,75.000000,12.000000,3.000000,-9.000000,-8.000000,-3.000000,92.000000,26.000000
1310070.977275,-66.000000,0.000000,-6.000000,-27.000000,-16.000000,-14.000000,-84.000000,8.000000
1310070.977286,107.000000,-3.000000,35.000000,60.000000,16.000000,2.000000,-32.000000,-5.000000
1310070.992753,-128.000000,-2.000000,-7.000000,-17.000000,-8.000000,12.000000,-6.000000,-46.000000
1310070.992766,89.000000,5.000000,-20.000000,2.000000,-10.000000,2.000000,-69.000000,9.000000
1310070.993327,10.000000,-10.000000,-11.000000,-7.000000,-8.000000,-35.000000,-64.000000,-13.000000
1310070.993381,-128.000000,10.000000,8.000000,1.000000,-2.000000,-4.000000,127.000000,37.000000
1310070.994595,-102.000000,-2.000000,15.000000,13.000000,3.000000,-1.000000,42.000000,15.000000
1310070.994615,12.000000,-4.000000,-11.000000,-2.000000,-5.000000,-43.000000,-128.000000,-11.000000
1310070.996299,-113.000000,1.000000,-26.000000,-28.000000,6.000000,13.000000,-19.000000,-27.000000
1310070.996309,55.000000,2.000000,-12.000000,-12.000000,-20.000000,14.000000,40.000000,38.000000
1310071.014992,-128.000000,-5.000000,4.000000,17.000000,3.000000,-54.000000,-1.000000,-28.000000
1310071.015006,127.000000,8.000000,-17.000000,-10.000000,2.000000,16.000000,-3.000000,-2.000000
1310071.015592,-128.000000,9.000000,1.000000,-17.000000,1.000000,10.000000,-22.000000,-27.000000
1310071.015601,-75.000000,-9.000000,-6.000000,-20.000000,10.000000,23.000000,-13.000000,28.000000
1310071.029849,92.000000,-9.000000,5.000000,-15.000000,2.000000,0.000000,108.000000,-13.000000
1310071.029866,51.000000,-5.000000,-6.000000,-1.000000,13.000000,29.000000,48.000000,5.000000
1310071.037300,-39.000000,-1.000000,-4.000000,-15.000000,-3.000000,11.000000,-97.000000,-27.000000
1310071.037316,48.000000,-14.000000,9.000000,1.000000,0.000000,-43.000000,-20.000000,-19.000000
1310071.075119,-54.000000,-3.000000,-16.000000,-1.000000,-1.000000,-17.000000,-2.000000,37.000000
1310071.075143,92.000000,5.000000,11.000000,12.000000,7.000000,43.000000,83.000000,-6.000000
1310071.089559,-93.000000,-4.000000,-10.000000,-15.000000,4.000000,5.000000,112.000000,-39.000000
1310071.089583,117.000000,4.000000,-14.000000,-7.000000,4.000000,-20.000000,92.000000,36.000000
1310071.090813,-80.000000,4.000000,4.000000,13.000000,-13.000000,-20.000000,59.000000,-29.000000
1310071.090827,5.000000,1.000000,-13.000000,-19.000000,22.000000,30.000000,26.000000,5.000000
1310071.091337,24.000000,-8.000000,9.000000,30.000000,14.000000,12.000000,-28.000000,4.000000
1310071.091390,-66.000000,20.000000,7.000000,16.000000,-8.000000,-30.000000,-83.000000,-21.000000
1310071.092758,75.000000,-7.000000,-9.000000,-2.000000,9.000000,41.000000,63.000000,32.000000
1310071.092766,3.000000,-11.000000,19.000000,1.000000,-5.000000,-13.000000,49.000000,-16.000000
1310071.093469,-128.000000,-4.000000,-10.000000,7.000000,-19.000000,-37.000000,-24.000000,-36.000000
1310071.093491,-45.000000,9.000000,0.000000,-1.000000,-6.000000,74.000000,127.000000,16.000000
1310071.112457,-117.000000,-9.000000,8.000000,43.000000,-33.000000,-117.000000,-53.000000,-46.000000
1310071.112484,3.000000,10.000000,9.000000,-9.000000,14.000000,50.000000,-20.000000,48.000000
1310071.113220,-128.000000,2.000000,-18.000000,-12.000000,-4.000000,-11.000000,127.000000,12.000000
1310071.113247,-3.000000,-3.000000,-11.000000,-20.000000,1.000000,6.000000,-41.000000,-8.000000
1310071.128111,127.000000,5.000000,-2.000000,-45.000000,-4.000000,-20.000000,-128.000000,6.000000
1310071.128126,-128.000000,3.000000,11.000000,65.000000,26.000000,28.000000,1.000000,-9.000000
1310071.134854,4.000000,-2.000000,4.000000,19.000000,-18.000000,-37.000000,127.000000,39.000000
1310071.134870,-50.000000,-9.000000,-56.000000,-7.000000,-10.000000,-33.000000,-16.000000,-66.000000
1310071.172488,127.000000,9.000000,-20.000000,-5.000000,2.000000,31.000000,-128.000000,17.000000
1310071.172503,79.000000,2.000000,-2.000000,25.000000,-7.000000,9.000000,64.000000,-9.000000
1310071.187566,43.000000,-4.000000,-4.000000,-10.000000,2.000000,26.000000,30.000000,15.000000
1310071.187592,-108.000000,0.000000,13.000000,-16.000000,10.000000,-22.000000,-109.000000,-10.000000
1310071.209924,58.000000,1.000000,-14.000000,-23.000000,-3.000000,35.000000,77.000000,45.000000
1310071.209953,-82.000000,0.000000,-4.000000,-7.000000,8.000000,7.000000,47.000000,-72.000000
1310071.210259,36.000000,-10.000000,8.000000,8.000000,-4.000000,-54.000000,-128.000000,-13.000000
1310071.210269,-18.000000,13.000000,-4.000000,-8.000000,20.000000,19.000000,64.000000,4.000000
1310071.211668,127.000000,4.000000,12.000000,6.000000,3.000000,18.000000,64.000000,39.000000
1310071.211691,-113.000000,-9.000000,-6.000000,51.000000,-5.000000,-10.000000,-81.000000,-45.000000
1310071.212357,127.000000,-2.000000,6.000000,22.000000,12.000000,26.000000,59.000000,3.000000
1310071.212378,-16.000000,-4.000000,1.000000,11.000000,2.000000,-33.000000,64.000000,17.000000
1310071.213729,127.000000,13.000000,1.000000,7.000000,2.000000,8.000000,127.000000,67.000000
1310071.213737,-128.000000,-1.000000,-17.000000,-3.000000,-4.000000,-4.000000,-22.000000,-20.000000
1310071.232168,44.000000,0.000000,6.000000,-21.000000,-12.000000,-12.000000,-113.000000,6.000000
1310071.232178,-42.000000,6.000000,-21.000000,-11.000000,-6.000000,39.000000,-11.000000,-21.000000
1310071.232719,-53.000000,-1.000000,6.000000,17.000000,8.000000,-4.000000,127.000000,-2.000000
1310071.232727,-32.000000,-4.000000,-19.000000,9.000000,2.000000,-41.000000,-80.000000,-18.000000
1310071.248061,127.000000,3.000000,-3.000000,-28.000000,11.000000,37.000000,66.000000,14.000000
1310071.248072,-62.000000,-4.000000,14.000000,12.000000,4.000000,-1.000000,-39.000000,-19.000000
1310071.254879,-18.000000,-8.000000,-12.000000,6.000000,-1.000000,-39.000000,-45.000000,-22.000000
1310071.254892,95.000000,8.000000,-18.000000,-3.000000,-3.000000,3.000000,45.000000,7.000000
1310071.292433,-103.000000,-2.000000,-15.000000,-41.000000,6.000000,16.000000,-13.000000,-16.000000
1310071.292444,-92.000000,-8.000000,13.000000,-3.000000,6.000000,52.000000,-83.000000,-8.000000
1310071.300187,-20.000000,11.000000,-16.000000,-12.000000,-18.000000,-55.000000,5.000000,-19.000000
1310071.300200,127.000000,10.000000,9.000000,37.000000,8.000000,-57.000000,-85.000000,38.000000
1310071.314679,-80.000000,-7.000000,-21.000000,0.000000,-15.000000,25.000000,-35.000000,-10.000000
1310071.314695,127.000000,-16.000000,5.000000,-36.000000,9.000000,52.000000,1.000000,-14.000000
1310071.315144,127.000000,5.000000,-6.000000,46.000000,13.000000,-21.000000,33.000000,19.000000
1310071.315152,1.000000,-1.000000,5.000000,-13.000000,16.000000,-4.000000,97.000000,23.000000
1310071.316273,-24.000000,-4.000000,-2.000000,-14.000000,-1.000000,39.000000,8.000000,-9.000000
1310071.316282,-128.000000,0.000000,13.000000,26.000000,1.000000,-2.000000,-107.000000,-22.000000
1310071.317210,127.000000,0.000000,-18.000000,-26.000000,18.000000,-1.000000,-15.000000,46.000000
1310071.317227,-62.000000,-18.000000,9.000000,-6.000000,-7.000000,0.000000,-11.000000,-51.000000
1310071.344983,127.000000,-6.000000,4.000000,-13.000000,-8.000000,17.000000,-70.000000,16.000000
1310071.344994,43.000000,14.000000,3.000000,-24.000000,-7.000000,-5.000000,-27.000000,-19.000000
1310071.352820,127.000000,-4.000000,38.000000,12.000000,6.000000,-44.000000,-128.000000,48.000000
1310071.352830,-15.000000,2.000000,7.000000,45.000000,3.000000,9.000000,-14.000000,-41.000000
1310071.353471,-128.000000,2.000000,-31.000000,-43.000000,-20.000000,-9.000000,12.000000,26.000000
1310071.353478,63.000000,-3.000000,12.000000,-28.000000,-9.000000,27.000000,127.000000,39.000000
1310071.354313,-28.000000,-8.000000,-21.000000,-10.000000,-14.000000,38.000000,-1.000000,-33.000000
1310071.354322,-25.000000,10.000000,20.000000,-10.000000,-12.000000,-40.000000,24.000000,17.000000
1310071.367867,-18.000000,10.000000,2.000000,-12.000000,14.000000,1.000000,-19.000000,-5.000000
1310071.367882,-102.000000,-3.000000,-3.000000,-2.000000,-21.000000,-7.000000,18.000000,-10.000000
1310071.374700,102.000000,10.000000,-2.000000,-19.000000,3.000000,6.000000,-59.000000,-4.000000
1310071.374717,-47.000000,12.000000,10.000000,-2.000000,1.000000,8.000000,24.000000,26.000000
1310071.389781,-54.000000,-18.000000,-44.000000,3.000000,-1.000000,-11.000000,-39.000000,-38.000000
1310071.389791,127.000000,2.000000,-22.000000,-1.000000,5.000000,1.000000,41.000000,15.000000
1310071.404924,-15.000000,-6.000000,1.000000,-21.000000,15.000000,1.000000,-84.000000,6.000000
1310071.404989,-97.000000,-3.000000,-12.000000,-21.000000,-12.000000,13.000000,80.000000,-19.000000
1310071.419703,-8.000000,-1.000000,0.000000,-20.000000,-11.000000,-6.000000,-38.000000,32.000000
1310071.419722,13.000000,6.000000,-28.000000,-3.000000,-18.000000,-28.000000,49.000000,-54.000000
1310071.449794,-102.000000,7.000000,17.000000,-9.000000,-2.000000,22.000000,72.000000,63.000000
1310071.449804,-33.000000,-8.000000,-27.000000,-15.000000,-19.000000,-13.000000,12.000000,-33.000000
1310071.472636,-60.000000,5.000000,18.000000,-22.000000,17.000000,-27.000000,-29.000000,-22.000000
1310071.472664,-10.000000,2.000000,1.000000,13.000000,5.000000,62.000000,35.000000,-9.000000
1310071.487454,-115.000000,-6.000000,-15.000000,17.000000,-14.000000,-72.000000,-128.000000,-25.000000
1310071.487484,-128.000000,-11.000000,-1.000000,-4.000000,-42.000000,-73.000000,-16.000000,-14.000000
1310071.488545,-76.000000,9.000000,27.000000,1.000000,39.000000,54.000000,43.000000,-14.000000
1310071.488556,34.000000,3.000000,12.000000,-4.000000,-8.000000,4.000000,-15.000000,1.000000
1310071.489451,113.000000,-12.000000,-18.000000,1.000000,-3.000000,21.000000,-9.000000,18.000000
1310071.489481,-78.000000,-1.000000,-14.000000,25.000000,-16.000000,-36.000000,-78.000000,-30.000000
1310071.489908,17.000000,-1.000000,-3.000000,-18.000000,12.000000,20.000000,90.000000,14.000000
1310071.489937,77.000000,0.000000,-12.000000,-5.000000,-4.000000,19.000000,-6.000000,18.000000
1310071.495310,-77.000000,9.000000,14.000000,53.000000,33.000000,26.000000,24.000000,16.000000
1310071.495330,29.000000,-5.000000,-20.000000,-11.000000,-4.000000,11.000000,2.000000,-12.000000
1310071.525063,64.000000,-9.000000,-5.000000,-9.000000,-8.000000,-12.000000,-48.000000,-19.000000
1310071.525075,-128.000000,-3.000000,-11.000000,-19.000000,2.000000,12.000000,46.000000,3.000000
1310071.532527,-60.000000,5.000000,-6.000000,-10.000000,-8.000000,-3.000000,12.000000,-10.000000
1310071.532540,17.000000,-16.000000,18.000000,83.000000,18.000000,-28.000000,-128.000000,-11.000000
1310071.554879,-86.000000,2.000000,-3.000000,-9.000000,3.000000,-31.000000,73.000000,23.000000
1310071.554906,-115.000000,7.000000,-1.000000,-33.000000,3.000000,29.000000,62.000000,-2.000000
1310071.562135,87.000000,2.000000,16.000000,35.000000,-1.000000,16.000000,-3.000000,11.000000
1310071.562144,-23.000000,1.000000,3.000000,-9.000000,-8.000000,-4.000000,-128.000000,-16.000000
1310071.577536,-101.000000,-5.000000,-16.000000,-4.000000,7.000000,-13.000000,19.000000,8.000000
1310071.577566,64.000000,-5.000000,0.000000,-23.000000,-7.000000,10.000000,15.000000,-2.000000
1310071.578010,2.000000,1.000000,6.000000,17.000000,-2.000000,-3.000000,-26.000000,4.000000
1310071.578017,-50.000000,-4.000000,11.000000,9.000000,13.000000,29.000000,8.000000,-11.000000
1310071.585678,23.000000,-13.000000,-2.000000,-11.000000,-6.000000,-6.000000,-63.000000,0.000000
1310071.585695,-19.000000,2.000000,10.000000,-3.000000,1.000000,-1.000000,-17.000000,0.000000
1310071.586120,127.000000,5.000000,-9.000000,34.000000,-7.000000,-33.000000,35.000000,7.000000
1310071.586137,-80.000000,10.000000,10.000000,-23.000000,30.000000,28.000000,89.000000,41.000000
1310071.587590,116.000000,-2.000000,-6.000000,-23.000000,6.000000,66.000000,97.000000,8.000000
1310071.587607,-85.000000,0.000000,-15.000000,-3.000000,-5.000000,-22.000000,-13.000000,-22.000000
1310071.592558,99.000000,4.000000,5.000000,-1.000000,8.000000,-24.000000,-86.000000,35.000000
1310071.592579,109.000000,-3.000000,2.000000,1.000000,-17.000000,-12.000000,-57.000000,16.000000
1310071.607754,-98.000000,-12.000000,-26.000000,-30.000000,-8.000000,24.000000,48.000000,-26.000000
1310071.607763,71.000000,8.000000,27.000000,127.000000,12.000000,-20.000000,127.000000,34.000000
1310071.629795,-23.000000,-5.000000,4.000000,-19.000000,5.000000,6.000000,-81.000000,14.000000
1310071.629806,100.000000,-18.000000,-8.000000,14.000000,-7.000000,-34.000000,-128.000000,-30.000000
1310071.652190,56.000000,6.000000,-6.000000,-40.000000,6.000000,21.000000,26.000000,20.000000
1310071.652200,10.000000,1.000000,19.000000,11.000000,11.000000,20.000000,111.000000,19.000000
1310071.667487,110.000000,-1.000000,13.000000,-21.000000,3.000000,10.000000,-6.000000,-2.000000
1310071.667518,-128.000000,3.000000,-44.000000,-7.000000,-5.000000,-27.000000,-93.000000,-15.000000
1310071.668336,-25.000000,6.000000,-1.000000,-1.000000,-7.000000,-16.000000,52.000000,11.000000
1310071.668347,23.000000,-5.000000,7.000000,0.000000,5.000000,16.000000,28.000000,15.000000
1310071.668834,-45.000000,-9.000000,6.000000,-9.000000,-14.000000,-8.000000,-78.000000,-62.000000
1310071.668842,-128.000000,3.000000,11.000000,-18.000000,-1.000000,19.000000,33.000000,65.000000
1310071.670441,-128.000000,-5.000000,-21.000000,34.000000,-7.000000,-5.000000,45.000000,-60.000000
1310071.670449,67.000000,-6.000000,7.000000,20.000000,-12.000000,-44.000000,103.000000,0.000000
1310071.682317,126.000000,0.000000,-10.000000,-2.000000,-7.000000,-25.000000,31.000000,21.000000
1310071.682336,-6.000000,0.000000,-1.000000,-11.000000,-4.000000,23.000000,25.000000,23.000000
1310071.683555,12.000000,-5.000000,-1.000000,0.000000,4.000000,27.000000,24.000000,-10.000000
1310071.683564,-1.000000,10.000000,6.000000,-24.000000,1.000000,15.000000,-42.000000,-3.000000
1310071.689996,-38.000000,4.000000,8.000000,-8.000000,-17.000000,-67.000000,-99.000000,5.000000
1310071.690050,47.000000,-4.000000,-10.000000,-12.000000,-12.000000,22.000000,48.000000,15.000000
1310071.705337,-2.000000,3.000000,20.000000,25.000000,14.000000,11.000000,27.000000,-22.000000
1310071.705360,-21.000000,8.000000,16.000000,17.000000,9.000000,-6.000000,-53.000000,24.000000
1310071.727442,15.000000,2.000000,-8.000000,-7.000000,-5.000000,1.000000,67.000000,5.000000
1310071.727504,80.000000,-8.000000,-19.000000,3.000000,-8.000000,-8.000000,-2.000000,10.000000
1310071.728669,-70.000000,7.000000,3.000000,-18.000000,-6.000000,-2.000000,-19.000000,-12.000000
1310071.728687,36.000000,-4.000000,3.000000,-14.000000,1.000000,23.000000,15.000000,26.000000
1310071.734667,127.000000,-2.000000,-1.000000,-10.000000,-1.000000,-3.000000,-29.000000,-12.000000
1310071.734684,74.000000,1.000000,5.000000,-8.000000,-3.000000,-39.000000,25.000000,-13.000000
1310071.749713,29.000000,10.000000,2.000000,-11.000000,5.000000,16.000000,-2.000000,11.000000
1310071.749732,109.000000,-13.000000,12.000000,-5.000000,1.000000,20.000000,16.000000,10.000000
1310071.765026,-25.000000,-7.000000,-11.000000,21.000000,2.000000,-5.000000,7.000000,-4.000000
1310071.765036,-128.000000,3.000000,-14.000000,-21.000000,-9.000000,3.000000,15.000000,-28.000000
1310071.779892,14.000000,4.000000,3.000000,11.000000,-2.000000,-9.000000,-3.000000,18.000000
1310071.779902,96.000000,-6.000000,14.000000,16.000000,-14.000000,-27.000000,-74.000000,-4.000000
1310071.787261,-12.000000,2.000000,-11.000000,-5.000000,-1.000000,4.000000,44.000000,13.000000
1310071.787284,-51.000000,3.000000,-9.000000,-33.000000,-10.000000,40.000000,-67.000000,32.000000
1310071.802522,-19.000000,1.000000,4.000000,20.000000,-9.000000,-35.000000,114.000000,-23.000000
1310071.802549,29.000000,7.000000,-1.000000,-14.000000,-6.000000,-40.000000,-128.000000,3.000000
1310071.803100,-82.000000,10.000000,6.000000,-20.000000,0.000000,21.000000,57.000000,-6.000000
1310071.803126,127.000000,-8.000000,1.000000,-3.000000,0.000000,31.000000,-58.000000,16.000000
1310071.804854,-73.000000,0.000000,-16.000000,-1.000000,9.000000,-21.000000,-62.000000,-34.000000
1310071.804885,-16.000000,1.000000,3.000000,-1.000000,8.000000,10.000000,76.000000,17.000000
1310071.809768,31.000000,-7.000000,-11.000000,-19.000000,-9.000000,12.000000,-50.000000,3.000000
1310071.809778,-28.000000,-7.000000,5.000000,47.000000,11.000000,1.000000,127.000000,40.000000
1310071.824908,96.000000,-2.000000,7.000000,-10.000000,-1.000000,3.000000,-29.000000,7.000000
1310071.824937,9.000000,8.000000,-7.000000,-23.000000,-4.000000,24.000000,-128.000000,-7.000000
1310071.847208,80.000000,-12.000000,-6.000000,3.000000,2.000000,-12.000000,-16.000000,-9.000000
1310071.847218,-58.000000,0.000000,0.000000,21.000000,8.000000,-10.000000,127.000000,3.000000
1310071.892380,34.000000,9.000000,-13.000000,21.000000,7.000000,26.000000,127.000000,26.000000
1310071.892408,52.000000,-4.000000,-3.000000,-4.000000,-16.000000,-99.000000,-128.000000,21.000000
1310071.907578,-10.000000,-14.000000,-24.000000,-51.000000,-2.000000,115.000000,-78.000000,10.000000
1310071.907611,33.000000,5.000000,4.000000,27.000000,14.000000,-115.000000,-128.000000,-56.000000
1310071.908857,102.000000,-6.000000,5.000000,-36.000000,16.000000,51.000000,60.000000,19.000000
1310071.908884,-11.000000,-5.000000,-7.000000,3.000000,-6.000000,5.000000,-98.000000,-21.000000
1310071.909290,-27.000000,-5.000000,4.000000,-32.000000,8.000000,88.000000,-3.000000,-10.000000
1310071.909317,48.000000,9.000000,1.000000,14.000000,11.000000,-65.000000,67.000000,9.000000
1310071.910532,30.000000,2.000000,-20.000000,-11.000000,1.000000,9.000000,118.000000,-2.000000
1310071.910559,-64.000000,0.000000,-18.000000,-25.000000,6.000000,45.000000,42.000000,4.000000
1310071.922332,88.000000,5.000000,-2.000000,-11.000000,-10.000000,-15.000000,127.000000,-4.000000
1310071.922357,54.000000,-4.000000,-5.000000,3.000000,6.000000,21.000000,-92.000000,24.000000
1310071.929736,127.000000,3.000000,5.000000,-28.000000,2.000000,-6.000000,-87.000000,7.000000
1310071.929757,-57.000000,3.000000,2.000000,18.000000,-4.000000,-64.000000,-128.000000,-21.000000
1310071.944665,3.000000,-14.000000,-6.000000,-38.000000,-3.000000,40.000000,42.000000,-2.000000
1310071.944692,-34.000000,5.000000,13.000000,25.000000,12.000000,-76.000000,-128.000000,-23.000000
1310071.946237,64.000000,1.000000,-10.000000,-26.000000,-2.000000,45.000000,127.000000,12.000000
1310071.946248,24.000000,-8.000000,-11.000000,9.000000,2.000000,19.000000,52.000000,22.000000
1310071.959721,-18.000000,-1.000000,-10.000000,-6.000000,6.000000,30.000000,127.000000,-22.000000
1310071.959731,-8.000000,-2.000000,2.000000,0.000000,-9.000000,-27.000000,127.000000,18.000000
1310071.967218,-38.000000,-6.000000,2.000000,31.000000,16.000000,-8.000000,-22.000000,26.000000
1310071.967235,-18.000000,-11.000000,-8.000000,13.000000,-3.000000,-19.000000,-60.000000,1.000000
1310071.982353,-128.000000,1.000000,-4.000000,-14.000000,11.000000,48.000000,-2.000000,-19.000000
1310071.982362,-127.000000,-1.000000,0.000000,0.000000,0.000000,-17.000000,-54.000000,-1.000000
1310072.005792,127.000000,-9.000000,-31.000000,-16.000000,-28.000000,-27.000000,47.000000,11.000000
1310072.005837,31.000000,6.000000,-3.000000,-23.000000,-14.000000,-21.000000,13.000000,-21.000000
1310072.006317,118.000000,10.000000,-10.000000,-20.000000,-1.000000,28.000000,-39.000000,12.000000
1310072.006344,89.000000,-7.000000,17.000000,3.000000,21.000000,18.000000,92.000000,14.000000
1310072.007394,-37.000000,-5.000000,5.000000,35.000000,-7.000000,-13.000000,-62.000000,-28.000000
1310072.007402,111.000000,2.000000,-1.000000,-18.000000,-2.000000,25.000000,102.000000,16.000000
1310072.019694,127.000000,-8.000000,-9.000000,-5.000000,-9.000000,15.000000,109.000000,38.000000
1310072.019704,-63.000000,-4.000000,2.000000,-3.000000,-9.000000,-96.000000,57.000000,-30.000000
1310072.042512,-13.000000,0.000000,1.000000,-31.000000,11.000000,33.000000,54.000000,32.000000
1310072.042523,127.000000,3.000000,-10.000000,4.000000,-16.000000,24.000000,7.000000,9.000000
1310072.064773,-107.000000,-1.000000,-5.000000,-18.000000,-4.000000,68.000000,32.000000,-28.000000
1310072.064783,27.000000,4.000000,-26.000000,-5.000000,-10.000000,-74.000000,-128.000000,-3.000000
1310072.087511,87.000000,16.000000,10.000000,18.000000,-10.000000,-41.000000,18.000000,19.000000
1310072.087521,-29.000000,-7.000000,-14.000000,6.000000,5.000000,31.000000,73.000000,22.000000
1310072.094983,65.000000,-7.000000,4.000000,-6.000000,-1.000000,-29.000000,-59.000000,-37.000000
1310072.095012,5.000000,-5.000000,5.000000,-10.000000,-19.000000,7.000000,-13.000000,23.000000
1310072.102697,-106.000000,-3.000000,-19.000000,7.000000,-11.000000,-11.000000,-16.000000,9.000000
1310072.102709,-67.000000,-10.000000,-13.000000,-29.000000,-1.000000,-2.000000,-52.000000,8.000000
1310072.103156,-17.000000,-3.000000,-16.000000,-37.000000,-12.000000,-19.000000,-128.000000,0.000000
1310072.103164,-72.000000,16.000000,-4.000000,11.000000,7.000000,22.000000,72.000000,7.000000
1310072.104711,-104.000000,-1.000000,7.000000,-10.000000,0.000000,-34.000000,-128.000000,8.000000
1310072.104726,40.000000,9.000000,-3.000000,-19.000000,-3.000000,-1.000000,-128.000000,-18.000000
1310072.106243,127.000000,0.000000,4.000000,10.000000,4.000000,16.000000,67.000000,23.000000
1310072.106271,-68.000000,17.000000,-10.000000,6.000000,-3.000000,-2.000000,-66.000000,-18.000000
1310072.124857,38.000000,-11.000000,2.000000,7.000000,-3.000000,11.000000,111.000000,25.000000
1310072.124871,-14.000000,1.000000,-5.000000,-15.000000,7.000000,4.000000,-96.000000,-16.000000
1310072.126085,-27.000000,3.000000,-6.000000,-3.000000,-7.000000,-2.000000,19.000000,-21.000000
1310072.126099,33.000000,-4.000000,-16.000000,-11.000000,-13.000000,22.000000,26.000000,93.000000
1310072.139906,37.000000,-12.000000,24.000000,51.000000,9.000000,-2.000000,-27.000000,1.000000
1310072.139951,6.000000,8.000000,-9.000000,-11.000000,-3.000000,-4.000000,-25.000000,-19.000000
1310072.162554,-32.000000,3.000000,-8.000000,1.000000,16.000000,12.000000,26.000000,15.000000
1310072.162564,24.000000,3.000000,13.000000,9.000000,-2.000000,-1.000000,11.000000,-11.000000
1310072.177172,-44.000000,4.000000,-9.000000,-10.000000,-7.000000,-14.000000,-66.000000,-25.000000
1310072.177203,27.000000,6.000000,-5.000000,-12.000000,12.000000,10.000000,43.000000,34.000000
1310072.185513,-67.000000,-7.000000,-8.000000,6.000000,-5.000000,4.000000,-12.000000,6.000000
1310072.185524,-57.000000,-13.000000,-9.000000,-3.000000,-19.000000,21.000000,53.000000,-13.000000
1310072.185906,-128.000000,0.000000,-4.000000,2.000000,-15.000000,-104.000000,30.000000,-14.000000
1310072.185915,5.000000,3.000000,12.000000,4.000000,6.000000,-14.000000,73.000000,3.000000
1310072.187804,-34.000000,-1.000000,-9.000000,-14.000000,11.000000,29.000000,-43.000000,-18.000000
1310072.187816,-7.000000,1.000000,-13.000000,-18.000000,-3.000000,-3.000000,-24.000000,-3.000000
1310072.199693,25.000000,6.000000,12.000000,64.000000,-11.000000,-20.000000,-41.000000,-3.000000
1310072.199703,-20.000000,2.000000,-8.000000,-21.000000,0.000000,12.000000,30.000000,-5.000000
1310072.222435,-128.000000,3.000000,19.000000,8.000000,-4.000000,-16.000000,-41.000000,-13.000000
1310072.222453,73.000000,1.000000,0.000000,-20.000000,3.000000,34.000000,49.000000,5.000000
1310072.245272,-27.000000,0.000000,-19.000000,-6.000000,-2.000000,5.000000,127.000000,4.000000
1310072.245282,6.000000,-1.000000,27.000000,56.000000,13.000000,-34.000000,-6.000000,-17.000000
1310072.260146,-12.000000,3.000000,8.000000,8.000000,-4.000000,8.000000,42.000000,0.000000
1310072.260155,-55.000000,-5.000000,-7.000000,8.000000,7.000000,0.000000,53.000000,8.000000
1310072.260632,52.000000,-18.000000,6.000000,9.000000,-7.000000,24.000000,13.000000,14.000000
1310072.260640,-42.000000,-3.000000,-4.000000,-3.000000,-1.000000,-20.000000,-45.000000,-3.000000
1310072.262070,-23.000000,-2.000000,-13.000000,-11.000000,-5.000000,-4.000000,127.000000,6.000000
1310072.262090,-72.000000,-11.000000,12.000000,32.000000,12.000000,8.000000,-64.000000,-27.000000
1310072.262711,127.000000,-2.000000,-18.000000,-26.000000,11.000000,2.000000,-89.000000,-9.000000
1310072.262720,-105.000000,13.000000,4.000000,27.000000,9.000000,13.000000,14.000000,17.000000
1310072.282419,19.000000,-3.000000,1.000000,-9.000000,2.000000,8.000000,-33.000000,-5.000000
1310072.282447,127.000000,4.000000,0.000000,-4.000000,-8.000000,-6.000000,-1.000000,-8.000000
1310072.283093,85.000000,3.000000,4.000000,-13.000000,11.000000,-3.000000,16.000000,20.000000
1310072.283120,-106.000000,-1.000000,-15.000000,-37.000000,-6.000000,37.000000,127.000000,-11.000000
1310072.284538,31.000000,-12.000000,-5.000000,13.000000,-1.000000,-10.000000,36.000000,-38.000000
1310072.284567,127.000000,-4.000000,21.000000,-7.000000,4.000000,6.000000,46.000000,45.000000
1310072.297278,-5.000000,-6.000000,-12.000000,-27.000000,-19.000000,-43.000000,-25.000000,13.000000
1310072.297287,-7.000000,5.000000,19.000000,108.000000,17.000000,7.000000,-62.000000,-17.000000
1310072.305268,-2.000000,1.000000,-7.000000,-13.000000,-15.000000,1.000000,-128.000000,-11.000000
1310072.305284,-60.000000,10.000000,23.000000,-3.000000,17.000000,19.000000,27.000000,12.000000
1310072.319851,-34.000000,-3.000000,-7.000000,-4.000000,-5.000000,-11.000000,65.000000,-12.000000
1310072.319860,127.000000,-8.000000,-6.000000,-2.000000,4.000000,-25.000000,-101.000000,4.000000
1310072.335392,63.000000,0.000000,-5.000000,13.000000,-7.000000,4.000000,-40.000000,-11.000000
1310072.335402,-21.000000,-8.000000,2.000000,1.000000,-3.000000,6.000000,-30.000000,-28.000000
1310072.342213,25.000000,-7.000000,2.000000,15.000000,-11.000000,-34.000000,16.000000,-9.000000
1310072.342224,-73.000000,-3.000000,-7.000000,-19.000000,-7.000000,-7.000000,3.000000,1.000000
1310072.365290,97.000000,3.000000,13.000000,-11.000000,4.000000,18.000000,-1.000000,22.000000
1310072.365317,-128.000000,0.000000,3.000000,-17.000000,-16.000000,9.000000,39.000000,-13.000000
1310072.372320,127.000000,3.000000,-6.000000,-14.000000,9.000000,30.000000,87.000000,34.000000
1310072.372331,0.000000,20.000000,31.000000,56.000000,-9.000000,-109.000000,-128.000000,2.000000
1310072.380366,30.000000,-2.000000,-15.000000,-25.000000,-3.000000,6.000000,36.000000,-11.000000
1310072.380375,-43.000000,-10.000000,-2.000000,3.000000,-4.000000,37.000000,78.000000,3.000000
1310072.380888,16.000000,2.000000,-6.000000,-14.000000,-3.000000,-27.000000,-54.000000,0.000000
1310072.380896,-23.000000,-8.000000,2.000000,-5.000000,2.000000,23.000000,24.000000,-15.000000
1310072.402189,-8.000000,-11.000000,-7.000000,15.000000,-8.000000,-17.000000,-19.000000,-3.000000
1310072.402207,10.000000,3.000000,-4.000000,-9.000000,5.000000,23.000000,-63.000000,-6.000000
1310072.402726,11.000000,10.000000,-6.000000,-5.000000,-12.000000,-15.000000,-90.000000,13.000000
1310072.402738,-41.000000,-7.000000,-14.000000,-11.000000,-12.000000,-28.000000,30.000000,-10.000000
1310072.404180,-128.000000,6.000000,-1.000000,-20.000000,-6.000000,57.000000,110.000000,-5.000000
1310072.404197,127.000000,1.000000,18.000000,50.000000,14.000000,-67.000000,102.000000,9.000000
1310072.419041,50.000000,-2.000000,-8.000000,-18.000000,-8.000000,38.000000,69.000000,-20.000000
1310072.419058,-128.000000,-4.000000,-22.000000,-8.000000,-17.000000,-49.000000,-123.000000,-18.000000
1310072.439950,-67.000000,8.000000,1.000000,14.000000,11.000000,27.000000,71.000000,4.000000
1310072.439969,22.000000,-5.000000,2.000000,3.000000,-5.000000,-7.000000,122.000000,19.000000
1310072.447071,-52.000000,-13.000000,6.000000,60.000000,14.000000,9.000000,-35.000000,-16.000000
1310072.447080,-34.000000,0.000000,0.000000,2.000000,-5.000000,19.000000,8.000000,6.000000
1310072.477353,75.000000,2.000000,-13.000000,-13.000000,-4.000000,3.000000,-128.000000,-1.000000
1310072.477365,46.000000,-6.000000,0.000000,27.000000,-9.000000,-55.000000,-12.000000,19.000000
1310072.484816,-8.000000,7.000000,7.000000,0.000000,-5.000000,10.000000,8.000000,-37.000000
1310072.484827,-4.000000,0.000000,-2.000000,-31.000000,3.000000,-20.000000,-128.000000,17.000000
1310072.500363,26.000000,-5.000000,-7.000000,-7.000000,-10.000000,37.000000,36.000000,24.000000
1310072.500382,-38.000000,-14.000000,26.000000,50.000000,8.000000,-63.000000,-128.000000,-47.000000
1310072.500951,11.000000,6.000000,6.000000,-13.000000,4.000000,19.000000,57.000000,2.000000
1310072.500964,-26.000000,6.000000,18.000000,4.000000,5.000000,45.000000,-8.000000,8.000000
1310072.502187,35.000000,-11.000000,-12.000000,7.000000,5.000000,-25.000000,-101.000000,-5.000000
1310072.502212,-32.000000,0.000000,-1.000000,-17.000000,-5.000000,-17.000000,2.000000,-14.000000
1310072.502967,-29.000000,5.000000,-5.000000,-7.000000,6.000000,21.000000,85.000000,22.000000
1310072.502993,-10.000000,-5.000000,6.000000,0.000000,-6.000000,25.000000,-128.000000,-29.000000
1310072.515133,53.000000,-2.000000,-2.000000,9.000000,-26.000000,-29.000000,-23.000000,5.000000
1310072.515165,127.000000,4.000000,29.000000,100.000000,23.000000,-44.000000,127.000000,24.000000
1310072.515624,-28.000000,-4.000000,4.000000,-15.000000,-2.000000,8.000000,-4.000000,12.000000
1310072.515643,-51.000000,-8.000000,2.000000,-12.000000,1.000000,30.000000,-73.000000,-28.000000
1310072.523114,-53.000000,7.000000,-5.000000,-12.000000,0.000000,4.000000,-128.000000,11.000000
1310072.523130,-49.000000,-12.000000,2.000000,5.000000,-11.000000,-15.000000,90.000000,24.000000
1310072.537469,-11.000000,-7.000000,-6.000000,10.000000,3.000000,-36.000000,-5.000000,-38.000000
1310072.537487,-113.000000,4.000000,-18.000000,-11.000000,1.000000,62.000000,-72.000000,8.000000
1310072.559735,-12.000000,2.000000,5.000000,-12.000000,-28.000000,-47.000000,-70.000000,6.000000
1310072.559758,-65.000000,-13.000000,2.000000,-17.000000,5.000000,2.000000,58.000000,23.000000
1310072.575349,-28.000000,7.000000,-20.000000,-11.000000,-15.000000,-12.000000,-36.000000,-38.000000
1310072.575377,-41.000000,5.000000,9.000000,6.000000,1.000000,5.000000,73.000000,12.000000
1310072.597807,15.000000,-6.000000,8.000000,-16.000000,5.000000,13.000000,-24.000000,-5.000000
1310072.597824,-19.000000,2.000000,4.000000,17.000000,-5.000000,-16.000000,-116.000000,-18.000000
1310072.620362,7.000000,4.000000,-8.000000,-16.000000,-3.000000,-12.000000,32.000000,-1.000000
1310072.620386,-128.000000,-8.000000,-14.000000,-11.000000,4.000000,31.000000,-4.000000,3.000000
1310072.635215,127.000000,-5.000000,13.000000,-5.000000,18.000000,23.000000,15.000000,-1.000000
1310072.635226,-89.000000,13.000000,6.000000,59.000000,-8.000000,-92.000000,-128.000000,-14.000000
1310072.635815,51.000000,5.000000,-6.000000,-23.000000,-5.000000,3.000000,24.000000,1.000000
1310072.635828,88.000000,2.000000,-3.000000,-6.000000,-10.000000,20.000000,-26.000000,10.000000
1310072.637235,72.000000,-6.000000,4.000000,4.000000,13.000000,18.000000,52.000000,-8.000000
1310072.637248,39.000000,1.000000,-9.000000,-11.000000,4.000000,4.000000,-114.000000,27.000000
1310072.637905,-30.000000,1.000000,3.000000,48.000000,6.000000,9.000000,33.000000,3.000000
1310072.637915,57.000000,1.000000,-3.000000,-15.000000,-2.000000,-7.000000,57.000000,7.000000
1310072.638651,-38.000000,-8.000000,-7.000000,17.000000,-4.000000,-19.000000,-99.000000,-2.000000
1310072.638660,-15.000000,-5.000000,2.000000,-8.000000,11.000000,7.000000,24.000000,-6.000000
1310072.642883,-18.000000,3.000000,-11.000000,-28.000000,-8.000000,31.000000,6.000000,-4.000000
1310072.642906,73.000000,-7.000000,2.000000,1.000000,-11.000000,-2.000000,-37.000000,17.000000
1310072.657370,10.000000,9.000000,-7.000000,-9.000000,8.000000,26.000000,32.000000,22.000000
1310072.657382,-66.000000,-5.000000,12.000000,-9.000000,-2.000000,-53.000000,-128.000000,-14.000000
1310072.694855,36.000000,-3.000000,12.000000,0.000000,-1.000000,36.000000,76.000000,-5.000000
1310072.694865,-61.000000,-3.000000,14.000000,5.000000,3.000000,-42.000000,29.000000,6.000000
1310072.702636,7.000000,-2.000000,-8.000000,6.000000,2.000000,30.000000,9.000000,22.000000
1310072.702646,-57.000000,-1.000000,-1.000000,32.000000,-6.000000,-18.000000,-71.000000,-14.000000
1310072.739890,127.000000,-15.000000,0.000000,3.000000,-8.000000,-18.000000,82.000000,2.000000
1310072.739902,-40.000000,3.000000,0.000000,-23.000000,-1.000000,49.000000,-15.000000,-10.000000
1310072.747270,-57.000000,4.000000,14.000000,12.000000,16.000000,-30.000000,-67.000000,6.000000
1310072.747289,-50.000000,-8.000000,2.000000,14.000000,4.000000,8.000000,127.000000,10.000000
1310072.762573,71.000000,7.000000,-3.000000,-27.000000,6.000000,21.000000,-13.000000,-18.000000
1310072.762606,-128.000000,8.000000,-12.000000,-4.000000,1.000000,11.000000,-26.000000,-1.000000
1310072.763280,27.000000,-9.000000,-4.000000,-8.000000,-15.000000,-16.000000,26.000000,-7.000000
1310072.763307,66.000000,6.000000,11.000000,34.000000,13.000000,-14.000000,-57.000000,4.000000
1310072.764075,-18.000000,-10.000000,-6.000000,-11.000000,-6.000000,-20.000000,-76.000000,-25.000000
1310072.764088,-20.000000,-1.000000,3.000000,20.000000,0.000000,-1.000000,127.000000,-5.000000
1310072.764623,-5.000000,-2.000000,7.000000,8.000000,15.000000,-40.000000,4.000000,-13.000000
1310072.764631,57.000000,-3.000000,-4.000000,-26.000000,3.000000,33.000000,90.000000,44.000000
1310072.777074,-64.000000,10.000000,7.000000,16.000000,5.000000,14.000000,-12.000000,-36.000000
1310072.777103,9.000000,-4.000000,-1.000000,-22.000000,-23.000000,-36.000000,85.000000,17.000000
1310072.792462,-35.000000,-4.000000,-9.000000,-10.000000,1.000000,-19.000000,-128.000000,-13.000000
1310072.792482,-79.000000,5.000000,-7.000000,3.000000,-12.000000,-11.000000,-57.000000,-29.000000
1310072.799800,-45.000000,4.000000,-13.000000,-6.000000,-3.000000,17.000000,29.000000,-4.000000
1310072.799810,-13.000000,-20.000000,2.000000,4.000000,8.000000,-7.000000,-66.000000,5.000000
1310072.837365,-41.000000,-3.000000,-10.000000,-15.000000,-1.000000,-21.000000,-23.000000,-11.000000
1310072.837378,106.000000,6.000000,-5.000000,-1.000000,3.000000,17.000000,-25.000000,12.000000
1310072.852613,-128.000000,-9.000000,-17.000000,-7.000000,-14.000000,14.000000,109.000000,-17.000000
1310072.852626,-46.000000,8.000000,6.000000,3.000000,13.000000,-14.000000,127.000000,-13.000000
1310072.853509,104.000000,5.000000,8.000000,-22.000000,-8.000000,-9.000000,2.000000,35.000000
1310072.853520,12.000000,-4.000000,3.000000,6.000000,11.000000,48.000000,5.000000,12.000000
1310072.854048,-32.000000,-10.000000,-9.000000,2.000000,0.000000,-64.000000,-89.000000,-50.000000
1310072.854064,37.000000,1.000000,-4.000000,49.000000,4.000000,-11.000000,-128.000000,6.000000
1310072.855491,-2.000000,-6.000000,-4.000000,-17.000000,6.000000,9.000000,87.000000,28.000000
1310072.855501,75.000000,-7.000000,-11.000000,-11.000000,0.000000,18.000000,-14.000000,-50.000000
1310072.859610,15.000000,1.000000,13.000000,44.000000,-1.000000,-2.000000,-7.000000,14.000000
1310072.859622,-46.000000,-1.000000,-9.000000,-15.000000,-1.000000,5.000000,-24.000000,-11.000000
1310072.874802,-3.000000,-3.000000,-2.000000,2.000000,-7.000000,10.000000,53.000000,3.000000
1310072.874813,104.000000,6.000000,13.000000,19.000000,0.000000,-29.000000,29.000000,18.000000
1310072.889648,-107.000000,15.000000,-9.000000,-38.000000,2.000000,44.000000,127.000000,-13.000000
1310072.889659,46.000000,-1.000000,21.000000,64.000000,19.000000,-11.000000,-128.000000,-57.000000
1310072.897989,-4.000000,-7.000000,8.000000,24.000000,-1.000000,-16.000000,98.000000,6.000000
1310072.898000,-128.000000,7.000000,0.000000,-3.000000,6.000000,-40.000000,-128.000000,-6.000000
1310072.898405,127.000000,-5.000000,0.000000,4.000000,-3.000000,44.000000,48.000000,21.000000
1310072.898415,65.000000,-9.000000,2.000000,4.000000,-9.000000,-31.000000,-128.000000,-37.000000
1310072.912308,7.000000,4.000000,5.000000,11.000000,-6.000000,16.000000,127.000000,14.000000
1310072.912319,127.000000,4.000000,-5.000000,-9.000000,0.000000,-5.000000,-24.000000,3.000000
1310072.919707,-31.000000,-9.000000,1.000000,18.000000,-3.000000,-20.000000,-128.000000,-17.000000
1310072.919717,22.000000,-5.000000,-4.000000,-24.000000,-9.000000,8.000000,5.000000,-21.000000
1310072.957919,-26.000000,9.000000,8.000000,-21.000000,17.000000,10.000000,63.000000,2.000000
1310072.957953,92.000000,-1.000000,12.000000,33.000000,-5.000000,-10.000000,-69.000000,30.000000
1310072.972466,-30.000000,-6.000000,-5.000000,-14.000000,-24.000000,-17.000000,-34.000000,-23.000000
1310072.972479,-12.000000,4.000000,16.000000,54.000000,22.000000,17.000000,17.000000,9.000000
1310072.994626,-6.000000,3.000000,2.000000,12.000000,4.000000,-7.000000,65.000000,20.000000
1310072.994636,-12.000000,-14.000000,14.000000,28.000000,9.000000,17.000000,41.000000,-28.000000
1310072.995122,-32.000000,8.000000,-7.000000,-6.000000,7.000000,7.000000,-9.000000,0.000000
1310072.995132,-97.000000,3.000000,-4.000000,-22.000000,-8.000000,-7.000000,-21.000000,-18.000000
1310072.996393,27.000000,-8.000000,-11.000000,3.000000,-5.000000,0.000000,84.000000,21.000000
1310072.996401,-50.000000,0.000000,3.000000,-13.000000,-8.000000,-10.000000,-32.000000,-12.000000
1310072.996918,46.000000,8.000000,-13.000000,-4.000000,-6.000000,-18.000000,81.000000,9.000000
1310072.996927,28.000000,-10.000000,7.000000,-13.000000,6.000000,20.000000,-1.000000,-9.000000
1310072.997650,-88.000000,-5.000000,-4.000000,31.000000,-11.000000,-2.000000,45.000000,11.000000
1310072.997667,98.000000,14.000000,2.000000,-15.000000,2.000000,-12.000000,-6.000000,-23.000000
1310072.998530,-111.000000,-4.000000,1.000000,-20.000000,-13.000000,30.000000,101.000000,-28.000000
1310072.998538,-1.000000,-12.000000,4.000000,49.000000,-5.000000,-48.000000,48.000000,42.000000
1310073.017310,21.000000,3.000000,-4.000000,-22.000000,0.000000,1.000000,-23.000000,-7.000000
1310073.017322,-14.000000,10.000000,-3.000000,-20.000000,2.000000,64.000000,33.000000,38.000000
1310073.032339,-128.000000,-11.000000,-13.000000,10.000000,-17.000000,-63.000000,-52.000000,-56.000000
1310073.032351,100.000000,-10.000000,3.000000,-2.000000,8.000000,-4.000000,-128.000000,-10.000000
1310073.054719,5.000000,6.000000,-12.000000,-38.000000,-2.000000,13.000000,32.000000,3.000000
1310073.054738,72.000000,5.000000,-3.000000,-13.000000,0.000000,-10.000000,-40.000000,34.000000
1310073.062028,18.000000,-5.000000,-5.000000,-5.000000,1.000000,15.000000,-32.000000,-11.000000
1310073.062038,77.000000,-3.000000,-4.000000,-8.000000,-2.000000,-32.000000,-128.000000,5.000000
1310073.070114,-5.000000,-8.000000,-3.000000,4.000000,-7.000000,12.000000,20.000000,18.000000
1310073.070123,76.000000,-14.000000,18.000000,23.000000,15.000000,-4.000000,-78.000000,14.000000
1310073.070686,-49.000000,-1.000000,-11.000000,-23.000000,2.000000,8.000000,12.000000,-20.000000
1310073.070704,6.000000,4.000000,3.000000,-23.000000,-13.000000,4.000000,38.000000,11.000000
1310073.072246,-77.000000,-4.000000,17.000000,34.000000,4.000000,28.000000,16.000000,2.000000
1310073.072265,3.000000,2.000000,10.000000,43.000000,-16.000000,-68.000000,-128.000000,-4.000000
1310073.077074,-25.000000,5.000000,-12.000000,-14.000000,9.000000,28.000000,110.000000,20.000000
1310073.077101,-32.000000,-6.000000,3.000000,3.000000,-27.000000,-9.000000,120.000000,-28.000000
1310073.092599,-16.000000,-10.000000,9.000000,-6.000000,5.000000,-28.000000,3.000000,11.000000
1310073.092615,-48.000000,0.000000,-12.000000,-21.000000,-6.000000,6.000000,5.000000,-33.000000
1310073.114663,-128.000000,-4.000000,1.000000,-4.000000,-14.000000,25.000000,3.000000,11.000000
1310073.114678,-128.000000,-14.000000,19.000000,21.000000,2.000000,-33.000000,-80.000000,-2.000000
1310073.115705,-26.000000,2.000000,0.000000,-3.000000,8.000000,25.000000,117.000000,-4.000000
1310073.115721,47.000000,7.000000,-3.000000,14.000000,-6.000000,-23.000000,-1.000000,14.000000
1310073.116599,-32.000000,2.000000,-6.000000,19.000000,3.000000,3.000000,-48.000000,-13.000000
1310073.116619,24.000000,-9.000000,3.000000,-20.000000,5.000000,19.000000,44.000000,30.000000
1310073.130646,46.000000,8.000000,-10.000000,-25.000000,-7.000000,7.000000,20.000000,0.000000
1310073.130673,13.000000,-12.000000,-13.000000,5.000000,-10.000000,-5.000000,-38.000000,-5.000000
1310073.137471,29.000000,-11.000000,-4.000000,-1.000000,-3.000000,7.000000,17.000000,16.000000
1310073.137503,21.000000,6.000000,8.000000,-27.000000,11.000000,6.000000,-84.000000,-13.000000
1310073.174808,3.000000,-10.000000,20.000000,31.000000,-3.000000,-16.000000,82.000000,6.000000
1310073.174817,1.000000,-10.000000,4.000000,22.000000,1.000000,-25.000000,17.000000,-4.000000
1310073.190098,-23.000000,-4.000000,-7.000000,-13.000000,-2.000000,25.000000,23.000000,-17.000000
1310073.190119,-15.000000,9.000000,-22.000000,-16.000000,-7.000000,15.000000,34.000000,23.000000
1310073.212253,-125.000000,-5.000000,15.000000,2.000000,-4.000000,3.000000,-128.000000,-14.000000
1310073.212278,13.000000,-2.000000,2.000000,-13.000000,2.000000,-7.000000,60.000000,8.000000
1310073.234964,72.000000,6.000000,0.000000,-13.000000,2.000000,-9.000000,19.000000,17.000000
1310073.234994,-59.000000,-6.000000,-7.000000,-17.000000,-11.000000,25.000000,11.000000,-5.000000
1310073.257211,-5.000000,3.000000,10.000000,3.000000,12.000000,-15.000000,-55.000000,-18.000000
1310073.257232,-9.000000,-8.000000,-17.000000,-25.000000,-10.000000,3.000000,3.000000,-3.000000
1310073.272448,-20.000000,-4.000000,-2.000000,-5.000000,-5.000000,3.000000,-1.000000,13.000000
1310073.272458,50.000000,-7.000000,6.000000,-2.000000,-10.000000,-30.000000,-127.000000,-6.000000
1310073.294839,-128.000000,4.000000,1.000000,-11.000000,-1.000000,-8.000000,103.000000,-28.000000
1310073.294854,8.000000,0.000000,-10.000000,-2.000000,-3.000000,6.000000,16.000000,4.000000
1310073.309878,-63.000000,-3.000000,2.000000,-7.000000,-6.000000,1.000000,-59.000000,3.000000
1310073.309901,-58.000000,-1.000000,6.000000,-7.000000,6.000000,2.000000,24.000000,-3.000000
1310073.317131,-12.000000,-1.000000,-8.000000,-23.000000,-16.000000,3.000000,24.000000,8.000000
1310073.317139,65.000000,1.000000,17.000000,49.000000,2.000000,19.000000,97.000000,27.000000
1310073.325449,68.000000,-7.000000,3.000000,-4.000000,8.000000,43.000000,127.000000,12.000000
1310073.325478,44.000000,3.000000,10.000000,12.000000,-8.000000,-12.000000,45.000000,19.000000
1310073.332542,14.000000,-3.000000,17.000000,37.000000,6.000000,37.000000,23.000000,-4.000000
1310073.332560,-7.000000,8.000000,-8.000000,-14.000000,-7.000000,-16.000000,127.000000,0.000000
1310073.347192,114.000000,14.000000,-7.000000,-6.000000,-4.000000,-30.000000,-110.000000,31.000000
1310073.347203,-44.000000,-14.000000,-4.000000,8.000000,-12.000000,-23.000000,-22.000000,-17.000000
1310073.354787,34.000000,0.000000,-2.000000,-19.000000,-1.000000,22.000000,-71.000000,-20.000000
1310073.354796,-57.000000,5.000000,-8.000000,-36.000000,-3.000000,7.000000,118.000000,1.000000
1310073.362500,34.000000,-1.000000,25.000000,73.000000,18.000000,-68.000000,-128.000000,-6.000000
1310073.362525,-22.000000,1.000000,-19.000000,-23.000000,-2.000000,46.000000,77.000000,0.000000
1310073.370011,71.000000,11.000000,-8.000000,-10.000000,-2.000000,-3.000000,11.000000,8.000000
1310073.370027,-54.000000,-6.000000,-7.000000,-7.000000,-5.000000,13.000000,18.000000,-6.000000
1310073.370876,-49.000000,-1.000000,-7.000000,-24.000000,-7.000000,-5.000000,-66.000000,-27.000000
1310073.370894,36.000000,8.000000,18.000000,89.000000,5.000000,-5.000000,-75.000000,10.000000
1310073.372202,-68.000000,-6.000000,-7.000000,-11.000000,1.000000,-2.000000,26.000000,10.000000
1310073.372214,59.000000,-7.000000,-4.000000,1.000000,3.000000,-7.000000,-38.000000,-5.000000
1310073.407278,-108.000000,-4.000000,7.000000,-2.000000,-5.000000,9.000000,58.000000,-5.000000
1310073.407307,126.000000,4.000000,-13.000000,-13.000000,-14.000000,-25.000000,-51.000000,-2.000000
1310073.415044,-62.000000,5.000000,-3.000000,-10.000000,14.000000,17.000000,83.000000,15.000000
1310073.415056,6.000000,-4.000000,-25.000000,5.000000,-5.000000,-10.000000,-125.000000,19.000000
1310073.415942,-18.000000,-2.000000,-1.000000,14.000000,-12.000000,-4.000000,-3.000000,10.000000
1310073.415950,-1.000000,7.000000,-5.000000,-6.000000,5.000000,21.000000,21.000000,-12.000000
1310073.416525,-33.000000,-6.000000,-7.000000,6.000000,-7.000000,-36.000000,-72.000000,-7.000000
1310073.416556,20.000000,-4.000000,15.000000,-3.000000,4.000000,23.000000,87.000000,-6.000000
1310073.418664,7.000000,-5.000000,-1.000000,6.000000,-7.000000,-66.000000,-114.000000,-7.000000
1310073.418687,13.000000,-5.000000,-1.000000,-12.000000,3.000000,42.000000,25.000000,5.000000
1310073.430411,-66.000000,2.000000,-6.000000,-4.000000,-6.000000,14.000000,47.000000,10.000000
1310073.430428,68.000000,-4.000000,19.000000,-14.000000,2.000000,10.000000,54.000000,12.000000
1310073.444535,37.000000,6.000000,2.000000,42.000000,-2.000000,-16.000000,-48.000000,0.000000
1310073.444545,-26.000000,8.000000,14.000000,-17.000000,3.000000,6.000000,-10.000000,10.000000
1310073.453117,0.000000,-4.000000,5.000000,8.000000,-9.000000,-12.000000,-19.000000,-6.000000
1310073.453130,90.000000,-1.000000,-9.000000,0.000000,7.000000,-1.000000,41.000000,10.000000
1310073.467206,3.000000,-1.000000,-5.000000,9.000000,-4.000000,-4.000000,-12.000000,-3.000000
1310073.467217,-26.000000,-1.000000,1.000000,-6.000000,-3.000000,-14.000000,-26.000000,-9.000000
1310073.468633,-21.000000,-7.000000,-5.000000,15.000000,6.000000,12.000000,-124.000000,-33.000000
1310073.468645,6.000000,5.000000,-5.000000,-3.000000,-9.000000,-46.000000,37.000000,-10.000000
1310073.474851,5.000000,9.000000,-8.000000,21.000000,5.000000,7.000000,-4.000000,28.000000
1310073.474872,-21.000000,-1.000000,-9.000000,-8.000000,-8.000000,-12.000000,25.000000,-6.000000
1310073.504825,20.000000,-23.000000,-27.000000,-12.000000,2.000000,4.000000,-13.000000,-13.000000
1310073.504837,-33.000000,6.000000,16.000000,-32.000000,-5.000000,11.000000,55.000000,0.000000
1310073.512348,-126.000000,-6.000000,6.000000,-15.000000,-2.000000,5.000000,16.000000,4.000000
1310073.512360,112.000000,-12.000000,-10.000000,19.000000,2.000000,-11.000000,-75.000000,-6.000000
1310073.534726,-116.000000,-2.000000,-6.000000,-9.000000,4.000000,21.000000,-11.000000,-7.000000
1310073.534765,-8.000000,6.000000,-8.000000,-4.000000,-9.000000,-8.000000,27.000000,5.000000
1310073.549814,42.000000,-7.000000,16.000000,33.000000,-11.000000,-15.000000,6.000000,-7.000000
1310073.549824,-77.000000,1.000000,-21.000000,-28.000000,-3.000000,2.000000,-10.000000,-10.000000
1310073.572069,9.000000,-1.000000,-11.000000,-22.000000,-6.000000,15.000000,38.000000,22.000000
1310073.572084,19.000000,-8.000000,1.000000,10.000000,-4.000000,-8.000000,-19.000000,25.000000
1310073.572665,37.000000,5.000000,15.000000,-9.000000,10.000000,8.000000,125.000000,-12.000000
1310073.572677,5.000000,5.000000,-3.000000,-6.000000,-4.000000,-40.000000,-128.000000,-4.000000
1310073.573874,73.000000,1.000000,2.000000,8.000000,-5.000000,13.000000,44.000000,25.000000
1310073.573895,-33.000000,-13.000000,-3.000000,-13.000000,-14.000000,-6.000000,19.000000,-19.000000
1310073.574447,57.000000,3.000000,-1.000000,-18.000000,9.000000,20.000000,-24.000000,-1.000000
1310073.574455,2.000000,11.000000,9.000000,31.000000,-6.000000,-17.000000,70.000000,37.000000
1310073.575372,-85.000000,-12.000000,-3.000000,3.000000,8.000000,13.000000,-21.000000,-34.000000
1310073.575391,-4.000000,1.000000,-12.000000,-24.000000,5.000000,9.000000,19.000000,-2.000000
1310073.586979,-74.000000,2.000000,17.000000,6.000000,1.000000,24.000000,123.000000,26.000000
1310073.586988,40.000000,-7.000000,-2.000000,21.000000,-3.000000,-40.000000,-59.000000,-5.000000
1310073.588308,-22.000000,-1.000000,-12.000000,-24.000000,-3.000000,-5.000000,-86.000000,-11.000000
1310073.588315,-32.000000,1.000000,10.000000,19.000000,15.000000,26.000000,27.000000,-12.000000
1310073.632300,-30.000000,-4.000000,12.000000,-10.000000,-4.000000,14.000000,10.000000,7.000000
1310073.632311,25.000000,-2.000000,8.000000,-1.000000,1.000000,-7.000000,-15.000000,-22.000000
1310073.647525,29.000000,1.000000,-11.000000,-4.000000,-4.000000,0.000000,85.000000,13.000000
1310073.647538,-38.000000,-2.000000,-9.000000,-7.000000,-6.000000,9.000000,22.000000,-5.000000
1310073.670160,127.000000,-10.000000,4.000000,7.000000,5.000000,9.000000,42.000000,28.000000
1310073.670172,-128.000000,3.000000,9.000000,13.000000,6.000000,-2.000000,-86.000000,-4.000000
1310073.670999,127.000000,5.000000,-7.000000,-16.000000,-11.000000,9.000000,40.000000,4.000000
1310073.671045,62.000000,-15.000000,0.000000,16.000000,10.000000,-6.000000,7.000000,-5.000000
1310073.672042,32.000000,6.000000,17.000000,7.000000,8.000000,-8.000000,49.000000,6.000000
1310073.672057,26.000000,15.000000,-1.000000,-23.000000,2.000000,21.000000,72.000000,43.000000
1310073.672677,-6.000000,0.000000,-7.000000,16.000000,11.000000,15.000000,-8.000000,-7.000000
1310073.672686,-15.000000,-3.000000,-9.000000,-15.000000,-5.000000,-9.000000,-36.000000,-19.000000
1310073.685484,12.000000,2.000000,-1.000000,-6.000000,-20.000000,-74.000000,-128.000000,-27.000000
1310073.685515,-57.000000,-7.000000,-6.000000,-1.000000,7.000000,16.000000,62.000000,10.000000
1310073.686282,31.000000,-1.000000,-19.000000,-22.000000,-5.000000,5.000000,-51.000000,-6.000000
1310073.686292,-15.000000,12.000000,-13.000000,-40.000000,12.000000,32.000000,84.000000,2.000000
1310073.707661,-32.000000,-14.000000,12.000000,31.000000,15.000000,-3.000000,-61.000000,-6.000000
1310073.707679,-12.000000,-5.000000,-12.000000,4.000000,-19.000000,-25.000000,75.000000,11.000000
1310073.708507,9.000000,5.000000,4.000000,-25.000000,4.000000,10.000000,-17.000000,-15.000000
1310073.708519,1.000000,-3.000000,0.000000,-7.000000,-4.000000,4.000000,8.000000,24.000000
1310073.729812,21.000000,-10.000000,0.000000,12.000000,-5.000000,-6.000000,-30.000000,-2.000000
1310073.729833,2.000000,3.000000,-5.000000,-10.000000,-3.000000,13.000000,49.000000,1.000000
1310073.745322,-7.000000,-2.000000,-9.000000,-6.000000,-4.000000,-31.000000,-128.000000,-2.000000
1310073.745332,6.000000,-13.000000,-6.000000,1.000000,-5.000000,17.000000,60.000000,-28.000000
1310073.767230,20.000000,6.000000,2.000000,8.000000,-2.000000,-32.000000,-128.000000,19.000000
1310073.767254,-18.000000,0.000000,1.000000,-11.000000,5.000000,23.000000,51.000000,6.000000
1310073.790063,-48.000000,-17.000000,-41.000000,11.000000,-15.000000,-54.000000,62.000000,-9.000000
1310073.790076,-83.000000,-4.000000,14.000000,8.000000,-6.000000,-22.000000,-59.000000,-46.000000
1310073.805097,-28.000000,0.000000,-4.000000,-22.000000,0.000000,13.000000,-1.000000,5.000000
1310073.805106,-46.000000,-8.000000,1.000000,42.000000,4.000000,16.000000,1.000000,-24.000000
1310073.805669,4.000000,-12.000000,-2.000000,-22.000000,-2.000000,-13.000000,-44.000000,-3.000000
1310073.805677,-48.000000,0.000000,10.000000,29.000000,0.000000,0.000000,33.000000,5.000000
1310073.807124,48.000000,-3.000000,0.000000,-16.000000,-8.000000,-7.000000,20.000000,2.000000
1310073.807140,-21.000000,2.000000,3.000000,5.000000,-11.000000,0.000000,-20.000000,-12.000000
1310073.807864,56.000000,0.000000,-21.000000,-19.000000,0.000000,13.000000,14.000000,16.000000
1310073.807872,-77.000000,4.000000,0.000000,4.000000,-4.000000,-4.000000,25.000000,-2.000000
1310073.812080,-12.000000,5.000000,-8.000000,0.000000,1.000000,4.000000,-5.000000,-4.000000
1310073.812097,22.000000,-4.000000,6.000000,8.000000,-1.000000,9.000000,29.000000,16.000000
1310073.827822,-14.000000,2.000000,15.000000,23.000000,-9.000000,-39.000000,19.000000,-3.000000
1310073.827849,-30.000000,-7.000000,-7.000000,-5.000000,6.000000,9.000000,-10.000000,5.000000
1310073.828609,-86.000000,6.000000,3.000000,-30.000000,0.000000,59.000000,-12.000000,-21.000000
1310073.828636,-16.000000,-6.000000,16.000000,27.000000,-2.000000,-45.000000,-110.000000,-1.000000
1310073.843091,-13.000000,-1.000000,-6.000000,-18.000000,3.000000,-16.000000,126.000000,-12.000000
1310073.843101,6.000000,10.000000,0.000000,-30.000000,2.000000,32.000000,28.000000,19.000000
1310073.849763,-24.000000,3.000000,15.000000,6.000000,9.000000,7.000000,8.000000,-10.000000
1310073.849778,127.000000,-4.000000,-13.000000,-8.000000,-14.000000,-18.000000,-47.000000,-6.000000
1310073.873191,1.000000,2.000000,15.000000,13.000000,7.000000,9.000000,5.000000,-11.000000
1310073.873230,-29.000000,-1.000000,8.000000,7.000000,8.000000,2.000000,-27.000000,4.000000
1310073.887468,-1.000000,-8.000000,14.000000,-5.000000,-5.000000,0.000000,-15.000000,-21.000000
1310073.887482,65.000000,2.000000,5.000000,-8.000000,7.000000,-1.000000,-17.000000,10.000000
1310073.909859,-49.000000,-11.000000,-8.000000,7.000000,3.000000,3.000000,86.000000,6.000000
1310073.909881,66.000000,-12.000000,6.000000,10.000000,1.000000,16.000000,-55.000000,-5.000000
1310073.910274,-79.000000,3.000000,-2.000000,18.000000,2.000000,-6.000000,29.000000,5.000000
1310073.910298,-40.000000,1.000000,-2.000000,17.000000,-3.000000,43.000000,51.000000,11.000000
1310073.911301,-31.000000,-8.000000,8.000000,28.000000,8.000000,-89.000000,86.000000,-7.000000
1310073.911329,-22.000000,-1.000000,-8.000000,15.000000,-7.000000,-5.000000,71.000000,-34.000000
1310073.912322,57.000000,-1.000000,-7.000000,-19.000000,2.000000,19.000000,-32.000000,18.000000
1310073.912330,9.000000,-5.000000,-5.000000,-8.000000,5.000000,40.000000,-82.000000,-8.000000
1310073.924956,33.000000,-11.000000,-5.000000,10.000000,-13.000000,-32.000000,-29.000000,0.000000
1310073.924997,34.000000,4.000000,-18.000000,-26.000000,-1.000000,30.000000,127.000000,9.000000
1310073.947449,-33.000000,-3.000000,19.000000,33.000000,-7.000000,-25.000000,-14.000000,-18.000000
1310073.947479,-32.000000,-12.000000,5.000000,5.000000,16.000000,21.000000,-4.000000,-2.000000
1310073.969791,110.000000,2.000000,4.000000,-13.000000,5.000000,6.000000,-11.000000,13.000000
1310073.969801,-56.000000,0.000000,-5.000000,-23.000000,-1.000000,19.000000,4.000000,2.000000
1310073.985320,11.000000,-5.000000,6.000000,3.000000,6.000000,29.000000,98.000000,-3.000000
1310073.985341,34.000000,2.000000,12.000000,-4.000000,-6.000000,-77.000000,-99.000000,19.000000
1310074.022462,-49.000000,7.000000,-3.000000,-14.000000,4.000000,20.000000,27.000000,3.000000
1310074.022476,30.000000,-1.000000,10.000000,35.000000,4.000000,39.000000,-6.000000,12.000000
1310074.029856,-45.000000,-10.000000,7.000000,18.000000,-8.000000,-23.000000,127.000000,-27.000000
1310074.029868,121.000000,7.000000,6.000000,-2.000000,15.000000,-45.000000,-89.000000,15.000000
1310074.067371,-51.000000,8.000000,-30.000000,-1.000000,-10.000000,23.000000,104.000000,-4.000000
1310074.067385,127.000000,-20.000000,22.000000,-26.000000,8.000000,8.000000,67.000000,5.000000
1310074.067889,-69.000000,6.000000,-2.000000,-6.000000,-14.000000,9.000000,2.000000,-42.000000
