# participant_id: P11
# gesture: hard
# trial_number: 1
# stream_name: Myo_EMG
# stream_type: emg
# timestamp: 20260420_171133
# samples: 5312
# duration_sec: 30.563
# nominal_sample_rate: 200.0
# effective_sample_rate: 173.77
#
timestamp,emg_1,emg_2,emg_3,emg_4,emg_5,emg_6,emg_7,emg_8
1309785.384382,127.000000,7.000000,2.000000,44.000000,48.000000,5.000000,-27.000000,0.000000
1309785.384392,127.000000,18.000000,17.000000,-9.000000,42.000000,127.000000,-80.000000,5.000000
1309785.391906,-128.000000,-12.000000,-13.000000,127.000000,36.000000,-128.000000,-128.000000,-15.000000
1309785.391919,-128.000000,-14.000000,40.000000,-128.000000,-77.000000,35.000000,127.000000,-61.000000
1309785.407455,-128.000000,13.000000,127.000000,127.000000,127.000000,-53.000000,-128.000000,-35.000000
1309785.407465,-91.000000,-14.000000,-54.000000,-33.000000,-25.000000,-22.000000,-15.000000,14.000000
1309785.421658,-92.000000,-10.000000,-128.000000,-128.000000,-71.000000,-22.000000,-128.000000,-23.000000
1309785.421668,127.000000,1.000000,95.000000,29.000000,-128.000000,7.000000,127.000000,-21.000000
1309785.444389,127.000000,1.000000,-96.000000,-85.000000,-119.000000,-18.000000,127.000000,56.000000
1309785.444401,127.000000,23.000000,122.000000,29.000000,94.000000,72.000000,-128.000000,-22.000000
1309785.467239,127.000000,0.000000,-26.000000,40.000000,73.000000,-128.000000,-128.000000,127.000000
1309785.467255,94.000000,9.000000,41.000000,70.000000,-65.000000,-21.000000,-128.000000,-16.000000
1309785.468431,127.000000,-14.000000,52.000000,127.000000,100.000000,0.000000,84.000000,47.000000
1309785.468440,-128.000000,-5.000000,75.000000,-128.000000,26.000000,101.000000,-3.000000,-101.000000
1309785.469736,127.000000,8.000000,-118.000000,-94.000000,11.000000,-128.000000,-128.000000,15.000000
1309785.469752,-128.000000,9.000000,-123.000000,127.000000,-51.000000,37.000000,127.000000,79.000000
1309785.481637,-128.000000,-9.000000,-125.000000,-128.000000,-9.000000,-10.000000,-128.000000,-35.000000
1309785.481723,127.000000,9.000000,-71.000000,127.000000,20.000000,-23.000000,67.000000,60.000000
1309785.482974,-8.000000,11.000000,127.000000,-128.000000,-35.000000,69.000000,-128.000000,-119.000000
1309785.482982,-128.000000,-9.000000,-73.000000,-31.000000,32.000000,12.000000,127.000000,127.000000
1309785.489399,127.000000,1.000000,-17.000000,23.000000,16.000000,-1.000000,127.000000,70.000000
1309785.489414,127.000000,21.000000,-16.000000,-71.000000,-43.000000,43.000000,19.000000,14.000000
1309785.504391,-54.000000,-5.000000,-128.000000,-106.000000,-73.000000,-102.000000,-43.000000,-128.000000
1309785.504403,11.000000,-17.000000,23.000000,15.000000,26.000000,54.000000,89.000000,127.000000
1309785.519286,123.000000,-2.000000,73.000000,69.000000,-44.000000,-2.000000,6.000000,-47.000000
1309785.519302,127.000000,-9.000000,40.000000,11.000000,-30.000000,1.000000,36.000000,9.000000
1309785.541868,-128.000000,-6.000000,-128.000000,-117.000000,-15.000000,-84.000000,-128.000000,-51.000000
1309785.541880,127.000000,10.000000,15.000000,127.000000,66.000000,8.000000,125.000000,-6.000000
1309785.549377,-128.000000,7.000000,41.000000,-89.000000,61.000000,31.000000,-128.000000,8.000000
1309785.549396,-128.000000,-3.000000,-94.000000,-100.000000,-70.000000,39.000000,127.000000,-128.000000
1309785.564318,127.000000,6.000000,57.000000,-128.000000,45.000000,-128.000000,-128.000000,32.000000
1309785.564334,127.000000,4.000000,75.000000,-128.000000,-32.000000,21.000000,-128.000000,18.000000
1309785.586912,-128.000000,3.000000,-68.000000,-114.000000,-87.000000,67.000000,-128.000000,-128.000000
1309785.586923,14.000000,-7.000000,126.000000,127.000000,59.000000,-128.000000,-85.000000,17.000000
1309785.624319,-73.000000,-8.000000,-128.000000,-128.000000,48.000000,-96.000000,127.000000,85.000000
1309785.624330,-4.000000,1.000000,31.000000,-26.000000,8.000000,98.000000,-128.000000,-58.000000
1309785.624674,127.000000,-9.000000,30.000000,-128.000000,-39.000000,44.000000,127.000000,-33.000000
1309785.624684,-128.000000,6.000000,-88.000000,-128.000000,-2.000000,-66.000000,-128.000000,-107.000000
1309785.625907,-128.000000,15.000000,8.000000,-26.000000,5.000000,47.000000,85.000000,-12.000000
1309785.625917,-128.000000,-4.000000,-106.000000,30.000000,-11.000000,-41.000000,-13.000000,40.000000
1309785.626505,127.000000,2.000000,39.000000,3.000000,-16.000000,23.000000,75.000000,12.000000
1309785.626515,127.000000,21.000000,-72.000000,-128.000000,-59.000000,48.000000,-128.000000,-29.000000
1309785.627155,127.000000,8.000000,127.000000,77.000000,87.000000,18.000000,127.000000,116.000000
1309785.627163,34.000000,1.000000,-128.000000,-128.000000,-51.000000,45.000000,-85.000000,20.000000
1309785.639316,127.000000,5.000000,-11.000000,-26.000000,-91.000000,-40.000000,-100.000000,-24.000000
1309785.639338,127.000000,1.000000,-25.000000,81.000000,125.000000,-102.000000,92.000000,92.000000
1309785.640494,127.000000,7.000000,69.000000,-72.000000,48.000000,127.000000,127.000000,-19.000000
1309785.640503,127.000000,10.000000,-38.000000,-44.000000,-43.000000,-128.000000,-128.000000,-104.000000
1309785.661655,3.000000,-1.000000,-11.000000,50.000000,-20.000000,21.000000,127.000000,127.000000
1309785.661665,41.000000,-6.000000,-55.000000,-18.000000,40.000000,-47.000000,-128.000000,9.000000
1309785.677166,116.000000,2.000000,82.000000,88.000000,-1.000000,39.000000,127.000000,-42.000000
1309785.677195,-9.000000,-5.000000,-117.000000,-73.000000,-63.000000,-37.000000,127.000000,25.000000
1309785.684710,100.000000,-14.000000,127.000000,127.000000,41.000000,34.000000,-3.000000,-32.000000
1309785.684747,127.000000,-6.000000,-41.000000,-128.000000,-53.000000,3.000000,-21.000000,-16.000000
1309785.706772,127.000000,-2.000000,-46.000000,-76.000000,-29.000000,-25.000000,-81.000000,33.000000
1309785.706782,127.000000,-1.000000,-39.000000,-128.000000,1.000000,20.000000,-128.000000,-19.000000
1309785.721894,127.000000,12.000000,127.000000,104.000000,79.000000,58.000000,127.000000,-23.000000
1309785.721906,-12.000000,7.000000,-91.000000,-128.000000,-16.000000,-28.000000,-128.000000,57.000000
1309785.722811,36.000000,-7.000000,29.000000,-44.000000,-49.000000,8.000000,56.000000,-28.000000
1309785.722821,-128.000000,-7.000000,75.000000,-128.000000,-10.000000,56.000000,-128.000000,-42.000000
1309785.723478,-2.000000,-1.000000,-96.000000,-128.000000,48.000000,-106.000000,37.000000,36.000000
1309785.723488,127.000000,-7.000000,2.000000,-14.000000,-9.000000,-2.000000,127.000000,0.000000
1309785.725005,127.000000,-11.000000,-4.000000,42.000000,-14.000000,22.000000,-128.000000,-39.000000
1309785.725016,122.000000,14.000000,62.000000,18.000000,-42.000000,0.000000,127.000000,13.000000
1309785.744131,46.000000,13.000000,-14.000000,-28.000000,-59.000000,26.000000,-53.000000,-4.000000
1309785.744142,-38.000000,1.000000,53.000000,-64.000000,0.000000,-43.000000,-128.000000,-22.000000
1309785.745522,9.000000,9.000000,101.000000,37.000000,3.000000,-70.000000,-52.000000,65.000000
1309785.745535,-128.000000,1.000000,-128.000000,-92.000000,-63.000000,-12.000000,22.000000,-83.000000
1309785.759178,-17.000000,2.000000,19.000000,-103.000000,6.000000,14.000000,-27.000000,-10.000000
1309785.759194,-46.000000,2.000000,-72.000000,-128.000000,-64.000000,46.000000,-128.000000,-25.000000
1309785.760556,38.000000,6.000000,75.000000,127.000000,115.000000,33.000000,127.000000,20.000000
1309785.760564,127.000000,-3.000000,-62.000000,-128.000000,-44.000000,-12.000000,73.000000,45.000000
1309785.781713,98.000000,4.000000,25.000000,-23.000000,3.000000,11.000000,-38.000000,-27.000000
1309785.781723,127.000000,-13.000000,-68.000000,-84.000000,-37.000000,-7.000000,69.000000,38.000000
1309785.811827,127.000000,-6.000000,-60.000000,7.000000,8.000000,-128.000000,-128.000000,10.000000
1309785.811838,-128.000000,-9.000000,34.000000,-128.000000,-2.000000,39.000000,78.000000,-55.000000
1309785.819413,127.000000,1.000000,-128.000000,-128.000000,-44.000000,127.000000,102.000000,90.000000
1309785.819425,-128.000000,13.000000,-20.000000,-128.000000,7.000000,-97.000000,-6.000000,17.000000
1309785.827574,-83.000000,-4.000000,13.000000,-17.000000,-20.000000,30.000000,-128.000000,9.000000
1309785.827587,127.000000,1.000000,-27.000000,-17.000000,-18.000000,21.000000,29.000000,-6.000000
1309785.827973,127.000000,10.000000,-32.000000,-128.000000,-35.000000,-27.000000,10.000000,-33.000000
1309785.828005,127.000000,3.000000,-66.000000,-118.000000,-53.000000,-19.000000,127.000000,-5.000000
1309785.829390,-128.000000,-7.000000,47.000000,45.000000,90.000000,-3.000000,-128.000000,-35.000000
1309785.829417,-128.000000,6.000000,-103.000000,-128.000000,-12.000000,-1.000000,127.000000,14.000000
1309785.842101,127.000000,-3.000000,127.000000,127.000000,39.000000,3.000000,-79.000000,27.000000
1309785.842222,-128.000000,-6.000000,-11.000000,-69.000000,-27.000000,6.000000,-11.000000,6.000000
1309785.843234,-128.000000,7.000000,24.000000,-19.000000,53.000000,13.000000,-15.000000,-22.000000
1309785.843251,127.000000,7.000000,-4.000000,-85.000000,3.000000,8.000000,-23.000000,-4.000000
1309785.864624,-128.000000,-22.000000,75.000000,-111.000000,-41.000000,34.000000,127.000000,59.000000
1309785.864720,127.000000,5.000000,-108.000000,-40.000000,-4.000000,13.000000,127.000000,3.000000
1309785.865956,127.000000,24.000000,19.000000,85.000000,-1.000000,-66.000000,-128.000000,-51.000000
1309785.865970,-128.000000,-8.000000,-53.000000,-12.000000,10.000000,-32.000000,51.000000,32.000000
1309785.879237,127.000000,-3.000000,89.000000,1.000000,-24.000000,-34.000000,-61.000000,-32.000000
1309785.879257,94.000000,-1.000000,-78.000000,-8.000000,30.000000,-28.000000,127.000000,73.000000
1309785.894244,127.000000,0.000000,38.000000,127.000000,46.000000,-43.000000,-50.000000,11.000000
1309785.894254,127.000000,-5.000000,-73.000000,-59.000000,-86.000000,-9.000000,-84.000000,-51.000000
1309785.901759,-128.000000,-2.000000,0.000000,8.000000,68.000000,-1.000000,0.000000,48.000000
1309785.901769,127.000000,-3.000000,127.000000,127.000000,97.000000,65.000000,5.000000,-18.000000
1309785.916869,127.000000,0.000000,-128.000000,-128.000000,-113.000000,-63.000000,47.000000,22.000000
1309785.916881,-12.000000,-6.000000,127.000000,127.000000,127.000000,127.000000,127.000000,-3.000000
1309785.924824,-128.000000,8.000000,66.000000,-128.000000,38.000000,-128.000000,-128.000000,62.000000
1309785.924856,127.000000,-8.000000,-128.000000,-128.000000,-24.000000,33.000000,127.000000,67.000000
1309785.939302,40.000000,5.000000,-35.000000,9.000000,4.000000,21.000000,-63.000000,-34.000000
1309785.939313,127.000000,3.000000,-11.000000,42.000000,13.000000,32.000000,15.000000,-19.000000
1309785.954398,-128.000000,-1.000000,38.000000,-97.000000,47.000000,-28.000000,4.000000,25.000000
1309785.954409,127.000000,-6.000000,-46.000000,-128.000000,-1.000000,78.000000,95.000000,54.000000
1309785.976905,127.000000,3.000000,8.000000,-65.000000,-26.000000,-73.000000,75.000000,23.000000
1309785.976926,-61.000000,5.000000,42.000000,-55.000000,36.000000,-44.000000,127.000000,-38.000000
1309785.984174,127.000000,2.000000,30.000000,-128.000000,-60.000000,-22.000000,-128.000000,119.000000
1309785.984220,-128.000000,9.000000,-128.000000,-47.000000,-21.000000,-20.000000,127.000000,-128.000000
1309786.021826,48.000000,13.000000,22.000000,-18.000000,-13.000000,-18.000000,-128.000000,-83.000000
1309786.021887,26.000000,-9.000000,12.000000,-1.000000,-49.000000,-45.000000,115.000000,50.000000
1309786.036730,-5.000000,4.000000,-78.000000,27.000000,-18.000000,17.000000,-35.000000,-34.000000
1309786.036766,-128.000000,-3.000000,127.000000,127.000000,127.000000,-7.000000,-57.000000,10.000000
1309786.044704,127.000000,-5.000000,-128.000000,-128.000000,-58.000000,-30.000000,-128.000000,-36.000000
1309786.044714,127.000000,-10.000000,31.000000,54.000000,65.000000,22.000000,127.000000,127.000000
1309786.045375,3.000000,1.000000,-42.000000,-69.000000,-44.000000,2.000000,127.000000,-52.000000
1309786.045385,127.000000,12.000000,-6.000000,16.000000,13.000000,-19.000000,-112.000000,-1.000000
1309786.047305,-128.000000,7.000000,127.000000,-6.000000,2.000000,51.000000,-89.000000,-7.000000
1309786.047315,-69.000000,-16.000000,-37.000000,-41.000000,-42.000000,-20.000000,41.000000,8.000000
1309786.059381,-69.000000,-5.000000,-51.000000,-63.000000,-8.000000,-37.000000,-126.000000,-52.000000
1309786.059416,-84.000000,-3.000000,103.000000,127.000000,48.000000,-57.000000,-128.000000,10.000000
1309786.060443,-128.000000,7.000000,-45.000000,-128.000000,108.000000,-5.000000,127.000000,27.000000
1309786.060451,127.000000,-6.000000,4.000000,5.000000,-29.000000,24.000000,-57.000000,17.000000
1309786.081675,-128.000000,-2.000000,127.000000,42.000000,-34.000000,0.000000,-121.000000,8.000000
1309786.081686,-128.000000,7.000000,-120.000000,61.000000,-77.000000,-4.000000,127.000000,-36.000000
1309786.082899,127.000000,6.000000,127.000000,127.000000,114.000000,-23.000000,-128.000000,-18.000000
1309786.082907,-20.000000,-5.000000,-32.000000,-64.000000,-9.000000,38.000000,-51.000000,-48.000000
1309786.096792,-7.000000,-4.000000,127.000000,-28.000000,-51.000000,-25.000000,59.000000,29.000000
1309786.096809,63.000000,10.000000,-76.000000,106.000000,-16.000000,-89.000000,127.000000,76.000000
1309786.104901,127.000000,0.000000,118.000000,127.000000,2.000000,111.000000,16.000000,-24.000000
1309786.104920,127.000000,-4.000000,-22.000000,-69.000000,19.000000,-88.000000,-128.000000,2.000000
1309786.119164,127.000000,3.000000,-53.000000,-75.000000,1.000000,38.000000,-79.000000,10.000000
1309786.119178,-128.000000,-9.000000,-61.000000,-2.000000,-27.000000,-23.000000,127.000000,16.000000
1309786.120600,127.000000,-17.000000,57.000000,-9.000000,9.000000,49.000000,117.000000,-48.000000
1309786.120617,127.000000,4.000000,27.000000,-39.000000,-19.000000,14.000000,-11.000000,1.000000
1309786.141925,71.000000,-8.000000,-56.000000,-83.000000,-30.000000,-82.000000,-128.000000,37.000000
1309786.141937,127.000000,-9.000000,-59.000000,-128.000000,-26.000000,-24.000000,127.000000,10.000000
1309786.156791,-128.000000,1.000000,65.000000,127.000000,66.000000,30.000000,28.000000,-66.000000
1309786.156801,5.000000,1.000000,-47.000000,-35.000000,-9.000000,18.000000,-19.000000,2.000000
1309786.179233,-128.000000,-9.000000,-77.000000,-47.000000,-43.000000,14.000000,-128.000000,-25.000000
1309786.179244,121.000000,-7.000000,29.000000,-44.000000,105.000000,80.000000,-116.000000,38.000000
1309786.216850,127.000000,16.000000,-128.000000,107.000000,-3.000000,-37.000000,127.000000,23.000000
1309786.216865,-128.000000,-7.000000,109.000000,116.000000,-24.000000,-12.000000,14.000000,-33.000000
1309786.217237,-37.000000,0.000000,-49.000000,-61.000000,3.000000,-27.000000,-67.000000,9.000000
1309786.217246,77.000000,8.000000,102.000000,127.000000,56.000000,7.000000,38.000000,-52.000000
1309786.218363,-108.000000,4.000000,-128.000000,-75.000000,-71.000000,6.000000,61.000000,-23.000000
1309786.218373,94.000000,-11.000000,-30.000000,-43.000000,19.000000,-14.000000,41.000000,40.000000
1309786.219076,103.000000,10.000000,-25.000000,-21.000000,-17.000000,73.000000,127.000000,-77.000000
1309786.219111,50.000000,16.000000,-91.000000,-67.000000,-38.000000,-80.000000,-128.000000,14.000000
1309786.231710,127.000000,-10.000000,30.000000,-53.000000,-50.000000,36.000000,-29.000000,-54.000000
1309786.231722,-2.000000,4.000000,-43.000000,33.000000,26.000000,-21.000000,-128.000000,62.000000
1309786.239377,127.000000,1.000000,47.000000,-5.000000,-23.000000,55.000000,127.000000,25.000000
1309786.239395,-128.000000,-10.000000,-97.000000,-128.000000,-41.000000,-58.000000,-23.000000,-73.000000
1309786.254435,-128.000000,-29.000000,-61.000000,-128.000000,-9.000000,-46.000000,-128.000000,-28.000000
1309786.254456,23.000000,-1.000000,57.000000,-48.000000,17.000000,-65.000000,-48.000000,0.000000
1309786.254904,-128.000000,3.000000,-106.000000,-128.000000,-121.000000,-30.000000,-107.000000,-29.000000
1309786.254913,127.000000,13.000000,94.000000,127.000000,94.000000,37.000000,-57.000000,66.000000
1309786.261585,-128.000000,1.000000,124.000000,127.000000,-27.000000,21.000000,127.000000,-7.000000
1309786.261594,-119.000000,-15.000000,-50.000000,-128.000000,-33.000000,-9.000000,-128.000000,-85.000000
1309786.276779,-128.000000,-10.000000,-49.000000,-61.000000,-31.000000,-37.000000,-15.000000,75.000000
1309786.276790,127.000000,2.000000,-57.000000,-35.000000,-55.000000,61.000000,10.000000,27.000000
1309786.314572,-128.000000,-5.000000,51.000000,127.000000,79.000000,-46.000000,127.000000,-28.000000
1309786.314594,127.000000,-10.000000,-23.000000,-25.000000,15.000000,20.000000,127.000000,-53.000000
1309786.322187,127.000000,1.000000,10.000000,72.000000,3.000000,51.000000,-43.000000,88.000000
1309786.322201,127.000000,13.000000,8.000000,-16.000000,19.000000,30.000000,-128.000000,-72.000000
1309786.359430,29.000000,-14.000000,68.000000,112.000000,66.000000,25.000000,124.000000,16.000000
1309786.359441,127.000000,-2.000000,-28.000000,-95.000000,32.000000,6.000000,10.000000,83.000000
1309786.359921,53.000000,2.000000,-33.000000,127.000000,-106.000000,-65.000000,-128.000000,5.000000
1309786.359928,127.000000,2.000000,127.000000,127.000000,-12.000000,31.000000,75.000000,2.000000
1309786.361203,-128.000000,3.000000,127.000000,127.000000,127.000000,52.000000,-29.000000,-36.000000
1309786.361248,127.000000,6.000000,-27.000000,-128.000000,-56.000000,14.000000,88.000000,-21.000000
1309786.362022,7.000000,12.000000,-51.000000,-127.000000,-25.000000,-28.000000,-128.000000,-62.000000
1309786.362069,62.000000,-3.000000,-23.000000,127.000000,117.000000,-34.000000,-128.000000,13.000000
1309786.363391,127.000000,-8.000000,-85.000000,-36.000000,-9.000000,27.000000,127.000000,75.000000
1309786.363416,-128.000000,8.000000,47.000000,127.000000,40.000000,-128.000000,-128.000000,28.000000
1309786.374173,127.000000,-10.000000,-50.000000,-90.000000,41.000000,-9.000000,-104.000000,-49.000000
1309786.374183,12.000000,13.000000,56.000000,-74.000000,59.000000,57.000000,-80.000000,28.000000
1309786.389650,127.000000,3.000000,-95.000000,-128.000000,-68.000000,-64.000000,109.000000,24.000000
1309786.389669,-128.000000,-7.000000,-69.000000,-115.000000,-86.000000,22.000000,-4.000000,-65.000000
1309786.396799,-128.000000,-4.000000,-72.000000,69.000000,107.000000,-32.000000,-128.000000,-13.000000
1309786.396809,-17.000000,4.000000,-7.000000,-40.000000,-79.000000,-91.000000,-128.000000,2.000000
1309786.426958,-67.000000,-19.000000,-3.000000,-91.000000,-45.000000,15.000000,127.000000,30.000000
1309786.426968,78.000000,1.000000,-63.000000,-128.000000,-27.000000,4.000000,-128.000000,-46.000000
1309786.434928,-128.000000,6.000000,120.000000,-128.000000,-47.000000,-19.000000,41.000000,-41.000000
1309786.435002,53.000000,-5.000000,-24.000000,-20.000000,-25.000000,21.000000,69.000000,-11.000000
1309786.457139,127.000000,-8.000000,-48.000000,22.000000,-42.000000,47.000000,15.000000,60.000000
1309786.457148,-3.000000,25.000000,127.000000,127.000000,20.000000,0.000000,127.000000,-7.000000
1309786.457700,127.000000,-4.000000,-89.000000,39.000000,-19.000000,-86.000000,-128.000000,64.000000
1309786.457710,123.000000,-14.000000,28.000000,40.000000,29.000000,43.000000,5.000000,71.000000
1309786.459415,-74.000000,-4.000000,22.000000,-4.000000,-61.000000,-48.000000,127.000000,12.000000
1309786.459462,12.000000,1.000000,82.000000,52.000000,39.000000,30.000000,101.000000,25.000000
1309786.460253,-128.000000,-4.000000,-128.000000,-61.000000,-55.000000,-97.000000,-72.000000,-37.000000
1309786.460275,127.000000,6.000000,127.000000,127.000000,127.000000,31.000000,26.000000,0.000000
1309786.471901,-11.000000,5.000000,-84.000000,-128.000000,-115.000000,-7.000000,-128.000000,-24.000000
1309786.471930,-128.000000,-4.000000,127.000000,127.000000,127.000000,56.000000,127.000000,19.000000
1309786.472240,65.000000,4.000000,-128.000000,-32.000000,-27.000000,-77.000000,-6.000000,22.000000
1309786.472267,-128.000000,16.000000,127.000000,127.000000,65.000000,42.000000,60.000000,-55.000000
1309786.494223,127.000000,0.000000,-96.000000,-111.000000,-42.000000,24.000000,31.000000,0.000000
1309786.494233,-63.000000,-10.000000,-40.000000,127.000000,-35.000000,-40.000000,17.000000,-24.000000
1309786.516894,-82.000000,0.000000,35.000000,-50.000000,0.000000,4.000000,-11.000000,48.000000
1309786.516904,45.000000,4.000000,-6.000000,40.000000,-1.000000,74.000000,-79.000000,14.000000
1309786.539186,-128.000000,-14.000000,87.000000,123.000000,-54.000000,31.000000,127.000000,39.000000
1309786.539217,127.000000,1.000000,62.000000,42.000000,32.000000,-128.000000,114.000000,127.000000
1309786.554501,127.000000,3.000000,65.000000,-62.000000,-13.000000,-35.000000,115.000000,28.000000
1309786.554512,123.000000,-7.000000,12.000000,-128.000000,-37.000000,127.000000,127.000000,-80.000000
1309786.584105,127.000000,-5.000000,127.000000,127.000000,127.000000,-128.000000,-128.000000,83.000000
1309786.584116,-128.000000,4.000000,-22.000000,-7.000000,-58.000000,32.000000,127.000000,-2.000000
1309786.591797,-128.000000,-9.000000,5.000000,-79.000000,-20.000000,-18.000000,75.000000,-99.000000
1309786.591807,49.000000,-15.000000,-100.000000,-26.000000,22.000000,47.000000,72.000000,74.000000
1309786.614623,127.000000,5.000000,127.000000,127.000000,28.000000,4.000000,-7.000000,18.000000
1309786.614637,127.000000,2.000000,58.000000,46.000000,66.000000,20.000000,-128.000000,9.000000
1309786.636857,-128.000000,-5.000000,-38.000000,-57.000000,-41.000000,-55.000000,-115.000000,-23.000000
1309786.636873,14.000000,8.000000,3.000000,52.000000,-17.000000,-1.000000,54.000000,2.000000
1309786.637200,127.000000,1.000000,0.000000,-100.000000,6.000000,20.000000,-128.000000,58.000000
1309786.637209,58.000000,14.000000,-91.000000,-36.000000,-55.000000,11.000000,1.000000,13.000000
1309786.637709,76.000000,7.000000,-54.000000,3.000000,3.000000,31.000000,77.000000,-24.000000
1309786.637718,7.000000,-7.000000,17.000000,5.000000,-31.000000,36.000000,-51.000000,-18.000000
1309786.638367,15.000000,-4.000000,28.000000,127.000000,7.000000,74.000000,127.000000,-76.000000
1309786.638385,127.000000,2.000000,-128.000000,-128.000000,1.000000,-128.000000,-128.000000,26.000000
1309786.639014,15.000000,4.000000,-84.000000,-128.000000,-71.000000,16.000000,107.000000,-3.000000
1309786.639023,127.000000,-2.000000,66.000000,-29.000000,69.000000,90.000000,127.000000,20.000000
1309786.640532,117.000000,-1.000000,-13.000000,5.000000,-66.000000,-48.000000,-108.000000,-37.000000
1309786.640540,-128.000000,-13.000000,-3.000000,24.000000,53.000000,14.000000,-71.000000,-20.000000
1309786.651751,-128.000000,-2.000000,-57.000000,-31.000000,11.000000,70.000000,105.000000,-21.000000
1309786.651762,127.000000,-4.000000,-121.000000,-113.000000,-66.000000,-127.000000,-128.000000,-38.000000
1309786.652117,127.000000,-11.000000,55.000000,88.000000,81.000000,17.000000,127.000000,54.000000
1309786.652126,-34.000000,0.000000,38.000000,-11.000000,-24.000000,56.000000,41.000000,-38.000000
1309786.674368,-72.000000,7.000000,-95.000000,6.000000,-10.000000,-9.000000,127.000000,58.000000
1309786.674386,-128.000000,-13.000000,13.000000,-24.000000,-38.000000,-19.000000,-29.000000,0.000000
1309786.674924,127.000000,-10.000000,-128.000000,-128.000000,-26.000000,21.000000,36.000000,-19.000000
1309786.674935,-11.000000,15.000000,127.000000,127.000000,76.000000,33.000000,-89.000000,-35.000000
1309786.689334,127.000000,4.000000,59.000000,-36.000000,34.000000,36.000000,127.000000,38.000000
1309786.689345,127.000000,-10.000000,-128.000000,-128.000000,-44.000000,-80.000000,-128.000000,15.000000
1309786.696695,37.000000,10.000000,127.000000,127.000000,59.000000,-37.000000,127.000000,39.000000
1309786.696716,-128.000000,-4.000000,40.000000,45.000000,43.000000,14.000000,42.000000,-21.000000
1309786.711957,90.000000,-14.000000,126.000000,127.000000,14.000000,18.000000,-65.000000,-70.000000
1309786.712083,-32.000000,0.000000,-108.000000,-128.000000,-50.000000,-8.000000,-39.000000,45.000000
1309786.712437,-128.000000,9.000000,-36.000000,75.000000,-8.000000,13.000000,4.000000,-22.000000
1309786.712448,127.000000,-6.000000,50.000000,-19.000000,-23.000000,-17.000000,31.000000,-7.000000
1309786.734220,127.000000,-10.000000,56.000000,105.000000,90.000000,12.000000,-128.000000,-29.000000
1309786.734237,127.000000,8.000000,111.000000,-72.000000,-57.000000,-28.000000,127.000000,74.000000
1309786.749584,-128.000000,-2.000000,-34.000000,43.000000,14.000000,-90.000000,-128.000000,-3.000000
1309786.749595,65.000000,-8.000000,8.000000,-41.000000,-27.000000,114.000000,127.000000,-102.000000
1309786.771822,26.000000,3.000000,-33.000000,-36.000000,-20.000000,-111.000000,-128.000000,95.000000
1309786.771832,127.000000,-6.000000,2.000000,127.000000,13.000000,-29.000000,127.000000,81.000000
1309786.786788,127.000000,-6.000000,21.000000,-2.000000,26.000000,127.000000,124.000000,-47.000000
1309786.786798,127.000000,3.000000,21.000000,38.000000,18.000000,-98.000000,98.000000,-21.000000
1309786.809267,26.000000,1.000000,84.000000,79.000000,63.000000,60.000000,0.000000,61.000000
1309786.809279,88.000000,0.000000,53.000000,-128.000000,-53.000000,10.000000,-128.000000,-36.000000
1309786.810529,-128.000000,-3.000000,13.000000,127.000000,57.000000,83.000000,71.000000,-1.000000
1309786.810548,25.000000,11.000000,-41.000000,-128.000000,18.000000,-112.000000,-90.000000,-1.000000
1309786.811149,26.000000,0.000000,-79.000000,-128.000000,-64.000000,32.000000,-8.000000,-44.000000
1309786.811159,127.000000,0.000000,37.000000,49.000000,35.000000,50.000000,127.000000,109.000000
1309786.812566,61.000000,-5.000000,-52.000000,-35.000000,-20.000000,12.000000,67.000000,45.000000
1309786.812611,-128.000000,3.000000,57.000000,-11.000000,-18.000000,-13.000000,38.000000,-72.000000
1309786.817479,-83.000000,1.000000,-52.000000,-4.000000,-17.000000,18.000000,66.000000,9.000000
1309786.817497,19.000000,-7.000000,127.000000,-28.000000,-14.000000,16.000000,-128.000000,40.000000
1309786.831877,127.000000,9.000000,84.000000,13.000000,18.000000,-9.000000,127.000000,36.000000
1309786.831894,-128.000000,2.000000,-99.000000,82.000000,-52.000000,54.000000,44.000000,-99.000000
1309786.869378,127.000000,-3.000000,97.000000,91.000000,59.000000,-1.000000,55.000000,60.000000
1309786.869391,71.000000,0.000000,22.000000,-65.000000,-30.000000,77.000000,127.000000,-29.000000
1309786.876833,64.000000,4.000000,1.000000,117.000000,-12.000000,-128.000000,-128.000000,26.000000
1309786.876854,110.000000,-2.000000,-6.000000,-128.000000,-56.000000,2.000000,127.000000,-7.000000
1309786.899456,-93.000000,-9.000000,66.000000,88.000000,74.000000,-1.000000,-72.000000,-13.000000
1309786.899485,9.000000,2.000000,-91.000000,-128.000000,-40.000000,-19.000000,-66.000000,-10.000000
1309786.906960,-112.000000,2.000000,127.000000,127.000000,23.000000,40.000000,-54.000000,1.000000
1309786.906980,127.000000,-1.000000,-99.000000,-119.000000,-30.000000,-28.000000,-21.000000,-19.000000
1309786.914698,-47.000000,8.000000,115.000000,127.000000,42.000000,31.000000,3.000000,23.000000
1309786.914713,29.000000,-1.000000,-57.000000,15.000000,-47.000000,-21.000000,-79.000000,-34.000000
1309786.915394,-94.000000,-14.000000,91.000000,-49.000000,15.000000,96.000000,-25.000000,40.000000
1309786.915422,127.000000,-7.000000,-114.000000,-36.000000,-39.000000,-102.000000,59.000000,28.000000
1309786.916499,32.000000,-13.000000,-88.000000,-86.000000,-44.000000,-37.000000,35.000000,39.000000
1309786.916508,95.000000,20.000000,-41.000000,-16.000000,-4.000000,7.000000,60.000000,28.000000
1309786.929306,27.000000,1.000000,-12.000000,-65.000000,-48.000000,41.000000,23.000000,0.000000
1309786.929316,-55.000000,2.000000,80.000000,-93.000000,98.000000,29.000000,127.000000,76.000000
1309786.937630,1.000000,3.000000,-108.000000,-112.000000,-19.000000,-9.000000,-66.000000,-20.000000
1309786.937640,-6.000000,10.000000,-40.000000,-128.000000,-24.000000,13.000000,-80.000000,-75.000000
1309786.952000,-117.000000,-4.000000,-28.000000,-75.000000,-10.000000,-3.000000,3.000000,103.000000
1309786.952010,-128.000000,5.000000,-43.000000,73.000000,14.000000,5.000000,6.000000,-37.000000
1309786.982084,16.000000,-8.000000,-19.000000,-2.000000,-38.000000,1.000000,-46.000000,-52.000000
1309786.982094,127.000000,-11.000000,99.000000,104.000000,16.000000,11.000000,-45.000000,57.000000
1309786.989544,-128.000000,-5.000000,27.000000,-55.000000,6.000000,-30.000000,-121.000000,-52.000000
1309786.989572,-17.000000,-3.000000,-15.000000,-98.000000,-22.000000,-27.000000,127.000000,18.000000
1309787.027047,9.000000,12.000000,26.000000,-29.000000,-20.000000,124.000000,127.000000,-39.000000
1309787.027061,104.000000,-5.000000,-119.000000,-76.000000,-128.000000,-128.000000,-128.000000,61.000000
1309787.027478,116.000000,1.000000,105.000000,127.000000,104.000000,69.000000,60.000000,13.000000
1309787.027488,127.000000,-1.000000,-72.000000,-55.000000,-63.000000,11.000000,-128.000000,-6.000000
1309787.028487,79.000000,11.000000,43.000000,61.000000,51.000000,-1.000000,127.000000,18.000000
1309787.028498,127.000000,-10.000000,95.000000,17.000000,30.000000,37.000000,-31.000000,21.000000
1309787.029083,-46.000000,2.000000,94.000000,-128.000000,-36.000000,-15.000000,-128.000000,-6.000000
1309787.029093,-47.000000,-1.000000,-124.000000,-30.000000,-26.000000,84.000000,127.000000,-60.000000
1309787.030728,35.000000,2.000000,60.000000,-128.000000,-38.000000,90.000000,15.000000,-87.000000
1309787.030738,81.000000,6.000000,-91.000000,-116.000000,13.000000,-95.000000,-128.000000,11.000000
1309787.034939,127.000000,0.000000,127.000000,127.000000,96.000000,52.000000,127.000000,77.000000
1309787.034949,116.000000,-1.000000,-128.000000,-128.000000,-42.000000,-118.000000,-128.000000,-60.000000
1309787.049231,127.000000,12.000000,57.000000,-58.000000,7.000000,87.000000,127.000000,-37.000000
1309787.049241,127.000000,-9.000000,-28.000000,111.000000,54.000000,22.000000,127.000000,98.000000
1309787.086965,-128.000000,5.000000,-66.000000,32.000000,10.000000,-102.000000,6.000000,-19.000000
1309787.086980,123.000000,-5.000000,-10.000000,-128.000000,-29.000000,59.000000,65.000000,-55.000000
1309787.094297,8.000000,-8.000000,127.000000,127.000000,0.000000,26.000000,-128.000000,-25.000000
1309787.094337,127.000000,-10.000000,109.000000,-22.000000,68.000000,127.000000,107.000000,111.000000
1309787.131839,55.000000,10.000000,-102.000000,-106.000000,34.000000,-125.000000,80.000000,-13.000000
1309787.131868,-55.000000,6.000000,68.000000,127.000000,9.000000,127.000000,-128.000000,-62.000000
1309787.132300,-128.000000,-14.000000,-56.000000,1.000000,-9.000000,-55.000000,127.000000,74.000000
1309787.132307,-79.000000,-1.000000,27.000000,-10.000000,60.000000,42.000000,-128.000000,-63.000000
1309787.133512,65.000000,11.000000,105.000000,127.000000,65.000000,-20.000000,68.000000,27.000000
1309787.133540,-128.000000,-5.000000,81.000000,-47.000000,-69.000000,53.000000,-128.000000,-101.000000
1309787.134307,-51.000000,-7.000000,21.000000,127.000000,24.000000,-64.000000,-116.000000,32.000000
1309787.134316,127.000000,-8.000000,-25.000000,-128.000000,-1.000000,23.000000,127.000000,7.000000
1309787.136013,45.000000,12.000000,57.000000,-43.000000,-45.000000,-35.000000,127.000000,10.000000
1309787.136084,-77.000000,9.000000,-108.000000,37.000000,10.000000,13.000000,127.000000,-17.000000
1309787.139812,-116.000000,-15.000000,31.000000,-81.000000,-32.000000,23.000000,-106.000000,-1.000000
1309787.139830,-61.000000,-8.000000,-32.000000,-128.000000,11.000000,-8.000000,-3.000000,8.000000
1309787.146967,43.000000,5.000000,58.000000,-44.000000,51.000000,77.000000,127.000000,13.000000
1309787.147035,127.000000,-1.000000,122.000000,127.000000,119.000000,-71.000000,-128.000000,8.000000
1309787.154833,-82.000000,-14.000000,-81.000000,-128.000000,-63.000000,13.000000,67.000000,25.000000
1309787.154842,40.000000,2.000000,119.000000,-90.000000,38.000000,36.000000,-128.000000,-57.000000
1309787.169290,-67.000000,7.000000,46.000000,127.000000,-69.000000,110.000000,127.000000,-22.000000
1309787.169300,127.000000,-11.000000,-72.000000,37.000000,127.000000,-128.000000,-128.000000,42.000000
1309787.192104,-128.000000,9.000000,-32.000000,56.000000,-12.000000,13.000000,127.000000,-60.000000
1309787.192155,-79.000000,8.000000,42.000000,-97.000000,-26.000000,-42.000000,-128.000000,-31.000000
1309787.207101,127.000000,-16.000000,-45.000000,-111.000000,-6.000000,7.000000,-67.000000,-2.000000
1309787.207120,38.000000,3.000000,77.000000,-49.000000,-8.000000,36.000000,-128.000000,-23.000000
1309787.229778,-128.000000,19.000000,-86.000000,-48.000000,-24.000000,-63.000000,127.000000,3.000000
1309787.229788,-36.000000,4.000000,-17.000000,11.000000,-28.000000,127.000000,-128.000000,-47.000000
1309787.251742,-128.000000,-14.000000,5.000000,35.000000,20.000000,-128.000000,94.000000,118.000000
1309787.251756,-14.000000,16.000000,-26.000000,3.000000,25.000000,5.000000,127.000000,26.000000
1309787.289643,-128.000000,-1.000000,22.000000,-81.000000,-34.000000,87.000000,-128.000000,-128.000000
1309787.289666,127.000000,-19.000000,-73.000000,-81.000000,-53.000000,-22.000000,118.000000,92.000000
1309787.304802,-128.000000,-9.000000,46.000000,-7.000000,26.000000,54.000000,-44.000000,-49.000000
1309787.304854,84.000000,11.000000,14.000000,-128.000000,25.000000,-27.000000,113.000000,45.000000
1309787.327283,-128.000000,-11.000000,-8.000000,127.000000,-36.000000,51.000000,127.000000,-17.000000
1309787.327301,69.000000,-9.000000,-128.000000,-128.000000,-44.000000,-40.000000,-128.000000,-76.000000
1309787.334247,88.000000,23.000000,65.000000,-128.000000,43.000000,-55.000000,-128.000000,11.000000
1309787.334258,-128.000000,-8.000000,54.000000,127.000000,106.000000,59.000000,127.000000,51.000000
1309787.349343,127.000000,-3.000000,86.000000,52.000000,43.000000,-121.000000,-83.000000,66.000000
1309787.349355,72.000000,-4.000000,-128.000000,-75.000000,-55.000000,-41.000000,-128.000000,-43.000000
1309787.349844,24.000000,-7.000000,-68.000000,-22.000000,-18.000000,-42.000000,127.000000,5.000000
1309787.349856,-34.000000,-1.000000,31.000000,-2.000000,0.000000,-48.000000,-17.000000,21.000000
1309787.350377,58.000000,-1.000000,14.000000,127.000000,66.000000,-88.000000,127.000000,74.000000
1309787.350397,-6.000000,-1.000000,-24.000000,-64.000000,-20.000000,48.000000,68.000000,-19.000000
1309787.351094,36.000000,-9.000000,-72.000000,-99.000000,1.000000,-15.000000,-8.000000,14.000000
1309787.351112,-44.000000,2.000000,127.000000,127.000000,-30.000000,20.000000,127.000000,-9.000000
1309787.352567,126.000000,3.000000,-100.000000,-37.000000,-9.000000,-54.000000,84.000000,55.000000
1309787.352593,-77.000000,-5.000000,10.000000,-12.000000,-17.000000,-10.000000,127.000000,5.000000
1309787.364830,-43.000000,-9.000000,-15.000000,23.000000,-3.000000,38.000000,-128.000000,-4.000000
1309787.364857,-12.000000,2.000000,127.000000,30.000000,10.000000,7.000000,127.000000,20.000000
1309787.365651,-12.000000,8.000000,-63.000000,9.000000,28.000000,17.000000,-128.000000,13.000000
1309787.365660,-34.000000,-5.000000,-115.000000,5.000000,-13.000000,-55.000000,127.000000,33.000000
1309787.379351,-50.000000,4.000000,127.000000,51.000000,-8.000000,51.000000,44.000000,-41.000000
1309787.379371,127.000000,-6.000000,127.000000,58.000000,57.000000,30.000000,1.000000,-3.000000
1309787.386859,-20.000000,-48.000000,127.000000,127.000000,41.000000,12.000000,-49.000000,5.000000
1309787.386889,-70.000000,11.000000,-84.000000,-69.000000,-22.000000,12.000000,-74.000000,-11.000000
1309787.410113,60.000000,7.000000,-116.000000,-102.000000,-6.000000,-35.000000,33.000000,2.000000
1309787.410125,85.000000,-12.000000,-30.000000,112.000000,59.000000,7.000000,5.000000,20.000000
1309787.410684,127.000000,-5.000000,127.000000,127.000000,21.000000,-16.000000,-23.000000,27.000000
1309787.410694,70.000000,-4.000000,-3.000000,49.000000,24.000000,0.000000,-21.000000,-28.000000
1309787.424735,127.000000,-13.000000,127.000000,-83.000000,-39.000000,31.000000,23.000000,-68.000000
1309787.424745,44.000000,11.000000,20.000000,-66.000000,-1.000000,-103.000000,-27.000000,25.000000
1309787.425496,33.000000,-11.000000,-79.000000,-53.000000,1.000000,90.000000,127.000000,27.000000
1309787.425506,-77.000000,38.000000,-36.000000,-40.000000,-49.000000,-73.000000,-128.000000,-56.000000
1309787.461823,-126.000000,-7.000000,76.000000,-45.000000,-3.000000,71.000000,-77.000000,-32.000000
1309787.461834,30.000000,-8.000000,-92.000000,39.000000,28.000000,-88.000000,127.000000,73.000000
1309787.469638,127.000000,-1.000000,-32.000000,21.000000,-16.000000,39.000000,-86.000000,-7.000000
1309787.469692,17.000000,10.000000,-11.000000,-39.000000,9.000000,-17.000000,127.000000,-21.000000
1309787.491639,-76.000000,2.000000,-37.000000,127.000000,-17.000000,20.000000,24.000000,7.000000
1309787.491649,-128.000000,-4.000000,-11.000000,-78.000000,-3.000000,-45.000000,-128.000000,-88.000000
1309787.506748,-31.000000,-7.000000,62.000000,-108.000000,-22.000000,9.000000,-84.000000,7.000000
1309787.506760,75.000000,4.000000,-19.000000,-21.000000,26.000000,-19.000000,69.000000,-4.000000
1309787.507893,55.000000,6.000000,67.000000,-128.000000,-16.000000,49.000000,-128.000000,-17.000000
1309787.507904,127.000000,-9.000000,-30.000000,44.000000,10.000000,-7.000000,127.000000,27.000000
1309787.508520,17.000000,-15.000000,-112.000000,-84.000000,-19.000000,-16.000000,66.000000,1.000000
1309787.508531,-8.000000,4.000000,27.000000,-44.000000,-41.000000,16.000000,-68.000000,-12.000000
1309787.509827,127.000000,3.000000,127.000000,85.000000,33.000000,47.000000,36.000000,34.000000
1309787.509838,-128.000000,1.000000,-25.000000,-75.000000,22.000000,8.000000,45.000000,-13.000000
1309787.510749,126.000000,-4.000000,127.000000,-107.000000,-71.000000,76.000000,-128.000000,-72.000000
1309787.510760,-128.000000,7.000000,-47.000000,127.000000,103.000000,-128.000000,127.000000,127.000000
1309787.536771,91.000000,-7.000000,9.000000,-16.000000,-31.000000,47.000000,-70.000000,-99.000000
1309787.536788,127.000000,-4.000000,23.000000,2.000000,41.000000,121.000000,-18.000000,30.000000
1309787.544646,-128.000000,-1.000000,9.000000,-12.000000,-18.000000,-39.000000,-39.000000,-37.000000
1309787.544696,-26.000000,-8.000000,16.000000,-25.000000,-12.000000,39.000000,127.000000,6.000000
1309787.545516,17.000000,-4.000000,-11.000000,18.000000,-27.000000,-42.000000,-89.000000,1.000000
1309787.545524,5.000000,12.000000,52.000000,-79.000000,41.000000,-8.000000,-105.000000,40.000000
1309787.546292,-66.000000,-2.000000,-30.000000,5.000000,43.000000,56.000000,127.000000,-12.000000
1309787.546300,33.000000,-2.000000,-39.000000,-46.000000,3.000000,-128.000000,-128.000000,-30.000000
1309787.581907,-24.000000,-7.000000,76.000000,127.000000,127.000000,-23.000000,127.000000,30.000000
1309787.581927,-33.000000,-18.000000,-19.000000,-128.000000,-27.000000,50.000000,127.000000,2.000000
1309787.589312,-26.000000,-12.000000,-31.000000,-128.000000,-73.000000,17.000000,12.000000,-33.000000
1309787.589323,-44.000000,-11.000000,-72.000000,-11.000000,-1.000000,18.000000,127.000000,2.000000
1309787.626778,10.000000,3.000000,-30.000000,-13.000000,3.000000,-66.000000,-128.000000,11.000000
1309787.626795,127.000000,-8.000000,35.000000,-45.000000,-19.000000,2.000000,-128.000000,29.000000
1309787.627224,91.000000,-10.000000,10.000000,6.000000,13.000000,-23.000000,127.000000,80.000000
1309787.627238,119.000000,2.000000,-64.000000,5.000000,-7.000000,-45.000000,-103.000000,25.000000
1309787.628355,-4.000000,6.000000,17.000000,4.000000,0.000000,17.000000,25.000000,-7.000000
1309787.628363,-128.000000,-1.000000,-43.000000,4.000000,16.000000,23.000000,-85.000000,-37.000000
1309787.629208,-22.000000,1.000000,30.000000,0.000000,-6.000000,115.000000,-128.000000,15.000000
1309787.629247,127.000000,-5.000000,23.000000,36.000000,16.000000,-71.000000,127.000000,59.000000
1309787.630632,-128.000000,-1.000000,-10.000000,-57.000000,14.000000,38.000000,74.000000,-46.000000
1309787.630640,-128.000000,-22.000000,-128.000000,77.000000,24.000000,-16.000000,-46.000000,-28.000000
1309787.649718,53.000000,-6.000000,5.000000,-56.000000,-22.000000,-9.000000,-26.000000,1.000000
1309787.649738,1.000000,8.000000,-34.000000,108.000000,12.000000,-1.000000,-15.000000,0.000000
1309787.650305,5.000000,10.000000,50.000000,117.000000,32.000000,10.000000,4.000000,2.000000
1309787.650330,-128.000000,-5.000000,-9.000000,0.000000,-52.000000,10.000000,67.000000,-37.000000
1309787.664640,46.000000,-8.000000,48.000000,-47.000000,3.000000,-35.000000,-51.000000,27.000000
1309787.664663,76.000000,5.000000,-5.000000,-115.000000,-40.000000,73.000000,127.000000,39.000000
1309787.665495,127.000000,-3.000000,-8.000000,-49.000000,3.000000,-128.000000,-128.000000,42.000000
1309787.665512,127.000000,4.000000,-105.000000,-58.000000,-12.000000,-22.000000,127.000000,-15.000000
1309787.687145,-128.000000,8.000000,-30.000000,-41.000000,-26.000000,62.000000,33.000000,-44.000000
1309787.687174,27.000000,-9.000000,-26.000000,26.000000,-7.000000,14.000000,52.000000,66.000000
1309787.702052,-7.000000,-4.000000,47.000000,-55.000000,40.000000,25.000000,-128.000000,8.000000
1309787.702072,127.000000,2.000000,-71.000000,31.000000,-55.000000,-104.000000,71.000000,-11.000000
1309787.739439,33.000000,2.000000,127.000000,-88.000000,46.000000,80.000000,77.000000,-18.000000
1309787.739450,27.000000,-3.000000,23.000000,38.000000,52.000000,-34.000000,-69.000000,26.000000
1309787.746764,-114.000000,-6.000000,51.000000,118.000000,-2.000000,34.000000,3.000000,-14.000000
1309787.746774,41.000000,5.000000,34.000000,74.000000,1.000000,1.000000,-12.000000,52.000000
1309787.762081,80.000000,-4.000000,26.000000,-39.000000,-44.000000,30.000000,-14.000000,3.000000
1309787.762091,127.000000,4.000000,50.000000,-13.000000,42.000000,17.000000,39.000000,-25.000000
1309787.762797,-43.000000,8.000000,2.000000,16.000000,48.000000,44.000000,5.000000,-25.000000
1309787.762817,-24.000000,-13.000000,-106.000000,-63.000000,8.000000,-115.000000,-93.000000,16.000000
1309787.764077,-15.000000,-7.000000,3.000000,-48.000000,-23.000000,102.000000,127.000000,-29.000000
1309787.764086,8.000000,1.000000,-29.000000,127.000000,78.000000,-128.000000,-128.000000,10.000000
1309787.769247,109.000000,-5.000000,-8.000000,30.000000,-3.000000,111.000000,68.000000,41.000000
1309787.769261,54.000000,1.000000,-10.000000,-128.000000,-8.000000,-91.000000,-119.000000,0.000000
1309787.785375,-108.000000,-7.000000,-66.000000,55.000000,-23.000000,19.000000,127.000000,-29.000000
1309787.785392,-101.000000,-3.000000,5.000000,12.000000,-37.000000,46.000000,48.000000,-53.000000
1309787.785952,76.000000,8.000000,82.000000,127.000000,54.000000,54.000000,17.000000,26.000000
1309787.785960,127.000000,6.000000,43.000000,127.000000,8.000000,0.000000,7.000000,54.000000
1309787.821996,-95.000000,-2.000000,-47.000000,-95.000000,-34.000000,-22.000000,-48.000000,-49.000000
1309787.822025,88.000000,-12.000000,-27.000000,-23.000000,-17.000000,0.000000,-50.000000,22.000000
1309787.844484,42.000000,-7.000000,-6.000000,127.000000,7.000000,6.000000,36.000000,23.000000
1309787.844495,127.000000,18.000000,-15.000000,-57.000000,-14.000000,90.000000,-128.000000,23.000000
1309787.866676,22.000000,-10.000000,87.000000,-23.000000,-32.000000,-105.000000,127.000000,36.000000
1309787.866686,-92.000000,-2.000000,-128.000000,-73.000000,-10.000000,22.000000,127.000000,-30.000000
1309787.881757,48.000000,3.000000,-74.000000,-52.000000,-5.000000,-9.000000,-128.000000,58.000000
1309787.881767,11.000000,1.000000,13.000000,83.000000,70.000000,35.000000,127.000000,-4.000000
1309787.919406,6.000000,-11.000000,-31.000000,-128.000000,-83.000000,25.000000,-128.000000,-108.000000
1309787.919419,127.000000,1.000000,-6.000000,41.000000,35.000000,-29.000000,127.000000,81.000000
1309787.927158,-20.000000,9.000000,38.000000,-48.000000,6.000000,10.000000,-2.000000,-11.000000
1309787.927189,77.000000,6.000000,-49.000000,-62.000000,-60.000000,5.000000,-128.000000,-10.000000
1309787.934704,-128.000000,-2.000000,-56.000000,107.000000,-18.000000,-27.000000,-67.000000,-15.000000
1309787.934717,127.000000,6.000000,-14.000000,-25.000000,-29.000000,1.000000,85.000000,9.000000
1309787.964229,-28.000000,-3.000000,-128.000000,-128.000000,-53.000000,-32.000000,-128.000000,-29.000000
1309787.964239,127.000000,1.000000,12.000000,-35.000000,-40.000000,-10.000000,62.000000,-16.000000
1309787.979994,73.000000,-13.000000,-6.000000,6.000000,-9.000000,13.000000,127.000000,56.000000
1309787.980024,59.000000,-6.000000,-10.000000,25.000000,12.000000,73.000000,127.000000,-60.000000
1309787.981300,-71.000000,6.000000,44.000000,-89.000000,11.000000,19.000000,25.000000,17.000000
1309787.981320,-128.000000,-7.000000,-35.000000,12.000000,-84.000000,-10.000000,-20.000000,-21.000000
1309787.982525,108.000000,5.000000,-57.000000,52.000000,37.000000,27.000000,-37.000000,2.000000
1309787.982566,-128.000000,4.000000,-22.000000,78.000000,-16.000000,-10.000000,-64.000000,-60.000000
1309787.983339,-128.000000,6.000000,-46.000000,-55.000000,-33.000000,-96.000000,127.000000,46.000000
1309787.983361,127.000000,-5.000000,73.000000,-3.000000,-12.000000,79.000000,91.000000,53.000000
1309787.987318,-128.000000,-5.000000,16.000000,-48.000000,-25.000000,-23.000000,-128.000000,-95.000000
1309787.987341,127.000000,1.000000,30.000000,12.000000,29.000000,10.000000,33.000000,12.000000
1309788.002450,34.000000,10.000000,39.000000,-16.000000,9.000000,26.000000,-128.000000,-41.000000
1309788.002484,127.000000,-6.000000,-57.000000,4.000000,14.000000,-61.000000,127.000000,93.000000
1309788.009219,-128.000000,1.000000,-57.000000,-51.000000,-30.000000,29.000000,127.000000,7.000000
1309788.009229,-38.000000,10.000000,-5.000000,117.000000,-49.000000,18.000000,54.000000,-17.000000
1309788.039463,-64.000000,-4.000000,-47.000000,7.000000,28.000000,-17.000000,-53.000000,41.000000
1309788.039481,1.000000,-7.000000,-79.000000,-62.000000,-23.000000,11.000000,48.000000,-13.000000
1309788.046817,-25.000000,-4.000000,-88.000000,-128.000000,-90.000000,-25.000000,-107.000000,-50.000000
1309788.046837,-128.000000,-4.000000,105.000000,127.000000,76.000000,24.000000,31.000000,13.000000
1309788.077036,-39.000000,2.000000,120.000000,-75.000000,-25.000000,6.000000,-50.000000,-13.000000
1309788.077132,86.000000,-3.000000,-63.000000,-65.000000,-24.000000,-10.000000,-102.000000,-37.000000
1309788.084261,127.000000,-6.000000,127.000000,99.000000,-2.000000,15.000000,81.000000,22.000000
1309788.084280,-128.000000,0.000000,-48.000000,31.000000,-10.000000,-24.000000,127.000000,50.000000
1309788.099644,93.000000,-4.000000,15.000000,20.000000,10.000000,64.000000,-69.000000,-61.000000
1309788.099653,30.000000,-1.000000,50.000000,19.000000,-5.000000,-7.000000,60.000000,-5.000000
1309788.100262,127.000000,-1.000000,-3.000000,-14.000000,4.000000,20.000000,127.000000,60.000000
1309788.100271,84.000000,4.000000,-47.000000,25.000000,45.000000,-10.000000,-128.000000,4.000000
1309788.101564,127.000000,1.000000,62.000000,20.000000,14.000000,99.000000,127.000000,33.000000
1309788.101576,-15.000000,-3.000000,-85.000000,-17.000000,-2.000000,-128.000000,-96.000000,8.000000
1309788.121761,-34.000000,-1.000000,13.000000,-60.000000,-13.000000,48.000000,-21.000000,-21.000000
1309788.121773,13.000000,1.000000,-107.000000,31.000000,14.000000,-48.000000,-29.000000,0.000000
1309788.123180,41.000000,-3.000000,-12.000000,17.000000,0.000000,26.000000,17.000000,33.000000
1309788.123190,-84.000000,-12.000000,127.000000,127.000000,-1.000000,14.000000,-70.000000,-22.000000
1309788.136729,73.000000,3.000000,31.000000,63.000000,-34.000000,-1.000000,52.000000,4.000000
1309788.136751,-20.000000,-11.000000,-4.000000,-68.000000,-37.000000,-46.000000,127.000000,38.000000
1309788.138066,-77.000000,-7.000000,-122.000000,-86.000000,-25.000000,-26.000000,-128.000000,-37.000000
1309788.138084,126.000000,-1.000000,49.000000,127.000000,41.000000,-21.000000,-38.000000,7.000000
1309788.144169,-128.000000,1.000000,53.000000,-11.000000,-17.000000,85.000000,126.000000,38.000000
1309788.144178,-8.000000,-9.000000,-69.000000,-24.000000,-13.000000,-128.000000,-50.000000,-22.000000
1309788.166893,127.000000,11.000000,41.000000,-8.000000,10.000000,92.000000,127.000000,2.000000
1309788.166905,-124.000000,-14.000000,77.000000,101.000000,-17.000000,-46.000000,-27.000000,-38.000000
1309788.181948,127.000000,2.000000,-37.000000,-80.000000,-19.000000,99.000000,127.000000,-32.000000
1309788.181958,-128.000000,2.000000,-128.000000,-103.000000,-41.000000,-128.000000,59.000000,-8.000000
1309788.204524,-43.000000,-4.000000,64.000000,-128.000000,-14.000000,29.000000,-65.000000,26.000000
1309788.204535,127.000000,-6.000000,-26.000000,-128.000000,-2.000000,21.000000,116.000000,3.000000
1309788.219437,9.000000,-13.000000,-72.000000,-15.000000,58.000000,23.000000,-79.000000,-19.000000
1309788.219458,-5.000000,9.000000,-10.000000,-128.000000,-58.000000,-20.000000,-128.000000,-6.000000
1309788.220400,17.000000,6.000000,117.000000,-32.000000,-40.000000,67.000000,2.000000,-1.000000
1309788.220412,127.000000,-16.000000,-36.000000,4.000000,14.000000,-46.000000,-15.000000,58.000000
1309788.220810,77.000000,4.000000,23.000000,23.000000,9.000000,-6.000000,14.000000,-12.000000
1309788.220819,78.000000,-4.000000,22.000000,-11.000000,-4.000000,39.000000,109.000000,-23.000000
1309788.222506,17.000000,4.000000,-1.000000,-20.000000,-18.000000,-39.000000,-128.000000,1.000000
1309788.222520,103.000000,-5.000000,-61.000000,-17.000000,-66.000000,-62.000000,-128.000000,-1.000000
1309788.226808,58.000000,11.000000,1.000000,24.000000,-13.000000,-53.000000,127.000000,63.000000
1309788.226836,-7.000000,-7.000000,-8.000000,28.000000,3.000000,51.000000,-40.000000,-28.000000
1309788.242445,71.000000,-10.000000,44.000000,11.000000,-42.000000,61.000000,36.000000,15.000000
1309788.242456,-74.000000,5.000000,-25.000000,7.000000,-4.000000,29.000000,127.000000,-6.000000
1309788.257183,57.000000,-11.000000,14.000000,-53.000000,84.000000,-63.000000,112.000000,49.000000
1309788.257215,43.000000,-17.000000,14.000000,-5.000000,8.000000,20.000000,76.000000,-14.000000
1309788.258171,59.000000,-1.000000,-56.000000,12.000000,4.000000,29.000000,56.000000,-14.000000
1309788.258179,127.000000,9.000000,105.000000,-28.000000,-19.000000,-4.000000,-126.000000,-2.000000
1309788.272007,-128.000000,-8.000000,18.000000,44.000000,12.000000,22.000000,106.000000,-43.000000
1309788.272018,-2.000000,-4.000000,-113.000000,54.000000,37.000000,-24.000000,-17.000000,19.000000
1309788.301981,127.000000,-7.000000,127.000000,21.000000,7.000000,-12.000000,5.000000,8.000000
1309788.302003,18.000000,-9.000000,-7.000000,-68.000000,-11.000000,9.000000,40.000000,11.000000
1309788.316932,-100.000000,-13.000000,48.000000,61.000000,52.000000,37.000000,56.000000,-36.000000
1309788.317017,-11.000000,1.000000,76.000000,70.000000,5.000000,42.000000,127.000000,24.000000
1309788.317901,52.000000,-4.000000,-14.000000,23.000000,23.000000,-128.000000,-128.000000,5.000000
1309788.317913,122.000000,1.000000,-27.000000,-97.000000,-28.000000,0.000000,127.000000,46.000000
1309788.319144,127.000000,3.000000,-30.000000,-10.000000,22.000000,61.000000,127.000000,-42.000000
1309788.319166,-128.000000,4.000000,-37.000000,-11.000000,12.000000,-7.000000,-128.000000,10.000000
1309788.320239,127.000000,-4.000000,101.000000,121.000000,6.000000,-17.000000,72.000000,32.000000
1309788.320249,-128.000000,3.000000,22.000000,47.000000,-20.000000,-3.000000,17.000000,-35.000000
1309788.339253,-92.000000,9.000000,20.000000,-33.000000,-32.000000,36.000000,64.000000,8.000000
1309788.339264,50.000000,-5.000000,8.000000,34.000000,11.000000,-24.000000,-36.000000,-2.000000
1309788.341094,-55.000000,-10.000000,-39.000000,18.000000,-22.000000,20.000000,113.000000,-8.000000
1309788.341111,-1.000000,2.000000,-32.000000,43.000000,9.000000,-18.000000,-113.000000,18.000000
1309788.361745,11.000000,5.000000,46.000000,73.000000,34.000000,10.000000,127.000000,58.000000
1309788.361756,-77.000000,-12.000000,8.000000,41.000000,-2.000000,5.000000,-84.000000,-25.000000
1309788.363026,127.000000,-9.000000,-26.000000,-17.000000,0.000000,30.000000,-128.000000,-6.000000
1309788.363037,-31.000000,11.000000,120.000000,60.000000,82.000000,-8.000000,-32.000000,10.000000
1309788.369448,6.000000,-2.000000,-84.000000,-43.000000,-20.000000,-39.000000,15.000000,6.000000
1309788.369469,-12.000000,1.000000,29.000000,18.000000,15.000000,68.000000,16.000000,-30.000000
1309788.406747,107.000000,6.000000,-67.000000,-55.000000,-10.000000,6.000000,127.000000,-13.000000
1309788.406758,-62.000000,-3.000000,-86.000000,-10.000000,-19.000000,-114.000000,-128.000000,20.000000
1309788.414550,-128.000000,-9.000000,10.000000,-18.000000,4.000000,8.000000,-16.000000,-39.000000
1309788.414571,20.000000,0.000000,-47.000000,-120.000000,-22.000000,109.000000,127.000000,-5.000000
1309788.436930,56.000000,4.000000,-8.000000,127.000000,18.000000,126.000000,-102.000000,4.000000
1309788.436954,52.000000,3.000000,29.000000,127.000000,34.000000,-128.000000,-62.000000,76.000000
1309788.437453,-9.000000,6.000000,-128.000000,-44.000000,-22.000000,54.000000,38.000000,-66.000000
1309788.437480,12.000000,-1.000000,12.000000,-128.000000,-52.000000,27.000000,49.000000,38.000000
1309788.438378,-2.000000,-15.000000,-80.000000,-92.000000,15.000000,14.000000,-33.000000,-14.000000
1309788.438386,-128.000000,0.000000,7.000000,79.000000,-7.000000,11.000000,-36.000000,-28.000000
1309788.439116,114.000000,-3.000000,39.000000,116.000000,8.000000,-44.000000,-18.000000,52.000000
1309788.439142,-82.000000,-5.000000,47.000000,127.000000,33.000000,-5.000000,-10.000000,-1.000000
1309788.440616,-88.000000,-2.000000,-76.000000,-128.000000,-29.000000,-25.000000,-31.000000,-26.000000
1309788.440624,127.000000,0.000000,31.000000,12.000000,18.000000,0.000000,6.000000,42.000000
1309788.451827,-114.000000,-8.000000,19.000000,-89.000000,-70.000000,-22.000000,-18.000000,-17.000000
1309788.451862,-36.000000,-10.000000,71.000000,127.000000,31.000000,127.000000,114.000000,-11.000000
1309788.460003,86.000000,7.000000,-49.000000,-29.000000,-31.000000,-128.000000,100.000000,22.000000
1309788.460012,127.000000,8.000000,-52.000000,-56.000000,-37.000000,-101.000000,26.000000,-11.000000
1309788.474534,89.000000,5.000000,-7.000000,-61.000000,5.000000,56.000000,127.000000,4.000000
1309788.474591,69.000000,7.000000,34.000000,48.000000,25.000000,8.000000,16.000000,-32.000000
1309788.481773,127.000000,6.000000,53.000000,-100.000000,-20.000000,35.000000,-128.000000,38.000000
1309788.481798,127.000000,-2.000000,-103.000000,-15.000000,-31.000000,-90.000000,24.000000,8.000000
1309788.489434,-51.000000,-9.000000,-6.000000,6.000000,11.000000,-12.000000,23.000000,55.000000
1309788.489463,-128.000000,7.000000,-59.000000,-21.000000,-32.000000,22.000000,-34.000000,-31.000000
1309788.519312,62.000000,-1.000000,-43.000000,-128.000000,-29.000000,-7.000000,-35.000000,-14.000000
1309788.519323,-22.000000,-2.000000,38.000000,66.000000,120.000000,24.000000,-29.000000,25.000000
1309788.534300,127.000000,-3.000000,66.000000,-40.000000,-39.000000,-6.000000,31.000000,3.000000
1309788.534310,35.000000,8.000000,-70.000000,1.000000,-40.000000,-25.000000,-128.000000,-34.000000
1309788.557145,14.000000,8.000000,77.000000,51.000000,22.000000,-3.000000,59.000000,6.000000
1309788.557165,8.000000,13.000000,-37.000000,-23.000000,1.000000,7.000000,-18.000000,-4.000000
1309788.579204,107.000000,-5.000000,20.000000,-71.000000,-51.000000,19.000000,-39.000000,-35.000000
1309788.579214,-82.000000,-9.000000,111.000000,127.000000,26.000000,-26.000000,42.000000,75.000000
1309788.602188,-5.000000,-5.000000,-53.000000,127.000000,86.000000,27.000000,88.000000,14.000000
1309788.602214,89.000000,4.000000,25.000000,-78.000000,-41.000000,0.000000,-64.000000,-29.000000
1309788.609455,-78.000000,-4.000000,22.000000,-30.000000,-20.000000,2.000000,-128.000000,-32.000000
1309788.609491,-10.000000,-10.000000,17.000000,-128.000000,-28.000000,15.000000,80.000000,4.000000
1309788.640164,6.000000,0.000000,-33.000000,-28.000000,-14.000000,-64.000000,31.000000,17.000000
1309788.640198,-53.000000,3.000000,-61.000000,-22.000000,-29.000000,39.000000,93.000000,-20.000000
1309788.654234,25.000000,-6.000000,-58.000000,-27.000000,13.000000,-1.000000,44.000000,6.000000
1309788.654244,80.000000,-7.000000,45.000000,23.000000,17.000000,6.000000,-91.000000,14.000000
1309788.677164,-9.000000,-5.000000,-13.000000,-102.000000,-28.000000,-20.000000,-64.000000,-20.000000
1309788.677172,-128.000000,9.000000,-78.000000,17.000000,-52.000000,67.000000,127.000000,-5.000000
1309788.678602,109.000000,-7.000000,89.000000,-38.000000,-23.000000,60.000000,-91.000000,28.000000
1309788.678610,-121.000000,-7.000000,18.000000,-15.000000,-1.000000,-66.000000,89.000000,8.000000
1309788.680631,-43.000000,-21.000000,51.000000,127.000000,42.000000,27.000000,48.000000,10.000000
1309788.680640,-113.000000,17.000000,-51.000000,-55.000000,-8.000000,-10.000000,-128.000000,-36.000000
1309788.691773,-5.000000,0.000000,17.000000,0.000000,-30.000000,6.000000,-27.000000,-55.000000
1309788.691791,48.000000,3.000000,-65.000000,-128.000000,-31.000000,34.000000,-117.000000,-21.000000
1309788.699113,-68.000000,-2.000000,-25.000000,64.000000,79.000000,-96.000000,40.000000,95.000000
1309788.699122,78.000000,-10.000000,-6.000000,-9.000000,3.000000,-8.000000,109.000000,3.000000
1309788.714258,-21.000000,12.000000,-35.000000,-36.000000,-14.000000,67.000000,127.000000,-39.000000
1309788.714286,38.000000,-2.000000,-23.000000,2.000000,-10.000000,-5.000000,-128.000000,-24.000000
1309788.736777,59.000000,-10.000000,70.000000,3.000000,1.000000,-27.000000,70.000000,-5.000000
1309788.736787,-29.000000,3.000000,-57.000000,50.000000,36.000000,34.000000,8.000000,4.000000
1309788.751696,127.000000,2.000000,24.000000,-4.000000,-13.000000,7.000000,85.000000,26.000000
1309788.751706,-128.000000,4.000000,45.000000,-2.000000,26.000000,9.000000,41.000000,21.000000
1309788.774390,-128.000000,-5.000000,-7.000000,88.000000,-4.000000,53.000000,-77.000000,-34.000000
1309788.774402,59.000000,6.000000,31.000000,62.000000,39.000000,-71.000000,85.000000,16.000000
1309788.796834,127.000000,10.000000,-47.000000,12.000000,14.000000,21.000000,69.000000,24.000000
1309788.796850,-127.000000,-12.000000,-111.000000,-110.000000,-11.000000,4.000000,13.000000,-5.000000
1309788.812101,-39.000000,1.000000,110.000000,127.000000,-16.000000,26.000000,-128.000000,-26.000000
1309788.812109,-128.000000,-2.000000,-85.000000,-81.000000,16.000000,-42.000000,-5.000000,2.000000
1309788.812755,127.000000,-5.000000,25.000000,116.000000,42.000000,27.000000,80.000000,20.000000
1309788.812763,-128.000000,8.000000,16.000000,-41.000000,18.000000,-7.000000,-51.000000,-20.000000
1309788.814048,49.000000,-2.000000,48.000000,-43.000000,-21.000000,12.000000,72.000000,18.000000
1309788.814055,63.000000,12.000000,-78.000000,-10.000000,24.000000,-7.000000,-128.000000,15.000000
1309788.814801,-54.000000,3.000000,23.000000,-5.000000,0.000000,3.000000,20.000000,0.000000
1309788.814809,-42.000000,-1.000000,-107.000000,9.000000,13.000000,-11.000000,-104.000000,-82.000000
1309788.815568,56.000000,2.000000,-40.000000,-20.000000,-2.000000,6.000000,28.000000,-8.000000
1309788.815576,-50.000000,-6.000000,-85.000000,-84.000000,-52.000000,3.000000,-81.000000,-45.000000
1309788.819651,127.000000,-11.000000,127.000000,127.000000,107.000000,64.000000,115.000000,63.000000
1309788.819680,-6.000000,-3.000000,-98.000000,-77.000000,-79.000000,-62.000000,-128.000000,-26.000000
1309788.834277,-117.000000,8.000000,55.000000,16.000000,6.000000,16.000000,-3.000000,7.000000
1309788.834460,60.000000,0.000000,-69.000000,4.000000,-51.000000,-12.000000,-128.000000,-10.000000
1309788.849255,47.000000,5.000000,-39.000000,-51.000000,-3.000000,-21.000000,127.000000,-5.000000
1309788.849265,-16.000000,12.000000,-2.000000,63.000000,-14.000000,18.000000,-41.000000,16.000000
1309788.856896,35.000000,5.000000,41.000000,58.000000,-15.000000,16.000000,0.000000,12.000000
1309788.856905,-20.000000,-5.000000,-80.000000,5.000000,9.000000,-51.000000,-128.000000,-40.000000
1309788.879235,80.000000,11.000000,-30.000000,-23.000000,33.000000,32.000000,61.000000,14.000000
1309788.879245,-128.000000,-5.000000,18.000000,77.000000,28.000000,43.000000,64.000000,-24.000000
1309788.886590,127.000000,-3.000000,9.000000,-24.000000,-12.000000,-24.000000,44.000000,16.000000
1309788.886601,39.000000,2.000000,-34.000000,-44.000000,13.000000,-17.000000,-128.000000,-35.000000
1309788.894702,127.000000,5.000000,49.000000,-22.000000,12.000000,69.000000,83.000000,52.000000
1309788.894754,31.000000,-4.000000,17.000000,-19.000000,-7.000000,-50.000000,42.000000,44.000000
1309788.895293,127.000000,-5.000000,-40.000000,-55.000000,-12.000000,23.000000,-64.000000,-53.000000
1309788.895302,-13.000000,13.000000,50.000000,-109.000000,-9.000000,16.000000,95.000000,20.000000
1309788.916920,-128.000000,-2.000000,-20.000000,127.000000,65.000000,22.000000,-128.000000,-51.000000
1309788.916944,-53.000000,-2.000000,-21.000000,-98.000000,-17.000000,-64.000000,44.000000,-6.000000
1309788.917277,124.000000,-3.000000,-41.000000,-31.000000,-1.000000,17.000000,-43.000000,11.000000
1309788.917287,127.000000,2.000000,3.000000,19.000000,20.000000,-28.000000,-128.000000,13.000000
1309788.919088,-50.000000,-7.000000,53.000000,35.000000,13.000000,25.000000,127.000000,8.000000
1309788.919100,-18.000000,7.000000,-3.000000,-74.000000,-46.000000,-3.000000,13.000000,-23.000000
1309788.931725,29.000000,8.000000,23.000000,65.000000,-24.000000,14.000000,5.000000,-1.000000
1309788.931745,25.000000,1.000000,-75.000000,-21.000000,15.000000,1.000000,81.000000,15.000000
1309788.954301,55.000000,0.000000,127.000000,45.000000,3.000000,51.000000,-103.000000,-6.000000
1309788.954313,41.000000,9.000000,-72.000000,2.000000,-53.000000,-79.000000,29.000000,-43.000000
1309788.954729,-13.000000,-1.000000,-14.000000,103.000000,34.000000,-18.000000,-103.000000,-6.000000
1309788.954740,-70.000000,-3.000000,9.000000,-30.000000,-12.000000,-1.000000,127.000000,26.000000
1309788.969429,17.000000,5.000000,-8.000000,27.000000,-40.000000,-38.000000,-79.000000,0.000000
1309788.969446,-49.000000,-6.000000,-9.000000,-42.000000,-15.000000,29.000000,112.000000,7.000000
1309788.976674,50.000000,-11.000000,127.000000,36.000000,-6.000000,24.000000,-49.000000,-41.000000
1309788.976684,-32.000000,3.000000,-95.000000,13.000000,20.000000,15.000000,-128.000000,32.000000
1309788.991901,42.000000,2.000000,-21.000000,-128.000000,-30.000000,47.000000,127.000000,-31.000000
1309788.991910,80.000000,0.000000,-13.000000,-53.000000,10.000000,-35.000000,-128.000000,-1.000000
1309789.014300,127.000000,4.000000,-44.000000,-55.000000,-32.000000,-61.000000,127.000000,10.000000
1309789.014311,-31.000000,9.000000,5.000000,54.000000,-13.000000,59.000000,21.000000,-30.000000
1309789.029703,24.000000,-5.000000,-60.000000,127.000000,32.000000,-24.000000,47.000000,15.000000
1309789.029743,127.000000,-7.000000,84.000000,-128.000000,6.000000,12.000000,-63.000000,28.000000
1309789.030371,-128.000000,2.000000,66.000000,127.000000,-12.000000,-1.000000,-24.000000,-23.000000
1309789.030380,75.000000,-8.000000,68.000000,-46.000000,-41.000000,127.000000,127.000000,-31.000000
1309789.031558,-55.000000,-10.000000,-128.000000,-60.000000,-25.000000,-128.000000,-128.000000,24.000000
1309789.031566,4.000000,14.000000,33.000000,102.000000,1.000000,70.000000,127.000000,25.000000
1309789.032384,125.000000,14.000000,-46.000000,57.000000,45.000000,47.000000,-44.000000,-74.000000
1309789.032392,-3.000000,-1.000000,33.000000,-26.000000,9.000000,37.000000,-128.000000,37.000000
1309789.037228,-78.000000,-4.000000,-26.000000,-26.000000,17.000000,-78.000000,127.000000,-28.000000
1309789.037236,-68.000000,6.000000,19.000000,-14.000000,-26.000000,33.000000,127.000000,35.000000
1309789.051782,-55.000000,-1.000000,32.000000,38.000000,15.000000,-49.000000,-58.000000,-29.000000
1309789.051798,-47.000000,3.000000,-57.000000,-122.000000,-36.000000,2.000000,88.000000,-12.000000
1309789.074139,-20.000000,-2.000000,8.000000,-27.000000,7.000000,-24.000000,-82.000000,-12.000000
1309789.074150,-32.000000,2.000000,109.000000,127.000000,-7.000000,8.000000,-43.000000,-13.000000
1309789.074687,39.000000,-9.000000,-35.000000,-14.000000,-10.000000,-27.000000,-128.000000,2.000000
1309789.074705,33.000000,-6.000000,-5.000000,-82.000000,-13.000000,-26.000000,-128.000000,-2.000000
1309789.089424,102.000000,0.000000,-64.000000,-104.000000,8.000000,-19.000000,127.000000,5.000000
1309789.089434,-43.000000,-4.000000,-75.000000,28.000000,25.000000,6.000000,-128.000000,-7.000000
1309789.096697,-8.000000,9.000000,17.000000,53.000000,-5.000000,19.000000,-3.000000,-24.000000
1309789.096707,-16.000000,-1.000000,7.000000,94.000000,-9.000000,-29.000000,127.000000,12.000000
1309789.134510,-27.000000,-4.000000,-6.000000,-128.000000,1.000000,12.000000,-128.000000,-9.000000
1309789.134520,120.000000,2.000000,15.000000,-80.000000,-19.000000,18.000000,127.000000,1.000000
1309789.149347,127.000000,3.000000,-1.000000,4.000000,4.000000,-30.000000,-128.000000,21.000000
1309789.149362,-55.000000,1.000000,45.000000,-1.000000,-5.000000,29.000000,127.000000,5.000000
1309789.164182,-10.000000,1.000000,-72.000000,-4.000000,-12.000000,-71.000000,-28.000000,-38.000000
1309789.164204,-71.000000,3.000000,16.000000,13.000000,19.000000,64.000000,127.000000,-12.000000
1309789.171777,6.000000,-5.000000,-18.000000,-18.000000,9.000000,-51.000000,-128.000000,15.000000
1309789.171796,7.000000,-11.000000,10.000000,46.000000,-2.000000,-1.000000,13.000000,-8.000000
1309789.209261,51.000000,3.000000,-6.000000,-80.000000,-29.000000,27.000000,28.000000,-9.000000
1309789.209279,-57.000000,3.000000,-13.000000,-72.000000,-28.000000,35.000000,127.000000,-27.000000
1309789.209805,8.000000,-1.000000,-128.000000,-43.000000,-26.000000,-35.000000,-116.000000,0.000000
1309789.209821,-108.000000,-6.000000,-5.000000,-25.000000,27.000000,-49.000000,-40.000000,7.000000
1309789.210212,-100.000000,1.000000,-17.000000,-42.000000,26.000000,26.000000,-62.000000,17.000000
1309789.210220,-54.000000,9.000000,-18.000000,46.000000,-22.000000,40.000000,8.000000,5.000000
1309789.211558,43.000000,3.000000,-82.000000,-46.000000,-30.000000,-76.000000,-112.000000,20.000000
1309789.211576,-71.000000,-9.000000,4.000000,-23.000000,24.000000,63.000000,101.000000,-14.000000
1309789.212260,11.000000,6.000000,-36.000000,-116.000000,-45.000000,1.000000,37.000000,5.000000
1309789.212268,-74.000000,-3.000000,-23.000000,40.000000,17.000000,19.000000,127.000000,-26.000000
1309789.213071,-128.000000,-1.000000,42.000000,127.000000,100.000000,83.000000,-88.000000,-18.000000
1309789.213082,25.000000,-4.000000,-64.000000,-128.000000,-14.000000,30.000000,-128.000000,-31.000000
1309789.231799,85.000000,-4.000000,112.000000,127.000000,-10.000000,-23.000000,127.000000,37.000000
1309789.231811,-128.000000,7.000000,-62.000000,1.000000,-36.000000,31.000000,22.000000,-53.000000
1309789.232168,127.000000,0.000000,-31.000000,-128.000000,-24.000000,5.000000,-22.000000,-21.000000
1309789.232178,-30.000000,-9.000000,62.000000,118.000000,38.000000,-5.000000,-86.000000,-21.000000
1309789.247004,3.000000,6.000000,39.000000,87.000000,-2.000000,6.000000,127.000000,42.000000
1309789.247014,-57.000000,9.000000,-41.000000,-47.000000,21.000000,-4.000000,-33.000000,-7.000000
1309789.254314,7.000000,-8.000000,-86.000000,-31.000000,10.000000,-28.000000,-128.000000,-10.000000
1309789.254333,70.000000,-6.000000,-3.000000,-128.000000,-3.000000,-5.000000,30.000000,2.000000
1309789.269175,-1.000000,7.000000,-109.000000,-114.000000,-27.000000,-39.000000,-128.000000,-53.000000
1309789.269185,-37.000000,5.000000,29.000000,25.000000,31.000000,46.000000,11.000000,32.000000
1309789.269902,86.000000,0.000000,-85.000000,-25.000000,-31.000000,-79.000000,-128.000000,61.000000
1309789.269911,40.000000,13.000000,-76.000000,-23.000000,9.000000,-62.000000,-128.000000,-40.000000
1309789.292589,127.000000,-4.000000,69.000000,79.000000,89.000000,70.000000,123.000000,-14.000000
1309789.292623,63.000000,-8.000000,1.000000,-6.000000,10.000000,36.000000,-128.000000,-1.000000
1309789.293222,-8.000000,1.000000,-33.000000,-20.000000,-37.000000,18.000000,64.000000,-16.000000
1309789.293249,17.000000,10.000000,-13.000000,-123.000000,77.000000,6.000000,-32.000000,6.000000
1309789.307133,31.000000,-7.000000,86.000000,57.000000,41.000000,74.000000,127.000000,11.000000
1309789.307160,-10.000000,1.000000,-84.000000,-128.000000,-54.000000,-124.000000,-128.000000,-26.000000
1309789.315370,4.000000,10.000000,127.000000,127.000000,17.000000,1.000000,114.000000,17.000000
1309789.315380,-76.000000,-9.000000,-62.000000,-25.000000,-45.000000,2.000000,32.000000,-23.000000
1309789.352016,-62.000000,-6.000000,127.000000,43.000000,56.000000,21.000000,-6.000000,-2.000000
1309789.352051,-32.000000,4.000000,22.000000,-38.000000,9.000000,12.000000,-3.000000,-20.000000
1309789.366736,127.000000,-13.000000,-24.000000,-24.000000,-28.000000,-37.000000,-25.000000,6.000000
1309789.366760,72.000000,-2.000000,22.000000,127.000000,36.000000,2.000000,26.000000,51.000000
1309789.389205,-66.000000,3.000000,52.000000,-31.000000,8.000000,4.000000,-47.000000,2.000000
1309789.389223,-122.000000,1.000000,24.000000,-26.000000,1.000000,56.000000,-128.000000,-22.000000
1309789.389701,-128.000000,-4.000000,-53.000000,21.000000,44.000000,-80.000000,-38.000000,54.000000
1309789.389720,-11.000000,2.000000,-20.000000,-30.000000,-10.000000,-31.000000,127.000000,28.000000
1309789.390936,-3.000000,-5.000000,-26.000000,-22.000000,-19.000000,18.000000,-57.000000,-104.000000
1309789.390945,127.000000,-6.000000,-11.000000,-4.000000,3.000000,20.000000,-114.000000,105.000000
1309789.391456,-128.000000,0.000000,-7.000000,10.000000,4.000000,-4.000000,127.000000,-22.000000
1309789.391465,127.000000,-3.000000,-1.000000,30.000000,11.000000,-32.000000,-128.000000,-8.000000
1309789.392141,3.000000,4.000000,-3.000000,68.000000,8.000000,22.000000,59.000000,29.000000
1309789.392158,-128.000000,-7.000000,102.000000,127.000000,-7.000000,-2.000000,10.000000,-10.000000
1309789.393098,13.000000,-4.000000,-30.000000,-106.000000,1.000000,5.000000,-9.000000,-26.000000
1309789.393106,127.000000,6.000000,-124.000000,-89.000000,-9.000000,5.000000,31.000000,-50.000000
1309789.412054,20.000000,0.000000,-6.000000,-15.000000,25.000000,20.000000,-128.000000,71.000000
1309789.412063,6.000000,7.000000,44.000000,-55.000000,-40.000000,-72.000000,-43.000000,15.000000
1309789.412720,-106.000000,7.000000,-69.000000,-44.000000,-24.000000,-18.000000,-25.000000,-15.000000
1309789.412747,127.000000,-3.000000,93.000000,75.000000,8.000000,33.000000,67.000000,-21.000000
1309789.426941,5.000000,-3.000000,7.000000,19.000000,42.000000,41.000000,-128.000000,-30.000000
1309789.426953,127.000000,5.000000,-30.000000,85.000000,-37.000000,-74.000000,121.000000,12.000000
1309789.434707,-128.000000,-3.000000,-41.000000,8.000000,-20.000000,18.000000,117.000000,-47.000000
1309789.434724,127.000000,0.000000,27.000000,10.000000,8.000000,-10.000000,-95.000000,-1.000000
1309789.449184,-128.000000,4.000000,23.000000,-86.000000,-16.000000,19.000000,22.000000,7.000000
1309789.449194,52.000000,3.000000,67.000000,-105.000000,-12.000000,113.000000,127.000000,-14.000000
1309789.472550,-128.000000,-5.000000,-75.000000,-47.000000,5.000000,-128.000000,-9.000000,22.000000
1309789.472566,127.000000,2.000000,34.000000,71.000000,-24.000000,24.000000,-41.000000,-19.000000
1309789.509261,127.000000,2.000000,93.000000,75.000000,66.000000,81.000000,127.000000,89.000000
1309789.509280,-41.000000,0.000000,-18.000000,-54.000000,-17.000000,-54.000000,-128.000000,-35.000000
1309789.509670,10.000000,-10.000000,-13.000000,-118.000000,-51.000000,-72.000000,-128.000000,-14.000000
1309789.509692,-45.000000,10.000000,-81.000000,-128.000000,-25.000000,21.000000,13.000000,-34.000000
1309789.510799,-108.000000,-4.000000,46.000000,-109.000000,61.000000,39.000000,22.000000,77.000000
1309789.510821,86.000000,-2.000000,-82.000000,-47.000000,-68.000000,-29.000000,-128.000000,-25.000000
1309789.511435,-61.000000,5.000000,40.000000,-95.000000,11.000000,-16.000000,64.000000,12.000000
1309789.511457,127.000000,-1.000000,-117.000000,24.000000,-52.000000,21.000000,-70.000000,-51.000000
1309789.513010,127.000000,0.000000,31.000000,52.000000,23.000000,30.000000,127.000000,31.000000
1309789.513032,-103.000000,1.000000,-78.000000,-95.000000,-43.000000,-126.000000,-128.000000,-4.000000
1309789.525251,77.000000,-5.000000,-62.000000,-35.000000,-17.000000,34.000000,99.000000,0.000000
1309789.525259,-121.000000,2.000000,90.000000,106.000000,14.000000,-6.000000,-96.000000,-22.000000
1309789.531478,127.000000,-1.000000,58.000000,127.000000,-24.000000,-13.000000,44.000000,6.000000
1309789.531487,-128.000000,-9.000000,-128.000000,-1.000000,-7.000000,-22.000000,-100.000000,-46.000000
1309789.546999,27.000000,5.000000,127.000000,90.000000,54.000000,10.000000,39.000000,-43.000000
1309789.547019,127.000000,3.000000,-50.000000,-50.000000,-19.000000,14.000000,-15.000000,65.000000
1309789.569551,-110.000000,0.000000,40.000000,82.000000,-53.000000,-22.000000,-36.000000,-37.000000
1309789.569580,66.000000,17.000000,-6.000000,-53.000000,-11.000000,57.000000,43.000000,10.000000
1309789.591937,-76.000000,7.000000,83.000000,-128.000000,-39.000000,-19.000000,-128.000000,-29.000000
1309789.591956,-8.000000,-7.000000,-43.000000,36.000000,14.000000,-91.000000,115.000000,49.000000
1309789.606701,-90.000000,-9.000000,-4.000000,-37.000000,58.000000,53.000000,88.000000,-22.000000
1309789.606718,-29.000000,1.000000,96.000000,54.000000,-6.000000,10.000000,19.000000,-38.000000
1309789.608075,42.000000,-7.000000,38.000000,-37.000000,-30.000000,20.000000,48.000000,-7.000000
1309789.608106,-119.000000,-22.000000,-42.000000,-104.000000,-19.000000,-64.000000,-128.000000,-17.000000
1309789.608471,70.000000,4.000000,-1.000000,-30.000000,20.000000,58.000000,127.000000,-8.000000
1309789.608481,127.000000,8.000000,4.000000,25.000000,23.000000,-27.000000,-128.000000,109.000000
1309789.610424,-128.000000,3.000000,-72.000000,2.000000,18.000000,12.000000,84.000000,-14.000000
1309789.610448,127.000000,2.000000,35.000000,-12.000000,-24.000000,-37.000000,-64.000000,-13.000000
1309789.629462,-76.000000,2.000000,-67.000000,-19.000000,18.000000,-22.000000,-128.000000,-27.000000
1309789.629479,-14.000000,-7.000000,-35.000000,44.000000,-4.000000,21.000000,127.000000,21.000000
1309789.630433,9.000000,-1.000000,-37.000000,5.000000,30.000000,-89.000000,-128.000000,-6.000000
1309789.630442,-42.000000,6.000000,-81.000000,52.000000,19.000000,28.000000,111.000000,-6.000000
1309789.631143,127.000000,-7.000000,14.000000,-62.000000,-52.000000,-7.000000,-9.000000,-6.000000
1309789.631152,-68.000000,1.000000,-128.000000,-126.000000,-32.000000,41.000000,20.000000,-27.000000
1309789.645091,30.000000,11.000000,127.000000,127.000000,65.000000,-39.000000,-40.000000,26.000000
1309789.645101,-40.000000,-1.000000,2.000000,-109.000000,-44.000000,18.000000,68.000000,48.000000
1309789.652133,5.000000,-1.000000,-118.000000,-54.000000,-34.000000,-18.000000,4.000000,-39.000000
1309789.652146,-128.000000,0.000000,26.000000,-94.000000,-44.000000,-19.000000,-128.000000,-52.000000
1309789.689525,-128.000000,10.000000,25.000000,23.000000,15.000000,-20.000000,127.000000,29.000000
1309789.689547,127.000000,-1.000000,-1.000000,-12.000000,-24.000000,-33.000000,-128.000000,-23.000000
1309789.704361,100.000000,-7.000000,-70.000000,6.000000,1.000000,8.000000,127.000000,39.000000
1309789.704371,-104.000000,-5.000000,34.000000,-28.000000,29.000000,-54.000000,-128.000000,-34.000000
1309789.719602,-128.000000,-17.000000,-62.000000,-79.000000,-33.000000,3.000000,123.000000,43.000000
1309789.719621,127.000000,-4.000000,76.000000,-36.000000,19.000000,97.000000,127.000000,15.000000
1309789.726579,4.000000,-3.000000,-46.000000,-99.000000,-50.000000,-123.000000,-128.000000,-27.000000
1309789.726589,-109.000000,4.000000,-28.000000,-75.000000,6.000000,23.000000,-85.000000,-29.000000
1309789.727917,-93.000000,-3.000000,-9.000000,-17.000000,-33.000000,-128.000000,86.000000,30.000000
1309789.727935,20.000000,4.000000,97.000000,127.000000,93.000000,127.000000,127.000000,80.000000
1309789.728571,26.000000,1.000000,-26.000000,-83.000000,-55.000000,20.000000,-21.000000,-33.000000
1309789.728598,-128.000000,-8.000000,-53.000000,-128.000000,-20.000000,6.000000,-66.000000,-26.000000
1309789.729338,127.000000,10.000000,112.000000,127.000000,32.000000,-20.000000,-128.000000,-9.000000
1309789.729347,-128.000000,13.000000,-77.000000,87.000000,-24.000000,-9.000000,96.000000,1.000000
1309789.749222,-121.000000,-10.000000,-45.000000,-71.000000,-26.000000,-3.000000,9.000000,-18.000000
1309789.749233,-36.000000,-4.000000,-49.000000,-78.000000,12.000000,12.000000,11.000000,-17.000000
1309789.750419,-83.000000,3.000000,45.000000,-101.000000,-21.000000,6.000000,101.000000,-49.000000
1309789.750427,57.000000,-7.000000,-40.000000,1.000000,34.000000,-124.000000,-56.000000,47.000000
1309789.751438,78.000000,-15.000000,-85.000000,-91.000000,-3.000000,55.000000,-128.000000,2.000000
1309789.751449,127.000000,3.000000,22.000000,127.000000,14.000000,-102.000000,127.000000,3.000000
1309789.764458,-128.000000,4.000000,20.000000,-109.000000,-60.000000,32.000000,78.000000,-2.000000
1309789.764473,41.000000,0.000000,-46.000000,-35.000000,15.000000,16.000000,92.000000,2.000000
1309789.786816,-128.000000,-5.000000,56.000000,-21.000000,21.000000,34.000000,22.000000,-49.000000
1309789.786827,-43.000000,8.000000,6.000000,19.000000,19.000000,-41.000000,-128.000000,-52.000000
1309789.802101,38.000000,-10.000000,127.000000,126.000000,95.000000,31.000000,77.000000,30.000000
1309789.802130,5.000000,-5.000000,-128.000000,-98.000000,-19.000000,-14.000000,-43.000000,-1.000000
1309789.809505,-2.000000,-5.000000,47.000000,114.000000,-22.000000,-11.000000,-17.000000,-32.000000
1309789.809524,14.000000,6.000000,127.000000,127.000000,31.000000,17.000000,-13.000000,20.000000
1309789.846911,-128.000000,-5.000000,-76.000000,-128.000000,43.000000,8.000000,-45.000000,-21.000000
1309789.846922,-69.000000,9.000000,-23.000000,-128.000000,6.000000,-5.000000,-26.000000,-13.000000
1309789.861882,105.000000,3.000000,-35.000000,-75.000000,-6.000000,-3.000000,-3.000000,18.000000
1309789.861911,91.000000,-7.000000,-11.000000,-27.000000,-19.000000,-23.000000,-13.000000,4.000000
1309789.862971,-128.000000,0.000000,-80.000000,-10.000000,-13.000000,3.000000,-20.000000,-14.000000
1309789.862982,-3.000000,1.000000,46.000000,-10.000000,-20.000000,6.000000,79.000000,26.000000
1309789.863558,-128.000000,-8.000000,1.000000,-2.000000,-7.000000,-4.000000,-53.000000,-66.000000
1309789.863580,127.000000,-6.000000,-55.000000,15.000000,21.000000,32.000000,35.000000,60.000000
1309789.864974,-24.000000,19.000000,41.000000,10.000000,-22.000000,-63.000000,-122.000000,-22.000000
1309789.864994,-128.000000,2.000000,-6.000000,-5.000000,7.000000,39.000000,80.000000,34.000000
1309789.865826,-49.000000,-1.000000,-40.000000,46.000000,46.000000,39.000000,87.000000,-11.000000
1309789.865854,-67.000000,-7.000000,-4.000000,17.000000,-2.000000,12.000000,-76.000000,13.000000
1309789.884990,50.000000,-6.000000,28.000000,-40.000000,32.000000,21.000000,127.000000,12.000000
1309789.885005,-128.000000,4.000000,127.000000,81.000000,26.000000,24.000000,-114.000000,3.000000
1309789.885593,96.000000,0.000000,-25.000000,24.000000,-4.000000,-81.000000,-118.000000,5.000000
1309789.885602,-43.000000,-1.000000,-10.000000,-26.000000,-22.000000,14.000000,34.000000,-2.000000
1309789.921664,46.000000,1.000000,58.000000,-93.000000,60.000000,21.000000,55.000000,3.000000
1309789.921675,-97.000000,4.000000,-62.000000,-86.000000,-14.000000,1.000000,79.000000,-14.000000
1309789.929340,127.000000,-12.000000,-3.000000,25.000000,-58.000000,-50.000000,4.000000,40.000000
1309789.929349,76.000000,5.000000,-36.000000,-24.000000,-6.000000,4.000000,-20.000000,-39.000000
1309789.966878,15.000000,5.000000,32.000000,-14.000000,-12.000000,-5.000000,-19.000000,-26.000000
1309789.966896,57.000000,4.000000,-20.000000,-43.000000,-2.000000,19.000000,39.000000,-6.000000
1309789.989563,-128.000000,0.000000,99.000000,127.000000,46.000000,36.000000,20.000000,17.000000
1309789.989591,-128.000000,5.000000,-75.000000,-5.000000,42.000000,-10.000000,-128.000000,-26.000000
1309790.004857,121.000000,2.000000,39.000000,-3.000000,-18.000000,-26.000000,-85.000000,4.000000
1309790.004875,119.000000,-3.000000,4.000000,-22.000000,24.000000,51.000000,127.000000,-20.000000
1309790.005417,29.000000,-4.000000,-18.000000,4.000000,3.000000,-23.000000,56.000000,-25.000000
1309790.005445,-76.000000,3.000000,13.000000,2.000000,-24.000000,12.000000,-128.000000,13.000000
1309790.007352,73.000000,3.000000,-57.000000,-53.000000,-47.000000,-7.000000,-128.000000,-31.000000
1309790.007362,-128.000000,-4.000000,-21.000000,126.000000,0.000000,-23.000000,-128.000000,-8.000000
1309790.008221,-33.000000,-13.000000,7.000000,-9.000000,-33.000000,-89.000000,-48.000000,-20.000000
1309790.008244,30.000000,3.000000,-3.000000,0.000000,-15.000000,76.000000,127.000000,41.000000
1309790.042082,24.000000,9.000000,-33.000000,0.000000,14.000000,-126.000000,-128.000000,-20.000000
1309790.042102,-128.000000,-8.000000,37.000000,4.000000,1.000000,22.000000,52.000000,27.000000
1309790.064568,113.000000,3.000000,14.000000,-16.000000,10.000000,21.000000,114.000000,-20.000000
1309790.064586,-15.000000,12.000000,13.000000,29.000000,1.000000,19.000000,24.000000,-21.000000
1309790.087415,0.000000,0.000000,-75.000000,-70.000000,-64.000000,43.000000,-128.000000,-13.000000
1309790.087516,108.000000,8.000000,87.000000,127.000000,116.000000,-61.000000,-30.000000,69.000000
1309790.087793,-44.000000,2.000000,75.000000,81.000000,-12.000000,15.000000,69.000000,-31.000000
1309790.087805,30.000000,-9.000000,-56.000000,-72.000000,-53.000000,57.000000,127.000000,33.000000
1309790.088724,54.000000,1.000000,-19.000000,115.000000,20.000000,-20.000000,-128.000000,-47.000000
1309790.088753,-128.000000,9.000000,127.000000,98.000000,-8.000000,29.000000,127.000000,0.000000
1309790.089344,127.000000,5.000000,0.000000,-114.000000,8.000000,-101.000000,-109.000000,28.000000
1309790.089371,-77.000000,-5.000000,93.000000,-25.000000,-37.000000,119.000000,127.000000,-40.000000
1309790.089979,42.000000,-9.000000,-62.000000,-36.000000,13.000000,-86.000000,124.000000,39.000000
1309790.089987,127.000000,-9.000000,-23.000000,24.000000,4.000000,40.000000,-47.000000,-14.000000
1309790.102436,-113.000000,10.000000,-5.000000,-24.000000,4.000000,31.000000,14.000000,-29.000000
1309790.102445,87.000000,2.000000,20.000000,-3.000000,-4.000000,6.000000,-89.000000,-36.000000
1309790.103061,127.000000,-16.000000,25.000000,-128.000000,-113.000000,10.000000,-128.000000,-26.000000
1309790.103080,22.000000,4.000000,4.000000,127.000000,98.000000,28.000000,-128.000000,47.000000
1309790.124655,-42.000000,9.000000,13.000000,37.000000,-1.000000,-51.000000,127.000000,43.000000
1309790.124664,-128.000000,-7.000000,29.000000,-86.000000,-56.000000,18.000000,51.000000,-20.000000
1309790.125468,25.000000,-10.000000,27.000000,127.000000,38.000000,15.000000,-34.000000,-12.000000
1309790.125476,-46.000000,8.000000,36.000000,105.000000,-34.000000,4.000000,-32.000000,-2.000000
1309790.147006,127.000000,-9.000000,-23.000000,-128.000000,-10.000000,14.000000,-4.000000,8.000000
1309790.147025,41.000000,-11.000000,-61.000000,-50.000000,-31.000000,-27.000000,-86.000000,-18.000000
1309790.162009,-84.000000,7.000000,109.000000,-12.000000,7.000000,-2.000000,-5.000000,0.000000
1309790.162058,15.000000,1.000000,26.000000,-27.000000,-13.000000,30.000000,-113.000000,-17.000000
1309790.199317,58.000000,-5.000000,-28.000000,-15.000000,-1.000000,50.000000,115.000000,13.000000
1309790.199333,127.000000,2.000000,-37.000000,31.000000,5.000000,-128.000000,90.000000,18.000000
1309790.199812,-128.000000,0.000000,-73.000000,8.000000,26.000000,20.000000,0.000000,-25.000000
1309790.199831,49.000000,-6.000000,80.000000,28.000000,-2.000000,-37.000000,-42.000000,-41.000000
1309790.201256,9.000000,-9.000000,66.000000,-13.000000,7.000000,48.000000,77.000000,-11.000000
1309790.201269,-23.000000,7.000000,-8.000000,-46.000000,-24.000000,90.000000,-71.000000,35.000000
1309790.201806,2.000000,-6.000000,-95.000000,-9.000000,-6.000000,-128.000000,82.000000,28.000000
1309790.201846,70.000000,6.000000,12.000000,-122.000000,2.000000,43.000000,127.000000,-2.000000
1309790.206850,63.000000,-10.000000,-78.000000,4.000000,10.000000,45.000000,127.000000,31.000000
1309790.206861,-89.000000,-5.000000,75.000000,-41.000000,12.000000,-87.000000,-128.000000,-5.000000
1309790.222178,109.000000,6.000000,-61.000000,-44.000000,-31.000000,4.000000,-18.000000,-46.000000
1309790.222187,78.000000,-14.000000,50.000000,120.000000,5.000000,29.000000,85.000000,25.000000
1309790.223002,-128.000000,-2.000000,39.000000,90.000000,40.000000,-11.000000,-128.000000,-61.000000
1309790.223011,-77.000000,0.000000,-128.000000,-23.000000,-27.000000,-62.000000,127.000000,85.000000
1309790.244662,119.000000,-3.000000,29.000000,62.000000,18.000000,56.000000,83.000000,65.000000
1309790.244671,-64.000000,-6.000000,-128.000000,-26.000000,7.000000,15.000000,-19.000000,-106.000000
1309790.245713,73.000000,-4.000000,-43.000000,-50.000000,-28.000000,-44.000000,-128.000000,-20.000000
1309790.245729,-56.000000,-4.000000,-38.000000,-5.000000,-7.000000,-27.000000,127.000000,62.000000
1309790.266705,127.000000,-3.000000,-35.000000,41.000000,-24.000000,80.000000,127.000000,-54.000000
1309790.266714,-128.000000,10.000000,-27.000000,-30.000000,30.000000,-38.000000,-128.000000,63.000000
1309790.282209,-118.000000,-3.000000,15.000000,8.000000,-33.000000,6.000000,-128.000000,-30.000000
1309790.282227,127.000000,-3.000000,127.000000,88.000000,48.000000,-14.000000,127.000000,82.000000
1309790.319515,-128.000000,0.000000,-69.000000,-104.000000,12.000000,27.000000,-47.000000,6.000000
1309790.319539,55.000000,-4.000000,-31.000000,84.000000,-34.000000,19.000000,30.000000,-68.000000
1309790.320020,127.000000,1.000000,8.000000,-86.000000,-65.000000,-35.000000,-89.000000,3.000000
1309790.320034,-29.000000,-5.000000,-6.000000,111.000000,-18.000000,69.000000,127.000000,24.000000
1309790.321259,-27.000000,-1.000000,111.000000,-9.000000,23.000000,-96.000000,-128.000000,16.000000
1309790.321338,-128.000000,-8.000000,-53.000000,-85.000000,-48.000000,-13.000000,106.000000,0.000000
1309790.321904,127.000000,-7.000000,44.000000,75.000000,-2.000000,3.000000,-94.000000,-59.000000
1309790.321914,-8.000000,-3.000000,-24.000000,-40.000000,-5.000000,43.000000,47.000000,32.000000
1309790.342011,-21.000000,1.000000,45.000000,-4.000000,3.000000,40.000000,127.000000,-71.000000
1309790.342022,62.000000,1.000000,-47.000000,25.000000,16.000000,-78.000000,74.000000,50.000000
1309790.342908,127.000000,-13.000000,8.000000,3.000000,6.000000,23.000000,8.000000,-22.000000
1309790.342918,-2.000000,-1.000000,6.000000,-34.000000,-5.000000,11.000000,-44.000000,-16.000000
1309790.343916,24.000000,2.000000,65.000000,83.000000,46.000000,28.000000,-19.000000,23.000000
1309790.343945,-71.000000,5.000000,-53.000000,-120.000000,-19.000000,-14.000000,-7.000000,-6.000000
1309790.357426,-128.000000,-2.000000,10.000000,34.000000,12.000000,-5.000000,-41.000000,-87.000000
1309790.357463,127.000000,-3.000000,-2.000000,31.000000,15.000000,7.000000,11.000000,77.000000
1309790.364157,-32.000000,-6.000000,-14.000000,18.000000,-31.000000,-5.000000,-14.000000,-44.000000
1309790.364174,-46.000000,-3.000000,38.000000,85.000000,11.000000,-10.000000,3.000000,43.000000
1309790.379204,-57.000000,-5.000000,27.000000,-44.000000,49.000000,23.000000,-12.000000,-20.000000
1309790.379214,7.000000,10.000000,-18.000000,-59.000000,-26.000000,-1.000000,-4.000000,26.000000
1309790.386873,72.000000,0.000000,42.000000,127.000000,18.000000,28.000000,0.000000,-4.000000
1309790.386897,-56.000000,2.000000,-92.000000,32.000000,8.000000,-28.000000,92.000000,-32.000000
1309790.417098,35.000000,7.000000,87.000000,48.000000,12.000000,1.000000,19.000000,51.000000
1309790.417119,-86.000000,-8.000000,-37.000000,-30.000000,20.000000,-51.000000,-96.000000,-100.000000
1309790.424371,127.000000,-10.000000,-63.000000,-29.000000,3.000000,-15.000000,127.000000,127.000000
1309790.424388,27.000000,6.000000,-6.000000,10.000000,18.000000,18.000000,102.000000,-11.000000
1309790.439277,-39.000000,6.000000,71.000000,5.000000,-16.000000,78.000000,-128.000000,-31.000000
1309790.439298,37.000000,-11.000000,-79.000000,-45.000000,-37.000000,-117.000000,-19.000000,17.000000
1309790.461869,-128.000000,-6.000000,10.000000,-68.000000,-21.000000,109.000000,-7.000000,-41.000000
1309790.461881,-81.000000,14.000000,35.000000,79.000000,20.000000,-52.000000,-128.000000,42.000000
1309790.477413,17.000000,-4.000000,-42.000000,-38.000000,1.000000,22.000000,76.000000,-39.000000
1309790.477437,127.000000,-3.000000,86.000000,103.000000,25.000000,6.000000,78.000000,8.000000
1309790.478239,-128.000000,3.000000,-16.000000,-38.000000,16.000000,1.000000,45.000000,5.000000
1309790.478257,117.000000,-12.000000,21.000000,24.000000,-29.000000,-9.000000,-6.000000,-10.000000
1309790.484957,85.000000,11.000000,-28.000000,-11.000000,24.000000,-7.000000,-48.000000,3.000000
1309790.484975,-52.000000,0.000000,105.000000,127.000000,4.000000,-7.000000,-42.000000,-13.000000
1309790.485719,99.000000,-1.000000,46.000000,-16.000000,17.000000,10.000000,29.000000,35.000000
1309790.485735,-72.000000,-7.000000,-7.000000,-18.000000,3.000000,1.000000,17.000000,0.000000
1309790.486120,23.000000,-8.000000,-4.000000,-108.000000,-41.000000,0.000000,-88.000000,-32.000000
1309790.486128,-26.000000,-3.000000,-12.000000,-7.000000,-18.000000,60.000000,-128.000000,-11.000000
1309790.486924,127.000000,1.000000,-37.000000,-17.000000,-23.000000,-86.000000,50.000000,34.000000
1309790.486933,-70.000000,4.000000,-6.000000,10.000000,-22.000000,11.000000,127.000000,13.000000
1309790.521935,52.000000,-2.000000,-2.000000,-34.000000,17.000000,37.000000,-128.000000,4.000000
1309790.521945,-36.000000,-1.000000,5.000000,-40.000000,-37.000000,-21.000000,-128.000000,-32.000000
1309790.536811,-4.000000,-20.000000,20.000000,2.000000,-1.000000,35.000000,127.000000,14.000000
1309790.536828,-22.000000,0.000000,-12.000000,-67.000000,-18.000000,-21.000000,-96.000000,-12.000000
1309790.559187,-9.000000,-5.000000,25.000000,-69.000000,-18.000000,35.000000,41.000000,-10.000000
1309790.559198,-128.000000,-9.000000,-40.000000,-19.000000,39.000000,-14.000000,-128.000000,-26.000000
1309790.559757,-21.000000,7.000000,-53.000000,-128.000000,-38.000000,19.000000,104.000000,-9.000000
1309790.559768,127.000000,3.000000,32.000000,-50.000000,19.000000,-31.000000,-66.000000,59.000000
1309790.560981,26.000000,-8.000000,-62.000000,-95.000000,-7.000000,10.000000,11.000000,-25.000000
1309790.560990,-8.000000,-4.000000,56.000000,59.000000,30.000000,18.000000,-12.000000,-10.000000
1309790.561661,52.000000,14.000000,31.000000,13.000000,-9.000000,9.000000,-58.000000,-12.000000
1309790.561681,-85.000000,-5.000000,41.000000,53.000000,5.000000,8.000000,-10.000000,2.000000
1309790.581614,-47.000000,5.000000,-81.000000,-2.000000,-1.000000,27.000000,104.000000,47.000000
1309790.581630,29.000000,-6.000000,22.000000,50.000000,5.000000,-1.000000,-128.000000,-34.000000
1309790.582857,77.000000,9.000000,-4.000000,8.000000,39.000000,-11.000000,103.000000,15.000000
1309790.582875,-128.000000,-5.000000,44.000000,106.000000,9.000000,8.000000,-19.000000,-30.000000
1309790.583690,127.000000,-7.000000,-48.000000,-12.000000,-3.000000,7.000000,-111.000000,42.000000
1309790.583708,-21.000000,-2.000000,39.000000,4.000000,-15.000000,24.000000,87.000000,-20.000000
1309790.597727,-96.000000,13.000000,15.000000,-26.000000,23.000000,-3.000000,102.000000,14.000000
1309790.597755,127.000000,-6.000000,-68.000000,-104.000000,-75.000000,-88.000000,-128.000000,-10.000000
1309790.619394,-128.000000,-4.000000,16.000000,14.000000,14.000000,9.000000,61.000000,-23.000000
1309790.619404,60.000000,-8.000000,-36.000000,-114.000000,-32.000000,60.000000,43.000000,18.000000
1309790.657331,95.000000,-4.000000,18.000000,-67.000000,9.000000,0.000000,-110.000000,-5.000000
1309790.657352,127.000000,-8.000000,66.000000,-49.000000,-23.000000,-26.000000,10.000000,15.000000
1309790.671774,-41.000000,6.000000,58.000000,-43.000000,0.000000,1.000000,-59.000000,-21.000000
1309790.671792,-54.000000,0.000000,-89.000000,-37.000000,-24.000000,-7.000000,26.000000,-8.000000
1309790.679602,127.000000,4.000000,-32.000000,67.000000,-7.000000,-8.000000,-128.000000,-7.000000
1309790.679630,-87.000000,5.000000,-82.000000,-48.000000,-9.000000,-18.000000,127.000000,19.000000
1309790.680437,-128.000000,9.000000,94.000000,-2.000000,-3.000000,43.000000,127.000000,-9.000000
1309790.680446,-32.000000,-9.000000,34.000000,36.000000,2.000000,-18.000000,-128.000000,12.000000
1309790.681746,127.000000,-18.000000,127.000000,62.000000,46.000000,61.000000,61.000000,85.000000
1309790.681758,-128.000000,-16.000000,-35.000000,-80.000000,-8.000000,27.000000,58.000000,21.000000
1309790.694365,41.000000,0.000000,22.000000,-24.000000,-14.000000,23.000000,-7.000000,14.000000
1309790.694380,-128.000000,2.000000,-84.000000,-128.000000,-52.000000,0.000000,46.000000,-25.000000
1309790.695998,72.000000,11.000000,69.000000,-78.000000,34.000000,1.000000,-69.000000,11.000000
1309790.696014,127.000000,-6.000000,-10.000000,-51.000000,29.000000,17.000000,41.000000,2.000000
1309790.702083,127.000000,-4.000000,121.000000,16.000000,10.000000,39.000000,127.000000,-9.000000
1309790.702094,-16.000000,-3.000000,-128.000000,24.000000,-7.000000,-99.000000,-128.000000,11.000000
1309790.717893,-128.000000,8.000000,65.000000,-72.000000,-22.000000,67.000000,127.000000,11.000000
1309790.717913,127.000000,-3.000000,-31.000000,123.000000,-8.000000,-80.000000,-128.000000,0.000000
1309790.739328,101.000000,6.000000,12.000000,-10.000000,2.000000,15.000000,92.000000,-32.000000
1309790.739339,-128.000000,9.000000,23.000000,-46.000000,-25.000000,-6.000000,-55.000000,41.000000
1309790.754465,127.000000,-3.000000,-83.000000,-44.000000,-21.000000,-47.000000,3.000000,24.000000
1309790.754508,-128.000000,-2.000000,72.000000,121.000000,53.000000,22.000000,5.000000,-46.000000
1309790.761657,127.000000,8.000000,57.000000,-12.000000,11.000000,80.000000,9.000000,11.000000
1309790.761676,-128.000000,-3.000000,-52.000000,-91.000000,-35.000000,-1.000000,62.000000,48.000000
1309790.762948,69.000000,0.000000,-61.000000,-47.000000,-9.000000,-64.000000,89.000000,-36.000000
1309790.762958,-40.000000,9.000000,40.000000,63.000000,10.000000,41.000000,-128.000000,30.000000
1309790.763650,127.000000,-5.000000,10.000000,-80.000000,44.000000,-29.000000,91.000000,19.000000
1309790.763668,127.000000,0.000000,-14.000000,-1.000000,30.000000,32.000000,32.000000,-1.000000
1309790.777431,78.000000,12.000000,-41.000000,-113.000000,-30.000000,22.000000,-62.000000,-25.000000
1309790.777458,18.000000,-5.000000,-9.000000,-128.000000,-59.000000,4.000000,56.000000,50.000000
1309790.784326,23.000000,-1.000000,31.000000,127.000000,50.000000,19.000000,-36.000000,9.000000
1309790.784336,123.000000,11.000000,-42.000000,-128.000000,-59.000000,5.000000,-74.000000,0.000000
1309790.799991,-51.000000,8.000000,-52.000000,18.000000,-53.000000,-37.000000,127.000000,-28.000000
1309790.800007,-112.000000,0.000000,105.000000,64.000000,39.000000,16.000000,-52.000000,2.000000
1309790.814373,127.000000,0.000000,-21.000000,-5.000000,-39.000000,26.000000,79.000000,29.000000
1309790.814416,127.000000,3.000000,-67.000000,-14.000000,-19.000000,60.000000,-124.000000,-23.000000
1309790.815507,-128.000000,-3.000000,-12.000000,-15.000000,-48.000000,-57.000000,-128.000000,42.000000
1309790.815516,-128.000000,0.000000,-31.000000,28.000000,-7.000000,-83.000000,127.000000,7.000000
1309790.821834,78.000000,1.000000,38.000000,99.000000,-21.000000,-11.000000,-128.000000,-27.000000
1309790.821846,-8.000000,-13.000000,-23.000000,-2.000000,13.000000,47.000000,-25.000000,15.000000
1309790.836996,56.000000,-10.000000,-25.000000,-6.000000,-28.000000,3.000000,-128.000000,-47.000000
1309790.837017,-28.000000,7.000000,-13.000000,-59.000000,8.000000,-32.000000,-128.000000,2.000000
1309790.874440,127.000000,7.000000,92.000000,72.000000,69.000000,32.000000,126.000000,77.000000
1309790.874451,2.000000,-10.000000,-71.000000,-111.000000,-34.000000,-8.000000,69.000000,-21.000000
1309790.904181,-2.000000,2.000000,84.000000,-31.000000,2.000000,-25.000000,-128.000000,-37.000000
1309790.904193,97.000000,11.000000,-18.000000,-111.000000,-41.000000,-1.000000,-123.000000,-52.000000
1309790.911879,-128.000000,-3.000000,0.000000,-54.000000,36.000000,16.000000,114.000000,125.000000
1309790.911890,127.000000,-5.000000,2.000000,-26.000000,-8.000000,30.000000,-29.000000,-20.000000
1309790.919694,-74.000000,8.000000,15.000000,-82.000000,-74.000000,-47.000000,-128.000000,-24.000000
1309790.919705,127.000000,11.000000,32.000000,82.000000,82.000000,32.000000,4.000000,20.000000
1309790.920360,127.000000,-7.000000,-26.000000,-51.000000,4.000000,-52.000000,59.000000,56.000000
1309790.920370,-128.000000,5.000000,62.000000,-27.000000,14.000000,75.000000,-119.000000,-19.000000
1309790.934337,-105.000000,3.000000,1.000000,-119.000000,-11.000000,-35.000000,-128.000000,-49.000000
1309790.934350,-128.000000,-5.000000,-22.000000,55.000000,-19.000000,15.000000,-24.000000,-9.000000
1309790.935475,94.000000,-3.000000,50.000000,127.000000,-5.000000,-9.000000,127.000000,-7.000000
1309790.935489,-110.000000,10.000000,-28.000000,-100.000000,0.000000,-74.000000,77.000000,20.000000
1309790.941748,127.000000,-10.000000,35.000000,8.000000,-12.000000,127.000000,-128.000000,-9.000000
1309790.941766,9.000000,8.000000,10.000000,40.000000,-91.000000,-128.000000,127.000000,56.000000
1309790.957436,-128.000000,-3.000000,-93.000000,23.000000,11.000000,-128.000000,70.000000,-12.000000
1309790.957445,-128.000000,5.000000,92.000000,37.000000,-5.000000,27.000000,14.000000,-35.000000
1309790.971932,127.000000,-10.000000,44.000000,19.000000,8.000000,72.000000,74.000000,-22.000000
1309790.971950,-86.000000,-12.000000,-5.000000,-47.000000,-33.000000,-108.000000,123.000000,-59.000000
1309790.994295,127.000000,6.000000,23.000000,23.000000,31.000000,47.000000,88.000000,83.000000
1309790.994314,-128.000000,3.000000,-26.000000,-12.000000,-8.000000,127.000000,127.000000,-17.000000
1309791.017000,127.000000,0.000000,-72.000000,-30.000000,-56.000000,-128.000000,-128.000000,-21.000000
1309791.017012,-73.000000,-8.000000,66.000000,102.000000,22.000000,-9.000000,127.000000,-25.000000
1309791.032180,-23.000000,9.000000,-10.000000,-15.000000,-15.000000,-55.000000,-128.000000,-7.000000
1309791.032191,-128.000000,-8.000000,53.000000,27.000000,51.000000,-29.000000,-30.000000,-17.000000
1309791.032976,-128.000000,-2.000000,46.000000,-87.000000,-32.000000,90.000000,-128.000000,-16.000000
1309791.032987,127.000000,14.000000,-55.000000,-7.000000,-35.000000,-45.000000,-47.000000,-8.000000
1309791.034126,127.000000,8.000000,-83.000000,-19.000000,-9.000000,28.000000,-10.000000,37.000000
1309791.034136,127.000000,-5.000000,127.000000,127.000000,92.000000,-12.000000,112.000000,28.000000
1309791.034793,-128.000000,5.000000,-68.000000,-31.000000,-29.000000,11.000000,-7.000000,-48.000000
1309791.034803,120.000000,5.000000,-43.000000,-128.000000,-128.000000,-114.000000,-35.000000,25.000000
1309791.054274,127.000000,-3.000000,-32.000000,49.000000,-15.000000,-29.000000,127.000000,65.000000
1309791.054284,127.000000,-1.000000,83.000000,-58.000000,-21.000000,-42.000000,-128.000000,-61.000000
1309791.077025,55.000000,-7.000000,-64.000000,123.000000,-49.000000,44.000000,36.000000,-27.000000
1309791.077039,107.000000,11.000000,81.000000,10.000000,-6.000000,16.000000,-102.000000,31.000000
1309791.091877,-6.000000,-4.000000,7.000000,26.000000,-27.000000,-61.000000,127.000000,70.000000
1309791.091892,108.000000,-11.000000,30.000000,43.000000,-53.000000,-32.000000,-128.000000,-4.000000
1309791.106772,-128.000000,7.000000,87.000000,39.000000,32.000000,48.000000,114.000000,-28.000000
1309791.106783,-77.000000,-13.000000,-17.000000,-99.000000,-29.000000,82.000000,-128.000000,6.000000
1309791.114551,127.000000,-6.000000,76.000000,127.000000,22.000000,-3.000000,127.000000,-24.000000
1309791.114580,-128.000000,4.000000,-128.000000,-128.000000,-128.000000,-128.000000,-128.000000,11.000000
1309791.144435,-95.000000,-2.000000,68.000000,-61.000000,70.000000,33.000000,127.000000,56.000000
1309791.144446,-113.000000,-6.000000,-19.000000,-118.000000,-35.000000,86.000000,127.000000,-25.000000
1309791.151921,127.000000,2.000000,-18.000000,-40.000000,-20.000000,-54.000000,-128.000000,-24.000000
1309791.151933,127.000000,19.000000,-128.000000,-128.000000,-62.000000,30.000000,127.000000,-2.000000
1309791.174937,78.000000,-6.000000,-36.000000,127.000000,35.000000,-19.000000,-128.000000,26.000000
1309791.174947,127.000000,-11.000000,126.000000,-25.000000,-20.000000,-23.000000,-26.000000,-14.000000
1309791.175498,-54.000000,5.000000,-4.000000,93.000000,35.000000,-66.000000,127.000000,37.000000
1309791.175506,-128.000000,4.000000,-128.000000,-94.000000,-50.000000,46.000000,18.000000,-16.000000
1309791.177683,43.000000,7.000000,36.000000,-62.000000,-22.000000,-13.000000,110.000000,36.000000
1309791.177696,-98.000000,9.000000,-57.000000,26.000000,-1.000000,33.000000,55.000000,-49.000000
1309791.178450,-33.000000,-11.000000,18.000000,23.000000,53.000000,-4.000000,-67.000000,65.000000
1309791.178459,-128.000000,-7.000000,-37.000000,70.000000,-10.000000,13.000000,-66.000000,-118.000000
1309791.189264,56.000000,-15.000000,127.000000,127.000000,58.000000,86.000000,97.000000,37.000000
1309791.189276,116.000000,0.000000,17.000000,-89.000000,-23.000000,40.000000,-128.000000,-2.000000
1309791.196662,28.000000,4.000000,6.000000,-107.000000,16.000000,9.000000,127.000000,-2.000000
1309791.196672,127.000000,-4.000000,-24.000000,117.000000,47.000000,23.000000,63.000000,2.000000
1309791.211682,-58.000000,3.000000,-80.000000,-36.000000,16.000000,22.000000,98.000000,31.000000
1309791.211693,127.000000,5.000000,9.000000,-32.000000,-24.000000,-122.000000,-128.000000,-26.000000
1309791.249507,7.000000,2.000000,62.000000,17.000000,19.000000,127.000000,127.000000,-11.000000
1309791.249524,100.000000,-3.000000,-106.000000,22.000000,22.000000,-128.000000,-128.000000,30.000000
1309791.256717,-89.000000,-9.000000,108.000000,16.000000,-22.000000,127.000000,127.000000,-15.000000
1309791.256728,45.000000,-3.000000,32.000000,22.000000,-16.000000,-111.000000,127.000000,116.000000
1309791.272051,-76.000000,-5.000000,-67.000000,20.000000,14.000000,-4.000000,-128.000000,-7.000000
1309791.272079,127.000000,3.000000,14.000000,-61.000000,-18.000000,70.000000,127.000000,-8.000000
1309791.294228,-92.000000,0.000000,21.000000,9.000000,-56.000000,-25.000000,-128.000000,-71.000000
1309791.294239,39.000000,-7.000000,-65.000000,-7.000000,10.000000,-53.000000,127.000000,100.000000
1309791.309762,-58.000000,2.000000,-46.000000,-128.000000,-41.000000,-3.000000,-128.000000,-55.000000
1309791.309779,44.000000,1.000000,42.000000,-16.000000,51.000000,50.000000,10.000000,8.000000
1309791.310364,97.000000,-9.000000,114.000000,-6.000000,-13.000000,-15.000000,-128.000000,-12.000000
1309791.310376,14.000000,-7.000000,-124.000000,-99.000000,-68.000000,-4.000000,89.000000,41.000000
1309791.317365,-62.000000,8.000000,127.000000,55.000000,37.000000,-13.000000,-94.000000,-31.000000
1309791.317432,-26.000000,-5.000000,3.000000,-7.000000,-12.000000,79.000000,127.000000,-10.000000
1309791.347077,111.000000,-8.000000,40.000000,43.000000,44.000000,72.000000,-128.000000,14.000000
1309791.347092,-63.000000,5.000000,-43.000000,-2.000000,-6.000000,-128.000000,127.000000,69.000000
1309791.354547,114.000000,11.000000,-14.000000,19.000000,-1.000000,79.000000,38.000000,-2.000000
1309791.354560,-46.000000,2.000000,-109.000000,-128.000000,-72.000000,-128.000000,-128.000000,-120.000000
1309791.369403,-128.000000,-1.000000,121.000000,127.000000,121.000000,-108.000000,127.000000,40.000000
1309791.369413,-128.000000,4.000000,-99.000000,-128.000000,-12.000000,-20.000000,22.000000,-66.000000
1309791.377593,127.000000,-5.000000,-108.000000,-72.000000,-52.000000,19.000000,-118.000000,-17.000000
1309791.377622,-128.000000,-2.000000,-6.000000,-128.000000,38.000000,21.000000,-101.000000,-56.000000
1309791.378131,127.000000,0.000000,-115.000000,-100.000000,46.000000,41.000000,-128.000000,39.000000
1309791.378157,-128.000000,1.000000,-3.000000,57.000000,48.000000,-33.000000,127.000000,15.000000
1309791.379071,-32.000000,2.000000,127.000000,127.000000,127.000000,77.000000,-44.000000,19.000000
1309791.379079,127.000000,-3.000000,-57.000000,-128.000000,-76.000000,-76.000000,-115.000000,40.000000
1309791.391698,127.000000,-9.000000,-28.000000,39.000000,12.000000,-1.000000,127.000000,93.000000
1309791.391708,-113.000000,0.000000,-19.000000,9.000000,9.000000,68.000000,-99.000000,-6.000000
1309791.414468,127.000000,4.000000,14.000000,1.000000,11.000000,6.000000,127.000000,22.000000
1309791.414566,-128.000000,-8.000000,35.000000,126.000000,23.000000,-14.000000,25.000000,69.000000
1309791.414790,127.000000,6.000000,50.000000,-10.000000,17.000000,116.000000,127.000000,-43.000000
1309791.414801,127.000000,16.000000,82.000000,74.000000,-18.000000,-128.000000,-128.000000,-19.000000
1309791.416119,-128.000000,-5.000000,-86.000000,-21.000000,-3.000000,13.000000,55.000000,-36.000000
1309791.416141,127.000000,-9.000000,75.000000,85.000000,25.000000,21.000000,-11.000000,1.000000
1309791.429299,-93.000000,3.000000,-42.000000,-128.000000,-57.000000,29.000000,127.000000,31.000000
1309791.429317,-67.000000,-3.000000,3.000000,-54.000000,20.000000,-57.000000,-128.000000,-56.000000
1309791.467577,69.000000,0.000000,54.000000,-93.000000,-57.000000,-18.000000,-53.000000,-6.000000
1309791.467609,-41.000000,10.000000,-18.000000,-57.000000,3.000000,4.000000,5.000000,6.000000
1309791.474567,-29.000000,9.000000,-19.000000,-68.000000,-13.000000,14.000000,-21.000000,10.000000
1309791.474596,-17.000000,-1.000000,34.000000,9.000000,-16.000000,117.000000,-128.000000,-14.000000
1309791.511957,111.000000,-2.000000,4.000000,79.000000,113.000000,-3.000000,127.000000,85.000000
1309791.512059,-128.000000,-1.000000,12.000000,125.000000,41.000000,-42.000000,-128.000000,-32.000000
1309791.512369,104.000000,-2.000000,-56.000000,-31.000000,-1.000000,-7.000000,127.000000,33.000000
1309791.512377,-84.000000,0.000000,98.000000,-57.000000,-27.000000,-57.000000,-128.000000,-43.000000
1309791.513642,42.000000,-3.000000,-26.000000,3.000000,5.000000,26.000000,127.000000,64.000000
1309791.513651,127.000000,-7.000000,-16.000000,24.000000,30.000000,22.000000,-80.000000,-2.000000
1309791.514176,-128.000000,-3.000000,71.000000,76.000000,-5.000000,20.000000,120.000000,14.000000
1309791.514203,127.000000,5.000000,-88.000000,-104.000000,-31.000000,-87.000000,-128.000000,-33.000000
1309791.526719,-21.000000,-1.000000,-34.000000,126.000000,-11.000000,-5.000000,-36.000000,-6.000000
1309791.526730,-14.000000,7.000000,2.000000,-99.000000,14.000000,-14.000000,-28.000000,-35.000000
1309791.527509,-23.000000,1.000000,-53.000000,-128.000000,-27.000000,18.000000,103.000000,11.000000
1309791.527518,-34.000000,-1.000000,-3.000000,-23.000000,4.000000,-23.000000,-128.000000,-11.000000
1309791.534861,23.000000,-6.000000,4.000000,-24.000000,1.000000,127.000000,127.000000,3.000000
1309791.534882,-103.000000,-5.000000,-76.000000,-4.000000,-7.000000,-128.000000,98.000000,42.000000
1309791.549328,54.000000,2.000000,25.000000,-8.000000,-38.000000,7.000000,-128.000000,-70.000000
1309791.549342,-128.000000,-8.000000,-37.000000,-4.000000,2.000000,73.000000,127.000000,45.000000
1309791.572099,-99.000000,-2.000000,-15.000000,-42.000000,24.000000,6.000000,-56.000000,35.000000
1309791.572128,-110.000000,3.000000,11.000000,-10.000000,-2.000000,-52.000000,-92.000000,11.000000
1309791.587111,-128.000000,-8.000000,-10.000000,48.000000,7.000000,25.000000,1.000000,-47.000000
1309791.587128,127.000000,2.000000,10.000000,-34.000000,17.000000,22.000000,-44.000000,19.000000
1309791.609321,-94.000000,9.000000,-35.000000,-7.000000,-49.000000,18.000000,-128.000000,-28.000000
1309791.609345,-45.000000,-2.000000,127.000000,127.000000,61.000000,5.000000,-128.000000,22.000000
1309791.624449,127.000000,-9.000000,-73.000000,-121.000000,-22.000000,-22.000000,127.000000,53.000000
1309791.624472,-101.000000,-6.000000,10.000000,104.000000,36.000000,43.000000,127.000000,18.000000
1309791.646677,-128.000000,2.000000,-109.000000,-70.000000,-67.000000,35.000000,-72.000000,-59.000000
1309791.646705,-68.000000,-16.000000,127.000000,127.000000,86.000000,-48.000000,70.000000,74.000000
1309791.647351,-10.000000,1.000000,-48.000000,7.000000,40.000000,5.000000,-31.000000,-12.000000
1309791.647358,-54.000000,-3.000000,20.000000,-96.000000,-27.000000,10.000000,-1.000000,-32.000000
1309791.648565,-21.000000,-3.000000,127.000000,51.000000,56.000000,32.000000,27.000000,-7.000000
1309791.648613,-87.000000,-8.000000,-31.000000,-55.000000,12.000000,14.000000,-87.000000,19.000000
1309791.649627,127.000000,9.000000,-73.000000,0.000000,-5.000000,-9.000000,-1.000000,-1.000000
1309791.649677,127.000000,-10.000000,39.000000,-24.000000,-12.000000,6.000000,-94.000000,1.000000
1309791.650361,-16.000000,-7.000000,-15.000000,25.000000,20.000000,127.000000,127.000000,5.000000
1309791.650389,82.000000,5.000000,-92.000000,-5.000000,-46.000000,-128.000000,-128.000000,-1.000000
1309791.650976,9.000000,0.000000,70.000000,-7.000000,28.000000,48.000000,127.000000,0.000000
1309791.651001,13.000000,-10.000000,-59.000000,11.000000,-23.000000,69.000000,-42.000000,4.000000
1309791.655137,-128.000000,2.000000,-13.000000,-63.000000,-54.000000,15.000000,127.000000,-44.000000
1309791.655145,87.000000,6.000000,-37.000000,-128.000000,-62.000000,-114.000000,-29.000000,-10.000000
1309791.669498,-127.000000,-3.000000,-58.000000,-128.000000,9.000000,26.000000,41.000000,14.000000
1309791.669509,127.000000,-6.000000,103.000000,127.000000,52.000000,-40.000000,-3.000000,4.000000
1309791.692174,-59.000000,-8.000000,9.000000,-128.000000,-40.000000,-15.000000,-91.000000,5.000000
1309791.692197,116.000000,4.000000,-39.000000,41.000000,36.000000,5.000000,127.000000,28.000000
1309791.693146,127.000000,-3.000000,66.000000,81.000000,13.000000,10.000000,-18.000000,2.000000
1309791.693159,-7.000000,10.000000,-113.000000,-35.000000,-4.000000,39.000000,-45.000000,-21.000000
1309791.729213,51.000000,4.000000,-22.000000,127.000000,7.000000,11.000000,-128.000000,-22.000000
1309791.729224,127.000000,0.000000,25.000000,-3.000000,-1.000000,-31.000000,127.000000,96.000000
1309791.744371,103.000000,10.000000,28.000000,-78.000000,-70.000000,-6.000000,127.000000,31.000000
1309791.744410,-128.000000,-5.000000,-103.000000,-23.000000,6.000000,-128.000000,-128.000000,-98.000000
1309791.766893,36.000000,-3.000000,21.000000,-7.000000,44.000000,-11.000000,127.000000,44.000000
1309791.766920,56.000000,0.000000,-47.000000,-38.000000,2.000000,-12.000000,102.000000,8.000000
1309791.789407,-107.000000,2.000000,64.000000,-41.000000,-23.000000,102.000000,-82.000000,-53.000000
1309791.789417,53.000000,-3.000000,-47.000000,-20.000000,-23.000000,-57.000000,-87.000000,3.000000
1309791.826836,-101.000000,-11.000000,3.000000,91.000000,59.000000,11.000000,94.000000,37.000000
1309791.826847,44.000000,3.000000,10.000000,-48.000000,-37.000000,1.000000,-69.000000,-45.000000
1309791.849934,-128.000000,-4.000000,-26.000000,-55.000000,-12.000000,14.000000,127.000000,-16.000000
1309791.849944,127.000000,-2.000000,38.000000,44.000000,19.000000,-32.000000,-128.000000,2.000000
1309791.864329,-6.000000,-6.000000,85.000000,90.000000,6.000000,4.000000,-16.000000,0.000000
1309791.864352,28.000000,-9.000000,-106.000000,-39.000000,-22.000000,14.000000,-1.000000,19.000000
1309791.871586,-90.000000,-7.000000,54.000000,-6.000000,17.000000,-2.000000,-74.000000,-21.000000
1309791.871600,31.000000,0.000000,38.000000,-64.000000,-29.000000,16.000000,-6.000000,-1.000000
1309791.872081,-128.000000,-7.000000,-15.000000,-67.000000,19.000000,127.000000,127.000000,-16.000000
1309791.872089,127.000000,-2.000000,-69.000000,85.000000,-8.000000,-128.000000,-128.000000,78.000000
1309791.872768,-5.000000,9.000000,43.000000,-76.000000,-12.000000,3.000000,-124.000000,24.000000
1309791.872786,-28.000000,9.000000,-99.000000,-60.000000,19.000000,-26.000000,-28.000000,16.000000
1309791.873392,-128.000000,1.000000,-24.000000,-48.000000,-36.000000,18.000000,19.000000,34.000000
1309791.873428,111.000000,-15.000000,-5.000000,77.000000,55.000000,16.000000,34.000000,0.000000
1309791.874106,-48.000000,-5.000000,23.000000,23.000000,-3.000000,17.000000,48.000000,-25.000000
1309791.874115,-23.000000,-13.000000,-128.000000,-83.000000,-16.000000,-32.000000,-128.000000,-24.000000
1309791.874839,127.000000,-7.000000,80.000000,-3.000000,3.000000,-31.000000,87.000000,-23.000000
1309791.874847,-128.000000,1.000000,-26.000000,98.000000,46.000000,-50.000000,-128.000000,-5.000000
1309791.886973,127.000000,9.000000,-9.000000,-11.000000,-50.000000,-34.000000,127.000000,26.000000
1309791.887023,-5.000000,-3.000000,-2.000000,-11.000000,14.000000,72.000000,-72.000000,-17.000000
1309791.887801,-29.000000,-11.000000,-18.000000,-19.000000,4.000000,-44.000000,-76.000000,30.000000
1309791.887809,-10.000000,3.000000,25.000000,-36.000000,5.000000,35.000000,-48.000000,-40.000000
1309791.924394,97.000000,-4.000000,-82.000000,-128.000000,-56.000000,-32.000000,127.000000,60.000000
1309791.924406,-99.000000,-8.000000,73.000000,127.000000,54.000000,-9.000000,-128.000000,-45.000000
1309791.931632,92.000000,-3.000000,-58.000000,-23.000000,22.000000,6.000000,127.000000,30.000000
1309791.931642,-28.000000,-3.000000,16.000000,-29.000000,-7.000000,37.000000,-128.000000,-2.000000
1309791.984110,98.000000,3.000000,-82.000000,-53.000000,-29.000000,-42.000000,127.000000,-15.000000
1309791.984120,-128.000000,3.000000,105.000000,127.000000,98.000000,71.000000,120.000000,-19.000000
1309791.984562,-34.000000,0.000000,-2.000000,11.000000,31.000000,-45.000000,-1.000000,8.000000
1309791.984591,-57.000000,-7.000000,67.000000,-16.000000,-24.000000,-40.000000,-57.000000,7.000000
1309791.985815,-128.000000,0.000000,-67.000000,74.000000,4.000000,4.000000,-128.000000,-26.000000
1309791.985841,-114.000000,0.000000,-29.000000,25.000000,-2.000000,-1.000000,52.000000,-21.000000
1309791.986467,40.000000,-3.000000,-54.000000,-28.000000,-19.000000,30.000000,-17.000000,4.000000
1309791.986494,17.000000,-3.000000,23.000000,37.000000,7.000000,-17.000000,99.000000,2.000000
1309792.007235,-43.000000,-6.000000,-72.000000,-22.000000,-24.000000,1.000000,89.000000,11.000000
1309792.007244,-46.000000,6.000000,-89.000000,-24.000000,-3.000000,-1.000000,-40.000000,-15.000000
1309792.008000,-18.000000,7.000000,-18.000000,-10.000000,-21.000000,2.000000,14.000000,-2.000000
1309792.008009,-37.000000,6.000000,23.000000,37.000000,-21.000000,-4.000000,-96.000000,3.000000
1309792.022451,-104.000000,-7.000000,-6.000000,5.000000,15.000000,60.000000,94.000000,-2.000000
1309792.022463,52.000000,-3.000000,70.000000,127.000000,37.000000,-41.000000,-20.000000,1.000000
1309792.029155,54.000000,11.000000,-86.000000,-54.000000,24.000000,-55.000000,33.000000,24.000000
1309792.029164,7.000000,7.000000,16.000000,-71.000000,-27.000000,-30.000000,-8.000000,-52.000000
1309792.059412,69.000000,-1.000000,-100.000000,32.000000,35.000000,26.000000,-69.000000,54.000000
1309792.059431,68.000000,10.000000,-6.000000,-14.000000,-2.000000,52.000000,-23.000000,18.000000
1309792.066803,-128.000000,-2.000000,-3.000000,80.000000,6.000000,-69.000000,-128.000000,-10.000000
1309792.066813,-68.000000,-6.000000,50.000000,-46.000000,25.000000,60.000000,-60.000000,3.000000
1309792.082135,-106.000000,-3.000000,-26.000000,-26.000000,-22.000000,-25.000000,83.000000,6.000000
1309792.082145,127.000000,-4.000000,16.000000,9.000000,23.000000,58.000000,127.000000,-18.000000
1309792.089413,82.000000,-9.000000,4.000000,-49.000000,-24.000000,25.000000,36.000000,-6.000000
1309792.089424,12.000000,-5.000000,35.000000,-44.000000,-21.000000,21.000000,-128.000000,-15.000000
1309792.104914,54.000000,12.000000,-16.000000,-71.000000,1.000000,-18.000000,114.000000,47.000000
1309792.104930,-128.000000,-4.000000,-38.000000,37.000000,-1.000000,-4.000000,-54.000000,-31.000000
1309792.105415,51.000000,-10.000000,31.000000,83.000000,-25.000000,4.000000,12.000000,2.000000
1309792.105490,42.000000,4.000000,16.000000,-59.000000,-2.000000,5.000000,-57.000000,-5.000000
1309792.106860,48.000000,-12.000000,-41.000000,-75.000000,1.000000,19.000000,45.000000,-7.000000
1309792.106869,-7.000000,0.000000,-101.000000,51.000000,36.000000,-64.000000,-128.000000,-1.000000
1309792.126865,31.000000,7.000000,21.000000,-128.000000,-19.000000,10.000000,83.000000,7.000000
1309792.126879,25.000000,10.000000,25.000000,-31.000000,7.000000,53.000000,-63.000000,6.000000
1309792.127804,-59.000000,-7.000000,-69.000000,-13.000000,-10.000000,-45.000000,-42.000000,-14.000000
1309792.127813,81.000000,-4.000000,-13.000000,7.000000,6.000000,-19.000000,127.000000,46.000000
1309792.128686,15.000000,7.000000,20.000000,54.000000,30.000000,62.000000,-64.000000,-20.000000
1309792.128709,48.000000,-8.000000,31.000000,-80.000000,-35.000000,17.000000,-128.000000,-16.000000
1309792.149478,-46.000000,-3.000000,-121.000000,15.000000,15.000000,57.000000,32.000000,7.000000
1309792.149489,26.000000,-5.000000,-44.000000,127.000000,72.000000,-68.000000,21.000000,24.000000
1309792.164330,-94.000000,-13.000000,16.000000,-27.000000,14.000000,127.000000,127.000000,-41.000000
1309792.164363,-128.000000,-7.000000,-39.000000,-72.000000,-29.000000,-128.000000,-128.000000,-14.000000
1309792.179353,87.000000,3.000000,-53.000000,-22.000000,12.000000,-7.000000,127.000000,29.000000
1309792.179364,-10.000000,0.000000,9.000000,30.000000,-23.000000,7.000000,-28.000000,1.000000
1309792.187131,127.000000,-11.000000,21.000000,-16.000000,8.000000,46.000000,25.000000,-6.000000
1309792.187144,-91.000000,5.000000,19.000000,119.000000,52.000000,-54.000000,-105.000000,-11.000000
1309792.209172,74.000000,2.000000,-56.000000,-92.000000,-10.000000,12.000000,-36.000000,-23.000000
1309792.209224,-8.000000,4.000000,5.000000,-7.000000,-33.000000,-7.000000,24.000000,2.000000
1309792.224652,-6.000000,2.000000,-75.000000,-74.000000,-29.000000,43.000000,-116.000000,-20.000000
1309792.224701,24.000000,-1.000000,4.000000,-46.000000,-7.000000,12.000000,127.000000,42.000000
1309792.225638,127.000000,-1.000000,-67.000000,-30.000000,-12.000000,-128.000000,3.000000,39.000000
1309792.225664,-54.000000,1.000000,57.000000,-54.000000,-17.000000,54.000000,74.000000,-37.000000
1309792.226222,-21.000000,8.000000,11.000000,-6.000000,26.000000,4.000000,2.000000,28.000000
1309792.226249,127.000000,1.000000,26.000000,5.000000,4.000000,16.000000,61.000000,6.000000
1309792.227519,-38.000000,-5.000000,-43.000000,-55.000000,-23.000000,-4.000000,-55.000000,-12.000000
1309792.227544,-72.000000,8.000000,-4.000000,-98.000000,-43.000000,10.000000,-28.000000,25.000000
1309792.246949,2.000000,-1.000000,-40.000000,-62.000000,36.000000,16.000000,49.000000,-23.000000
1309792.246959,-57.000000,-3.000000,-6.000000,-26.000000,3.000000,-30.000000,-38.000000,-23.000000
1309792.254654,-25.000000,2.000000,-69.000000,-69.000000,-16.000000,-1.000000,20.000000,4.000000
1309792.254670,52.000000,4.000000,66.000000,-51.000000,3.000000,24.000000,-69.000000,8.000000
1309792.261807,-128.000000,0.000000,-66.000000,9.000000,-40.000000,-37.000000,72.000000,-19.000000
1309792.261826,-40.000000,-4.000000,0.000000,-55.000000,5.000000,7.000000,-57.000000,-2.000000
1309792.299500,127.000000,-1.000000,-39.000000,90.000000,-1.000000,5.000000,127.000000,-6.000000
1309792.299510,-67.000000,0.000000,95.000000,-82.000000,-37.000000,30.000000,-128.000000,-34.000000
