# participant_id: P12
# gesture: hard
# trial_number: 1
# stream_name: Myo_EMG
# stream_type: emg
# timestamp: 20260420_175417
# samples: 5626
# duration_sec: 30.517
# nominal_sample_rate: 200.0
# effective_sample_rate: 184.32
#
timestamp,emg_1,emg_2,emg_3,emg_4,emg_5,emg_6,emg_7,emg_8
1312349.421241,6.000000,-16.000000,-32.000000,118.000000,44.000000,34.000000,36.000000,16.000000
1312349.421252,6.000000,-14.000000,-28.000000,-59.000000,-39.000000,10.000000,-5.000000,53.000000
1312349.429141,-16.000000,25.000000,-68.000000,-39.000000,7.000000,-23.000000,-92.000000,-105.000000
1312349.429151,32.000000,-25.000000,53.000000,37.000000,3.000000,47.000000,127.000000,125.000000
1312349.451131,-42.000000,-30.000000,-32.000000,27.000000,3.000000,-5.000000,-96.000000,-56.000000
1312349.451141,25.000000,35.000000,13.000000,-31.000000,-6.000000,-8.000000,94.000000,101.000000
1312349.473672,17.000000,-20.000000,24.000000,8.000000,10.000000,0.000000,6.000000,-51.000000
1312349.473714,-42.000000,-34.000000,47.000000,-5.000000,-39.000000,26.000000,38.000000,7.000000
1312349.488504,33.000000,65.000000,51.000000,18.000000,40.000000,-6.000000,-3.000000,53.000000
1312349.488561,32.000000,24.000000,43.000000,-74.000000,19.000000,-32.000000,-11.000000,42.000000
1312349.489531,-29.000000,-6.000000,22.000000,91.000000,-25.000000,18.000000,-11.000000,-57.000000
1312349.489540,-26.000000,22.000000,43.000000,-1.000000,-32.000000,-14.000000,-9.000000,-69.000000
1312349.490087,29.000000,6.000000,-74.000000,-60.000000,16.000000,-84.000000,-128.000000,47.000000
1312349.490096,2.000000,2.000000,11.000000,-90.000000,-45.000000,-1.000000,15.000000,-38.000000
1312349.491848,-30.000000,-58.000000,-23.000000,127.000000,15.000000,48.000000,57.000000,-25.000000
1312349.491863,-25.000000,4.000000,-9.000000,-21.000000,-7.000000,-26.000000,-20.000000,-21.000000
1312349.495922,-20.000000,-5.000000,-7.000000,-14.000000,-1.000000,-12.000000,-19.000000,-11.000000
1312349.495949,-13.000000,-20.000000,-55.000000,-7.000000,-16.000000,-7.000000,-8.000000,23.000000
1312349.511818,13.000000,15.000000,19.000000,12.000000,7.000000,6.000000,-48.000000,-128.000000
1312349.511829,-6.000000,-36.000000,-3.000000,60.000000,55.000000,-16.000000,17.000000,127.000000
1312349.526635,33.000000,-8.000000,-55.000000,-23.000000,0.000000,0.000000,32.000000,-110.000000
1312349.526652,-22.000000,-7.000000,-40.000000,-4.000000,-29.000000,7.000000,-70.000000,-57.000000
1312349.527885,13.000000,28.000000,68.000000,-44.000000,1.000000,-12.000000,23.000000,-15.000000
1312349.527902,-9.000000,-33.000000,-66.000000,2.000000,35.000000,-5.000000,-128.000000,-128.000000
1312349.548649,41.000000,-6.000000,34.000000,-34.000000,-4.000000,8.000000,49.000000,127.000000
1312349.548662,7.000000,-14.000000,-15.000000,108.000000,88.000000,11.000000,2.000000,-55.000000
1312349.584745,8.000000,-6.000000,-7.000000,-22.000000,-19.000000,-1.000000,22.000000,-1.000000
1312349.584769,-18.000000,-16.000000,-83.000000,54.000000,-9.000000,16.000000,-24.000000,-76.000000
1312349.588827,-12.000000,33.000000,-128.000000,-40.000000,-6.000000,3.000000,34.000000,26.000000
1312349.588843,57.000000,24.000000,-7.000000,-61.000000,6.000000,-26.000000,8.000000,11.000000
1312349.608841,-19.000000,-14.000000,-4.000000,115.000000,26.000000,10.000000,-51.000000,-38.000000
1312349.608900,-33.000000,2.000000,20.000000,-17.000000,-42.000000,-8.000000,-60.000000,-9.000000
1312349.631202,13.000000,18.000000,10.000000,-52.000000,-13.000000,-30.000000,18.000000,52.000000
1312349.631322,-11.000000,-30.000000,4.000000,1.000000,-7.000000,22.000000,79.000000,-113.000000
1312349.632124,-28.000000,-23.000000,7.000000,43.000000,-7.000000,-10.000000,-128.000000,-53.000000
1312349.632132,8.000000,21.000000,-4.000000,-119.000000,-43.000000,-26.000000,114.000000,23.000000
1312349.632994,42.000000,-28.000000,-3.000000,-67.000000,-18.000000,-42.000000,-99.000000,53.000000
1312349.633044,39.000000,-27.000000,-21.000000,-44.000000,-7.000000,17.000000,37.000000,-17.000000
1312349.634206,-39.000000,-9.000000,30.000000,75.000000,30.000000,0.000000,-73.000000,-128.000000
1312349.634221,42.000000,-9.000000,-39.000000,2.000000,11.000000,2.000000,60.000000,96.000000
1312349.635199,7.000000,28.000000,2.000000,-50.000000,9.000000,-11.000000,15.000000,-3.000000
1312349.635226,9.000000,0.000000,-8.000000,-21.000000,-1.000000,22.000000,38.000000,39.000000
1312349.646066,-29.000000,-18.000000,-4.000000,41.000000,-30.000000,16.000000,-25.000000,-83.000000
1312349.646102,14.000000,12.000000,25.000000,-39.000000,-19.000000,-9.000000,11.000000,80.000000
1312349.647309,36.000000,-11.000000,36.000000,35.000000,35.000000,0.000000,-15.000000,-27.000000
1312349.647317,-18.000000,-44.000000,-45.000000,30.000000,-20.000000,49.000000,43.000000,83.000000
1312349.668886,10.000000,16.000000,-28.000000,-10.000000,1.000000,11.000000,67.000000,-40.000000
1312349.668897,44.000000,21.000000,2.000000,-12.000000,34.000000,10.000000,31.000000,127.000000
1312349.691129,-1.000000,-2.000000,17.000000,43.000000,10.000000,20.000000,1.000000,-6.000000
1312349.691139,-23.000000,-3.000000,-33.000000,20.000000,-16.000000,19.000000,37.000000,-48.000000
1312349.706214,10.000000,24.000000,24.000000,-50.000000,20.000000,-44.000000,-128.000000,-1.000000
1312349.706225,2.000000,3.000000,25.000000,111.000000,74.000000,19.000000,-8.000000,9.000000
1312349.729041,-41.000000,-21.000000,-17.000000,-7.000000,-31.000000,11.000000,10.000000,-41.000000
1312349.729050,-9.000000,-8.000000,-4.000000,-82.000000,-33.000000,2.000000,68.000000,26.000000
1312349.736167,-7.000000,-9.000000,5.000000,32.000000,30.000000,-30.000000,-128.000000,14.000000
1312349.736178,-33.000000,-39.000000,-1.000000,-9.000000,-30.000000,3.000000,-34.000000,-63.000000
1312349.743571,18.000000,29.000000,36.000000,-17.000000,-35.000000,2.000000,22.000000,5.000000
1312349.743590,21.000000,2.000000,-11.000000,3.000000,60.000000,-5.000000,-52.000000,-63.000000
1312349.744136,-4.000000,1.000000,-50.000000,11.000000,6.000000,32.000000,35.000000,-9.000000
1312349.744154,-36.000000,15.000000,60.000000,-28.000000,-16.000000,-16.000000,-9.000000,-62.000000
1312349.745301,-36.000000,-27.000000,-58.000000,65.000000,-22.000000,26.000000,-19.000000,-16.000000
1312349.745330,19.000000,31.000000,3.000000,19.000000,-2.000000,-5.000000,11.000000,-17.000000
1312349.751522,5.000000,-14.000000,-11.000000,-5.000000,-8.000000,5.000000,26.000000,-11.000000
1312349.751543,-11.000000,-39.000000,1.000000,53.000000,-10.000000,22.000000,-28.000000,38.000000
1312349.766208,-12.000000,-16.000000,42.000000,-70.000000,-29.000000,-13.000000,6.000000,-7.000000
1312349.766243,45.000000,31.000000,33.000000,-46.000000,33.000000,-18.000000,12.000000,19.000000
1312349.767270,-22.000000,-17.000000,0.000000,40.000000,-15.000000,6.000000,-22.000000,-24.000000
1312349.767278,-20.000000,13.000000,-75.000000,-27.000000,-32.000000,-21.000000,-43.000000,92.000000
1312349.788900,39.000000,42.000000,43.000000,-46.000000,16.000000,1.000000,127.000000,14.000000
1312349.788914,15.000000,-21.000000,-72.000000,-56.000000,-12.000000,3.000000,31.000000,4.000000
1312349.811139,-2.000000,-8.000000,-1.000000,100.000000,24.000000,36.000000,-55.000000,-42.000000
1312349.811158,38.000000,-7.000000,23.000000,-30.000000,-15.000000,2.000000,107.000000,127.000000
1312349.818532,-9.000000,-2.000000,-9.000000,-37.000000,-12.000000,-4.000000,-2.000000,-38.000000
1312349.818542,-20.000000,-42.000000,26.000000,127.000000,101.000000,65.000000,13.000000,-53.000000
1312349.848643,16.000000,24.000000,17.000000,-17.000000,-20.000000,-21.000000,-5.000000,-19.000000
1312349.848655,24.000000,12.000000,0.000000,-36.000000,7.000000,-13.000000,-11.000000,-15.000000
1312349.863729,-13.000000,-27.000000,-20.000000,-3.000000,-26.000000,8.000000,-10.000000,12.000000
1312349.863745,-11.000000,14.000000,33.000000,29.000000,7.000000,4.000000,67.000000,21.000000
1312349.864504,32.000000,43.000000,44.000000,-55.000000,1.000000,-18.000000,3.000000,76.000000
1312349.864514,-3.000000,-34.000000,-10.000000,9.000000,-9.000000,16.000000,41.000000,-24.000000
1312349.865334,-32.000000,-21.000000,-71.000000,-22.000000,-39.000000,-13.000000,-98.000000,-128.000000
1312349.865346,2.000000,17.000000,127.000000,10.000000,41.000000,-18.000000,-26.000000,127.000000
1312349.867116,5.000000,-8.000000,51.000000,10.000000,-13.000000,-4.000000,-30.000000,-109.000000
1312349.867132,-12.000000,-58.000000,-57.000000,38.000000,-1.000000,37.000000,27.000000,19.000000
1312349.870923,-16.000000,-28.000000,-40.000000,14.000000,-17.000000,11.000000,6.000000,-16.000000
1312349.870932,-23.000000,4.000000,13.000000,77.000000,47.000000,15.000000,-15.000000,-32.000000
1312349.886309,2.000000,32.000000,33.000000,-47.000000,-9.000000,-28.000000,78.000000,55.000000
1312349.886433,13.000000,-8.000000,32.000000,-42.000000,-17.000000,-14.000000,-47.000000,-9.000000
1312349.887209,-42.000000,-31.000000,-60.000000,27.000000,-16.000000,30.000000,95.000000,-45.000000
1312349.887224,29.000000,17.000000,-41.000000,-45.000000,-15.000000,-27.000000,-9.000000,104.000000
1312349.908421,-38.000000,-24.000000,55.000000,101.000000,36.000000,15.000000,-1.000000,-14.000000
1312349.908433,-54.000000,-40.000000,-36.000000,26.000000,-16.000000,26.000000,-39.000000,-128.000000
1312349.931173,10.000000,28.000000,25.000000,-32.000000,-5.000000,-1.000000,73.000000,127.000000
1312349.931192,53.000000,25.000000,70.000000,-3.000000,61.000000,0.000000,18.000000,104.000000
1312349.946024,-11.000000,-14.000000,-46.000000,9.000000,0.000000,28.000000,35.000000,-45.000000
1312349.946077,-5.000000,12.000000,82.000000,89.000000,70.000000,-6.000000,-64.000000,-21.000000
1312349.947167,18.000000,14.000000,-85.000000,-68.000000,-13.000000,-30.000000,-12.000000,-25.000000
1312349.947188,-10.000000,-7.000000,-35.000000,0.000000,-32.000000,1.000000,-5.000000,-20.000000
1312349.948017,1.000000,4.000000,-12.000000,41.000000,-4.000000,21.000000,17.000000,17.000000
1312349.948036,-12.000000,9.000000,13.000000,-5.000000,5.000000,2.000000,78.000000,3.000000
1312349.968483,12.000000,-21.000000,-4.000000,-13.000000,-21.000000,-5.000000,33.000000,90.000000
1312349.968493,-53.000000,-30.000000,-45.000000,-1.000000,10.000000,10.000000,-58.000000,-63.000000
1312349.976156,-14.000000,19.000000,-11.000000,55.000000,28.000000,0.000000,-11.000000,-30.000000
1312349.976179,9.000000,7.000000,-5.000000,-47.000000,-3.000000,-22.000000,30.000000,56.000000
1312350.006072,-6.000000,-2.000000,9.000000,-10.000000,7.000000,15.000000,-6.000000,-68.000000
1312350.006082,6.000000,29.000000,17.000000,13.000000,-5.000000,-8.000000,21.000000,11.000000
1312350.021239,-3.000000,18.000000,-4.000000,-76.000000,7.000000,-48.000000,-37.000000,20.000000
1312350.021254,-16.000000,-38.000000,24.000000,27.000000,-4.000000,11.000000,-20.000000,-28.000000
1312350.036153,-28.000000,-11.000000,-64.000000,-36.000000,-20.000000,11.000000,14.000000,-14.000000
1312350.036163,24.000000,39.000000,-32.000000,-8.000000,4.000000,-8.000000,46.000000,5.000000
1312350.043753,16.000000,-10.000000,13.000000,14.000000,20.000000,22.000000,20.000000,10.000000
1312350.043764,-24.000000,-22.000000,-5.000000,28.000000,-38.000000,14.000000,1.000000,18.000000
1312350.081226,-4.000000,18.000000,9.000000,3.000000,10.000000,-24.000000,-53.000000,-106.000000
1312350.081242,-25.000000,-5.000000,-4.000000,-51.000000,-21.000000,-14.000000,76.000000,68.000000
1312350.081661,59.000000,-28.000000,17.000000,31.000000,17.000000,32.000000,34.000000,-12.000000
1312350.081677,-13.000000,17.000000,4.000000,23.000000,5.000000,7.000000,2.000000,73.000000
1312350.082146,-33.000000,17.000000,-13.000000,33.000000,-14.000000,32.000000,88.000000,127.000000
1312350.082158,37.000000,16.000000,-9.000000,-26.000000,-10.000000,0.000000,28.000000,4.000000
1312350.083521,-13.000000,-14.000000,-76.000000,-46.000000,-32.000000,-7.000000,-9.000000,-21.000000
1312350.083540,-15.000000,-6.000000,32.000000,48.000000,-15.000000,21.000000,-7.000000,-21.000000
1312350.085229,-22.000000,-23.000000,32.000000,-10.000000,-24.000000,-1.000000,-2.000000,22.000000
1312350.085248,16.000000,24.000000,22.000000,24.000000,34.000000,12.000000,-30.000000,-54.000000
1312350.085717,-4.000000,21.000000,-6.000000,-75.000000,-1.000000,-34.000000,42.000000,28.000000
1312350.085749,27.000000,-33.000000,-33.000000,41.000000,3.000000,43.000000,18.000000,-83.000000
1312350.089341,19.000000,4.000000,9.000000,-1.000000,7.000000,1.000000,22.000000,127.000000
1312350.089357,0.000000,16.000000,47.000000,-52.000000,2.000000,-19.000000,-11.000000,-66.000000
1312350.103527,-4.000000,6.000000,12.000000,-5.000000,-2.000000,-4.000000,-35.000000,-85.000000
1312350.103542,-11.000000,-4.000000,-44.000000,-84.000000,-71.000000,7.000000,79.000000,21.000000
1312350.126481,3.000000,42.000000,32.000000,73.000000,98.000000,18.000000,-14.000000,75.000000
1312350.126633,19.000000,-8.000000,50.000000,-33.000000,-14.000000,-13.000000,10.000000,-28.000000
1312350.127016,-22.000000,-47.000000,-71.000000,32.000000,-18.000000,-1.000000,9.000000,46.000000
1312350.127030,-11.000000,8.000000,1.000000,-9.000000,9.000000,3.000000,-27.000000,-100.000000
1312350.133828,26.000000,15.000000,10.000000,-41.000000,10.000000,-12.000000,46.000000,41.000000
1312350.133851,-23.000000,-7.000000,19.000000,-12.000000,-27.000000,-21.000000,-121.000000,-41.000000
1312350.141210,-10.000000,28.000000,-30.000000,85.000000,-26.000000,4.000000,-21.000000,-82.000000
1312350.141227,-2.000000,15.000000,3.000000,-21.000000,61.000000,4.000000,57.000000,115.000000
1312350.163730,28.000000,17.000000,66.000000,12.000000,14.000000,8.000000,-8.000000,10.000000
1312350.163751,-36.000000,-38.000000,-21.000000,6.000000,-50.000000,36.000000,71.000000,-65.000000
1312350.186145,34.000000,-9.000000,61.000000,64.000000,27.000000,2.000000,16.000000,127.000000
1312350.186159,48.000000,-17.000000,-45.000000,-16.000000,55.000000,2.000000,55.000000,54.000000
1312350.208523,-13.000000,-36.000000,-14.000000,29.000000,-10.000000,22.000000,-3.000000,-27.000000
1312350.208533,-5.000000,9.000000,-15.000000,-33.000000,-21.000000,4.000000,36.000000,-43.000000
1312350.223281,-30.000000,5.000000,-19.000000,-24.000000,32.000000,-62.000000,-128.000000,6.000000
1312350.223292,41.000000,8.000000,62.000000,26.000000,34.000000,33.000000,13.000000,56.000000
1312350.224537,-29.000000,15.000000,-28.000000,-23.000000,-33.000000,9.000000,13.000000,-35.000000
1312350.224556,-11.000000,25.000000,-3.000000,-10.000000,29.000000,-17.000000,-6.000000,-11.000000
1312350.225216,-19.000000,-29.000000,7.000000,7.000000,-7.000000,12.000000,5.000000,-10.000000
1312350.225229,-11.000000,-5.000000,3.000000,91.000000,13.000000,18.000000,-30.000000,-22.000000
1312350.226354,9.000000,-9.000000,22.000000,-11.000000,-22.000000,1.000000,-44.000000,-9.000000
1312350.226362,-10.000000,8.000000,15.000000,21.000000,15.000000,4.000000,3.000000,-32.000000
1312350.238271,2.000000,32.000000,-18.000000,-34.000000,9.000000,-24.000000,-24.000000,-20.000000
1312350.238282,13.000000,7.000000,51.000000,35.000000,2.000000,36.000000,40.000000,65.000000
1312350.238945,1.000000,3.000000,27.000000,-23.000000,-19.000000,-1.000000,0.000000,-71.000000
1312350.238954,-12.000000,4.000000,-99.000000,-40.000000,31.000000,-47.000000,-67.000000,94.000000
1312350.260927,37.000000,20.000000,70.000000,-30.000000,-4.000000,-10.000000,-6.000000,-35.000000
1312350.260938,-45.000000,-16.000000,24.000000,49.000000,-22.000000,13.000000,7.000000,10.000000
1312350.283465,-6.000000,-10.000000,-15.000000,0.000000,4.000000,-2.000000,-1.000000,-49.000000
1312350.283476,6.000000,-17.000000,8.000000,0.000000,12.000000,-6.000000,1.000000,35.000000
1312350.320900,-42.000000,-55.000000,31.000000,-9.000000,-27.000000,21.000000,1.000000,-20.000000
1312350.320938,6.000000,16.000000,-11.000000,-12.000000,20.000000,-7.000000,-11.000000,10.000000
1312350.321473,19.000000,14.000000,-5.000000,-128.000000,-67.000000,-40.000000,-12.000000,-47.000000
1312350.321503,1.000000,8.000000,-39.000000,127.000000,92.000000,55.000000,56.000000,41.000000
1312350.322619,37.000000,29.000000,-77.000000,-34.000000,-15.000000,2.000000,40.000000,59.000000
1312350.322636,-25.000000,33.000000,-10.000000,-71.000000,-19.000000,-27.000000,-7.000000,-67.000000
1312350.323171,-31.000000,-14.000000,-31.000000,-13.000000,-38.000000,3.000000,16.000000,10.000000
1312350.323180,-13.000000,10.000000,37.000000,96.000000,76.000000,19.000000,-128.000000,-13.000000
1312350.324821,-39.000000,0.000000,-14.000000,46.000000,-15.000000,19.000000,6.000000,-61.000000
1312350.324835,-2.000000,23.000000,37.000000,0.000000,-13.000000,-13.000000,0.000000,70.000000
1312350.336188,26.000000,-3.000000,-6.000000,-34.000000,16.000000,-18.000000,-7.000000,-5.000000
1312350.336198,0.000000,-9.000000,-1.000000,-8.000000,-20.000000,19.000000,54.000000,52.000000
1312350.343231,-3.000000,14.000000,-32.000000,86.000000,34.000000,22.000000,4.000000,-25.000000
1312350.343239,16.000000,20.000000,-46.000000,-86.000000,-25.000000,-48.000000,-26.000000,-10.000000
1312350.358479,-13.000000,-6.000000,25.000000,1.000000,-12.000000,9.000000,-7.000000,6.000000
1312350.358509,-29.000000,-28.000000,-101.000000,48.000000,32.000000,30.000000,27.000000,29.000000
1312350.359116,21.000000,5.000000,10.000000,26.000000,5.000000,-20.000000,8.000000,6.000000
1312350.359171,-4.000000,-5.000000,-15.000000,-76.000000,-22.000000,-32.000000,-107.000000,4.000000
1312350.373471,-21.000000,-26.000000,-19.000000,87.000000,-8.000000,13.000000,-57.000000,-3.000000
1312350.373480,1.000000,-14.000000,-12.000000,-23.000000,6.000000,-1.000000,33.000000,-26.000000
1312350.381004,14.000000,5.000000,21.000000,-85.000000,10.000000,-46.000000,-40.000000,-35.000000
1312350.381013,11.000000,-40.000000,19.000000,93.000000,28.000000,48.000000,117.000000,-7.000000
1312350.418463,-36.000000,13.000000,-21.000000,-3.000000,-12.000000,-18.000000,-19.000000,55.000000
1312350.418474,22.000000,37.000000,2.000000,-102.000000,-12.000000,-40.000000,-9.000000,-28.000000
1312350.425916,13.000000,-28.000000,41.000000,41.000000,9.000000,26.000000,9.000000,-16.000000
1312350.425925,-45.000000,-6.000000,4.000000,43.000000,-22.000000,16.000000,-10.000000,3.000000
1312350.463570,-1.000000,-4.000000,-19.000000,-64.000000,-8.000000,-12.000000,15.000000,-13.000000
1312350.463580,7.000000,-7.000000,-21.000000,19.000000,-5.000000,7.000000,41.000000,-91.000000
1312350.478533,-25.000000,-19.000000,-52.000000,19.000000,-36.000000,11.000000,-32.000000,84.000000
1312350.478544,9.000000,-26.000000,51.000000,62.000000,109.000000,8.000000,-2.000000,-19.000000
1312350.501312,8.000000,-3.000000,44.000000,-17.000000,23.000000,-5.000000,-36.000000,-40.000000
1312350.501329,34.000000,11.000000,-14.000000,-54.000000,-19.000000,-6.000000,-16.000000,89.000000
1312350.516175,-17.000000,14.000000,13.000000,34.000000,22.000000,-3.000000,-52.000000,-57.000000
1312350.516284,14.000000,31.000000,23.000000,-87.000000,-25.000000,-40.000000,-55.000000,-39.000000
1312350.538578,40.000000,6.000000,-14.000000,45.000000,15.000000,-10.000000,4.000000,-11.000000
1312350.538590,-13.000000,-11.000000,-21.000000,-24.000000,6.000000,3.000000,7.000000,53.000000
1312350.539055,28.000000,20.000000,-47.000000,-13.000000,8.000000,-20.000000,-14.000000,3.000000
1312350.539067,-2.000000,-3.000000,-12.000000,0.000000,-16.000000,5.000000,-4.000000,-18.000000
1312350.539708,-33.000000,10.000000,-21.000000,14.000000,-12.000000,23.000000,43.000000,48.000000
1312350.539717,75.000000,64.000000,56.000000,-74.000000,22.000000,-40.000000,-13.000000,78.000000
1312350.540319,-16.000000,-21.000000,-1.000000,5.000000,-4.000000,8.000000,-11.000000,-52.000000
1312350.540371,-54.000000,-29.000000,-17.000000,71.000000,-25.000000,31.000000,28.000000,-16.000000
1312350.540955,-41.000000,-20.000000,-57.000000,16.000000,-41.000000,9.000000,0.000000,23.000000
1312350.540966,1.000000,12.000000,-43.000000,-41.000000,12.000000,-16.000000,-4.000000,4.000000
1312350.541400,25.000000,11.000000,83.000000,-6.000000,-1.000000,-6.000000,-32.000000,-99.000000
1312350.541407,-50.000000,-17.000000,-86.000000,39.000000,18.000000,-7.000000,-40.000000,82.000000
1312350.542413,25.000000,32.000000,16.000000,-51.000000,1.000000,-1.000000,-22.000000,-19.000000
1312350.542421,18.000000,-3.000000,23.000000,1.000000,20.000000,-16.000000,-24.000000,-39.000000
1312350.568370,4.000000,-21.000000,-24.000000,-70.000000,-73.000000,-10.000000,-36.000000,-31.000000
1312350.568395,-28.000000,12.000000,-29.000000,18.000000,-12.000000,20.000000,37.000000,48.000000
1312350.568850,-4.000000,10.000000,12.000000,-52.000000,-6.000000,-21.000000,13.000000,-69.000000
1312350.568858,-6.000000,-52.000000,-59.000000,91.000000,55.000000,36.000000,69.000000,41.000000
1312350.576821,-4.000000,-33.000000,-25.000000,80.000000,-2.000000,45.000000,65.000000,5.000000
1312350.576830,20.000000,16.000000,-16.000000,-54.000000,-20.000000,-63.000000,-128.000000,-36.000000
1312350.584249,7.000000,-29.000000,-69.000000,-99.000000,-9.000000,-32.000000,-19.000000,-17.000000
1312350.584305,-7.000000,-40.000000,-39.000000,113.000000,67.000000,47.000000,59.000000,71.000000
1312350.598532,-16.000000,3.000000,-45.000000,15.000000,-13.000000,-2.000000,42.000000,-26.000000
1312350.598562,23.000000,21.000000,9.000000,-56.000000,-13.000000,-45.000000,-32.000000,55.000000
1312350.599208,-13.000000,10.000000,-7.000000,30.000000,-10.000000,5.000000,-25.000000,-42.000000
1312350.599221,-22.000000,-12.000000,-30.000000,15.000000,-9.000000,18.000000,9.000000,-11.000000
1312350.621201,11.000000,18.000000,35.000000,-76.000000,-6.000000,-12.000000,35.000000,93.000000
1312350.621212,-14.000000,-33.000000,-39.000000,22.000000,51.000000,5.000000,-13.000000,-62.000000
1312350.636213,1.000000,-10.000000,-16.000000,15.000000,-20.000000,13.000000,-23.000000,-38.000000
1312350.636224,-61.000000,0.000000,-27.000000,-37.000000,-15.000000,-28.000000,-82.000000,-30.000000
1312350.681021,60.000000,4.000000,25.000000,-96.000000,-15.000000,-38.000000,-52.000000,72.000000
1312350.681044,29.000000,17.000000,-4.000000,47.000000,21.000000,27.000000,38.000000,27.000000
1312350.681417,-30.000000,22.000000,-66.000000,-28.000000,-26.000000,-34.000000,-40.000000,-55.000000
1312350.681425,13.000000,23.000000,55.000000,-44.000000,1.000000,-12.000000,-11.000000,-17.000000
1312350.682620,-13.000000,-21.000000,-28.000000,79.000000,18.000000,16.000000,-5.000000,-12.000000
1312350.682637,-30.000000,17.000000,-38.000000,4.000000,-21.000000,-1.000000,-73.000000,-90.000000
1312350.683756,14.000000,44.000000,6.000000,-64.000000,-10.000000,-20.000000,10.000000,99.000000
1312350.683772,-10.000000,-15.000000,-68.000000,-8.000000,-10.000000,12.000000,16.000000,-28.000000
1312350.684776,-20.000000,-30.000000,-17.000000,7.000000,-21.000000,9.000000,-16.000000,41.000000
1312350.684785,15.000000,16.000000,22.000000,-31.000000,-11.000000,-6.000000,-3.000000,-21.000000
1312350.696572,22.000000,15.000000,85.000000,19.000000,0.000000,-2.000000,4.000000,27.000000
1312350.696581,15.000000,-25.000000,-28.000000,-121.000000,-1.000000,-24.000000,-18.000000,-4.000000
1312350.703345,-12.000000,-16.000000,8.000000,51.000000,23.000000,24.000000,15.000000,21.000000
1312350.703354,-28.000000,8.000000,-9.000000,72.000000,31.000000,27.000000,12.000000,46.000000
1312350.719198,-1.000000,22.000000,-13.000000,-85.000000,-24.000000,-51.000000,0.000000,29.000000
1312350.719211,7.000000,-17.000000,36.000000,37.000000,12.000000,4.000000,3.000000,-36.000000
1312350.719346,-48.000000,-7.000000,-124.000000,14.000000,-33.000000,12.000000,-37.000000,-58.000000
1312350.719355,12.000000,2.000000,-16.000000,64.000000,-2.000000,-21.000000,-67.000000,-11.000000
1312350.733537,26.000000,-15.000000,16.000000,-39.000000,4.000000,-4.000000,13.000000,19.000000
1312350.733557,-30.000000,-38.000000,-24.000000,17.000000,-30.000000,8.000000,-15.000000,-16.000000
1312350.740997,4.000000,22.000000,-2.000000,37.000000,6.000000,-16.000000,-13.000000,16.000000
1312350.741016,1.000000,0.000000,3.000000,-31.000000,1.000000,-22.000000,-7.000000,-48.000000
1312350.778611,7.000000,-1.000000,-3.000000,-35.000000,-30.000000,-4.000000,-28.000000,-4.000000
1312350.778631,-55.000000,13.000000,-4.000000,56.000000,15.000000,9.000000,12.000000,81.000000
1312350.793397,32.000000,26.000000,-7.000000,-40.000000,0.000000,-26.000000,29.000000,-33.000000
1312350.793416,-23.000000,-10.000000,-18.000000,29.000000,-9.000000,-10.000000,-30.000000,-11.000000
1312350.794454,-21.000000,-19.000000,34.000000,51.000000,-17.000000,56.000000,64.000000,-84.000000
1312350.794463,14.000000,6.000000,-16.000000,-17.000000,37.000000,-25.000000,-38.000000,47.000000
1312350.795071,12.000000,0.000000,30.000000,-8.000000,-9.000000,-13.000000,8.000000,19.000000
1312350.795081,-25.000000,-74.000000,-68.000000,41.000000,2.000000,18.000000,-11.000000,-64.000000
1312350.796563,-21.000000,16.000000,-55.000000,-6.000000,-26.000000,-29.000000,-8.000000,-5.000000
1312350.796571,47.000000,42.000000,17.000000,-95.000000,20.000000,-32.000000,-71.000000,20.000000
1312350.801141,-12.000000,-9.000000,-28.000000,8.000000,-27.000000,7.000000,-9.000000,-38.000000
1312350.801151,-22.000000,-17.000000,-10.000000,61.000000,6.000000,12.000000,-12.000000,-79.000000
1312350.816085,8.000000,35.000000,33.000000,-46.000000,-17.000000,-42.000000,8.000000,86.000000
1312350.816098,-17.000000,-10.000000,23.000000,-9.000000,-23.000000,-1.000000,-1.000000,-25.000000
1312350.838573,56.000000,36.000000,18.000000,13.000000,-8.000000,37.000000,47.000000,64.000000
1312350.838590,-11.000000,13.000000,-23.000000,9.000000,-3.000000,-10.000000,13.000000,-104.000000
1312350.839723,10.000000,-7.000000,31.000000,55.000000,40.000000,22.000000,88.000000,127.000000
1312350.839741,1.000000,-56.000000,-11.000000,4.000000,-17.000000,20.000000,-13.000000,-59.000000
1312350.840341,-5.000000,11.000000,-10.000000,4.000000,15.000000,-1.000000,-2.000000,-11.000000
1312350.840351,17.000000,10.000000,-5.000000,-41.000000,-3.000000,-7.000000,38.000000,-7.000000
1312350.861023,-23.000000,-17.000000,-16.000000,32.000000,21.000000,8.000000,-54.000000,9.000000
1312350.861035,-12.000000,0.000000,-108.000000,-31.000000,-21.000000,-1.000000,13.000000,-23.000000
1312350.876200,43.000000,54.000000,-7.000000,-10.000000,-4.000000,-40.000000,-25.000000,-32.000000
1312350.876219,-20.000000,-6.000000,35.000000,-27.000000,-19.000000,9.000000,27.000000,96.000000
1312350.898441,-48.000000,-22.000000,-71.000000,-23.000000,-39.000000,9.000000,-21.000000,-99.000000
1312350.898452,65.000000,5.000000,-31.000000,-9.000000,7.000000,-11.000000,23.000000,64.000000
1312350.913526,10.000000,-19.000000,8.000000,-9.000000,8.000000,13.000000,34.000000,90.000000
1312350.913544,24.000000,-43.000000,9.000000,-11.000000,-7.000000,14.000000,3.000000,19.000000
1312350.914496,-18.000000,5.000000,-26.000000,9.000000,13.000000,-12.000000,-26.000000,-42.000000
1312350.914507,13.000000,8.000000,89.000000,-25.000000,13.000000,-15.000000,-24.000000,-18.000000
1312350.915142,-7.000000,-4.000000,-28.000000,11.000000,-2.000000,13.000000,74.000000,-4.000000
1312350.915152,4.000000,23.000000,39.000000,-34.000000,9.000000,15.000000,-38.000000,29.000000
1312350.916915,26.000000,46.000000,95.000000,-21.000000,28.000000,-21.000000,5.000000,-13.000000
1312350.916928,-8.000000,-20.000000,-30.000000,-1.000000,-30.000000,16.000000,57.000000,-34.000000
1312350.921012,-40.000000,-31.000000,-83.000000,27.000000,25.000000,1.000000,-107.000000,80.000000
1312350.921023,30.000000,16.000000,76.000000,-72.000000,0.000000,-34.000000,-15.000000,-12.000000
1312350.936584,-17.000000,-18.000000,21.000000,66.000000,-1.000000,1.000000,-9.000000,-16.000000
1312350.936593,-2.000000,-40.000000,-9.000000,48.000000,-17.000000,29.000000,20.000000,32.000000
1312350.950845,-5.000000,8.000000,-5.000000,-27.000000,-12.000000,-8.000000,-6.000000,-14.000000
1312350.950856,-11.000000,6.000000,-13.000000,-59.000000,2.000000,-30.000000,10.000000,-26.000000
1312350.959068,0.000000,-10.000000,-13.000000,18.000000,6.000000,13.000000,-21.000000,14.000000
1312350.959078,6.000000,19.000000,30.000000,-4.000000,-18.000000,4.000000,-4.000000,1.000000
1312350.965996,43.000000,40.000000,28.000000,-35.000000,7.000000,-16.000000,24.000000,20.000000
1312350.966007,-5.000000,-4.000000,-11.000000,38.000000,15.000000,-3.000000,-71.000000,-9.000000
1312350.980814,-9.000000,12.000000,6.000000,4.000000,-27.000000,15.000000,-12.000000,-36.000000
1312350.980824,17.000000,16.000000,45.000000,17.000000,46.000000,4.000000,54.000000,26.000000
1312350.995889,13.000000,3.000000,60.000000,53.000000,24.000000,22.000000,-14.000000,-22.000000
1312350.995898,3.000000,-44.000000,-5.000000,45.000000,-20.000000,18.000000,34.000000,-5.000000
1312351.033587,-36.000000,2.000000,-54.000000,27.000000,-15.000000,-37.000000,-89.000000,51.000000
1312351.033606,31.000000,28.000000,17.000000,-61.000000,27.000000,2.000000,20.000000,82.000000
1312351.033856,-12.000000,-5.000000,-7.000000,32.000000,15.000000,23.000000,16.000000,-57.000000
1312351.033864,-21.000000,0.000000,51.000000,8.000000,-13.000000,-9.000000,-26.000000,-37.000000
1312351.035024,17.000000,22.000000,-23.000000,-8.000000,7.000000,-25.000000,-2.000000,-15.000000
1312351.035033,-26.000000,-8.000000,-18.000000,6.000000,-4.000000,20.000000,25.000000,-63.000000
1312351.035861,-25.000000,-8.000000,-27.000000,-33.000000,-33.000000,-30.000000,-89.000000,39.000000
1312351.035871,22.000000,17.000000,-35.000000,-36.000000,12.000000,-4.000000,19.000000,19.000000
1312351.037431,-6.000000,-35.000000,56.000000,4.000000,-17.000000,2.000000,-7.000000,-45.000000
1312351.037440,-52.000000,-8.000000,-77.000000,75.000000,37.000000,23.000000,16.000000,93.000000
1312351.040975,-1.000000,16.000000,-3.000000,-50.000000,-9.000000,-10.000000,20.000000,-40.000000
1312351.040984,8.000000,10.000000,20.000000,-33.000000,-16.000000,-40.000000,-45.000000,-25.000000
1312351.056139,18.000000,-9.000000,-23.000000,10.000000,-30.000000,7.000000,8.000000,43.000000
1312351.056151,-35.000000,12.000000,-4.000000,13.000000,38.000000,7.000000,6.000000,-10.000000
1312351.070924,6.000000,7.000000,3.000000,-43.000000,4.000000,-16.000000,6.000000,-56.000000
1312351.070941,-35.000000,-2.000000,-21.000000,2.000000,-12.000000,-10.000000,-77.000000,-12.000000
1312351.085954,43.000000,2.000000,-34.000000,35.000000,-31.000000,-5.000000,51.000000,87.000000
1312351.085973,-15.000000,-12.000000,91.000000,10.000000,34.000000,0.000000,57.000000,127.000000
1312351.093378,0.000000,-13.000000,-5.000000,18.000000,-4.000000,15.000000,3.000000,-65.000000
1312351.093388,2.000000,-1.000000,-11.000000,29.000000,-9.000000,25.000000,12.000000,27.000000
1312351.130924,1.000000,18.000000,-7.000000,33.000000,5.000000,-7.000000,-3.000000,-21.000000
1312351.130935,8.000000,-9.000000,4.000000,8.000000,-1.000000,-10.000000,-2.000000,-4.000000
1312351.138641,-11.000000,-15.000000,0.000000,1.000000,-17.000000,5.000000,3.000000,0.000000
1312351.138653,-1.000000,28.000000,0.000000,-20.000000,-13.000000,-8.000000,-3.000000,-37.000000
1312351.176109,17.000000,5.000000,5.000000,-41.000000,20.000000,-27.000000,0.000000,20.000000
1312351.176126,14.000000,0.000000,-8.000000,-18.000000,-30.000000,1.000000,19.000000,69.000000
1312351.176483,-21.000000,0.000000,31.000000,86.000000,16.000000,12.000000,1.000000,-19.000000
1312351.176491,-2.000000,9.000000,-5.000000,-42.000000,2.000000,-6.000000,8.000000,-17.000000
1312351.177546,-2.000000,-1.000000,-18.000000,21.000000,13.000000,11.000000,22.000000,62.000000
1312351.177554,-2.000000,20.000000,35.000000,39.000000,6.000000,9.000000,-117.000000,17.000000
1312351.178257,23.000000,16.000000,7.000000,-18.000000,9.000000,-9.000000,-25.000000,-34.000000
1312351.178274,4.000000,-14.000000,-12.000000,-18.000000,6.000000,-2.000000,13.000000,-43.000000
1312351.178917,-6.000000,-3.000000,50.000000,-17.000000,18.000000,-20.000000,23.000000,-51.000000
1312351.178925,8.000000,-6.000000,-30.000000,48.000000,-18.000000,11.000000,18.000000,48.000000
1312351.191027,5.000000,-2.000000,15.000000,47.000000,11.000000,6.000000,20.000000,53.000000
1312351.191039,-47.000000,-17.000000,-33.000000,-1.000000,-15.000000,10.000000,-22.000000,-49.000000
1312351.192569,-1.000000,8.000000,11.000000,-18.000000,-8.000000,-1.000000,-27.000000,-66.000000
1312351.192581,43.000000,5.000000,-14.000000,-12.000000,-4.000000,-15.000000,-54.000000,10.000000
1312351.213676,-113.000000,-28.000000,-23.000000,53.000000,-13.000000,10.000000,99.000000,43.000000
1312351.213698,39.000000,15.000000,26.000000,-24.000000,9.000000,-9.000000,-27.000000,31.000000
1312351.251222,9.000000,11.000000,-20.000000,-48.000000,-7.000000,-25.000000,5.000000,-42.000000
1312351.251243,-23.000000,-16.000000,-20.000000,79.000000,42.000000,35.000000,16.000000,-19.000000
1312351.258462,-19.000000,6.000000,-19.000000,1.000000,-21.000000,2.000000,5.000000,-3.000000
1312351.258481,12.000000,25.000000,-27.000000,-35.000000,-6.000000,-27.000000,-17.000000,-17.000000
1312351.288661,-29.000000,-30.000000,9.000000,8.000000,2.000000,-6.000000,-5.000000,37.000000
1312351.288671,-26.000000,-23.000000,18.000000,20.000000,-28.000000,12.000000,-37.000000,-106.000000
1312351.296318,27.000000,-22.000000,24.000000,4.000000,16.000000,-13.000000,-20.000000,54.000000
1312351.296337,31.000000,12.000000,6.000000,-48.000000,9.000000,-17.000000,-26.000000,-20.000000
1312351.297215,-14.000000,-29.000000,-21.000000,48.000000,-12.000000,23.000000,18.000000,-11.000000
1312351.297231,-4.000000,-9.000000,-1.000000,15.000000,28.000000,4.000000,56.000000,5.000000
1312351.298099,25.000000,7.000000,9.000000,19.000000,5.000000,-15.000000,70.000000,52.000000
1312351.298127,-26.000000,-30.000000,-21.000000,-27.000000,-14.000000,-17.000000,-78.000000,-52.000000
1312351.298556,-9.000000,-6.000000,5.000000,34.000000,-5.000000,20.000000,-20.000000,-24.000000
1312351.298573,29.000000,40.000000,12.000000,-55.000000,1.000000,-15.000000,34.000000,9.000000
1312351.300376,6.000000,11.000000,-18.000000,-53.000000,-18.000000,-12.000000,14.000000,43.000000
1312351.300408,13.000000,-9.000000,-53.000000,-23.000000,26.000000,-13.000000,-21.000000,-12.000000
1312351.303802,-6.000000,-19.000000,19.000000,22.000000,-14.000000,18.000000,-26.000000,-51.000000
1312351.303828,-19.000000,14.000000,7.000000,-18.000000,-10.000000,-10.000000,3.000000,16.000000
1312351.311603,29.000000,-2.000000,80.000000,35.000000,46.000000,-7.000000,10.000000,25.000000
1312351.311626,14.000000,-5.000000,17.000000,13.000000,3.000000,17.000000,10.000000,18.000000
1312351.333685,-20.000000,-1.000000,39.000000,13.000000,-15.000000,13.000000,-14.000000,-73.000000
1312351.333696,8.000000,22.000000,-42.000000,-33.000000,12.000000,-22.000000,21.000000,58.000000
1312351.356171,36.000000,4.000000,39.000000,-31.000000,-12.000000,-8.000000,-57.000000,3.000000
1312351.356189,-10.000000,-1.000000,-29.000000,37.000000,-16.000000,14.000000,-11.000000,50.000000
1312351.363479,-8.000000,7.000000,-37.000000,95.000000,13.000000,-3.000000,12.000000,-26.000000
1312351.363489,13.000000,-12.000000,17.000000,-54.000000,-15.000000,-31.000000,-78.000000,-17.000000
1312351.393598,22.000000,-38.000000,-49.000000,81.000000,-13.000000,39.000000,42.000000,101.000000
1312351.393618,-22.000000,20.000000,5.000000,-86.000000,-18.000000,-11.000000,-4.000000,-9.000000
1312351.408309,9.000000,-27.000000,-7.000000,34.000000,56.000000,-17.000000,-19.000000,-27.000000
1312351.408323,-17.000000,-23.000000,13.000000,2.000000,1.000000,9.000000,13.000000,17.000000
1312351.409532,-15.000000,16.000000,0.000000,5.000000,-7.000000,6.000000,-13.000000,-50.000000
1312351.409552,8.000000,31.000000,-6.000000,-38.000000,0.000000,-18.000000,2.000000,-6.000000
1312351.410107,-1.000000,16.000000,-27.000000,3.000000,-9.000000,-8.000000,1.000000,42.000000
1312351.410125,-40.000000,-13.000000,5.000000,-3.000000,-12.000000,-5.000000,-60.000000,3.000000
1312351.411344,30.000000,13.000000,15.000000,-13.000000,3.000000,-8.000000,-9.000000,-39.000000
1312351.411353,3.000000,-27.000000,-14.000000,-3.000000,10.000000,3.000000,27.000000,1.000000
1312351.415874,37.000000,9.000000,29.000000,-72.000000,-3.000000,-33.000000,-9.000000,61.000000
1312351.415885,61.000000,-22.000000,0.000000,67.000000,64.000000,37.000000,71.000000,127.000000
1312351.431417,-31.000000,-12.000000,-24.000000,22.000000,-6.000000,10.000000,22.000000,-107.000000
1312351.431443,3.000000,24.000000,-16.000000,-76.000000,9.000000,-29.000000,12.000000,75.000000
1312351.432472,-5.000000,-7.000000,3.000000,12.000000,-8.000000,2.000000,-20.000000,-33.000000
1312351.432499,-26.000000,-1.000000,31.000000,113.000000,-26.000000,25.000000,-9.000000,-29.000000
1312351.453508,-8.000000,10.000000,-14.000000,-30.000000,-12.000000,-16.000000,-47.000000,13.000000
1312351.453519,-13.000000,21.000000,-41.000000,-57.000000,-6.000000,-32.000000,-56.000000,56.000000
1312351.476277,8.000000,-13.000000,11.000000,-3.000000,0.000000,22.000000,-31.000000,-40.000000
1312351.476288,-3.000000,9.000000,-38.000000,29.000000,-17.000000,-4.000000,6.000000,-33.000000
1312351.491163,11.000000,-3.000000,-8.000000,-53.000000,-2.000000,-20.000000,11.000000,12.000000
1312351.491172,-17.000000,-20.000000,-38.000000,-13.000000,-12.000000,22.000000,83.000000,-20.000000
1312351.513809,4.000000,-15.000000,10.000000,13.000000,9.000000,-4.000000,15.000000,54.000000
1312351.513818,7.000000,2.000000,-67.000000,-85.000000,-19.000000,-41.000000,-39.000000,-108.000000
1312351.514438,-22.000000,-17.000000,35.000000,45.000000,13.000000,12.000000,27.000000,65.000000
1312351.514446,-4.000000,1.000000,18.000000,33.000000,-9.000000,24.000000,-40.000000,60.000000
1312351.515995,11.000000,17.000000,26.000000,15.000000,24.000000,6.000000,52.000000,21.000000
1312351.516009,-7.000000,-9.000000,24.000000,-25.000000,6.000000,-7.000000,17.000000,-63.000000
1312351.516643,-36.000000,-32.000000,-43.000000,40.000000,-33.000000,20.000000,-17.000000,-27.000000
1312351.516651,-4.000000,1.000000,7.000000,-17.000000,0.000000,-17.000000,-14.000000,-20.000000
1312351.528449,-4.000000,23.000000,-10.000000,-5.000000,10.000000,-1.000000,-4.000000,16.000000
1312351.528460,43.000000,38.000000,12.000000,-83.000000,8.000000,-20.000000,-12.000000,-72.000000
1312351.536132,-103.000000,-32.000000,-68.000000,25.000000,-9.000000,2.000000,-10.000000,127.000000
1312351.536153,14.000000,-6.000000,15.000000,44.000000,15.000000,17.000000,-8.000000,-37.000000
1312351.551020,-13.000000,9.000000,-32.000000,-27.000000,-12.000000,-28.000000,-17.000000,-62.000000
1312351.551065,2.000000,10.000000,-18.000000,-27.000000,-5.000000,1.000000,-27.000000,57.000000
1312351.552175,10.000000,-33.000000,-65.000000,36.000000,-14.000000,23.000000,21.000000,61.000000
1312351.552184,8.000000,3.000000,52.000000,61.000000,13.000000,-22.000000,-35.000000,29.000000
1312351.566248,9.000000,12.000000,-15.000000,-35.000000,17.000000,-18.000000,-8.000000,-25.000000
1312351.566279,-15.000000,2.000000,-60.000000,15.000000,-3.000000,14.000000,6.000000,-12.000000
1312351.588577,-22.000000,11.000000,-16.000000,-5.000000,-6.000000,-8.000000,-18.000000,-51.000000
1312351.588587,8.000000,20.000000,1.000000,-33.000000,-5.000000,-14.000000,22.000000,39.000000
1312351.595868,3.000000,-1.000000,9.000000,37.000000,25.000000,9.000000,9.000000,60.000000
1312351.595877,-5.000000,1.000000,-47.000000,17.000000,18.000000,18.000000,12.000000,-2.000000
1312351.611375,5.000000,-7.000000,51.000000,-53.000000,-23.000000,-10.000000,8.000000,-37.000000
1312351.611404,-4.000000,-10.000000,-28.000000,-11.000000,-4.000000,7.000000,34.000000,14.000000
1312351.626031,39.000000,-8.000000,-32.000000,17.000000,-24.000000,15.000000,-24.000000,32.000000
1312351.626041,-49.000000,-8.000000,45.000000,-25.000000,-27.000000,-5.000000,19.000000,72.000000
1312351.626950,47.000000,23.000000,10.000000,-3.000000,33.000000,0.000000,68.000000,-2.000000
1312351.626959,-47.000000,-12.000000,-59.000000,-18.000000,-27.000000,-23.000000,-97.000000,-95.000000
1312351.627648,18.000000,14.000000,-12.000000,8.000000,12.000000,-10.000000,-96.000000,19.000000
1312351.627667,-18.000000,23.000000,50.000000,-15.000000,21.000000,-15.000000,-34.000000,-34.000000
1312351.633633,-8.000000,-14.000000,-30.000000,12.000000,0.000000,15.000000,39.000000,17.000000
1312351.633655,-13.000000,17.000000,18.000000,42.000000,-15.000000,0.000000,13.000000,41.000000
1312351.648463,-4.000000,8.000000,19.000000,-10.000000,11.000000,-7.000000,-27.000000,-18.000000
1312351.648518,14.000000,-20.000000,10.000000,42.000000,14.000000,7.000000,-18.000000,-11.000000
1312351.671421,-9.000000,-21.000000,-36.000000,4.000000,-32.000000,15.000000,-3.000000,-12.000000
1312351.671450,-13.000000,-4.000000,9.000000,-96.000000,-20.000000,-18.000000,-11.000000,-2.000000
1312351.671869,18.000000,13.000000,86.000000,14.000000,33.000000,-12.000000,-9.000000,-6.000000
1312351.671880,-41.000000,-28.000000,-59.000000,-83.000000,-26.000000,13.000000,-34.000000,2.000000
1312351.673299,32.000000,32.000000,44.000000,82.000000,88.000000,15.000000,37.000000,54.000000
1312351.673308,7.000000,-3.000000,-29.000000,-45.000000,-1.000000,-21.000000,-3.000000,-58.000000
1312351.686025,-13.000000,-8.000000,-29.000000,8.000000,-9.000000,17.000000,-13.000000,33.000000
1312351.686042,-6.000000,16.000000,-12.000000,4.000000,-16.000000,1.000000,-30.000000,-30.000000
1312351.708717,39.000000,3.000000,-31.000000,-24.000000,-3.000000,-12.000000,7.000000,16.000000
1312351.708727,-5.000000,-17.000000,-1.000000,14.000000,-4.000000,4.000000,22.000000,-13.000000
1312351.731145,-21.000000,-12.000000,13.000000,39.000000,-21.000000,19.000000,-44.000000,-69.000000
1312351.731194,8.000000,33.000000,31.000000,-28.000000,8.000000,-23.000000,-7.000000,28.000000
1312351.753815,14.000000,-11.000000,1.000000,-58.000000,3.000000,-15.000000,-14.000000,-55.000000
1312351.753827,11.000000,-27.000000,37.000000,97.000000,44.000000,22.000000,-14.000000,-28.000000
1312351.768755,-17.000000,6.000000,-22.000000,-45.000000,-12.000000,-9.000000,1.000000,42.000000
1312351.768766,27.000000,12.000000,17.000000,58.000000,62.000000,-23.000000,-128.000000,8.000000
1312351.791570,-2.000000,9.000000,9.000000,-35.000000,-26.000000,-16.000000,-60.000000,-105.000000
1312351.791593,-20.000000,-2.000000,17.000000,36.000000,-17.000000,5.000000,6.000000,30.000000
1312351.806094,22.000000,26.000000,-64.000000,-40.000000,-14.000000,-28.000000,-21.000000,-50.000000
1312351.806105,-36.000000,-9.000000,32.000000,-20.000000,-15.000000,-16.000000,-70.000000,9.000000
1312351.851161,20.000000,36.000000,97.000000,-8.000000,5.000000,4.000000,24.000000,89.000000
1312351.851189,11.000000,14.000000,24.000000,-18.000000,2.000000,-18.000000,-9.000000,-39.000000
1312351.867092,-45.000000,-29.000000,-26.000000,83.000000,-28.000000,22.000000,6.000000,-43.000000
1312351.867105,8.000000,4.000000,-34.000000,-49.000000,-14.000000,-13.000000,-8.000000,11.000000
1312351.868238,3.000000,16.000000,1.000000,-18.000000,-2.000000,-8.000000,5.000000,-26.000000
1312351.868247,30.000000,-1.000000,-31.000000,-55.000000,3.000000,-7.000000,41.000000,-19.000000
1312351.873384,36.000000,15.000000,-12.000000,-28.000000,21.000000,-2.000000,99.000000,127.000000
1312351.873398,23.000000,18.000000,-11.000000,-69.000000,1.000000,-25.000000,-29.000000,-128.000000
1312351.889137,-9.000000,12.000000,33.000000,64.000000,-8.000000,13.000000,-7.000000,43.000000
1312351.889164,10.000000,10.000000,-2.000000,-21.000000,3.000000,1.000000,-7.000000,19.000000
1312351.903588,42.000000,17.000000,-44.000000,-36.000000,2.000000,-15.000000,9.000000,-55.000000
1312351.903610,-8.000000,-24.000000,11.000000,62.000000,23.000000,14.000000,11.000000,19.000000
1312351.904761,-23.000000,-18.000000,11.000000,21.000000,-12.000000,20.000000,-3.000000,10.000000
1312351.904770,1.000000,15.000000,6.000000,-27.000000,-15.000000,-11.000000,-10.000000,-29.000000
1312351.926101,17.000000,-34.000000,29.000000,31.000000,40.000000,6.000000,37.000000,35.000000
1312351.926148,-16.000000,-41.000000,-34.000000,21.000000,10.000000,30.000000,-14.000000,1.000000
1312351.963525,-3.000000,14.000000,25.000000,-31.000000,-8.000000,-3.000000,25.000000,-12.000000
1312351.963535,13.000000,-3.000000,47.000000,-82.000000,15.000000,-30.000000,-84.000000,3.000000
1312351.970837,-37.000000,-9.000000,35.000000,-19.000000,-15.000000,3.000000,-31.000000,-98.000000
1312351.970854,9.000000,28.000000,24.000000,-3.000000,16.000000,-57.000000,-128.000000,11.000000
1312351.972013,41.000000,28.000000,12.000000,-63.000000,4.000000,-17.000000,-17.000000,-124.000000
1312351.972022,-16.000000,-9.000000,-19.000000,23.000000,-13.000000,6.000000,5.000000,-54.000000
1312351.972578,32.000000,-15.000000,-16.000000,8.000000,-15.000000,24.000000,32.000000,56.000000
1312351.972586,-4.000000,31.000000,10.000000,-28.000000,19.000000,-6.000000,-6.000000,-7.000000
1312351.974184,1.000000,-2.000000,-4.000000,-6.000000,7.000000,-4.000000,-11.000000,-37.000000
1312351.974194,-31.000000,-56.000000,-63.000000,37.000000,-13.000000,28.000000,-14.000000,-77.000000
1312351.986246,25.000000,20.000000,57.000000,-8.000000,9.000000,-28.000000,-57.000000,81.000000
1312351.986260,81.000000,12.000000,0.000000,-41.000000,-4.000000,-5.000000,52.000000,-32.000000
1312351.987321,-9.000000,-14.000000,1.000000,11.000000,1.000000,27.000000,-37.000000,127.000000
1312351.987335,-36.000000,-21.000000,0.000000,30.000000,-2.000000,26.000000,89.000000,-128.000000
1312351.993638,81.000000,57.000000,-16.000000,-75.000000,-1.000000,-42.000000,15.000000,127.000000
1312351.993649,-44.000000,-29.000000,9.000000,-26.000000,5.000000,9.000000,13.000000,-128.000000
1312352.009003,-69.000000,-25.000000,-42.000000,9.000000,-42.000000,6.000000,-47.000000,-109.000000
1312352.009013,26.000000,20.000000,-21.000000,-54.000000,-9.000000,-12.000000,32.000000,81.000000
1312352.023817,19.000000,-14.000000,4.000000,22.000000,42.000000,2.000000,-56.000000,-2.000000
1312352.023847,-29.000000,-36.000000,-5.000000,-5.000000,-25.000000,16.000000,-13.000000,-67.000000
1312352.024755,-12.000000,10.000000,-16.000000,-49.000000,-21.000000,-58.000000,-103.000000,22.000000
1312352.024763,36.000000,16.000000,32.000000,-72.000000,23.000000,-11.000000,49.000000,-75.000000
1312352.039098,-28.000000,-1.000000,-64.000000,-18.000000,-18.000000,-30.000000,-100.000000,-76.000000
1312352.039108,-13.000000,5.000000,-9.000000,-13.000000,-16.000000,-2.000000,-20.000000,-33.000000
1312352.061125,83.000000,43.000000,10.000000,-34.000000,30.000000,-14.000000,14.000000,-5.000000
1312352.061135,-128.000000,-26.000000,-24.000000,-8.000000,20.000000,11.000000,-6.000000,2.000000
1312352.068861,-25.000000,-9.000000,34.000000,80.000000,-14.000000,22.000000,17.000000,-26.000000
1312352.068890,5.000000,20.000000,3.000000,-11.000000,-8.000000,-13.000000,28.000000,16.000000
1312352.084616,13.000000,-4.000000,-19.000000,-30.000000,-15.000000,-6.000000,-11.000000,25.000000
1312352.084652,6.000000,-32.000000,15.000000,14.000000,-30.000000,7.000000,-68.000000,-103.000000
1312352.091209,4.000000,4.000000,3.000000,-2.000000,7.000000,-15.000000,57.000000,101.000000
1312352.091231,-8.000000,-20.000000,-43.000000,-35.000000,-16.000000,10.000000,114.000000,-83.000000
1312352.092385,-21.000000,19.000000,-2.000000,-8.000000,-5.000000,-13.000000,-82.000000,58.000000
1312352.092394,-6.000000,-21.000000,12.000000,-4.000000,-11.000000,8.000000,23.000000,127.000000
1312352.106081,6.000000,-2.000000,-14.000000,-27.000000,5.000000,-20.000000,85.000000,-128.000000
1312352.106091,13.000000,-19.000000,31.000000,9.000000,-5.000000,17.000000,-28.000000,46.000000
1312352.107219,-33.000000,-1.000000,-14.000000,36.000000,-13.000000,11.000000,-14.000000,-38.000000
1312352.107241,8.000000,1.000000,5.000000,6.000000,12.000000,2.000000,17.000000,-4.000000
1312352.113412,-6.000000,-7.000000,23.000000,14.000000,43.000000,8.000000,47.000000,-7.000000
1312352.113434,5.000000,-14.000000,-35.000000,28.000000,-33.000000,10.000000,-48.000000,4.000000
1312352.143572,-12.000000,-4.000000,-7.000000,-38.000000,-17.000000,-8.000000,-16.000000,6.000000
1312352.143602,1.000000,-11.000000,18.000000,-15.000000,8.000000,-10.000000,37.000000,-31.000000
1312352.144104,80.000000,38.000000,115.000000,40.000000,16.000000,32.000000,53.000000,111.000000
1312352.144123,-13.000000,19.000000,13.000000,5.000000,-5.000000,0.000000,-39.000000,-60.000000
1312352.145422,34.000000,6.000000,-15.000000,-29.000000,7.000000,-51.000000,-128.000000,-41.000000
1312352.145441,-47.000000,-39.000000,31.000000,107.000000,22.000000,31.000000,69.000000,-84.000000
1312352.166174,76.000000,24.000000,41.000000,48.000000,-18.000000,18.000000,85.000000,127.000000
1312352.166184,22.000000,17.000000,-47.000000,-48.000000,-7.000000,-17.000000,-7.000000,-38.000000
1312352.188506,-1.000000,-36.000000,0.000000,-4.000000,-26.000000,32.000000,30.000000,-4.000000
1312352.188524,-36.000000,-30.000000,-23.000000,33.000000,7.000000,5.000000,-9.000000,47.000000
1312352.203634,3.000000,21.000000,8.000000,-35.000000,3.000000,-7.000000,12.000000,2.000000
1312352.203650,6.000000,-1.000000,-7.000000,-72.000000,-42.000000,-12.000000,6.000000,-20.000000
1312352.227073,14.000000,-3.000000,39.000000,114.000000,62.000000,41.000000,4.000000,-1.000000
1312352.227110,-20.000000,8.000000,-40.000000,-30.000000,-46.000000,-13.000000,21.000000,47.000000
1312352.227619,21.000000,4.000000,43.000000,-53.000000,12.000000,-32.000000,35.000000,1.000000
1312352.227635,-29.000000,-35.000000,-13.000000,98.000000,-13.000000,12.000000,8.000000,-19.000000
1312352.228651,-2.000000,-17.000000,-48.000000,-46.000000,-51.000000,0.000000,39.000000,-3.000000
1312352.228703,-19.000000,21.000000,-37.000000,2.000000,33.000000,-27.000000,-58.000000,-21.000000
1312352.229603,14.000000,-12.000000,11.000000,-27.000000,17.000000,-6.000000,-19.000000,38.000000
1312352.229647,-57.000000,-45.000000,-60.000000,63.000000,-22.000000,55.000000,127.000000,-30.000000
1312352.241073,0.000000,-23.000000,-49.000000,15.000000,-15.000000,26.000000,56.000000,-24.000000
1312352.241106,-34.000000,22.000000,22.000000,10.000000,0.000000,-1.000000,-12.000000,-16.000000
1312352.249232,32.000000,5.000000,3.000000,-47.000000,17.000000,-19.000000,0.000000,10.000000
1312352.249254,-39.000000,-25.000000,-1.000000,-5.000000,-13.000000,-5.000000,-45.000000,-128.000000
1312352.263372,-8.000000,11.000000,-18.000000,52.000000,4.000000,12.000000,73.000000,127.000000
1312352.263382,6.000000,2.000000,43.000000,76.000000,17.000000,4.000000,127.000000,-76.000000
1312352.278600,17.000000,-50.000000,18.000000,51.000000,18.000000,24.000000,45.000000,25.000000
1312352.278629,-39.000000,-20.000000,-13.000000,54.000000,-10.000000,10.000000,18.000000,6.000000
1312352.286215,15.000000,4.000000,0.000000,-45.000000,-12.000000,-30.000000,-89.000000,-8.000000
1312352.286244,42.000000,-19.000000,-20.000000,-23.000000,-7.000000,-3.000000,-6.000000,-47.000000
1312352.308631,-14.000000,-28.000000,-54.000000,-42.000000,-26.000000,-3.000000,32.000000,38.000000
1312352.308645,-11.000000,25.000000,68.000000,22.000000,50.000000,22.000000,0.000000,-25.000000
1312352.309060,2.000000,11.000000,35.000000,28.000000,45.000000,2.000000,3.000000,3.000000
1312352.309072,1.000000,-1.000000,-48.000000,-13.000000,-11.000000,9.000000,0.000000,-17.000000
1312352.310732,-32.000000,12.000000,-26.000000,58.000000,-2.000000,16.000000,23.000000,40.000000
1312352.310783,12.000000,40.000000,-27.000000,-75.000000,0.000000,-29.000000,-77.000000,-128.000000
1312352.323369,-15.000000,-5.000000,-13.000000,-17.000000,-23.000000,-14.000000,18.000000,127.000000
1312352.323402,18.000000,12.000000,-6.000000,-21.000000,-3.000000,-10.000000,-53.000000,-12.000000
1312352.324605,-9.000000,10.000000,-10.000000,-37.000000,-7.000000,-23.000000,-111.000000,-128.000000
1312352.324631,26.000000,-10.000000,-12.000000,-22.000000,35.000000,-12.000000,31.000000,65.000000
1312352.346004,-16.000000,-17.000000,34.000000,72.000000,-12.000000,16.000000,19.000000,-24.000000
1312352.346014,-20.000000,24.000000,6.000000,-43.000000,5.000000,-1.000000,6.000000,-7.000000
1312352.361497,25.000000,-1.000000,-58.000000,-51.000000,12.000000,-17.000000,-15.000000,3.000000
1312352.361507,20.000000,-1.000000,2.000000,-11.000000,-16.000000,4.000000,15.000000,44.000000
1312352.368689,-53.000000,9.000000,-10.000000,55.000000,6.000000,3.000000,-23.000000,-35.000000
1312352.368699,24.000000,5.000000,-93.000000,-48.000000,-5.000000,-25.000000,-13.000000,83.000000
1312352.406189,12.000000,-9.000000,-11.000000,-13.000000,7.000000,16.000000,26.000000,-16.000000
1312352.406203,-36.000000,-3.000000,-30.000000,43.000000,-14.000000,-1.000000,-76.000000,-41.000000
1312352.421273,57.000000,44.000000,47.000000,-3.000000,16.000000,11.000000,6.000000,63.000000
1312352.421286,18.000000,-19.000000,-32.000000,-7.000000,9.000000,3.000000,29.000000,-11.000000
1312352.443644,-34.000000,-33.000000,-30.000000,58.000000,-18.000000,31.000000,63.000000,72.000000
1312352.443659,0.000000,13.000000,-23.000000,-93.000000,-28.000000,-19.000000,24.000000,26.000000
1312352.444167,20.000000,20.000000,11.000000,15.000000,91.000000,4.000000,18.000000,34.000000
1312352.444204,-10.000000,-15.000000,88.000000,6.000000,-6.000000,8.000000,-7.000000,-22.000000
1312352.445097,-2.000000,7.000000,-13.000000,58.000000,-7.000000,7.000000,11.000000,-9.000000
1312352.445106,11.000000,16.000000,-4.000000,-40.000000,-14.000000,-15.000000,38.000000,12.000000
1312352.446547,2.000000,-25.000000,-49.000000,3.000000,-20.000000,12.000000,22.000000,27.000000
1312352.446567,7.000000,19.000000,-6.000000,9.000000,27.000000,-2.000000,18.000000,-6.000000
1312352.458654,-14.000000,-18.000000,-65.000000,64.000000,-28.000000,39.000000,127.000000,22.000000
1312352.458682,28.000000,74.000000,93.000000,-107.000000,-4.000000,-76.000000,-95.000000,-10.000000
1312352.466666,-9.000000,-9.000000,-38.000000,82.000000,-21.000000,17.000000,-9.000000,-128.000000
1312352.466675,-35.000000,-27.000000,34.000000,81.000000,-20.000000,36.000000,51.000000,82.000000
1312352.481087,35.000000,20.000000,58.000000,-65.000000,-4.000000,-9.000000,-10.000000,-35.000000
1312352.481107,-36.000000,-28.000000,-13.000000,-3.000000,5.000000,12.000000,72.000000,-82.000000
1312352.503854,4.000000,-22.000000,14.000000,54.000000,8.000000,-14.000000,-97.000000,51.000000
1312352.503883,56.000000,22.000000,-51.000000,-37.000000,19.000000,-5.000000,-3.000000,98.000000
1312352.518795,14.000000,28.000000,17.000000,-73.000000,-2.000000,-27.000000,-74.000000,-128.000000
1312352.518804,-36.000000,8.000000,47.000000,70.000000,47.000000,30.000000,46.000000,127.000000
1312352.540968,0.000000,32.000000,-7.000000,-56.000000,-8.000000,-4.000000,67.000000,115.000000
1312352.540978,30.000000,-8.000000,10.000000,-29.000000,17.000000,-19.000000,-62.000000,-92.000000
1312352.556428,-77.000000,-35.000000,-12.000000,94.000000,32.000000,30.000000,77.000000,-67.000000
1312352.556438,-6.000000,-14.000000,5.000000,18.000000,-25.000000,18.000000,35.000000,16.000000
1312352.578517,2.000000,19.000000,49.000000,23.000000,24.000000,-4.000000,-10.000000,19.000000
1312352.578527,18.000000,-14.000000,-27.000000,-10.000000,18.000000,-9.000000,-60.000000,-5.000000
1312352.586017,-16.000000,-7.000000,-66.000000,54.000000,-44.000000,9.000000,-18.000000,-44.000000
1312352.586034,-6.000000,22.000000,46.000000,-8.000000,-12.000000,-25.000000,-17.000000,-10.000000
1312352.601261,-28.000000,-2.000000,1.000000,-57.000000,-35.000000,-18.000000,14.000000,-25.000000
1312352.601274,0.000000,-1.000000,4.000000,-26.000000,-23.000000,-19.000000,-19.000000,9.000000
1312352.601662,-11.000000,14.000000,-99.000000,-16.000000,-5.000000,14.000000,-8.000000,-128.000000
1312352.601672,63.000000,30.000000,14.000000,-84.000000,-14.000000,-27.000000,54.000000,108.000000
1312352.602177,-3.000000,-21.000000,-24.000000,-7.000000,-12.000000,-5.000000,60.000000,-64.000000
1312352.602187,8.000000,-37.000000,-39.000000,4.000000,37.000000,15.000000,114.000000,57.000000
1312352.603970,-7.000000,28.000000,-28.000000,-38.000000,-25.000000,-46.000000,-98.000000,-128.000000
1312352.603983,94.000000,13.000000,5.000000,26.000000,16.000000,40.000000,59.000000,127.000000
1312352.638574,-9.000000,20.000000,15.000000,-30.000000,-12.000000,-42.000000,-63.000000,-61.000000
1312352.638584,18.000000,35.000000,-42.000000,-128.000000,-24.000000,-16.000000,15.000000,24.000000
1312352.646143,17.000000,-30.000000,-64.000000,100.000000,-6.000000,10.000000,9.000000,26.000000
1312352.646154,-36.000000,-3.000000,-18.000000,6.000000,1.000000,28.000000,-12.000000,-39.000000
1312352.668790,25.000000,45.000000,-6.000000,-27.000000,16.000000,-23.000000,-61.000000,5.000000
1312352.668804,29.000000,-19.000000,75.000000,3.000000,-10.000000,1.000000,12.000000,51.000000
1312352.683341,-37.000000,-40.000000,-59.000000,39.000000,-38.000000,9.000000,-6.000000,-90.000000
1312352.683355,-36.000000,-20.000000,23.000000,-17.000000,-11.000000,11.000000,106.000000,37.000000
1312352.684467,94.000000,11.000000,-18.000000,-38.000000,33.000000,-24.000000,5.000000,127.000000
1312352.684476,21.000000,-22.000000,49.000000,78.000000,8.000000,22.000000,-33.000000,-73.000000
1312352.685136,-65.000000,-29.000000,-29.000000,45.000000,-35.000000,51.000000,127.000000,-128.000000
1312352.685155,-52.000000,-13.000000,-79.000000,16.000000,-34.000000,-34.000000,127.000000,127.000000
1312352.686457,-3.000000,7.000000,-42.000000,9.000000,-15.000000,-1.000000,28.000000,-57.000000
1312352.686466,-35.000000,-28.000000,-5.000000,15.000000,15.000000,23.000000,33.000000,5.000000
1312352.698399,10.000000,-13.000000,17.000000,66.000000,53.000000,-10.000000,40.000000,-15.000000
1312352.698410,-28.000000,-33.000000,26.000000,14.000000,-21.000000,-1.000000,-88.000000,-49.000000
1312352.706870,39.000000,44.000000,34.000000,-27.000000,-3.000000,-8.000000,-100.000000,8.000000
1312352.706881,10.000000,12.000000,43.000000,-92.000000,-14.000000,-67.000000,-58.000000,-39.000000
1312352.721174,14.000000,1.000000,16.000000,25.000000,-9.000000,4.000000,-45.000000,-79.000000
1312352.721186,-21.000000,9.000000,-110.000000,50.000000,-5.000000,28.000000,10.000000,46.000000
1312352.736698,-11.000000,15.000000,8.000000,-52.000000,-25.000000,-11.000000,-5.000000,-33.000000
1312352.736707,34.000000,20.000000,18.000000,57.000000,53.000000,49.000000,-4.000000,-21.000000
1312352.743385,-120.000000,-38.000000,-41.000000,65.000000,3.000000,28.000000,58.000000,-24.000000
1312352.743401,-11.000000,35.000000,-28.000000,-116.000000,-57.000000,-118.000000,-128.000000,98.000000
1312352.780936,29.000000,10.000000,-1.000000,-128.000000,-41.000000,-19.000000,8.000000,-119.000000
1312352.780950,8.000000,-38.000000,5.000000,127.000000,80.000000,64.000000,71.000000,21.000000
1312352.781391,-26.000000,22.000000,-23.000000,54.000000,6.000000,15.000000,43.000000,-59.000000
1312352.781400,11.000000,4.000000,80.000000,-92.000000,-21.000000,-55.000000,-96.000000,72.000000
1312352.782571,-16.000000,-19.000000,56.000000,34.000000,11.000000,24.000000,-5.000000,-109.000000
1312352.782589,-4.000000,-45.000000,-28.000000,-53.000000,-26.000000,-41.000000,-128.000000,-6.000000
1312352.783392,50.000000,19.000000,54.000000,31.000000,55.000000,-10.000000,41.000000,71.000000
1312352.783401,-6.000000,-28.000000,23.000000,-55.000000,-26.000000,-6.000000,-8.000000,-72.000000
1312352.796362,-8.000000,-17.000000,6.000000,45.000000,-21.000000,6.000000,-71.000000,37.000000
1312352.796390,-6.000000,13.000000,-11.000000,-16.000000,6.000000,-4.000000,6.000000,71.000000
1312352.797162,5.000000,-23.000000,8.000000,29.000000,40.000000,-9.000000,-14.000000,-55.000000
1312352.797191,-28.000000,-21.000000,-28.000000,9.000000,-48.000000,-17.000000,-14.000000,-51.000000
1312352.804426,75.000000,86.000000,95.000000,52.000000,47.000000,66.000000,127.000000,127.000000
1312352.804434,40.000000,-23.000000,-5.000000,-42.000000,21.000000,-15.000000,44.000000,-36.000000
1312352.818714,-17.000000,-13.000000,-29.000000,14.000000,-18.000000,23.000000,25.000000,-43.000000
1312352.818728,-47.000000,-24.000000,5.000000,3.000000,6.000000,30.000000,1.000000,-51.000000
1312352.841430,10.000000,18.000000,15.000000,94.000000,21.000000,-1.000000,-3.000000,33.000000
1312352.841440,5.000000,-12.000000,-39.000000,-34.000000,-25.000000,-10.000000,-97.000000,-8.000000
1312352.842172,-39.000000,-4.000000,-38.000000,20.000000,-17.000000,4.000000,-8.000000,-7.000000
1312352.842193,34.000000,56.000000,2.000000,2.000000,-11.000000,-16.000000,-65.000000,66.000000
1312352.878517,22.000000,6.000000,25.000000,-72.000000,1.000000,-24.000000,-30.000000,-34.000000
1312352.878527,-18.000000,-11.000000,29.000000,23.000000,49.000000,24.000000,8.000000,-16.000000
1312352.901281,15.000000,4.000000,-35.000000,27.000000,22.000000,12.000000,1.000000,-21.000000
1312352.901291,12.000000,6.000000,-29.000000,-53.000000,-2.000000,-13.000000,21.000000,72.000000
1312352.923611,-35.000000,-10.000000,-10.000000,-35.000000,-22.000000,-11.000000,-41.000000,-10.000000
1312352.923622,27.000000,18.000000,34.000000,47.000000,9.000000,-9.000000,-86.000000,-66.000000
1312352.938357,56.000000,44.000000,61.000000,-55.000000,15.000000,-20.000000,-21.000000,127.000000
1312352.938371,-33.000000,-2.000000,-7.000000,-3.000000,-10.000000,-35.000000,-128.000000,-89.000000
1312352.939459,-11.000000,-9.000000,-14.000000,17.000000,-10.000000,39.000000,-42.000000,3.000000
1312352.939467,11.000000,5.000000,25.000000,-4.000000,66.000000,-14.000000,-24.000000,-46.000000
1312352.940082,1.000000,-41.000000,-14.000000,-128.000000,-52.000000,-27.000000,31.000000,-65.000000
1312352.940090,-26.000000,-17.000000,59.000000,114.000000,71.000000,33.000000,4.000000,-10.000000
1312352.940709,25.000000,2.000000,11.000000,55.000000,35.000000,33.000000,115.000000,127.000000
1312352.940717,-17.000000,-1.000000,37.000000,-84.000000,-67.000000,1.000000,-6.000000,-37.000000
1312352.941349,23.000000,34.000000,22.000000,-28.000000,67.000000,5.000000,-9.000000,-5.000000
1312352.941356,-11.000000,-5.000000,11.000000,127.000000,42.000000,13.000000,-30.000000,84.000000
1312352.942283,-88.000000,3.000000,-93.000000,-35.000000,-60.000000,-43.000000,-29.000000,127.000000
1312352.942291,99.000000,65.000000,29.000000,-93.000000,26.000000,-26.000000,-22.000000,-52.000000
1312352.946561,-6.000000,-21.000000,7.000000,-14.000000,0.000000,0.000000,0.000000,-91.000000
1312352.946569,-39.000000,-48.000000,-49.000000,52.000000,-22.000000,24.000000,3.000000,-126.000000
1312352.960912,16.000000,23.000000,47.000000,-16.000000,13.000000,2.000000,50.000000,127.000000
1312352.960934,27.000000,2.000000,3.000000,-60.000000,13.000000,-38.000000,-90.000000,-51.000000
1312352.976072,-17.000000,-21.000000,-14.000000,10.000000,11.000000,32.000000,-49.000000,-60.000000
1312352.976091,39.000000,53.000000,13.000000,28.000000,-11.000000,0.000000,4.000000,127.000000
1312352.983783,62.000000,32.000000,40.000000,-8.000000,51.000000,-5.000000,-14.000000,-71.000000
1312352.983796,-76.000000,-42.000000,-70.000000,-62.000000,-64.000000,-4.000000,53.000000,45.000000
1312352.998805,-9.000000,-3.000000,-5.000000,35.000000,-15.000000,13.000000,-11.000000,5.000000
1312352.998817,26.000000,25.000000,7.000000,-128.000000,-28.000000,-23.000000,15.000000,29.000000
1312353.013421,10.000000,-22.000000,-31.000000,-11.000000,35.000000,-2.000000,-29.000000,46.000000
1312353.013431,-10.000000,-35.000000,31.000000,92.000000,9.000000,30.000000,-6.000000,-34.000000
1312353.028523,-8.000000,13.000000,-12.000000,-35.000000,13.000000,-6.000000,-18.000000,-26.000000
1312353.028534,3.000000,-11.000000,2.000000,-79.000000,4.000000,-21.000000,-29.000000,-67.000000
1312353.036334,22.000000,-7.000000,-4.000000,21.000000,9.000000,11.000000,37.000000,49.000000
1312353.036348,-7.000000,-4.000000,2.000000,11.000000,-16.000000,19.000000,89.000000,-62.000000
1312353.073441,15.000000,53.000000,43.000000,-60.000000,5.000000,-81.000000,-128.000000,-37.000000
1312353.073451,16.000000,-39.000000,23.000000,-12.000000,-20.000000,-11.000000,32.000000,19.000000
1312353.081312,3.000000,-38.000000,35.000000,25.000000,0.000000,40.000000,47.000000,97.000000
1312353.081344,19.000000,30.000000,14.000000,-27.000000,-50.000000,-43.000000,-7.000000,21.000000
1312353.103700,-13.000000,-23.000000,28.000000,-55.000000,20.000000,-3.000000,-34.000000,-87.000000
1312353.103710,-44.000000,-22.000000,-24.000000,42.000000,5.000000,24.000000,2.000000,-41.000000
1312353.118630,10.000000,6.000000,3.000000,-27.000000,-94.000000,-11.000000,-7.000000,0.000000
1312353.118640,49.000000,33.000000,43.000000,-70.000000,32.000000,-19.000000,7.000000,25.000000
1312353.141224,21.000000,46.000000,91.000000,49.000000,69.000000,12.000000,127.000000,46.000000
1312353.141357,4.000000,-7.000000,36.000000,-6.000000,-38.000000,-10.000000,-56.000000,62.000000
1312353.141696,13.000000,-12.000000,-4.000000,-46.000000,-7.000000,-9.000000,0.000000,127.000000
1312353.141722,-34.000000,-5.000000,30.000000,28.000000,39.000000,16.000000,1.000000,-128.000000
1312353.142292,-32.000000,-19.000000,22.000000,-15.000000,-15.000000,-36.000000,-128.000000,98.000000
1312353.142326,25.000000,-8.000000,30.000000,27.000000,8.000000,38.000000,33.000000,-51.000000
1312353.142921,-8.000000,-4.000000,46.000000,-26.000000,-1.000000,17.000000,66.000000,17.000000
1312353.142934,6.000000,-8.000000,6.000000,34.000000,-9.000000,-25.000000,-35.000000,-45.000000
1312353.143524,-9.000000,-29.000000,-33.000000,13.000000,-67.000000,-5.000000,-5.000000,-61.000000
1312353.143541,8.000000,18.000000,-6.000000,-56.000000,-30.000000,-18.000000,40.000000,33.000000
1312353.144168,-25.000000,-5.000000,19.000000,-128.000000,-54.000000,-59.000000,-128.000000,14.000000
1312353.144175,17.000000,25.000000,105.000000,17.000000,11.000000,-80.000000,-126.000000,51.000000
1312353.148814,53.000000,15.000000,11.000000,58.000000,3.000000,13.000000,7.000000,-122.000000
1312353.148826,-55.000000,-43.000000,-110.000000,10.000000,-39.000000,40.000000,127.000000,127.000000
1312353.156295,40.000000,39.000000,7.000000,15.000000,13.000000,5.000000,54.000000,46.000000
1312353.156313,14.000000,10.000000,19.000000,-24.000000,10.000000,9.000000,89.000000,-107.000000
1312353.193489,-40.000000,13.000000,52.000000,-21.000000,-26.000000,-7.000000,-128.000000,20.000000
1312353.193506,34.000000,39.000000,56.000000,39.000000,36.000000,15.000000,11.000000,26.000000
1312353.193946,27.000000,13.000000,-7.000000,-80.000000,-10.000000,-20.000000,38.000000,-15.000000
1312353.193988,-6.000000,-4.000000,64.000000,79.000000,9.000000,14.000000,-20.000000,-38.000000
1312353.195419,-17.000000,-22.000000,-6.000000,39.000000,-27.000000,17.000000,16.000000,10.000000
1312353.195441,-1.000000,2.000000,-3.000000,44.000000,27.000000,-2.000000,10.000000,41.000000
1312353.201030,27.000000,30.000000,22.000000,78.000000,64.000000,40.000000,85.000000,11.000000
1312353.201041,-35.000000,-37.000000,-16.000000,14.000000,-42.000000,11.000000,-128.000000,-38.000000
1312353.216320,50.000000,8.000000,10.000000,-4.000000,12.000000,30.000000,121.000000,67.000000
1312353.216333,-58.000000,-39.000000,17.000000,26.000000,-16.000000,-46.000000,-128.000000,-128.000000
1312353.231291,88.000000,7.000000,22.000000,-16.000000,17.000000,32.000000,127.000000,127.000000
1312353.231305,-60.000000,2.000000,-2.000000,-111.000000,-49.000000,13.000000,21.000000,-128.000000
1312353.253524,30.000000,6.000000,-34.000000,97.000000,48.000000,0.000000,-46.000000,-103.000000
1312353.253534,20.000000,-29.000000,56.000000,-46.000000,4.000000,-5.000000,-54.000000,20.000000
1312353.260967,-20.000000,1.000000,3.000000,23.000000,-13.000000,25.000000,22.000000,-38.000000
1312353.260976,-26.000000,-6.000000,2.000000,-45.000000,-14.000000,-50.000000,-54.000000,28.000000
1312353.276664,23.000000,-6.000000,35.000000,6.000000,4.000000,14.000000,45.000000,31.000000
1312353.276678,1.000000,0.000000,-51.000000,88.000000,-16.000000,33.000000,-7.000000,-55.000000
1312353.277090,-21.000000,2.000000,36.000000,-128.000000,-58.000000,-22.000000,9.000000,24.000000
1312353.277098,-28.000000,-21.000000,-19.000000,127.000000,127.000000,61.000000,127.000000,-28.000000
1312353.278346,71.000000,36.000000,59.000000,2.000000,-12.000000,56.000000,127.000000,83.000000
1312353.278354,-8.000000,-8.000000,-22.000000,-73.000000,-64.000000,-5.000000,57.000000,-112.000000
1312353.279190,57.000000,21.000000,43.000000,127.000000,82.000000,30.000000,127.000000,127.000000
1312353.279198,-39.000000,-20.000000,-12.000000,-128.000000,-42.000000,-22.000000,-128.000000,-128.000000
1312353.291905,-60.000000,-20.000000,-63.000000,35.000000,-14.000000,28.000000,-102.000000,-128.000000
1312353.291920,-26.000000,31.000000,-70.000000,-93.000000,-5.000000,-95.000000,-123.000000,127.000000
1312353.298536,83.000000,-27.000000,49.000000,-105.000000,0.000000,-18.000000,-58.000000,-66.000000
1312353.298547,-40.000000,-18.000000,-80.000000,93.000000,15.000000,25.000000,-53.000000,-112.000000
1312353.313777,-36.000000,-1.000000,-9.000000,-21.000000,-14.000000,-31.000000,-86.000000,11.000000
1312353.313787,-8.000000,17.000000,6.000000,-47.000000,37.000000,-11.000000,3.000000,-34.000000
1312353.336082,6.000000,-20.000000,10.000000,101.000000,37.000000,35.000000,88.000000,79.000000
1312353.336093,28.000000,5.000000,-79.000000,-87.000000,-37.000000,-18.000000,-74.000000,-10.000000
1312353.358826,12.000000,-1.000000,42.000000,8.000000,44.000000,-19.000000,9.000000,-1.000000
1312353.358855,-2.000000,-20.000000,-5.000000,14.000000,-14.000000,11.000000,12.000000,-26.000000
1312353.373672,-12.000000,-33.000000,-39.000000,104.000000,93.000000,37.000000,-56.000000,-32.000000
1312353.373701,0.000000,23.000000,-48.000000,-47.000000,-7.000000,1.000000,127.000000,100.000000
1312353.374715,-25.000000,42.000000,-38.000000,-10.000000,-9.000000,12.000000,18.000000,-3.000000
1312353.374742,29.000000,8.000000,88.000000,-23.000000,-49.000000,1.000000,-120.000000,48.000000
1312353.375376,-8.000000,20.000000,-78.000000,110.000000,54.000000,-20.000000,-57.000000,-128.000000
1312353.375403,-25.000000,-5.000000,-47.000000,-60.000000,-19.000000,-41.000000,19.000000,28.000000
1312353.377098,15.000000,3.000000,62.000000,5.000000,-2.000000,-5.000000,-107.000000,-67.000000
1312353.377115,-17.000000,-1.000000,104.000000,-11.000000,-21.000000,0.000000,17.000000,-54.000000
1312353.396096,-9.000000,21.000000,-11.000000,8.000000,-1.000000,7.000000,51.000000,7.000000
1312353.396166,18.000000,-43.000000,-17.000000,-33.000000,-47.000000,-12.000000,12.000000,91.000000
1312353.397066,0.000000,15.000000,17.000000,-31.000000,-19.000000,-13.000000,20.000000,50.000000
1312353.397075,7.000000,2.000000,-39.000000,-13.000000,-5.000000,-14.000000,-15.000000,-51.000000
1312353.397792,2.000000,-57.000000,78.000000,26.000000,-14.000000,12.000000,19.000000,-121.000000
1312353.397801,-25.000000,14.000000,-56.000000,55.000000,5.000000,4.000000,59.000000,127.000000
1312353.411871,6.000000,7.000000,-39.000000,50.000000,-11.000000,-37.000000,-71.000000,6.000000
1312353.411882,-25.000000,-40.000000,60.000000,-30.000000,-17.000000,-4.000000,8.000000,-128.000000
1312353.418643,-4.000000,-43.000000,-34.000000,68.000000,-4.000000,82.000000,127.000000,127.000000
1312353.418655,66.000000,14.000000,-2.000000,-21.000000,12.000000,-16.000000,64.000000,127.000000
1312353.434172,13.000000,14.000000,-4.000000,-58.000000,1.000000,-9.000000,27.000000,-84.000000
1312353.434192,-43.000000,-24.000000,-18.000000,29.000000,-13.000000,-5.000000,-22.000000,-76.000000
1312353.456258,-22.000000,-7.000000,-22.000000,67.000000,-29.000000,18.000000,-56.000000,-128.000000
1312353.456269,70.000000,92.000000,31.000000,-128.000000,-10.000000,-3.000000,79.000000,127.000000
1312353.478406,4.000000,1.000000,-16.000000,-39.000000,15.000000,5.000000,-24.000000,-70.000000
1312353.478416,-34.000000,-23.000000,40.000000,87.000000,-10.000000,31.000000,-17.000000,-35.000000
1312353.493686,-32.000000,-13.000000,-23.000000,-128.000000,-124.000000,-128.000000,-128.000000,-117.000000
1312353.493714,82.000000,22.000000,11.000000,118.000000,115.000000,39.000000,65.000000,71.000000
1312353.516377,-32.000000,-61.000000,-13.000000,-61.000000,-44.000000,12.000000,26.000000,-17.000000
1312353.516469,-18.000000,-29.000000,-18.000000,33.000000,37.000000,20.000000,17.000000,-10.000000
1312353.516755,17.000000,12.000000,-15.000000,-51.000000,9.000000,-40.000000,-25.000000,-64.000000
1312353.516800,10.000000,17.000000,5.000000,26.000000,6.000000,23.000000,28.000000,-44.000000
1312353.517596,6.000000,10.000000,12.000000,34.000000,8.000000,27.000000,74.000000,127.000000
1312353.517604,37.000000,19.000000,70.000000,-9.000000,10.000000,-30.000000,-19.000000,-8.000000
1312353.518292,-53.000000,-31.000000,-9.000000,42.000000,-10.000000,35.000000,96.000000,-128.000000
1312353.518300,40.000000,42.000000,46.000000,46.000000,-1.000000,32.000000,127.000000,127.000000
1312353.518991,-7.000000,13.000000,17.000000,-63.000000,-15.000000,-15.000000,54.000000,-128.000000
1312353.519005,24.000000,-4.000000,-30.000000,127.000000,43.000000,26.000000,4.000000,-48.000000
1312353.519910,-19.000000,-58.000000,47.000000,-30.000000,-63.000000,19.000000,31.000000,33.000000
1312353.519925,33.000000,26.000000,-31.000000,-52.000000,-3.000000,-8.000000,17.000000,37.000000
1312353.531641,-2.000000,-1.000000,66.000000,21.000000,-29.000000,-4.000000,17.000000,-21.000000
1312353.531663,-54.000000,-21.000000,-33.000000,17.000000,-28.000000,-13.000000,-39.000000,59.000000
1312353.538430,4.000000,-5.000000,-2.000000,-112.000000,-79.000000,-36.000000,-106.000000,-28.000000
1312353.538438,-10.000000,20.000000,-2.000000,-55.000000,-9.000000,-27.000000,-39.000000,80.000000
1312353.554369,-12.000000,-3.000000,66.000000,-37.000000,-3.000000,2.000000,40.000000,-15.000000
1312353.554379,-19.000000,-28.000000,-37.000000,65.000000,36.000000,34.000000,-25.000000,-42.000000
1312353.568466,-24.000000,23.000000,-30.000000,-2.000000,-5.000000,-12.000000,-102.000000,-95.000000
1312353.568484,45.000000,-1.000000,22.000000,-12.000000,23.000000,-1.000000,42.000000,127.000000
1312353.591364,7.000000,-52.000000,6.000000,40.000000,-9.000000,23.000000,6.000000,-48.000000
1312353.591392,-49.000000,0.000000,-9.000000,17.000000,-5.000000,-7.000000,2.000000,0.000000
1312353.628567,34.000000,32.000000,-72.000000,-54.000000,3.000000,-25.000000,36.000000,86.000000
1312353.628585,-20.000000,-33.000000,26.000000,6.000000,-9.000000,24.000000,42.000000,-71.000000
1312353.651173,-15.000000,-14.000000,-57.000000,127.000000,-37.000000,25.000000,56.000000,12.000000
1312353.651202,32.000000,68.000000,21.000000,-128.000000,-28.000000,-53.000000,-91.000000,-12.000000
1312353.673354,-6.000000,-2.000000,10.000000,-22.000000,2.000000,8.000000,10.000000,-20.000000
1312353.673368,-43.000000,0.000000,14.000000,87.000000,-39.000000,5.000000,-45.000000,3.000000
1312353.674531,-7.000000,10.000000,-35.000000,-20.000000,-18.000000,-42.000000,-27.000000,-39.000000
1312353.674547,-22.000000,-3.000000,18.000000,14.000000,71.000000,21.000000,-38.000000,-70.000000
1312353.675168,-21.000000,-42.000000,-18.000000,29.000000,-38.000000,-1.000000,-25.000000,8.000000
1312353.675180,-49.000000,4.000000,-17.000000,61.000000,8.000000,26.000000,2.000000,-128.000000
1312353.676395,-18.000000,-27.000000,9.000000,15.000000,-9.000000,6.000000,-3.000000,-46.000000
1312353.676403,-41.000000,-24.000000,-117.000000,76.000000,1.000000,10.000000,-44.000000,-7.000000
1312353.688888,-6.000000,3.000000,-20.000000,-62.000000,-7.000000,-22.000000,13.000000,-27.000000
1312353.688917,-33.000000,25.000000,-4.000000,29.000000,4.000000,-40.000000,-100.000000,-19.000000
1312353.711110,3.000000,-22.000000,45.000000,66.000000,-12.000000,7.000000,-4.000000,-58.000000
1312353.711120,39.000000,-17.000000,35.000000,51.000000,87.000000,27.000000,127.000000,24.000000
1312353.718534,21.000000,1.000000,-14.000000,-10.000000,1.000000,21.000000,73.000000,127.000000
1312353.718544,-17.000000,1.000000,-19.000000,8.000000,-22.000000,0.000000,-55.000000,-106.000000
1312353.734158,-11.000000,12.000000,-24.000000,0.000000,4.000000,10.000000,84.000000,27.000000
1312353.734171,0.000000,-19.000000,-23.000000,-20.000000,-9.000000,-21.000000,5.000000,-18.000000
1312353.734644,31.000000,-31.000000,127.000000,84.000000,11.000000,34.000000,45.000000,89.000000
1312353.734658,-47.000000,-7.000000,-55.000000,-12.000000,-10.000000,6.000000,71.000000,65.000000
1312353.736535,88.000000,35.000000,-10.000000,-62.000000,25.000000,-22.000000,-16.000000,70.000000
1312353.736548,-50.000000,-22.000000,-64.000000,-16.000000,-17.000000,5.000000,-12.000000,-43.000000
1312353.748712,-22.000000,0.000000,-4.000000,-46.000000,-35.000000,-6.000000,33.000000,-42.000000
1312353.748724,2.000000,-18.000000,20.000000,127.000000,127.000000,-11.000000,-83.000000,6.000000
1312353.749874,40.000000,-30.000000,-6.000000,-90.000000,-54.000000,-26.000000,-40.000000,9.000000
1312353.749897,-13.000000,-21.000000,-6.000000,-73.000000,-42.000000,26.000000,22.000000,-34.000000
1312353.755858,-20.000000,22.000000,38.000000,36.000000,14.000000,-12.000000,-1.000000,59.000000
1312353.755867,41.000000,-8.000000,-4.000000,13.000000,10.000000,6.000000,8.000000,23.000000
1312353.771674,-22.000000,-23.000000,-33.000000,42.000000,-13.000000,21.000000,-7.000000,-3.000000
1312353.771684,-50.000000,-14.000000,-54.000000,-10.000000,-16.000000,-19.000000,-14.000000,-46.000000
1312353.778425,66.000000,73.000000,78.000000,-76.000000,13.000000,-71.000000,-96.000000,42.000000
1312353.778447,4.000000,-31.000000,-30.000000,11.000000,-4.000000,13.000000,11.000000,-37.000000
1312353.794386,-38.000000,-6.000000,-42.000000,9.000000,-39.000000,6.000000,45.000000,-3.000000
1312353.794416,60.000000,43.000000,-3.000000,-86.000000,41.000000,-19.000000,1.000000,56.000000
1312353.808723,9.000000,-21.000000,9.000000,51.000000,-3.000000,4.000000,-42.000000,-34.000000
1312353.808741,-35.000000,-8.000000,-40.000000,-16.000000,-28.000000,19.000000,33.000000,-41.000000
1312353.823479,9.000000,22.000000,29.000000,-2.000000,26.000000,-7.000000,16.000000,-14.000000
1312353.823487,8.000000,-10.000000,16.000000,-53.000000,-15.000000,-1.000000,3.000000,-4.000000
1312353.831106,-21.000000,-5.000000,98.000000,44.000000,-4.000000,19.000000,14.000000,3.000000
1312353.831116,20.000000,19.000000,-24.000000,62.000000,-6.000000,-12.000000,-16.000000,-1.000000
1312353.846395,21.000000,3.000000,0.000000,-67.000000,-8.000000,-14.000000,3.000000,-3.000000
1312353.846405,-19.000000,-26.000000,-19.000000,59.000000,17.000000,14.000000,5.000000,118.000000
1312353.847103,-4.000000,11.000000,-55.000000,-69.000000,-22.000000,-16.000000,11.000000,-89.000000
1312353.847129,15.000000,-22.000000,20.000000,51.000000,81.000000,-6.000000,-99.000000,46.000000
1312353.853688,18.000000,-1.000000,-3.000000,-2.000000,-17.000000,5.000000,0.000000,15.000000
1312353.853707,-7.000000,21.000000,42.000000,10.000000,-16.000000,2.000000,-28.000000,-26.000000
1312353.860985,15.000000,-8.000000,-46.000000,4.000000,-7.000000,22.000000,45.000000,-111.000000
1312353.861002,-33.000000,-41.000000,4.000000,-41.000000,-4.000000,-24.000000,23.000000,127.000000
1312353.869100,3.000000,-3.000000,-12.000000,5.000000,-27.000000,-25.000000,-98.000000,62.000000
1312353.869117,4.000000,4.000000,11.000000,-24.000000,-2.000000,-6.000000,2.000000,-83.000000
1312353.891019,16.000000,-7.000000,33.000000,1.000000,-4.000000,-1.000000,5.000000,-36.000000
1312353.891049,-21.000000,-32.000000,-61.000000,7.000000,0.000000,1.000000,-21.000000,-22.000000
1312353.892098,-24.000000,19.000000,-15.000000,-80.000000,-8.000000,-9.000000,-40.000000,-68.000000
1312353.892107,10.000000,4.000000,27.000000,14.000000,-36.000000,-14.000000,65.000000,107.000000
1312353.898390,23.000000,17.000000,-14.000000,-84.000000,-29.000000,-19.000000,-88.000000,-30.000000
1312353.898400,-41.000000,-21.000000,-95.000000,-1.000000,-27.000000,21.000000,80.000000,-30.000000
1312353.913862,8.000000,16.000000,20.000000,-23.000000,7.000000,-19.000000,-44.000000,-30.000000
1312353.913880,44.000000,-1.000000,14.000000,76.000000,56.000000,36.000000,39.000000,73.000000
1312353.928727,-30.000000,-29.000000,-117.000000,33.000000,-14.000000,21.000000,-8.000000,-102.000000
1312353.928747,-5.000000,25.000000,-43.000000,-65.000000,-23.000000,-80.000000,-128.000000,-29.000000
1312353.951122,31.000000,8.000000,17.000000,-1.000000,18.000000,-29.000000,-27.000000,6.000000
1312353.951140,-36.000000,-43.000000,24.000000,38.000000,-16.000000,28.000000,54.000000,-22.000000
1312353.973754,-46.000000,-12.000000,-61.000000,59.000000,40.000000,23.000000,-10.000000,-128.000000
1312353.973770,56.000000,44.000000,64.000000,-68.000000,1.000000,-39.000000,76.000000,127.000000
1312353.988940,-7.000000,-39.000000,6.000000,5.000000,10.000000,-8.000000,-8.000000,-128.000000
1312353.988964,-5.000000,-9.000000,-31.000000,-35.000000,-32.000000,9.000000,-79.000000,44.000000
1312353.989502,-11.000000,40.000000,39.000000,5.000000,6.000000,-32.000000,-67.000000,-128.000000
1312353.989524,-4.000000,-26.000000,-7.000000,-3.000000,28.000000,7.000000,6.000000,13.000000
1312353.990800,-27.000000,-10.000000,-35.000000,42.000000,-12.000000,20.000000,-8.000000,59.000000
1312353.990815,-10.000000,3.000000,-59.000000,45.000000,-20.000000,1.000000,21.000000,-51.000000
1312353.991717,4.000000,-39.000000,92.000000,-65.000000,6.000000,-61.000000,-128.000000,-29.000000
1312353.991759,44.000000,13.000000,-32.000000,-27.000000,-18.000000,5.000000,22.000000,112.000000
1312354.011049,-46.000000,-5.000000,5.000000,-3.000000,-4.000000,2.000000,-88.000000,-128.000000
1312354.011059,56.000000,48.000000,34.000000,59.000000,43.000000,39.000000,38.000000,127.000000
1312354.026726,48.000000,11.000000,1.000000,-25.000000,25.000000,-9.000000,-32.000000,-4.000000
1312354.026744,-14.000000,-36.000000,62.000000,11.000000,-19.000000,5.000000,-11.000000,-70.000000
1312354.033537,-43.000000,-1.000000,-33.000000,-3.000000,-23.000000,-7.000000,-128.000000,-42.000000
1312354.033557,25.000000,33.000000,32.000000,-24.000000,24.000000,-16.000000,5.000000,31.000000
1312354.055924,4.000000,-22.000000,9.000000,9.000000,31.000000,6.000000,9.000000,26.000000
1312354.055933,-17.000000,-52.000000,-49.000000,42.000000,-8.000000,23.000000,-2.000000,-7.000000
1312354.071045,16.000000,10.000000,20.000000,-3.000000,-13.000000,-10.000000,51.000000,31.000000
1312354.071056,8.000000,-7.000000,29.000000,-29.000000,13.000000,-11.000000,-38.000000,15.000000
1312354.093408,18.000000,12.000000,24.000000,-11.000000,9.000000,16.000000,60.000000,52.000000
1312354.093419,-43.000000,-19.000000,-4.000000,43.000000,8.000000,18.000000,4.000000,-67.000000
1312354.108677,-18.000000,50.000000,-24.000000,-39.000000,-20.000000,-43.000000,-81.000000,-107.000000
1312354.108706,52.000000,25.000000,43.000000,1.000000,13.000000,8.000000,10.000000,71.000000
1312354.123843,-34.000000,-7.000000,-29.000000,33.000000,-32.000000,-18.000000,-98.000000,-64.000000
1312354.123866,15.000000,-12.000000,-8.000000,-45.000000,7.000000,10.000000,44.000000,-18.000000
1312354.124930,11.000000,-25.000000,-20.000000,-17.000000,25.000000,-43.000000,-89.000000,-24.000000
1312354.124946,-12.000000,-56.000000,4.000000,39.000000,-27.000000,31.000000,4.000000,2.000000
1312354.125950,-3.000000,-32.000000,-52.000000,21.000000,-17.000000,12.000000,-41.000000,46.000000
1312354.125960,0.000000,11.000000,-3.000000,-1.000000,-7.000000,7.000000,23.000000,34.000000
1312354.126503,-23.000000,21.000000,-17.000000,19.000000,9.000000,-3.000000,-13.000000,-43.000000
1312354.126519,43.000000,-1.000000,-20.000000,12.000000,25.000000,31.000000,55.000000,85.000000
1312354.127360,-67.000000,-56.000000,-40.000000,28.000000,-28.000000,39.000000,127.000000,-48.000000
1312354.127385,9.000000,16.000000,-20.000000,-50.000000,-13.000000,-37.000000,-72.000000,39.000000
1312354.131648,17.000000,-42.000000,34.000000,11.000000,-1.000000,-1.000000,1.000000,-22.000000
1312354.131658,-42.000000,-32.000000,-102.000000,-23.000000,-24.000000,5.000000,-33.000000,-36.000000
1312354.138364,10.000000,22.000000,34.000000,6.000000,-8.000000,-4.000000,20.000000,41.000000
1312354.138373,0.000000,29.000000,47.000000,-77.000000,3.000000,-38.000000,-13.000000,21.000000
1312354.168733,-21.000000,-9.000000,-68.000000,-21.000000,-30.000000,-32.000000,-37.000000,-27.000000
1312354.168745,-16.000000,18.000000,16.000000,5.000000,-10.000000,7.000000,-4.000000,59.000000
1312354.183621,-17.000000,22.000000,-3.000000,-36.000000,-1.000000,3.000000,115.000000,-74.000000
1312354.183640,41.000000,12.000000,-6.000000,48.000000,25.000000,24.000000,58.000000,127.000000
1312354.206268,-39.000000,-33.000000,-92.000000,25.000000,-1.000000,14.000000,-75.000000,-81.000000
1312354.206278,18.000000,15.000000,7.000000,36.000000,-2.000000,5.000000,-12.000000,-89.000000
1312354.228325,-25.000000,-52.000000,-77.000000,-23.000000,11.000000,-62.000000,-128.000000,33.000000
1312354.228345,3.000000,-57.000000,-6.000000,-4.000000,-4.000000,28.000000,29.000000,-29.000000
1312354.229582,4.000000,2.000000,44.000000,-6.000000,5.000000,0.000000,-3.000000,-26.000000
1312354.229590,-1.000000,2.000000,-7.000000,-84.000000,-40.000000,-38.000000,-6.000000,4.000000
1312354.230132,-9.000000,22.000000,-20.000000,-38.000000,-16.000000,-27.000000,-67.000000,7.000000
1312354.230176,-1.000000,6.000000,6.000000,6.000000,0.000000,6.000000,-33.000000,-22.000000
1312354.231434,-12.000000,11.000000,38.000000,-16.000000,-23.000000,-27.000000,4.000000,-104.000000
1312354.231451,27.000000,-17.000000,-37.000000,-46.000000,-15.000000,0.000000,30.000000,71.000000
1312354.232328,-27.000000,-20.000000,-34.000000,-7.000000,-28.000000,-1.000000,-24.000000,-46.000000
1312354.232335,4.000000,-4.000000,2.000000,-28.000000,-10.000000,-11.000000,-8.000000,-8.000000
1312354.243742,-19.000000,33.000000,46.000000,20.000000,43.000000,-5.000000,-24.000000,-8.000000
1312354.243771,16.000000,18.000000,3.000000,-45.000000,9.000000,-27.000000,1.000000,63.000000
1312354.251271,-38.000000,-46.000000,-64.000000,12.000000,-15.000000,8.000000,53.000000,-128.000000
1312354.251283,-13.000000,20.000000,-71.000000,-32.000000,-19.000000,-11.000000,-26.000000,127.000000
1312354.258550,70.000000,48.000000,70.000000,-12.000000,22.000000,-23.000000,39.000000,53.000000
1312354.258560,-22.000000,-34.000000,-5.000000,-30.000000,-37.000000,3.000000,-11.000000,-97.000000
1312354.288455,-38.000000,-2.000000,-16.000000,21.000000,-34.000000,13.000000,-16.000000,-50.000000
1312354.288465,-6.000000,7.000000,-16.000000,127.000000,21.000000,1.000000,4.000000,-14.000000
1312354.296340,-3.000000,-9.000000,-15.000000,-39.000000,-11.000000,-11.000000,17.000000,-37.000000
1312354.296353,-3.000000,-3.000000,-26.000000,5.000000,-44.000000,18.000000,13.000000,104.000000
1312354.311163,55.000000,-11.000000,12.000000,-30.000000,-5.000000,12.000000,64.000000,-10.000000
1312354.311181,-35.000000,-13.000000,8.000000,-19.000000,-5.000000,-27.000000,-2.000000,44.000000
1312354.326157,-9.000000,-1.000000,8.000000,-13.000000,-23.000000,-1.000000,-29.000000,-33.000000
1312354.326174,-8.000000,-8.000000,5.000000,-7.000000,-11.000000,4.000000,37.000000,35.000000
1312354.349314,15.000000,14.000000,16.000000,-26.000000,26.000000,-4.000000,25.000000,8.000000
1312354.349326,13.000000,-15.000000,1.000000,14.000000,-11.000000,37.000000,83.000000,54.000000
1312354.363633,-42.000000,-20.000000,7.000000,27.000000,-24.000000,-11.000000,-70.000000,-65.000000
1312354.363656,47.000000,47.000000,47.000000,-3.000000,17.000000,-4.000000,22.000000,99.000000
1312354.364745,-24.000000,-25.000000,-33.000000,-47.000000,-14.000000,-9.000000,-54.000000,-128.000000
1312354.364766,16.000000,-37.000000,-13.000000,127.000000,37.000000,53.000000,55.000000,45.000000
1312354.365333,7.000000,-6.000000,72.000000,-58.000000,0.000000,-14.000000,23.000000,6.000000
1312354.365360,11.000000,-27.000000,24.000000,-21.000000,-27.000000,-29.000000,-22.000000,-42.000000
1312354.366540,36.000000,25.000000,6.000000,-55.000000,-24.000000,-26.000000,1.000000,22.000000
1312354.366559,-37.000000,-56.000000,22.000000,69.000000,60.000000,41.000000,101.000000,-3.000000
1312354.371125,-38.000000,-9.000000,-35.000000,-21.000000,-26.000000,-30.000000,-113.000000,-22.000000
1312354.371142,12.000000,-8.000000,-1.000000,-45.000000,-8.000000,-33.000000,-8.000000,11.000000
1312354.386011,-24.000000,5.000000,-44.000000,4.000000,-5.000000,32.000000,104.000000,-80.000000
1312354.386021,-10.000000,10.000000,-24.000000,68.000000,-11.000000,26.000000,43.000000,127.000000
1312354.401156,7.000000,-7.000000,25.000000,-34.000000,0.000000,-16.000000,-7.000000,-28.000000
1312354.401186,0.000000,4.000000,-8.000000,-28.000000,6.000000,-18.000000,-44.000000,-18.000000
1312354.408930,-25.000000,-11.000000,14.000000,13.000000,-4.000000,10.000000,-62.000000,-119.000000
1312354.408948,-21.000000,7.000000,-44.000000,40.000000,-32.000000,-6.000000,114.000000,127.000000
1312354.446202,33.000000,16.000000,72.000000,-20.000000,40.000000,-23.000000,-21.000000,-32.000000
1312354.446238,-54.000000,-38.000000,-112.000000,0.000000,-27.000000,4.000000,15.000000,-40.000000
1312354.461137,-4.000000,0.000000,81.000000,127.000000,-3.000000,29.000000,23.000000,30.000000
1312354.461148,-4.000000,25.000000,-49.000000,-83.000000,-24.000000,-42.000000,-83.000000,-40.000000
1312354.469592,25.000000,-20.000000,3.000000,-14.000000,24.000000,5.000000,7.000000,12.000000
1312354.469771,-8.000000,-32.000000,-21.000000,127.000000,50.000000,48.000000,-19.000000,-15.000000
1312354.470244,32.000000,23.000000,-13.000000,-25.000000,-10.000000,-9.000000,3.000000,80.000000
1312354.470361,-25.000000,-47.000000,-35.000000,-12.000000,6.000000,14.000000,33.000000,-128.000000
1312354.471088,10.000000,-19.000000,9.000000,-22.000000,-16.000000,-39.000000,-63.000000,122.000000
1312354.471096,-8.000000,-3.000000,5.000000,3.000000,-4.000000,8.000000,-19.000000,-81.000000
1312354.471719,-9.000000,10.000000,17.000000,67.000000,19.000000,23.000000,-1.000000,-17.000000
1312354.471727,4.000000,9.000000,-28.000000,-40.000000,-15.000000,-22.000000,0.000000,-13.000000
1312354.483397,2.000000,3.000000,-44.000000,-23.000000,-15.000000,-4.000000,-15.000000,7.000000
1312354.483447,-27.000000,-44.000000,-22.000000,55.000000,-12.000000,26.000000,5.000000,-68.000000
1312354.505871,16.000000,16.000000,19.000000,24.000000,9.000000,-6.000000,12.000000,73.000000
1312354.505882,28.000000,-4.000000,-23.000000,-35.000000,-16.000000,-23.000000,-12.000000,-20.000000
1312354.506290,-14.000000,-6.000000,2.000000,73.000000,40.000000,26.000000,-39.000000,-36.000000
1312354.506298,-15.000000,22.000000,-28.000000,-12.000000,-15.000000,-17.000000,-24.000000,-7.000000
1312354.521208,7.000000,-4.000000,-7.000000,-79.000000,-14.000000,-33.000000,-84.000000,-128.000000
1312354.521236,43.000000,38.000000,-62.000000,-29.000000,14.000000,10.000000,127.000000,127.000000
1312354.528770,-14.000000,10.000000,25.000000,28.000000,0.000000,0.000000,14.000000,-128.000000
1312354.528799,-10.000000,49.000000,-21.000000,-52.000000,-7.000000,-44.000000,-128.000000,-59.000000
1312354.566154,72.000000,46.000000,90.000000,10.000000,13.000000,19.000000,-20.000000,43.000000
1312354.566169,-28.000000,-37.000000,-89.000000,18.000000,-12.000000,23.000000,12.000000,-17.000000
1312354.566541,-16.000000,-5.000000,18.000000,-12.000000,-8.000000,-3.000000,5.000000,22.000000
1312354.566555,18.000000,-10.000000,57.000000,6.000000,29.000000,-10.000000,27.000000,18.000000
1312354.567693,-2.000000,-24.000000,-101.000000,20.000000,-22.000000,5.000000,-27.000000,1.000000
1312354.567703,-10.000000,14.000000,10.000000,20.000000,16.000000,5.000000,-33.000000,-20.000000
1312354.568250,60.000000,22.000000,14.000000,-72.000000,-1.000000,-11.000000,35.000000,4.000000
1312354.568277,-24.000000,12.000000,-12.000000,28.000000,3.000000,-11.000000,-128.000000,-34.000000
1312354.581292,-54.000000,-2.000000,9.000000,-15.000000,-37.000000,-4.000000,-35.000000,-128.000000
1312354.581320,9.000000,47.000000,-29.000000,-101.000000,-38.000000,-83.000000,-113.000000,127.000000
1312354.581639,37.000000,27.000000,52.000000,13.000000,21.000000,-14.000000,-72.000000,-72.000000
1312354.581666,-67.000000,-18.000000,-25.000000,54.000000,-25.000000,24.000000,-110.000000,-128.000000
1312354.589057,81.000000,57.000000,18.000000,-34.000000,2.000000,-11.000000,120.000000,127.000000
1312354.589094,-2.000000,-31.000000,8.000000,-16.000000,5.000000,4.000000,-2.000000,-128.000000
1312354.603501,-31.000000,-40.000000,-31.000000,8.000000,-31.000000,19.000000,-1.000000,-29.000000
1312354.603511,1.000000,9.000000,23.000000,33.000000,21.000000,-6.000000,-2.000000,-11.000000
1312354.610835,5.000000,4.000000,-57.000000,-10.000000,21.000000,-7.000000,23.000000,12.000000
1312354.610858,9.000000,-11.000000,71.000000,38.000000,-25.000000,2.000000,-12.000000,9.000000
1312354.618422,-3.000000,6.000000,-21.000000,11.000000,1.000000,10.000000,44.000000,28.000000
1312354.618431,13.000000,52.000000,12.000000,-55.000000,-6.000000,-14.000000,-7.000000,0.000000
1312354.648628,-16.000000,-12.000000,-22.000000,26.000000,-7.000000,10.000000,42.000000,-17.000000
1312354.648638,27.000000,-34.000000,34.000000,97.000000,2.000000,31.000000,-29.000000,-96.000000
1312354.663920,8.000000,18.000000,42.000000,-1.000000,32.000000,-52.000000,-124.000000,36.000000
1312354.663929,39.000000,24.000000,24.000000,-35.000000,-4.000000,1.000000,55.000000,29.000000
1312354.679624,-48.000000,-71.000000,-18.000000,8.000000,-28.000000,5.000000,25.000000,-38.000000
1312354.679702,-28.000000,18.000000,-18.000000,-67.000000,-19.000000,-63.000000,-128.000000,-110.000000
1312354.680045,13.000000,26.000000,37.000000,-35.000000,11.000000,1.000000,20.000000,1.000000
1312354.680060,24.000000,2.000000,82.000000,53.000000,0.000000,9.000000,-1.000000,-9.000000
1312354.681646,-19.000000,6.000000,-21.000000,-11.000000,-6.000000,1.000000,-1.000000,-23.000000
1312354.681768,16.000000,24.000000,78.000000,-7.000000,37.000000,-10.000000,-28.000000,-41.000000
1312354.682030,2.000000,-3.000000,-29.000000,-21.000000,-23.000000,-17.000000,-25.000000,101.000000
1312354.682037,-26.000000,9.000000,-17.000000,7.000000,-13.000000,16.000000,45.000000,24.000000
1312354.700881,5.000000,33.000000,74.000000,19.000000,13.000000,-2.000000,-14.000000,-42.000000
1312354.700914,9.000000,-30.000000,-66.000000,10.000000,-1.000000,-1.000000,-6.000000,-12.000000
1312354.701436,-26.000000,-23.000000,-38.000000,32.000000,-28.000000,12.000000,-7.000000,-18.000000
1312354.701446,5.000000,23.000000,-6.000000,-14.000000,-6.000000,-7.000000,15.000000,9.000000
1312354.723697,-7.000000,14.000000,10.000000,-9.000000,-24.000000,-13.000000,62.000000,-104.000000
1312354.723706,22.000000,-19.000000,2.000000,28.000000,26.000000,31.000000,93.000000,127.000000
1312354.723967,49.000000,3.000000,9.000000,-1.000000,8.000000,14.000000,29.000000,53.000000
1312354.723975,-3.000000,16.000000,8.000000,-58.000000,-24.000000,-27.000000,28.000000,-89.000000
1312354.738333,-7.000000,1.000000,4.000000,81.000000,17.000000,35.000000,21.000000,22.000000
1312354.738357,-34.000000,-27.000000,-69.000000,10.000000,-27.000000,7.000000,-52.000000,-28.000000
1312354.739061,8.000000,22.000000,46.000000,-19.000000,-23.000000,-10.000000,31.000000,15.000000
1312354.739079,-24.000000,-21.000000,-29.000000,-47.000000,32.000000,-21.000000,-52.000000,-15.000000
1312354.761341,-21.000000,-63.000000,8.000000,87.000000,-5.000000,25.000000,-3.000000,-34.000000
1312354.761354,-1.000000,-1.000000,37.000000,-48.000000,-13.000000,-27.000000,-21.000000,-2.000000
1312354.783451,-21.000000,29.000000,-15.000000,-24.000000,11.000000,-5.000000,18.000000,127.000000
1312354.783469,21.000000,-7.000000,1.000000,-14.000000,-2.000000,-5.000000,-11.000000,-26.000000
1312354.783888,-33.000000,3.000000,-18.000000,30.000000,-10.000000,23.000000,8.000000,-83.000000
1312354.783897,-41.000000,22.000000,39.000000,-13.000000,3.000000,-3.000000,110.000000,-90.000000
1312354.785402,-6.000000,-6.000000,-34.000000,-63.000000,-4.000000,-42.000000,-32.000000,127.000000
1312354.785421,8.000000,-16.000000,6.000000,48.000000,-10.000000,31.000000,56.000000,-128.000000
1312354.798759,-11.000000,-20.000000,-40.000000,-30.000000,-14.000000,-33.000000,9.000000,60.000000
1312354.798787,21.000000,-6.000000,27.000000,78.000000,30.000000,17.000000,-9.000000,-20.000000
1312354.806905,-36.000000,-33.000000,28.000000,48.000000,-9.000000,35.000000,9.000000,-26.000000
1312354.806931,-11.000000,-7.000000,-55.000000,-28.000000,-33.000000,-22.000000,1.000000,-5.000000
1312354.821089,6.000000,25.000000,32.000000,-32.000000,23.000000,-22.000000,12.000000,11.000000
1312354.821110,2.000000,5.000000,18.000000,-16.000000,-15.000000,6.000000,-1.000000,-44.000000
1312354.822245,-37.000000,2.000000,-56.000000,21.000000,-10.000000,10.000000,10.000000,-78.000000
1312354.822253,61.000000,21.000000,5.000000,-32.000000,24.000000,-25.000000,40.000000,127.000000
1312354.843297,-5.000000,-20.000000,-25.000000,-5.000000,-6.000000,6.000000,-27.000000,-74.000000
1312354.843311,-29.000000,-13.000000,-4.000000,28.000000,-21.000000,6.000000,7.000000,-39.000000
1312354.844570,21.000000,35.000000,58.000000,10.000000,10.000000,-1.000000,-27.000000,9.000000
1312354.844578,-42.000000,-40.000000,-14.000000,-40.000000,-37.000000,-13.000000,14.000000,-20.000000
1312354.858826,-12.000000,-78.000000,20.000000,70.000000,1.000000,22.000000,21.000000,-54.000000
1312354.858855,17.000000,20.000000,26.000000,-49.000000,-6.000000,25.000000,115.000000,4.000000
1312354.881095,47.000000,53.000000,77.000000,11.000000,29.000000,-27.000000,10.000000,127.000000
1312354.881127,-15.000000,-20.000000,-32.000000,28.000000,-26.000000,-1.000000,-14.000000,-97.000000
1312354.888504,-35.000000,-8.000000,-24.000000,14.000000,1.000000,15.000000,32.000000,-14.000000
1312354.888520,16.000000,18.000000,11.000000,18.000000,7.000000,-18.000000,-7.000000,-29.000000
1312354.918598,5.000000,-5.000000,-29.000000,-14.000000,-16.000000,6.000000,-22.000000,27.000000
1312354.918612,-24.000000,15.000000,38.000000,35.000000,-7.000000,6.000000,23.000000,25.000000
1312354.925891,-1.000000,3.000000,-42.000000,-42.000000,0.000000,-17.000000,-20.000000,-33.000000
1312354.925902,-3.000000,5.000000,-28.000000,-24.000000,-22.000000,-22.000000,-115.000000,38.000000
1312354.956238,19.000000,-20.000000,13.000000,12.000000,-18.000000,20.000000,-27.000000,-43.000000
1312354.956286,-71.000000,-13.000000,22.000000,69.000000,-6.000000,-4.000000,-21.000000,66.000000
1312354.963704,89.000000,17.000000,17.000000,-87.000000,23.000000,-15.000000,31.000000,12.000000
1312354.963721,-28.000000,-52.000000,-58.000000,36.000000,-19.000000,26.000000,62.000000,-69.000000
1312354.979101,35.000000,21.000000,-20.000000,-61.000000,-16.000000,-8.000000,49.000000,40.000000
1312354.979145,-3.000000,2.000000,48.000000,8.000000,81.000000,-35.000000,-128.000000,54.000000
1312354.979655,52.000000,12.000000,-25.000000,-95.000000,-34.000000,-8.000000,9.000000,13.000000
1312354.979663,-34.000000,-8.000000,-38.000000,19.000000,-7.000000,17.000000,-9.000000,-66.000000
1312354.980984,-51.000000,-5.000000,-18.000000,40.000000,-10.000000,-6.000000,-60.000000,-25.000000
1312354.980993,24.000000,5.000000,15.000000,50.000000,66.000000,28.000000,54.000000,20.000000
1312355.001561,-8.000000,30.000000,-83.000000,27.000000,-8.000000,-18.000000,3.000000,-8.000000
1312355.001573,24.000000,33.000000,59.000000,-22.000000,9.000000,-20.000000,-38.000000,-5.000000
1312355.023519,-45.000000,-3.000000,-75.000000,-30.000000,-46.000000,-27.000000,-9.000000,46.000000
1312355.023529,48.000000,33.000000,6.000000,4.000000,44.000000,33.000000,61.000000,41.000000
1312355.038480,-3.000000,13.000000,-9.000000,-6.000000,-1.000000,-23.000000,-30.000000,7.000000
1312355.038490,-26.000000,-40.000000,-33.000000,-50.000000,-42.000000,17.000000,56.000000,-79.000000
1312355.039455,-8.000000,-14.000000,44.000000,26.000000,-19.000000,1.000000,-9.000000,46.000000
1312355.039463,19.000000,21.000000,9.000000,-1.000000,-7.000000,-13.000000,25.000000,88.000000
1312355.040039,0.000000,-18.000000,55.000000,-17.000000,27.000000,25.000000,113.000000,-31.000000
1312355.040047,-27.000000,-55.000000,-42.000000,5.000000,-46.000000,-18.000000,-89.000000,-85.000000
1312355.041636,24.000000,-7.000000,47.000000,-8.000000,-16.000000,6.000000,7.000000,-12.000000
1312355.041644,-45.000000,-22.000000,-19.000000,-9.000000,-8.000000,2.000000,-3.000000,4.000000
1312355.053872,16.000000,9.000000,8.000000,-3.000000,29.000000,-2.000000,-4.000000,3.000000
1312355.053898,-20.000000,-24.000000,-14.000000,60.000000,-11.000000,-9.000000,-23.000000,-31.000000
1312355.060907,31.000000,11.000000,19.000000,-6.000000,0.000000,22.000000,46.000000,120.000000
1312355.060932,-16.000000,-21.000000,-34.000000,17.000000,14.000000,28.000000,123.000000,-67.000000
1312355.062349,-2.000000,-14.000000,34.000000,-48.000000,1.000000,-45.000000,-38.000000,45.000000
1312355.062358,-7.000000,-53.000000,-13.000000,42.000000,-8.000000,50.000000,127.000000,-128.000000
1312355.076133,-105.000000,10.000000,-52.000000,-38.000000,-15.000000,-88.000000,-128.000000,127.000000
1312355.076151,53.000000,19.000000,20.000000,-63.000000,19.000000,-22.000000,18.000000,-128.000000
1312355.084071,-36.000000,-31.000000,-38.000000,14.000000,-10.000000,11.000000,-6.000000,10.000000
1312355.084080,-1.000000,14.000000,-16.000000,-2.000000,-13.000000,10.000000,-5.000000,-11.000000
1312355.099322,-3.000000,24.000000,-4.000000,-6.000000,3.000000,-14.000000,-5.000000,-20.000000
1312355.099352,11.000000,-14.000000,-8.000000,-70.000000,-23.000000,2.000000,-28.000000,10.000000
1312355.135916,-20.000000,-24.000000,56.000000,111.000000,8.000000,27.000000,29.000000,41.000000
1312355.135926,9.000000,18.000000,-4.000000,-42.000000,-3.000000,-17.000000,-56.000000,-60.000000
1312355.143838,5.000000,-18.000000,3.000000,-18.000000,-12.000000,-20.000000,-46.000000,-24.000000
1312355.143877,20.000000,-14.000000,-90.000000,11.000000,25.000000,19.000000,50.000000,62.000000
1312355.159073,-24.000000,4.000000,2.000000,26.000000,-23.000000,-11.000000,-11.000000,-48.000000
1312355.159089,6.000000,-7.000000,35.000000,-22.000000,25.000000,-3.000000,0.000000,3.000000
1312355.159553,-28.000000,-23.000000,-115.000000,-44.000000,-31.000000,-34.000000,-72.000000,-50.000000
1312355.159563,-19.000000,19.000000,31.000000,24.000000,-6.000000,-13.000000,-68.000000,0.000000
1312355.160884,52.000000,39.000000,-11.000000,-43.000000,7.000000,-32.000000,-88.000000,-26.000000
1312355.160899,36.000000,-13.000000,28.000000,7.000000,13.000000,20.000000,47.000000,-26.000000
1312355.161705,-58.000000,-34.000000,-57.000000,27.000000,5.000000,19.000000,-6.000000,-42.000000
1312355.161713,-13.000000,15.000000,31.000000,-6.000000,-3.000000,-16.000000,-21.000000,-64.000000
1312355.188647,19.000000,-11.000000,50.000000,3.000000,2.000000,2.000000,11.000000,32.000000
1312355.188658,-31.000000,-27.000000,-43.000000,72.000000,-14.000000,5.000000,-107.000000,12.000000
1312355.196592,66.000000,80.000000,127.000000,22.000000,19.000000,-6.000000,20.000000,36.000000
1312355.196630,10.000000,-4.000000,-19.000000,-34.000000,4.000000,-12.000000,31.000000,-40.000000
1312355.204041,-22.000000,-2.000000,22.000000,60.000000,-16.000000,16.000000,10.000000,60.000000
1312355.204050,-5.000000,18.000000,-30.000000,-6.000000,-8.000000,-3.000000,5.000000,-4.000000
1312355.204538,-1.000000,45.000000,-11.000000,-17.000000,-20.000000,-13.000000,-21.000000,-96.000000
1312355.204565,-18.000000,-54.000000,25.000000,-28.000000,-22.000000,-31.000000,-100.000000,66.000000
1312355.206082,-5.000000,6.000000,-1.000000,-18.000000,-14.000000,4.000000,-23.000000,-16.000000
1312355.206101,-1.000000,16.000000,-7.000000,-49.000000,10.000000,-9.000000,-95.000000,-77.000000
1312355.218506,2.000000,-37.000000,78.000000,56.000000,29.000000,3.000000,-2.000000,-48.000000
1312355.218516,-36.000000,-29.000000,-11.000000,45.000000,8.000000,-1.000000,-61.000000,1.000000
1312355.241238,31.000000,20.000000,26.000000,-37.000000,-1.000000,-8.000000,-9.000000,27.000000
1312355.241248,12.000000,-2.000000,73.000000,-4.000000,48.000000,1.000000,-3.000000,-26.000000
1312355.248501,-21.000000,-19.000000,-57.000000,3.000000,-35.000000,-1.000000,-17.000000,-9.000000
1312355.248530,-3.000000,6.000000,0.000000,20.000000,-9.000000,4.000000,-5.000000,-3.000000
1312355.278744,-12.000000,29.000000,15.000000,7.000000,35.000000,4.000000,64.000000,-28.000000
1312355.278754,51.000000,36.000000,-17.000000,-4.000000,-12.000000,27.000000,74.000000,94.000000
1312355.286059,-17.000000,-34.000000,-30.000000,6.000000,-42.000000,-6.000000,-19.000000,-13.000000
1312355.286071,-31.000000,-7.000000,-25.000000,26.000000,16.000000,-1.000000,-30.000000,-128.000000
1312355.293789,29.000000,12.000000,90.000000,-23.000000,-6.000000,-3.000000,58.000000,127.000000
1312355.293799,13.000000,-23.000000,-8.000000,5.000000,-15.000000,7.000000,-33.000000,-109.000000
1312355.294430,-24.000000,-30.000000,22.000000,2.000000,-10.000000,0.000000,-25.000000,-53.000000
1312355.294438,25.000000,18.000000,24.000000,-33.000000,9.000000,-25.000000,-22.000000,3.000000
1312355.295958,-27.000000,-5.000000,14.000000,59.000000,-11.000000,20.000000,50.000000,-25.000000
1312355.295975,5.000000,34.000000,11.000000,-7.000000,-7.000000,9.000000,-65.000000,-32.000000
1312355.296941,58.000000,28.000000,31.000000,-45.000000,43.000000,-2.000000,74.000000,86.000000
1312355.296951,-17.000000,-44.000000,-10.000000,-8.000000,-5.000000,3.000000,-33.000000,-102.000000
1312355.301682,-59.000000,-14.000000,-12.000000,17.000000,-8.000000,16.000000,26.000000,-8.000000
1312355.301717,2.000000,8.000000,-46.000000,-32.000000,4.000000,-17.000000,-6.000000,2.000000
1312355.316190,17.000000,-9.000000,2.000000,-33.000000,-24.000000,-27.000000,-27.000000,-9.000000
1312355.316217,-16.000000,-33.000000,22.000000,85.000000,65.000000,50.000000,-5.000000,-31.000000
1312355.353607,-9.000000,14.000000,-25.000000,-46.000000,-14.000000,-7.000000,34.000000,6.000000
1312355.353617,14.000000,18.000000,46.000000,-6.000000,9.000000,-18.000000,-37.000000,-5.000000
1312355.361000,5.000000,-21.000000,-6.000000,72.000000,19.000000,27.000000,22.000000,-12.000000
1312355.361019,-29.000000,18.000000,-28.000000,-41.000000,-27.000000,-21.000000,-58.000000,9.000000
1312355.376440,22.000000,39.000000,9.000000,52.000000,51.000000,-12.000000,-52.000000,24.000000
1312355.376453,-13.000000,-32.000000,-58.000000,-4.000000,5.000000,-9.000000,-15.000000,-29.000000
1312355.398498,-11.000000,-28.000000,12.000000,19.000000,-34.000000,18.000000,-32.000000,-91.000000
1312355.398508,0.000000,21.000000,-34.000000,-44.000000,-5.000000,-13.000000,67.000000,68.000000
1312355.421365,36.000000,-11.000000,17.000000,-2.000000,9.000000,7.000000,2.000000,-27.000000
1312355.421394,-23.000000,-31.000000,-45.000000,22.000000,-5.000000,24.000000,-7.000000,-40.000000
1312355.435908,-36.000000,-21.000000,-3.000000,-7.000000,1.000000,-10.000000,-92.000000,-128.000000
1312355.435919,18.000000,20.000000,17.000000,-34.000000,5.000000,-20.000000,96.000000,127.000000
1312355.436986,7.000000,1.000000,2.000000,-6.000000,6.000000,-14.000000,-98.000000,-123.000000
1312355.437002,18.000000,15.000000,33.000000,84.000000,24.000000,35.000000,94.000000,62.000000
1312355.437661,3.000000,32.000000,-4.000000,-91.000000,-14.000000,-59.000000,-87.000000,-27.000000
1312355.437680,-12.000000,-27.000000,-24.000000,5.000000,-18.000000,5.000000,-21.000000,-96.000000
1312355.438329,-6.000000,-18.000000,-51.000000,6.000000,-27.000000,-35.000000,-121.000000,-60.000000
1312355.438397,8.000000,-4.000000,9.000000,-16.000000,-36.000000,13.000000,7.000000,37.000000
1312355.439168,-39.000000,-13.000000,-11.000000,40.000000,-34.000000,10.000000,-37.000000,127.000000
1312355.439185,45.000000,68.000000,3.000000,8.000000,17.000000,9.000000,57.000000,-8.000000
1312355.458545,4.000000,12.000000,-1.000000,-27.000000,16.000000,3.000000,40.000000,-7.000000
1312355.458574,-41.000000,-22.000000,6.000000,15.000000,-25.000000,-12.000000,30.000000,-45.000000
1312355.473645,4.000000,23.000000,6.000000,22.000000,-10.000000,7.000000,16.000000,74.000000
1312355.473674,30.000000,-12.000000,27.000000,-17.000000,1.000000,-6.000000,41.000000,25.000000
1312355.496040,-18.000000,-32.000000,18.000000,-9.000000,-10.000000,3.000000,-2.000000,-17.000000
1312355.496064,-13.000000,-9.000000,-38.000000,73.000000,1.000000,37.000000,29.000000,32.000000
1312355.511229,-27.000000,1.000000,-96.000000,-67.000000,-27.000000,-20.000000,-49.000000,-8.000000
1312355.511241,44.000000,25.000000,50.000000,1.000000,45.000000,-4.000000,-28.000000,-24.000000
1312355.526065,2.000000,6.000000,-45.000000,7.000000,-7.000000,8.000000,20.000000,28.000000
1312355.526096,-3.000000,13.000000,-17.000000,-3.000000,-1.000000,-2.000000,-5.000000,-79.000000
1312355.526487,14.000000,0.000000,15.000000,-57.000000,-9.000000,-16.000000,30.000000,34.000000
1312355.526495,-2.000000,-11.000000,39.000000,-32.000000,-13.000000,-3.000000,-35.000000,-71.000000
1312355.533827,-17.000000,-11.000000,-34.000000,58.000000,-20.000000,15.000000,45.000000,122.000000
1312355.533836,-16.000000,-11.000000,-52.000000,-40.000000,-3.000000,-22.000000,-11.000000,-35.000000
1312355.534513,-9.000000,-16.000000,3.000000,-18.000000,-14.000000,-10.000000,-44.000000,-24.000000
1312355.534529,-15.000000,-24.000000,-53.000000,26.000000,-16.000000,15.000000,-19.000000,-39.000000
1312355.536013,13.000000,5.000000,87.000000,56.000000,0.000000,-2.000000,-15.000000,37.000000
1312355.536022,-19.000000,14.000000,-56.000000,-55.000000,-30.000000,-22.000000,-98.000000,-128.000000
1312355.571164,55.000000,33.000000,13.000000,-8.000000,60.000000,-1.000000,82.000000,127.000000
1312355.571186,16.000000,-20.000000,-17.000000,-24.000000,8.000000,12.000000,-29.000000,-127.000000
1312355.578559,-54.000000,-13.000000,-6.000000,57.000000,-41.000000,-1.000000,0.000000,-1.000000
1312355.578578,28.000000,40.000000,6.000000,-48.000000,-4.000000,-24.000000,-14.000000,127.000000
1312355.616202,11.000000,-11.000000,21.000000,-13.000000,-7.000000,8.000000,6.000000,-66.000000
1312355.616212,-36.000000,-25.000000,-20.000000,34.000000,-25.000000,23.000000,-6.000000,-19.000000
1312355.630971,-1.000000,-2.000000,23.000000,32.000000,41.000000,-4.000000,-7.000000,-24.000000
1312355.630985,-1.000000,4.000000,27.000000,-21.000000,24.000000,-6.000000,-13.000000,-48.000000
1312355.632011,-19.000000,-8.000000,-34.000000,-15.000000,-20.000000,-1.000000,-15.000000,11.000000
1312355.632022,-8.000000,15.000000,-27.000000,0.000000,-8.000000,-11.000000,26.000000,44.000000
1312355.632665,21.000000,-15.000000,11.000000,-20.000000,22.000000,-15.000000,18.000000,-69.000000
1312355.632687,-30.000000,-1.000000,-34.000000,-52.000000,-23.000000,-24.000000,-54.000000,52.000000
1312355.633869,16.000000,-16.000000,24.000000,-41.000000,-4.000000,5.000000,19.000000,-43.000000
1312355.633878,15.000000,-1.000000,-4.000000,15.000000,-7.000000,21.000000,23.000000,36.000000
1312355.634884,4.000000,-36.000000,38.000000,-6.000000,-16.000000,5.000000,-19.000000,-118.000000
1312355.634905,-34.000000,-4.000000,-128.000000,-85.000000,-33.000000,1.000000,35.000000,-82.000000
1312355.654137,4.000000,13.000000,25.000000,22.000000,52.000000,-44.000000,-128.000000,28.000000
1312355.654146,16.000000,-22.000000,-24.000000,12.000000,-6.000000,18.000000,108.000000,127.000000
1312355.654849,1.000000,7.000000,-14.000000,59.000000,6.000000,11.000000,30.000000,19.000000
1312355.654857,-32.000000,8.000000,-81.000000,-39.000000,-8.000000,-34.000000,-57.000000,-66.000000
1312355.676413,6.000000,-56.000000,47.000000,-7.000000,-33.000000,14.000000,43.000000,40.000000
1312355.676436,27.000000,13.000000,6.000000,53.000000,5.000000,41.000000,111.000000,127.000000
1312355.677205,11.000000,-7.000000,-35.000000,-12.000000,23.000000,7.000000,-31.000000,-128.000000
1312355.677225,-14.000000,-1.000000,-3.000000,-46.000000,20.000000,-27.000000,-76.000000,50.000000
1312355.698532,-9.000000,-53.000000,4.000000,66.000000,-13.000000,34.000000,-14.000000,-116.000000
1312355.698542,8.000000,15.000000,68.000000,33.000000,12.000000,11.000000,55.000000,127.000000
1312355.713597,41.000000,26.000000,49.000000,-49.000000,9.000000,-19.000000,44.000000,47.000000
1312355.713608,-27.000000,-21.000000,-23.000000,4.000000,-3.000000,34.000000,74.000000,26.000000
1312355.751471,9.000000,16.000000,-33.000000,66.000000,12.000000,20.000000,-32.000000,-51.000000
1312355.751490,10.000000,43.000000,25.000000,-46.000000,-6.000000,-11.000000,-9.000000,-13.000000
1312355.751888,-16.000000,-31.000000,4.000000,42.000000,37.000000,20.000000,4.000000,28.000000
1312355.751899,1.000000,-6.000000,-19.000000,35.000000,4.000000,21.000000,15.000000,21.000000
1312355.752735,-32.000000,11.000000,-21.000000,-40.000000,-22.000000,-22.000000,-30.000000,-128.000000
1312355.752746,26.000000,-4.000000,112.000000,61.000000,39.000000,14.000000,67.000000,127.000000
1312355.753362,1.000000,-44.000000,-128.000000,-8.000000,15.000000,8.000000,-14.000000,13.000000
1312355.753371,-15.000000,9.000000,42.000000,-8.000000,-26.000000,2.000000,15.000000,-30.000000
1312355.758732,13.000000,32.000000,-3.000000,12.000000,6.000000,26.000000,98.000000,43.000000
1312355.758750,-1.000000,38.000000,-24.000000,-53.000000,13.000000,-31.000000,-65.000000,-39.000000
1312355.773514,27.000000,-15.000000,7.000000,18.000000,-3.000000,24.000000,45.000000,-38.000000
1312355.773540,-59.000000,-41.000000,-101.000000,-4.000000,-41.000000,-6.000000,-13.000000,6.000000
1312355.774215,22.000000,23.000000,26.000000,16.000000,34.000000,-1.000000,19.000000,-14.000000
1312355.774237,8.000000,-19.000000,-24.000000,-5.000000,-9.000000,-13.000000,-41.000000,-71.000000
1312355.789095,-19.000000,-45.000000,-22.000000,-7.000000,-18.000000,23.000000,9.000000,48.000000
1312355.789104,27.000000,25.000000,21.000000,28.000000,21.000000,-3.000000,60.000000,127.000000
1312355.796089,16.000000,-3.000000,-14.000000,-21.000000,21.000000,-7.000000,0.000000,-87.000000
1312355.796099,-15.000000,-24.000000,-16.000000,46.000000,-8.000000,8.000000,-69.000000,33.000000
1312355.810930,52.000000,39.000000,40.000000,24.000000,21.000000,44.000000,127.000000,127.000000
1312355.810939,-17.000000,44.000000,39.000000,-54.000000,-27.000000,-25.000000,11.000000,9.000000
1312355.833843,-29.000000,-24.000000,-33.000000,21.000000,-23.000000,-2.000000,-7.000000,-35.000000
1312355.833872,15.000000,1.000000,51.000000,53.000000,15.000000,22.000000,-105.000000,49.000000
1312355.856258,19.000000,22.000000,-19.000000,-16.000000,24.000000,-7.000000,22.000000,-28.000000
1312355.856289,12.000000,-11.000000,15.000000,-81.000000,-18.000000,-27.000000,-40.000000,-27.000000
1312355.856950,-15.000000,-47.000000,-29.000000,85.000000,-13.000000,34.000000,18.000000,89.000000
1312355.856977,13.000000,33.000000,30.000000,-2.000000,11.000000,-8.000000,45.000000,103.000000
1312355.858086,-4.000000,18.000000,-1.000000,-40.000000,6.000000,-17.000000,-16.000000,-66.000000
1312355.858100,-20.000000,-10.000000,-5.000000,-13.000000,-29.000000,-16.000000,-119.000000,-28.000000
1312355.858655,-6.000000,16.000000,-6.000000,23.000000,10.000000,16.000000,-3.000000,-5.000000
1312355.858681,-14.000000,9.000000,-92.000000,-54.000000,-10.000000,-16.000000,65.000000,-53.000000
1312355.871634,25.000000,0.000000,81.000000,8.000000,6.000000,2.000000,-28.000000,87.000000
1312355.871676,-23.000000,-21.000000,-25.000000,49.000000,23.000000,23.000000,-10.000000,-61.000000
1312355.886065,-9.000000,66.000000,4.000000,-4.000000,-12.000000,-8.000000,59.000000,117.000000
1312355.886085,57.000000,8.000000,17.000000,5.000000,42.000000,30.000000,29.000000,68.000000
1312355.894315,-30.000000,-59.000000,-84.000000,9.000000,-44.000000,-4.000000,20.000000,-11.000000
1312355.894343,-5.000000,26.000000,38.000000,3.000000,5.000000,-2.000000,35.000000,79.000000
1312355.894976,-5.000000,13.000000,-21.000000,-35.000000,23.000000,-24.000000,-54.000000,-72.000000
1312355.894983,-10.000000,-20.000000,2.000000,9.000000,-13.000000,10.000000,0.000000,22.000000
1312355.909230,-32.000000,14.000000,-15.000000,4.000000,-15.000000,-10.000000,-22.000000,-73.000000
1312355.909257,31.000000,46.000000,3.000000,-31.000000,13.000000,-7.000000,67.000000,81.000000
1312355.916072,7.000000,-23.000000,5.000000,-5.000000,24.000000,10.000000,0.000000,-11.000000
1312355.916088,-30.000000,-25.000000,1.000000,53.000000,-3.000000,29.000000,0.000000,-36.000000
1312355.930847,1.000000,6.000000,-7.000000,-40.000000,-9.000000,-18.000000,6.000000,-6.000000
1312355.930857,8.000000,-19.000000,12.000000,-24.000000,11.000000,-3.000000,-12.000000,-15.000000
1312355.953533,-29.000000,-55.000000,-27.000000,48.000000,14.000000,31.000000,20.000000,-19.000000
1312355.953543,-4.000000,-12.000000,-58.000000,22.000000,43.000000,4.000000,-32.000000,-24.000000
1312355.968677,2.000000,11.000000,29.000000,-51.000000,-22.000000,-77.000000,-128.000000,-4.000000
1312355.968688,50.000000,7.000000,-42.000000,-3.000000,0.000000,8.000000,5.000000,28.000000
1312355.976275,-40.000000,-14.000000,-11.000000,14.000000,-21.000000,13.000000,7.000000,-84.000000
1312355.976288,22.000000,31.000000,57.000000,-37.000000,23.000000,-10.000000,84.000000,101.000000
1312356.006229,-11.000000,-17.000000,12.000000,25.000000,-12.000000,12.000000,12.000000,4.000000
1312356.006247,-9.000000,5.000000,-44.000000,22.000000,-2.000000,11.000000,-7.000000,-13.000000
1312356.015960,-8.000000,9.000000,14.000000,-15.000000,-8.000000,2.000000,22.000000,-36.000000
1312356.015985,9.000000,-4.000000,-8.000000,21.000000,4.000000,0.000000,-84.000000,-118.000000
1312356.016028,0.000000,-5.000000,-69.000000,6.000000,-10.000000,33.000000,116.000000,89.000000
1312356.016044,-23.000000,3.000000,-22.000000,-81.000000,-29.000000,-7.000000,50.000000,58.000000
1312356.016455,25.000000,-7.000000,56.000000,-16.000000,8.000000,-19.000000,40.000000,41.000000
1312356.016472,-22.000000,-16.000000,-20.000000,18.000000,-11.000000,6.000000,-57.000000,-93.000000
1312356.017022,-4.000000,10.000000,-21.000000,-42.000000,-26.000000,-1.000000,-25.000000,-10.000000
1312356.017033,-8.000000,34.000000,-2.000000,-23.000000,15.000000,-25.000000,-9.000000,-22.000000
1312356.017913,-1.000000,-17.000000,-44.000000,26.000000,-17.000000,4.000000,-4.000000,-13.000000
1312356.017930,-13.000000,-10.000000,10.000000,-47.000000,-11.000000,2.000000,-93.000000,-8.000000
1312356.029205,32.000000,50.000000,22.000000,32.000000,65.000000,-17.000000,-81.000000,-107.000000
1312356.029215,-4.000000,-35.000000,-11.000000,-9.000000,-12.000000,13.000000,60.000000,101.000000
1312356.036361,1.000000,2.000000,-48.000000,-4.000000,-18.000000,-17.000000,-56.000000,-111.000000
1312356.036375,-8.000000,-6.000000,-2.000000,27.000000,-6.000000,13.000000,61.000000,61.000000
1312356.065931,32.000000,-24.000000,54.000000,-42.000000,6.000000,-43.000000,-35.000000,1.000000
1312356.065941,-6.000000,-4.000000,-6.000000,22.000000,-12.000000,7.000000,-52.000000,65.000000
1312356.073849,-25.000000,-18.000000,-4.000000,22.000000,34.000000,15.000000,27.000000,-40.000000
1312356.073862,2.000000,23.000000,-24.000000,-63.000000,35.000000,-13.000000,4.000000,-37.000000
1312356.111144,-28.000000,-10.000000,-11.000000,39.000000,15.000000,28.000000,76.000000,32.000000
1312356.111162,2.000000,18.000000,59.000000,-18.000000,-17.000000,26.000000,39.000000,18.000000
1312356.111543,5.000000,12.000000,-10.000000,-2.000000,20.000000,-24.000000,-47.000000,69.000000
1312356.111575,10.000000,-20.000000,35.000000,-50.000000,-23.000000,-8.000000,-4.000000,-46.000000
1312356.112684,-30.000000,-19.000000,-18.000000,61.000000,0.000000,31.000000,-16.000000,-41.000000
1312356.112695,-21.000000,2.000000,68.000000,2.000000,-4.000000,-5.000000,5.000000,-43.000000
1312356.113486,31.000000,2.000000,-14.000000,-33.000000,9.000000,-15.000000,41.000000,70.000000
1312356.113502,-19.000000,-25.000000,-27.000000,-26.000000,-40.000000,-11.000000,-53.000000,-47.000000
1312356.115116,-4.000000,18.000000,-6.000000,54.000000,-18.000000,-6.000000,-41.000000,-41.000000
1312356.115128,16.000000,28.000000,-8.000000,-54.000000,12.000000,-8.000000,23.000000,-20.000000
