# participant_id: P2
# gesture: hard
# trial_number: 1
# stream_name: Myo_EMG
# stream_type: emg
# timestamp: 20260420_131350
# samples: 5295
# duration_sec: 30.449
# nominal_sample_rate: 200.0
# effective_sample_rate: 173.86
#
timestamp,emg_1,emg_2,emg_3,emg_4,emg_5,emg_6,emg_7,emg_8
1295521.944693,127.000000,-5.000000,16.000000,14.000000,19.000000,69.000000,-74.000000,-25.000000
1295521.958915,-57.000000,-2.000000,35.000000,-2.000000,18.000000,36.000000,127.000000,69.000000
1295521.958930,-19.000000,1.000000,-83.000000,-128.000000,-22.000000,-26.000000,-76.000000,-14.000000
1295521.974062,-66.000000,-5.000000,33.000000,127.000000,-31.000000,-68.000000,-39.000000,-51.000000
1295521.974073,127.000000,-3.000000,-19.000000,6.000000,42.000000,16.000000,-128.000000,-1.000000
1295521.981382,-94.000000,2.000000,11.000000,16.000000,-35.000000,-11.000000,127.000000,38.000000
1295521.981392,14.000000,5.000000,0.000000,17.000000,29.000000,-3.000000,-86.000000,54.000000
1295522.018860,31.000000,-2.000000,-21.000000,-10.000000,1.000000,-19.000000,-56.000000,-72.000000
1295522.018870,-32.000000,2.000000,50.000000,34.000000,14.000000,-16.000000,24.000000,9.000000
1295522.026589,127.000000,5.000000,-10.000000,-20.000000,2.000000,10.000000,-4.000000,-10.000000
1295522.026601,4.000000,6.000000,-25.000000,-19.000000,-17.000000,-12.000000,-58.000000,-36.000000
1295522.027403,-128.000000,-5.000000,13.000000,40.000000,8.000000,-10.000000,-64.000000,-44.000000
1295522.027411,-23.000000,-4.000000,15.000000,-31.000000,4.000000,5.000000,-128.000000,-96.000000
1295522.027898,-29.000000,7.000000,15.000000,9.000000,28.000000,61.000000,127.000000,127.000000
1295522.027906,127.000000,-4.000000,52.000000,33.000000,34.000000,28.000000,31.000000,64.000000
1295522.048784,103.000000,-9.000000,-21.000000,-60.000000,-38.000000,-29.000000,-16.000000,18.000000
1295522.048817,-8.000000,-7.000000,-128.000000,-93.000000,-28.000000,-21.000000,-128.000000,-94.000000
1295522.056351,-128.000000,3.000000,111.000000,94.000000,72.000000,56.000000,127.000000,-2.000000
1295522.056414,127.000000,-3.000000,31.000000,38.000000,54.000000,52.000000,121.000000,103.000000
1295522.071295,-128.000000,5.000000,-27.000000,-32.000000,-27.000000,-27.000000,-106.000000,-25.000000
1295522.071318,-49.000000,-6.000000,-3.000000,44.000000,28.000000,4.000000,-51.000000,-48.000000
1295522.086414,78.000000,-2.000000,17.000000,-70.000000,-36.000000,-26.000000,-126.000000,-12.000000
1295522.086424,56.000000,9.000000,-33.000000,5.000000,5.000000,51.000000,127.000000,34.000000
1295522.101624,-73.000000,-3.000000,5.000000,-38.000000,-16.000000,-16.000000,-40.000000,-29.000000
1295522.101663,-45.000000,-7.000000,-45.000000,-89.000000,-14.000000,-7.000000,-12.000000,-22.000000
1295522.131852,-93.000000,-14.000000,7.000000,40.000000,2.000000,-12.000000,-59.000000,-45.000000
1295522.131902,40.000000,10.000000,-41.000000,-27.000000,-30.000000,-5.000000,127.000000,78.000000
1295522.146530,66.000000,-6.000000,-16.000000,-10.000000,-1.000000,3.000000,104.000000,47.000000
1295522.146570,-76.000000,-6.000000,-4.000000,-14.000000,-3.000000,-3.000000,-59.000000,-7.000000
1295522.161260,24.000000,-1.000000,36.000000,95.000000,22.000000,-19.000000,-39.000000,-40.000000
1295522.161279,48.000000,6.000000,-35.000000,25.000000,57.000000,8.000000,-54.000000,6.000000
1295522.162904,26.000000,0.000000,73.000000,60.000000,63.000000,70.000000,127.000000,38.000000
1295522.162953,-26.000000,-10.000000,-33.000000,-11.000000,9.000000,2.000000,63.000000,11.000000
1295522.163924,124.000000,77.000000,32.000000,57.000000,44.000000,27.000000,-71.000000,48.000000
1295522.163940,56.000000,22.000000,-19.000000,-37.000000,-17.000000,15.000000,127.000000,53.000000
1295522.164562,-128.000000,-4.000000,-13.000000,-23.000000,-21.000000,-42.000000,-128.000000,-98.000000
1295522.164577,-128.000000,-17.000000,28.000000,41.000000,25.000000,7.000000,8.000000,-64.000000
1295522.168739,127.000000,-7.000000,-25.000000,-50.000000,-26.000000,-52.000000,-67.000000,-45.000000
1295522.168748,62.000000,-27.000000,3.000000,9.000000,7.000000,11.000000,10.000000,12.000000
1295522.176426,-113.000000,21.000000,-54.000000,-21.000000,-4.000000,22.000000,-3.000000,-5.000000
1295522.176455,50.000000,18.000000,12.000000,-18.000000,-13.000000,-55.000000,-128.000000,-70.000000
1295522.184482,127.000000,7.000000,22.000000,-17.000000,4.000000,66.000000,127.000000,84.000000
1295522.184499,-128.000000,-27.000000,-121.000000,-32.000000,2.000000,5.000000,34.000000,94.000000
1295522.198681,-55.000000,16.000000,127.000000,124.000000,55.000000,10.000000,127.000000,-32.000000
1295522.198692,-128.000000,-37.000000,-12.000000,-75.000000,-28.000000,-8.000000,1.000000,18.000000
1295522.221363,-55.000000,-3.000000,-59.000000,-53.000000,-32.000000,-15.000000,-119.000000,-62.000000
1295522.221373,127.000000,44.000000,34.000000,25.000000,4.000000,-3.000000,-81.000000,29.000000
1295522.251457,-84.000000,35.000000,-66.000000,-4.000000,-14.000000,-25.000000,-49.000000,-46.000000
1295522.251469,-30.000000,-14.000000,-56.000000,1.000000,-28.000000,9.000000,-128.000000,-41.000000
1295522.266254,68.000000,-13.000000,109.000000,63.000000,43.000000,8.000000,127.000000,32.000000
1295522.266267,42.000000,7.000000,54.000000,60.000000,-12.000000,12.000000,127.000000,127.000000
1295522.273797,101.000000,2.000000,21.000000,-8.000000,-3.000000,-9.000000,-75.000000,-2.000000
1295522.273808,38.000000,-1.000000,-36.000000,-42.000000,-38.000000,-79.000000,-90.000000,-53.000000
1295522.289330,-58.000000,17.000000,-19.000000,-55.000000,-34.000000,-58.000000,-128.000000,-86.000000
1295522.289362,63.000000,11.000000,-12.000000,-14.000000,4.000000,12.000000,127.000000,6.000000
1295522.289893,-17.000000,-8.000000,-33.000000,-66.000000,-21.000000,35.000000,-128.000000,-23.000000
1295522.289901,19.000000,3.000000,53.000000,62.000000,22.000000,33.000000,127.000000,127.000000
1295522.290409,-8.000000,5.000000,-30.000000,33.000000,12.000000,19.000000,-84.000000,17.000000
1295522.290418,-23.000000,-4.000000,-38.000000,27.000000,6.000000,-7.000000,-104.000000,-50.000000
1295522.291088,-3.000000,-9.000000,-26.000000,-12.000000,-33.000000,-36.000000,-90.000000,-45.000000
1295522.291130,-11.000000,2.000000,-48.000000,9.000000,14.000000,40.000000,-45.000000,-66.000000
1295522.292653,-6.000000,8.000000,93.000000,126.000000,70.000000,28.000000,127.000000,96.000000
1295522.292664,53.000000,-12.000000,-51.000000,-10.000000,-16.000000,-37.000000,-128.000000,-67.000000
1295522.296263,44.000000,0.000000,127.000000,127.000000,65.000000,86.000000,127.000000,124.000000
1295522.296272,94.000000,11.000000,15.000000,-16.000000,-10.000000,23.000000,76.000000,19.000000
1295522.304449,-78.000000,2.000000,8.000000,50.000000,12.000000,51.000000,127.000000,111.000000
1295522.304468,-33.000000,4.000000,31.000000,11.000000,-10.000000,-56.000000,-128.000000,-68.000000
1295522.326417,-30.000000,-1.000000,61.000000,46.000000,35.000000,53.000000,-86.000000,-89.000000
1295522.326430,47.000000,-6.000000,-110.000000,-128.000000,-48.000000,-7.000000,100.000000,89.000000
1295522.341722,-2.000000,-11.000000,124.000000,127.000000,103.000000,39.000000,-17.000000,-13.000000
1295522.341747,9.000000,-3.000000,-44.000000,-2.000000,-2.000000,-68.000000,80.000000,59.000000
1295522.348638,62.000000,-5.000000,105.000000,107.000000,69.000000,48.000000,33.000000,-7.000000
1295522.348655,-11.000000,-15.000000,-76.000000,-76.000000,-26.000000,-7.000000,-54.000000,-36.000000
1295522.379447,-128.000000,5.000000,3.000000,15.000000,14.000000,-13.000000,50.000000,-9.000000
1295522.379465,99.000000,3.000000,37.000000,-7.000000,29.000000,80.000000,-128.000000,-96.000000
1295522.379683,-77.000000,-2.000000,-10.000000,-26.000000,-60.000000,-107.000000,127.000000,127.000000
1295522.379701,-128.000000,-3.000000,-79.000000,-128.000000,-45.000000,-8.000000,-128.000000,-60.000000
1295522.380624,-46.000000,0.000000,2.000000,123.000000,31.000000,4.000000,-128.000000,-58.000000
1295522.380638,31.000000,3.000000,-53.000000,-59.000000,-33.000000,-58.000000,127.000000,17.000000
1295522.381109,-74.000000,3.000000,-9.000000,-36.000000,6.000000,1.000000,-61.000000,-44.000000
1295522.381136,26.000000,6.000000,-1.000000,-53.000000,-12.000000,-1.000000,-128.000000,-25.000000
1295522.409003,-31.000000,-5.000000,-24.000000,-68.000000,3.000000,34.000000,76.000000,27.000000
1295522.409032,102.000000,-2.000000,53.000000,78.000000,4.000000,5.000000,64.000000,33.000000
1295522.409372,-9.000000,0.000000,-37.000000,-58.000000,-24.000000,-1.000000,-20.000000,-4.000000
1295522.409398,4.000000,2.000000,22.000000,7.000000,15.000000,-21.000000,15.000000,42.000000
1295522.411111,-36.000000,-10.000000,-36.000000,-82.000000,-53.000000,-50.000000,-115.000000,-63.000000
1295522.411121,39.000000,6.000000,3.000000,7.000000,16.000000,23.000000,107.000000,43.000000
1295522.416574,-110.000000,3.000000,-33.000000,-97.000000,-27.000000,8.000000,-88.000000,-41.000000
1295522.416584,103.000000,-1.000000,-12.000000,14.000000,0.000000,-3.000000,-99.000000,-2.000000
1295522.424691,-38.000000,6.000000,2.000000,-14.000000,-12.000000,11.000000,88.000000,5.000000
1295522.424706,43.000000,-4.000000,-34.000000,-32.000000,-41.000000,-36.000000,12.000000,-10.000000
1295522.438836,56.000000,1.000000,12.000000,9.000000,-4.000000,12.000000,55.000000,31.000000
1295522.438857,127.000000,-7.000000,15.000000,33.000000,38.000000,80.000000,-128.000000,-62.000000
1295522.461598,34.000000,-5.000000,3.000000,-5.000000,-17.000000,-16.000000,127.000000,127.000000
1295522.461609,127.000000,-5.000000,-4.000000,-18.000000,-3.000000,-34.000000,-128.000000,-20.000000
1295522.491379,5.000000,-17.000000,-19.000000,33.000000,4.000000,26.000000,36.000000,3.000000
1295522.491404,-9.000000,-19.000000,4.000000,-40.000000,-17.000000,-13.000000,-39.000000,-20.000000
1295522.506867,9.000000,21.000000,-20.000000,-36.000000,-15.000000,-10.000000,-25.000000,-27.000000
1295522.506898,10.000000,26.000000,4.000000,43.000000,41.000000,-9.000000,-17.000000,-15.000000
1295522.528955,1.000000,51.000000,27.000000,5.000000,31.000000,12.000000,26.000000,8.000000
1295522.528966,-10.000000,-12.000000,-25.000000,-43.000000,10.000000,-6.000000,-23.000000,-19.000000
1295522.566387,39.000000,-56.000000,15.000000,78.000000,35.000000,0.000000,-128.000000,-63.000000
1295522.566436,-73.000000,-36.000000,11.000000,42.000000,2.000000,18.000000,127.000000,115.000000
1295522.573836,-2.000000,-14.000000,-35.000000,-50.000000,-34.000000,11.000000,15.000000,40.000000
1295522.573848,-86.000000,-1.000000,6.000000,17.000000,11.000000,23.000000,-128.000000,-111.000000
1295522.581393,90.000000,16.000000,18.000000,15.000000,-2.000000,-16.000000,127.000000,127.000000
1295522.581410,14.000000,21.000000,-17.000000,2.000000,8.000000,-8.000000,-14.000000,18.000000
1295522.588818,-4.000000,58.000000,63.000000,24.000000,-3.000000,-4.000000,-46.000000,-53.000000
1295522.588836,63.000000,-23.000000,-56.000000,-64.000000,-81.000000,-47.000000,-91.000000,-39.000000
1295522.604062,22.000000,11.000000,6.000000,7.000000,17.000000,6.000000,-68.000000,-9.000000
1295522.604076,-13.000000,-12.000000,-41.000000,-33.000000,-47.000000,-18.000000,28.000000,-35.000000
1295522.604432,2.000000,-47.000000,-5.000000,-27.000000,-43.000000,-44.000000,-8.000000,2.000000
1295522.604443,22.000000,-6.000000,23.000000,-12.000000,0.000000,-4.000000,-9.000000,3.000000
1295522.605499,20.000000,-33.000000,1.000000,1.000000,32.000000,19.000000,5.000000,88.000000
1295522.605508,-20.000000,-45.000000,1.000000,-3.000000,2.000000,-33.000000,-114.000000,-24.000000
1295522.606203,12.000000,19.000000,-44.000000,-6.000000,-7.000000,-1.000000,87.000000,6.000000
1295522.606221,48.000000,5.000000,106.000000,10.000000,-5.000000,-16.000000,-31.000000,-3.000000
1295522.608031,-42.000000,-31.000000,-83.000000,-10.000000,-28.000000,-41.000000,-78.000000,-68.000000
1295522.608043,19.000000,-12.000000,-46.000000,22.000000,50.000000,-58.000000,-71.000000,-31.000000
1295522.618704,-49.000000,-12.000000,15.000000,-8.000000,-3.000000,9.000000,54.000000,34.000000
1295522.618733,94.000000,-11.000000,-18.000000,-11.000000,6.000000,10.000000,19.000000,7.000000
1295522.633799,-3.000000,-50.000000,-37.000000,-6.000000,1.000000,-15.000000,-15.000000,-30.000000
1295522.633828,37.000000,69.000000,100.000000,32.000000,2.000000,-19.000000,25.000000,23.000000
1295522.649150,-29.000000,-27.000000,6.000000,-30.000000,-56.000000,-57.000000,-26.000000,-20.000000
1295522.649181,-12.000000,-23.000000,-4.000000,-15.000000,-23.000000,-18.000000,-2.000000,-3.000000
1295522.650133,8.000000,1.000000,-7.000000,5.000000,17.000000,18.000000,12.000000,28.000000
1295522.650141,4.000000,-10.000000,35.000000,3.000000,10.000000,53.000000,17.000000,-9.000000
1295522.656775,-7.000000,-25.000000,-29.000000,-24.000000,-30.000000,-48.000000,4.000000,8.000000
1295522.656805,3.000000,19.000000,127.000000,24.000000,26.000000,-19.000000,-22.000000,7.000000
1295522.694127,-24.000000,14.000000,-49.000000,-13.000000,-50.000000,-26.000000,-100.000000,-66.000000
1295522.694139,6.000000,-28.000000,3.000000,4.000000,10.000000,30.000000,107.000000,87.000000
1295522.701423,7.000000,-21.000000,9.000000,-19.000000,20.000000,37.000000,127.000000,84.000000
1295522.701435,0.000000,22.000000,-49.000000,16.000000,7.000000,6.000000,-30.000000,-8.000000
1295522.723978,-16.000000,-20.000000,-128.000000,-13.000000,-3.000000,-33.000000,-128.000000,-21.000000
1295522.723994,2.000000,36.000000,127.000000,41.000000,58.000000,66.000000,60.000000,3.000000
1295522.731747,-16.000000,5.000000,56.000000,4.000000,-12.000000,-3.000000,-1.000000,-10.000000
1295522.731771,9.000000,-36.000000,-128.000000,-23.000000,5.000000,11.000000,8.000000,9.000000
1295522.753857,9.000000,44.000000,127.000000,21.000000,-15.000000,-19.000000,-19.000000,-8.000000
1295522.753867,8.000000,-10.000000,6.000000,24.000000,41.000000,38.000000,7.000000,-1.000000
1295522.768808,-12.000000,-9.000000,-128.000000,5.000000,-39.000000,-31.000000,-37.000000,-27.000000
1295522.768837,-8.000000,-63.000000,-13.000000,-9.000000,-19.000000,8.000000,14.000000,20.000000
1295522.806560,-42.000000,-19.000000,-29.000000,-9.000000,-54.000000,-97.000000,-64.000000,-21.000000
1295522.806584,13.000000,19.000000,77.000000,33.000000,34.000000,-8.000000,-18.000000,-12.000000
1295522.828904,-55.000000,6.000000,21.000000,-26.000000,-31.000000,14.000000,26.000000,-25.000000
1295522.828914,21.000000,32.000000,127.000000,28.000000,5.000000,-6.000000,-20.000000,-68.000000
1295522.844115,-41.000000,-82.000000,-128.000000,-25.000000,-2.000000,-39.000000,10.000000,42.000000
1295522.844126,-26.000000,-13.000000,9.000000,14.000000,38.000000,-1.000000,-39.000000,-62.000000
1295522.851158,18.000000,21.000000,9.000000,5.000000,4.000000,-14.000000,-47.000000,22.000000
1295522.851167,3.000000,-21.000000,4.000000,-11.000000,0.000000,-33.000000,127.000000,69.000000
1295522.881739,72.000000,-11.000000,-23.000000,2.000000,23.000000,17.000000,-21.000000,6.000000
1295522.881769,17.000000,6.000000,-7.000000,-14.000000,-41.000000,-30.000000,-4.000000,17.000000
1295522.882602,-9.000000,-9.000000,-43.000000,-41.000000,-74.000000,-82.000000,-43.000000,-68.000000
1295522.882610,17.000000,22.000000,47.000000,13.000000,26.000000,28.000000,46.000000,82.000000
1295522.883702,-33.000000,-54.000000,14.000000,9.000000,15.000000,-7.000000,-55.000000,-91.000000
1295522.883709,4.000000,21.000000,1.000000,9.000000,12.000000,35.000000,44.000000,11.000000
1295522.884431,10.000000,18.000000,-12.000000,-6.000000,0.000000,1.000000,-3.000000,4.000000
1295522.884456,2.000000,-16.000000,-12.000000,3.000000,3.000000,7.000000,6.000000,16.000000
1295522.885190,8.000000,5.000000,7.000000,8.000000,6.000000,23.000000,8.000000,22.000000
1295522.885199,15.000000,48.000000,35.000000,15.000000,8.000000,51.000000,-75.000000,-6.000000
1295522.888868,87.000000,12.000000,48.000000,-10.000000,-21.000000,-29.000000,76.000000,-8.000000
1295522.888878,9.000000,-44.000000,-85.000000,-3.000000,6.000000,-4.000000,7.000000,33.000000
1295522.896308,-21.000000,-26.000000,-63.000000,-17.000000,-21.000000,-15.000000,-46.000000,-13.000000
1295522.896319,-18.000000,37.000000,3.000000,8.000000,3.000000,37.000000,-128.000000,-69.000000
1295522.926644,30.000000,-9.000000,-40.000000,-17.000000,-19.000000,18.000000,127.000000,109.000000
1295522.926657,22.000000,14.000000,127.000000,-2.000000,7.000000,-3.000000,-58.000000,21.000000
1295522.933950,-25.000000,-59.000000,-128.000000,-13.000000,-7.000000,-17.000000,-101.000000,-71.000000
1295522.933968,-2.000000,-24.000000,-37.000000,-17.000000,-14.000000,-107.000000,-106.000000,1.000000
1295522.963925,15.000000,51.000000,108.000000,35.000000,25.000000,35.000000,127.000000,46.000000
1295522.963939,-17.000000,-48.000000,-41.000000,-32.000000,-28.000000,-29.000000,-48.000000,-25.000000
1295522.971590,-32.000000,-18.000000,-128.000000,-15.000000,7.000000,0.000000,13.000000,63.000000
1295522.971607,14.000000,23.000000,127.000000,23.000000,1.000000,8.000000,-13.000000,-32.000000
1295522.986637,0.000000,6.000000,-15.000000,-5.000000,-8.000000,-32.000000,-35.000000,-17.000000
1295522.986655,-23.000000,-31.000000,-77.000000,-24.000000,-33.000000,-83.000000,-36.000000,-2.000000
1295522.993664,10.000000,11.000000,12.000000,-3.000000,16.000000,49.000000,93.000000,40.000000
1295522.993675,8.000000,7.000000,14.000000,21.000000,15.000000,25.000000,2.000000,-14.000000
1295522.994854,-26.000000,2.000000,-35.000000,-28.000000,-50.000000,-56.000000,-11.000000,24.000000
1295522.994901,36.000000,5.000000,-2.000000,6.000000,-8.000000,-8.000000,-4.000000,-24.000000
1295522.995477,-27.000000,7.000000,36.000000,23.000000,10.000000,-24.000000,-128.000000,-122.000000
1295522.995494,1.000000,24.000000,-13.000000,-21.000000,-14.000000,19.000000,-44.000000,2.000000
1295522.996243,-48.000000,-38.000000,-18.000000,-19.000000,7.000000,-2.000000,127.000000,127.000000
1295522.996251,-71.000000,-38.000000,-8.000000,-28.000000,-12.000000,-11.000000,-128.000000,-51.000000
1295523.001177,-12.000000,22.000000,16.000000,15.000000,10.000000,15.000000,-43.000000,35.000000
1295523.001187,8.000000,16.000000,-14.000000,17.000000,15.000000,-4.000000,72.000000,-77.000000
1295523.008761,127.000000,-18.000000,-52.000000,-95.000000,-40.000000,-16.000000,-128.000000,-48.000000
1295523.008771,-4.000000,22.000000,49.000000,99.000000,58.000000,53.000000,-128.000000,-99.000000
1295523.016562,-1.000000,-24.000000,25.000000,34.000000,-50.000000,-38.000000,127.000000,120.000000
1295523.016594,77.000000,-8.000000,19.000000,24.000000,89.000000,28.000000,127.000000,127.000000
1295523.046327,-24.000000,-37.000000,-21.000000,3.000000,39.000000,13.000000,-128.000000,-81.000000
1295523.046351,-44.000000,2.000000,-64.000000,1.000000,-17.000000,-2.000000,-128.000000,-128.000000
1295523.069077,-1.000000,20.000000,-67.000000,-128.000000,-14.000000,-5.000000,57.000000,-17.000000
1295523.069090,-24.000000,14.000000,92.000000,116.000000,24.000000,11.000000,-94.000000,16.000000
1295523.091332,-13.000000,-70.000000,31.000000,23.000000,-29.000000,-52.000000,127.000000,66.000000
1295523.091345,54.000000,38.000000,-39.000000,-78.000000,-24.000000,-4.000000,20.000000,40.000000
1295523.121417,-32.000000,20.000000,3.000000,2.000000,5.000000,-3.000000,-90.000000,-86.000000
1295523.121440,18.000000,-33.000000,-128.000000,-8.000000,-16.000000,-26.000000,-71.000000,-1.000000
1295523.129297,-2.000000,87.000000,55.000000,11.000000,-3.000000,18.000000,-128.000000,-105.000000
1295523.129309,-15.000000,-39.000000,-42.000000,-24.000000,-8.000000,-2.000000,45.000000,-13.000000
1295523.129826,-128.000000,-98.000000,13.000000,27.000000,9.000000,10.000000,39.000000,55.000000
1295523.129835,112.000000,75.000000,41.000000,15.000000,1.000000,-12.000000,127.000000,127.000000
1295523.131125,46.000000,100.000000,32.000000,15.000000,-15.000000,-29.000000,-128.000000,-128.000000
1295523.131135,29.000000,-71.000000,-33.000000,-25.000000,-14.000000,42.000000,127.000000,117.000000
1295523.132096,-128.000000,-49.000000,81.000000,73.000000,33.000000,5.000000,19.000000,127.000000
1295523.132103,66.000000,4.000000,-20.000000,-12.000000,-2.000000,-4.000000,-128.000000,-44.000000
1295523.136154,127.000000,13.000000,78.000000,70.000000,51.000000,25.000000,127.000000,127.000000
1295523.136163,60.000000,-14.000000,-32.000000,-27.000000,0.000000,10.000000,-128.000000,-85.000000
1295523.166394,-54.000000,63.000000,47.000000,7.000000,-16.000000,-27.000000,127.000000,18.000000
1295523.166406,22.000000,-38.000000,-6.000000,37.000000,26.000000,-7.000000,31.000000,73.000000
1295523.174098,14.000000,-36.000000,-55.000000,-56.000000,-85.000000,-67.000000,-47.000000,-31.000000
1295523.174127,-51.000000,-76.000000,17.000000,127.000000,41.000000,19.000000,-128.000000,-51.000000
1295523.188779,-58.000000,-5.000000,25.000000,-67.000000,-23.000000,-10.000000,-89.000000,-93.000000
1295523.188806,25.000000,1.000000,-71.000000,-31.000000,-12.000000,6.000000,-30.000000,7.000000
1295523.211655,-128.000000,-128.000000,-47.000000,-63.000000,-48.000000,-42.000000,-6.000000,-68.000000
1295523.211668,-62.000000,-16.000000,-104.000000,-39.000000,-30.000000,-18.000000,-13.000000,-18.000000
1295523.219024,80.000000,1.000000,8.000000,55.000000,17.000000,2.000000,-21.000000,-29.000000
1295523.219074,-88.000000,-98.000000,-110.000000,-16.000000,3.000000,24.000000,64.000000,53.000000
1295523.241063,33.000000,22.000000,110.000000,30.000000,13.000000,6.000000,-6.000000,2.000000
1295523.241073,-128.000000,-96.000000,-34.000000,-46.000000,-20.000000,-39.000000,73.000000,-17.000000
1295523.241765,-96.000000,-40.000000,56.000000,-3.000000,-4.000000,7.000000,5.000000,-1.000000
1295523.241775,54.000000,44.000000,-44.000000,29.000000,25.000000,16.000000,-73.000000,-48.000000
1295523.243048,34.000000,39.000000,35.000000,4.000000,8.000000,70.000000,29.000000,-3.000000
1295523.243064,-23.000000,-11.000000,17.000000,51.000000,11.000000,10.000000,-41.000000,-41.000000
1295523.243649,95.000000,-4.000000,-75.000000,-104.000000,-41.000000,-42.000000,127.000000,60.000000
1295523.243657,-30.000000,49.000000,103.000000,-31.000000,8.000000,-3.000000,-128.000000,-21.000000
1295523.245090,1.000000,8.000000,87.000000,127.000000,31.000000,21.000000,116.000000,18.000000
1295523.245099,-39.000000,-56.000000,23.000000,5.000000,3.000000,-9.000000,35.000000,7.000000
1295523.248574,127.000000,52.000000,-15.000000,-13.000000,-16.000000,-28.000000,-31.000000,9.000000
1295523.248582,-128.000000,5.000000,38.000000,6.000000,8.000000,43.000000,-27.000000,24.000000
1295523.278822,6.000000,-95.000000,-128.000000,-50.000000,-30.000000,-71.000000,-3.000000,-21.000000
1295523.278855,22.000000,16.000000,63.000000,1.000000,-3.000000,-8.000000,-95.000000,-37.000000
1295523.286239,68.000000,59.000000,-15.000000,47.000000,23.000000,17.000000,-30.000000,-2.000000
1295523.286249,50.000000,43.000000,75.000000,23.000000,13.000000,5.000000,-128.000000,-16.000000
1295523.301668,86.000000,58.000000,0.000000,-57.000000,-35.000000,-37.000000,127.000000,80.000000
1295523.301678,17.000000,-32.000000,-10.000000,20.000000,-19.000000,5.000000,-128.000000,-67.000000
1295523.323745,20.000000,74.000000,127.000000,121.000000,76.000000,27.000000,41.000000,51.000000
1295523.323755,56.000000,37.000000,-52.000000,-61.000000,-16.000000,-1.000000,-128.000000,-82.000000
1295523.346645,127.000000,42.000000,-46.000000,16.000000,-5.000000,-1.000000,127.000000,127.000000
1295523.346657,-128.000000,-42.000000,44.000000,25.000000,8.000000,-3.000000,-84.000000,-50.000000
1295523.361391,21.000000,58.000000,-85.000000,-128.000000,-55.000000,-11.000000,-128.000000,-56.000000
1295523.361408,35.000000,40.000000,87.000000,127.000000,85.000000,60.000000,126.000000,62.000000
1295523.384118,103.000000,-16.000000,18.000000,-58.000000,10.000000,-1.000000,99.000000,23.000000
1295523.384147,-74.000000,-11.000000,22.000000,-119.000000,-35.000000,-28.000000,-128.000000,-102.000000
1295523.406620,14.000000,51.000000,-128.000000,-40.000000,17.000000,62.000000,127.000000,28.000000
1295523.406633,77.000000,43.000000,-9.000000,-36.000000,32.000000,-42.000000,48.000000,54.000000
1295523.421216,127.000000,56.000000,44.000000,98.000000,39.000000,8.000000,-80.000000,-8.000000
1295523.421239,127.000000,127.000000,91.000000,52.000000,31.000000,46.000000,127.000000,-34.000000
1295523.451575,-14.000000,-37.000000,-45.000000,-48.000000,14.000000,35.000000,127.000000,80.000000
1295523.451587,16.000000,51.000000,82.000000,97.000000,7.000000,-31.000000,-128.000000,-72.000000
1295523.473648,67.000000,-32.000000,9.000000,10.000000,0.000000,-5.000000,127.000000,127.000000
1295523.473664,-22.000000,3.000000,-12.000000,-12.000000,-1.000000,0.000000,-128.000000,-46.000000
1295523.482003,17.000000,-7.000000,-90.000000,19.000000,22.000000,14.000000,-96.000000,-30.000000
1295523.482015,32.000000,-7.000000,106.000000,85.000000,48.000000,16.000000,127.000000,54.000000
1295523.483051,28.000000,3.000000,-12.000000,20.000000,-10.000000,-8.000000,127.000000,29.000000
1295523.483060,37.000000,-1.000000,4.000000,23.000000,42.000000,-5.000000,-36.000000,43.000000
1295523.485046,-5.000000,7.000000,4.000000,-8.000000,-15.000000,4.000000,-12.000000,-2.000000
1295523.485058,13.000000,10.000000,-58.000000,8.000000,-20.000000,-10.000000,18.000000,22.000000
1295523.489074,-22.000000,5.000000,11.000000,-9.000000,3.000000,-4.000000,-120.000000,-78.000000
1295523.489085,-21.000000,2.000000,-5.000000,-20.000000,-20.000000,-31.000000,14.000000,-38.000000
1295523.534188,-32.000000,5.000000,25.000000,31.000000,15.000000,34.000000,94.000000,88.000000
1295523.534217,-8.000000,4.000000,-45.000000,-32.000000,4.000000,42.000000,22.000000,1.000000
1295523.548904,43.000000,-17.000000,43.000000,34.000000,7.000000,-4.000000,64.000000,42.000000
1295523.548915,18.000000,-9.000000,-4.000000,-47.000000,-3.000000,34.000000,112.000000,96.000000
1295523.556842,-4.000000,-10.000000,5.000000,25.000000,11.000000,14.000000,-37.000000,-19.000000
1295523.556854,-68.000000,40.000000,-61.000000,-48.000000,-28.000000,-67.000000,-128.000000,-118.000000
1295523.557559,-37.000000,11.000000,-50.000000,-13.000000,9.000000,-11.000000,-128.000000,-81.000000
1295523.557577,127.000000,-1.000000,33.000000,13.000000,-16.000000,-2.000000,127.000000,127.000000
1295523.571403,-35.000000,-44.000000,-4.000000,-15.000000,10.000000,12.000000,-27.000000,73.000000
1295523.571432,-52.000000,-3.000000,-29.000000,-21.000000,-16.000000,-29.000000,-128.000000,-93.000000
1295523.601354,111.000000,31.000000,14.000000,-14.000000,-2.000000,3.000000,36.000000,-35.000000
1295523.601374,-3.000000,7.000000,-26.000000,-1.000000,-16.000000,-38.000000,-128.000000,-48.000000
1295523.608899,-45.000000,15.000000,-69.000000,-12.000000,2.000000,19.000000,-128.000000,-104.000000
1295523.608914,22.000000,23.000000,-35.000000,-20.000000,-41.000000,-114.000000,127.000000,117.000000
1295523.609938,-19.000000,-27.000000,2.000000,-22.000000,7.000000,3.000000,-128.000000,-38.000000
1295523.609963,-50.000000,4.000000,-32.000000,-7.000000,-18.000000,8.000000,57.000000,-45.000000
1295523.610463,9.000000,-35.000000,-10.000000,-11.000000,-7.000000,-18.000000,-128.000000,-23.000000
1295523.610471,-54.000000,-2.000000,-14.000000,9.000000,6.000000,-3.000000,127.000000,27.000000
1295523.612042,-7.000000,23.000000,-15.000000,-50.000000,-13.000000,-21.000000,-80.000000,-36.000000
1295523.612061,21.000000,-6.000000,-26.000000,-21.000000,-55.000000,-32.000000,-6.000000,-13.000000
1295523.639006,-7.000000,3.000000,-7.000000,6.000000,-2.000000,-4.000000,-31.000000,-26.000000
1295523.639025,-13.000000,-13.000000,23.000000,-48.000000,-10.000000,36.000000,-128.000000,-26.000000
1295523.646616,48.000000,31.000000,36.000000,-27.000000,-5.000000,24.000000,127.000000,127.000000
1295523.646640,-11.000000,35.000000,24.000000,48.000000,33.000000,48.000000,-21.000000,-66.000000
1295523.661356,49.000000,19.000000,27.000000,13.000000,9.000000,-12.000000,73.000000,66.000000
1295523.661387,-24.000000,7.000000,-23.000000,-14.000000,-3.000000,13.000000,-10.000000,-16.000000
1295523.676673,7.000000,45.000000,-1.000000,13.000000,9.000000,7.000000,-20.000000,-13.000000
1295523.676685,-24.000000,-84.000000,-21.000000,-16.000000,-30.000000,-38.000000,-128.000000,-38.000000
1295523.691441,2.000000,-10.000000,25.000000,-2.000000,-3.000000,34.000000,127.000000,9.000000
1295523.691459,12.000000,-38.000000,-17.000000,16.000000,15.000000,15.000000,83.000000,35.000000
1295523.691784,-20.000000,-7.000000,8.000000,-6.000000,-13.000000,-20.000000,-110.000000,-22.000000
1295523.691798,30.000000,-17.000000,41.000000,19.000000,22.000000,46.000000,61.000000,46.000000
1295523.692859,-21.000000,-22.000000,-72.000000,-40.000000,-37.000000,-78.000000,-57.000000,-39.000000
1295523.692868,23.000000,31.000000,46.000000,29.000000,0.000000,-23.000000,-62.000000,-5.000000
1295523.693867,-13.000000,-15.000000,-37.000000,-9.000000,2.000000,44.000000,-74.000000,-20.000000
1295523.693886,55.000000,38.000000,29.000000,16.000000,15.000000,0.000000,39.000000,66.000000
1295523.714456,33.000000,9.000000,-16.000000,-6.000000,0.000000,3.000000,70.000000,32.000000
1295523.714468,-33.000000,-28.000000,9.000000,16.000000,-11.000000,-19.000000,-100.000000,-44.000000
1295523.715160,2.000000,40.000000,20.000000,6.000000,1.000000,11.000000,-128.000000,-121.000000
1295523.715169,-5.000000,-9.000000,-24.000000,5.000000,10.000000,15.000000,127.000000,127.000000
1295523.722221,-4.000000,-27.000000,-12.000000,-21.000000,-9.000000,-12.000000,-128.000000,-22.000000
1295523.722232,-22.000000,-33.000000,-19.000000,-18.000000,-11.000000,-31.000000,-127.000000,-59.000000
1295523.728998,4.000000,32.000000,35.000000,-51.000000,-15.000000,4.000000,-15.000000,-14.000000
1295523.729010,64.000000,29.000000,13.000000,46.000000,30.000000,20.000000,79.000000,67.000000
1295523.758869,-30.000000,-23.000000,6.000000,-17.000000,-6.000000,-5.000000,-28.000000,-43.000000
1295523.758897,-30.000000,-30.000000,-16.000000,3.000000,1.000000,16.000000,-70.000000,-47.000000
1295523.766668,83.000000,26.000000,8.000000,11.000000,17.000000,9.000000,127.000000,121.000000
1295523.766678,5.000000,-17.000000,-19.000000,-24.000000,-9.000000,-7.000000,2.000000,-6.000000
1295523.811528,-56.000000,-2.000000,-22.000000,-44.000000,-13.000000,-24.000000,-128.000000,-81.000000
1295523.811539,-14.000000,-4.000000,22.000000,-18.000000,-17.000000,4.000000,127.000000,6.000000
1295523.812197,73.000000,-19.000000,26.000000,26.000000,34.000000,41.000000,49.000000,73.000000
1295523.812205,-23.000000,-28.000000,-34.000000,-20.000000,-1.000000,-25.000000,-80.000000,-55.000000
1295523.813064,-10.000000,7.000000,3.000000,-15.000000,-7.000000,28.000000,55.000000,-56.000000
1295523.813072,-58.000000,-40.000000,-8.000000,20.000000,13.000000,9.000000,118.000000,94.000000
1295523.813582,-12.000000,-31.000000,0.000000,12.000000,7.000000,23.000000,20.000000,1.000000
1295523.813590,33.000000,64.000000,38.000000,12.000000,2.000000,-8.000000,-49.000000,24.000000
1295523.815203,-18.000000,26.000000,2.000000,23.000000,8.000000,-2.000000,-20.000000,-19.000000
1295523.815211,-15.000000,19.000000,-19.000000,-1.000000,2.000000,22.000000,33.000000,-23.000000
1295523.827389,5.000000,-1.000000,31.000000,-6.000000,-3.000000,13.000000,1.000000,8.000000
1295523.827399,-23.000000,-38.000000,-34.000000,-15.000000,-4.000000,4.000000,-1.000000,-33.000000
1295523.833821,-7.000000,-8.000000,-7.000000,-12.000000,-14.000000,-41.000000,-71.000000,-21.000000
1295523.833831,-4.000000,9.000000,-51.000000,-68.000000,-21.000000,-18.000000,-38.000000,-21.000000
1295523.848855,1.000000,-16.000000,46.000000,45.000000,18.000000,33.000000,10.000000,-15.000000
1295523.848864,26.000000,79.000000,23.000000,-13.000000,12.000000,28.000000,127.000000,45.000000
1295523.856423,8.000000,-22.000000,-14.000000,-16.000000,2.000000,16.000000,-54.000000,22.000000
1295523.856433,-20.000000,-8.000000,-11.000000,-34.000000,-20.000000,-28.000000,-55.000000,-46.000000
1295523.878941,-19.000000,10.000000,-23.000000,-14.000000,-14.000000,9.000000,113.000000,-31.000000
1295523.878964,16.000000,6.000000,16.000000,3.000000,-8.000000,-21.000000,10.000000,64.000000
1295523.886316,9.000000,3.000000,5.000000,-18.000000,-10.000000,4.000000,-7.000000,-23.000000
1295523.886335,17.000000,-45.000000,-25.000000,9.000000,11.000000,27.000000,66.000000,35.000000
1295523.916689,-12.000000,8.000000,0.000000,0.000000,2.000000,-6.000000,-71.000000,-10.000000
1295523.916711,-48.000000,-7.000000,2.000000,-13.000000,-7.000000,-5.000000,-14.000000,-9.000000
1295523.924558,-9.000000,-14.000000,8.000000,-5.000000,4.000000,0.000000,83.000000,-18.000000
1295523.924589,13.000000,2.000000,23.000000,25.000000,16.000000,15.000000,-128.000000,-1.000000
1295523.961841,13.000000,-3.000000,-50.000000,-22.000000,-14.000000,-18.000000,68.000000,-2.000000
1295523.961864,-25.000000,6.000000,27.000000,27.000000,16.000000,51.000000,127.000000,-6.000000
1295523.968844,21.000000,37.000000,-21.000000,-30.000000,-13.000000,-52.000000,13.000000,64.000000
1295523.968867,-4.000000,10.000000,-8.000000,-9.000000,12.000000,7.000000,-113.000000,-69.000000
1295523.991536,46.000000,11.000000,0.000000,15.000000,1.000000,13.000000,127.000000,104.000000
1295523.991548,-16.000000,-6.000000,-1.000000,-19.000000,-11.000000,7.000000,31.000000,-20.000000
1295524.006742,-15.000000,12.000000,-11.000000,6.000000,4.000000,-11.000000,-128.000000,-70.000000
1295524.006755,34.000000,7.000000,7.000000,-22.000000,-26.000000,-24.000000,56.000000,9.000000
1295524.044048,-18.000000,24.000000,26.000000,16.000000,1.000000,-3.000000,-75.000000,-42.000000
1295524.044064,4.000000,-17.000000,-26.000000,-38.000000,-27.000000,-45.000000,0.000000,-24.000000
1295524.073822,-5.000000,0.000000,-19.000000,-7.000000,-7.000000,-8.000000,-61.000000,48.000000
1295524.073833,-3.000000,-18.000000,3.000000,2.000000,2.000000,26.000000,29.000000,1.000000
1295524.074130,-6.000000,6.000000,-3.000000,-24.000000,-20.000000,-7.000000,-18.000000,9.000000
1295524.074138,-128.000000,-27.000000,19.000000,-10.000000,3.000000,-8.000000,53.000000,-18.000000
1295524.074741,-30.000000,-65.000000,-25.000000,-36.000000,-16.000000,-50.000000,-55.000000,-22.000000
1295524.074749,33.000000,45.000000,30.000000,22.000000,22.000000,39.000000,127.000000,48.000000
1295524.076110,29.000000,36.000000,21.000000,33.000000,30.000000,52.000000,107.000000,96.000000
1295524.076128,8.000000,24.000000,1.000000,11.000000,1.000000,5.000000,-30.000000,-48.000000
1295524.077621,-6.000000,-28.000000,9.000000,28.000000,8.000000,-11.000000,-128.000000,-41.000000
1295524.077630,38.000000,51.000000,13.000000,-1.000000,9.000000,67.000000,127.000000,-29.000000
1295524.081909,65.000000,15.000000,14.000000,-8.000000,-13.000000,-53.000000,127.000000,127.000000
1295524.081917,-28.000000,-42.000000,-4.000000,-30.000000,-6.000000,7.000000,-38.000000,-36.000000
1295524.089225,-65.000000,-24.000000,-31.000000,-22.000000,-12.000000,-26.000000,-128.000000,-65.000000
1295524.089236,8.000000,6.000000,-2.000000,18.000000,16.000000,18.000000,10.000000,3.000000
1295524.111239,11.000000,17.000000,-3.000000,-7.000000,-5.000000,25.000000,-5.000000,-12.000000
1295524.111249,-15.000000,-21.000000,-16.000000,14.000000,12.000000,2.000000,24.000000,-6.000000
1295524.118839,27.000000,-3.000000,17.000000,-4.000000,-9.000000,-26.000000,-123.000000,-36.000000
1295524.118848,13.000000,35.000000,-24.000000,7.000000,-1.000000,30.000000,42.000000,-18.000000
1295524.134082,25.000000,-16.000000,-4.000000,7.000000,0.000000,-38.000000,2.000000,55.000000
1295524.134094,5.000000,-50.000000,-10.000000,-5.000000,6.000000,9.000000,58.000000,58.000000
1295524.141564,-17.000000,12.000000,40.000000,-8.000000,-9.000000,-10.000000,-103.000000,-39.000000
1295524.141579,8.000000,30.000000,-16.000000,15.000000,14.000000,1.000000,5.000000,-4.000000
1295524.163719,-28.000000,-48.000000,5.000000,-7.000000,-11.000000,1.000000,-24.000000,-25.000000
1295524.163741,16.000000,-10.000000,-11.000000,2.000000,14.000000,19.000000,25.000000,6.000000
1295524.178853,-1.000000,14.000000,-4.000000,36.000000,5.000000,-1.000000,-63.000000,-15.000000
1295524.178863,-32.000000,-19.000000,7.000000,-1.000000,-18.000000,-38.000000,6.000000,-11.000000
1295524.194264,51.000000,27.000000,-14.000000,-76.000000,-36.000000,-19.000000,71.000000,46.000000
1295524.194295,-33.000000,-39.000000,25.000000,69.000000,39.000000,46.000000,-46.000000,22.000000
1295524.194923,-9.000000,36.000000,-15.000000,-18.000000,-12.000000,-29.000000,45.000000,-12.000000
1295524.194940,-29.000000,-56.000000,-17.000000,-11.000000,-27.000000,-41.000000,-48.000000,-34.000000
1295524.196130,-4.000000,14.000000,6.000000,0.000000,2.000000,-6.000000,-128.000000,-48.000000
1295524.196139,-1.000000,-17.000000,-36.000000,-15.000000,5.000000,10.000000,127.000000,7.000000
1295524.197073,11.000000,-47.000000,18.000000,0.000000,-8.000000,-11.000000,-31.000000,1.000000
1295524.197090,2.000000,64.000000,38.000000,-8.000000,-22.000000,-34.000000,103.000000,2.000000
1295524.201901,24.000000,-10.000000,-15.000000,9.000000,16.000000,24.000000,-87.000000,10.000000
1295524.201911,-24.000000,6.000000,3.000000,-8.000000,-22.000000,-33.000000,-83.000000,-77.000000
1295524.231561,-18.000000,18.000000,20.000000,-5.000000,4.000000,-3.000000,127.000000,71.000000
1295524.231572,28.000000,3.000000,-25.000000,-2.000000,11.000000,8.000000,-65.000000,34.000000
1295524.246702,-32.000000,-13.000000,-31.000000,-26.000000,-17.000000,-19.000000,-119.000000,-69.000000
1295524.246731,69.000000,-22.000000,55.000000,90.000000,22.000000,19.000000,86.000000,46.000000
1295524.268758,-61.000000,-24.000000,-17.000000,-25.000000,-12.000000,-18.000000,-89.000000,-68.000000
1295524.268775,20.000000,18.000000,-8.000000,-13.000000,-22.000000,-33.000000,127.000000,4.000000
1295524.283724,10.000000,1.000000,-55.000000,-7.000000,17.000000,28.000000,38.000000,43.000000
1295524.283734,8.000000,4.000000,2.000000,-9.000000,-11.000000,-20.000000,-102.000000,-24.000000
1295524.284365,-25.000000,20.000000,2.000000,-10.000000,-19.000000,-16.000000,-94.000000,-54.000000
1295524.284373,1.000000,5.000000,-26.000000,16.000000,-1.000000,21.000000,55.000000,4.000000
1295524.285540,13.000000,52.000000,13.000000,-28.000000,-18.000000,-47.000000,25.000000,19.000000
1295524.285567,-2.000000,-27.000000,-12.000000,-23.000000,-3.000000,28.000000,86.000000,38.000000
1295524.286206,3.000000,-14.000000,2.000000,64.000000,27.000000,2.000000,-128.000000,-5.000000
1295524.286232,29.000000,-18.000000,-23.000000,-47.000000,-27.000000,-14.000000,127.000000,-8.000000
1295524.287072,18.000000,-3.000000,22.000000,4.000000,14.000000,33.000000,-95.000000,-1.000000
1295524.287098,-5.000000,-7.000000,-17.000000,-9.000000,0.000000,-15.000000,-33.000000,-15.000000
1295524.313831,-9.000000,-24.000000,-21.000000,-19.000000,-14.000000,13.000000,127.000000,-4.000000
1295524.313868,-66.000000,-38.000000,11.000000,-8.000000,2.000000,-13.000000,-114.000000,-26.000000
1295524.315073,-22.000000,30.000000,13.000000,6.000000,-3.000000,14.000000,31.000000,-4.000000
1295524.315103,26.000000,-19.000000,10.000000,11.000000,-1.000000,0.000000,-16.000000,21.000000
1295524.315872,-31.000000,-25.000000,-25.000000,3.000000,1.000000,-2.000000,-63.000000,-24.000000
1295524.315881,8.000000,26.000000,10.000000,-21.000000,-24.000000,-25.000000,-2.000000,-16.000000
1295524.321987,30.000000,4.000000,-30.000000,-14.000000,9.000000,-1.000000,-94.000000,24.000000
1295524.321997,24.000000,1.000000,32.000000,35.000000,8.000000,7.000000,127.000000,70.000000
1295524.329200,-27.000000,-3.000000,-5.000000,10.000000,13.000000,43.000000,-128.000000,-94.000000
1295524.329219,98.000000,38.000000,31.000000,26.000000,21.000000,39.000000,127.000000,127.000000
1295524.358951,-61.000000,-35.000000,4.000000,-39.000000,-22.000000,-34.000000,-128.000000,-77.000000
1295524.358969,-20.000000,10.000000,22.000000,41.000000,4.000000,0.000000,-128.000000,-39.000000
1295524.366596,4.000000,16.000000,9.000000,23.000000,11.000000,23.000000,85.000000,12.000000
1295524.366618,10.000000,-4.000000,-13.000000,-11.000000,-11.000000,5.000000,52.000000,22.000000
1295524.389019,-17.000000,-12.000000,-19.000000,-53.000000,-24.000000,-46.000000,-72.000000,-23.000000
1295524.389031,0.000000,-42.000000,-17.000000,6.000000,13.000000,-4.000000,39.000000,31.000000
1295524.396306,-21.000000,22.000000,10.000000,13.000000,0.000000,-7.000000,-94.000000,-56.000000
1295524.396329,-15.000000,-10.000000,-3.000000,-34.000000,-17.000000,-31.000000,-103.000000,-19.000000
1295524.397458,2.000000,19.000000,-6.000000,18.000000,-10.000000,1.000000,69.000000,5.000000
1295524.397466,11.000000,-26.000000,-18.000000,9.000000,1.000000,-32.000000,17.000000,-11.000000
1295524.398084,-37.000000,-12.000000,-14.000000,-20.000000,-14.000000,-7.000000,-128.000000,-41.000000
1295524.398103,16.000000,21.000000,-9.000000,-9.000000,-16.000000,-20.000000,127.000000,30.000000
1295524.403700,-51.000000,-70.000000,-8.000000,-8.000000,-14.000000,-25.000000,127.000000,-47.000000
1295524.403719,22.000000,-39.000000,-4.000000,-4.000000,6.000000,-26.000000,-128.000000,34.000000
1295524.434107,17.000000,2.000000,-4.000000,-14.000000,-8.000000,-1.000000,127.000000,69.000000
1295524.434136,8.000000,6.000000,7.000000,-18.000000,-2.000000,-5.000000,-54.000000,-16.000000
1295524.434896,-15.000000,-1.000000,-3.000000,16.000000,12.000000,33.000000,-128.000000,-54.000000
1295524.434904,-9.000000,21.000000,-3.000000,1.000000,-14.000000,-47.000000,-128.000000,-90.000000
1295524.435789,30.000000,3.000000,17.000000,15.000000,11.000000,38.000000,127.000000,121.000000
1295524.435796,-1.000000,19.000000,-17.000000,-12.000000,-2.000000,3.000000,-17.000000,-12.000000
1295524.442151,-17.000000,5.000000,-8.000000,-15.000000,-11.000000,-2.000000,-104.000000,-43.000000
1295524.442159,31.000000,-70.000000,-23.000000,-24.000000,1.000000,-15.000000,127.000000,65.000000
1295524.456391,5.000000,35.000000,22.000000,32.000000,-1.000000,0.000000,-33.000000,-19.000000
1295524.456400,6.000000,-8.000000,5.000000,15.000000,11.000000,3.000000,13.000000,-9.000000
1295524.479040,-15.000000,13.000000,-16.000000,-12.000000,-4.000000,21.000000,-64.000000,-16.000000
1295524.479051,8.000000,-10.000000,-18.000000,-13.000000,-18.000000,-60.000000,37.000000,3.000000
1295524.509034,7.000000,8.000000,-22.000000,-9.000000,-1.000000,16.000000,-111.000000,-37.000000
1295524.509056,-19.000000,8.000000,18.000000,18.000000,15.000000,16.000000,117.000000,48.000000
1295524.531363,2.000000,6.000000,6.000000,11.000000,14.000000,7.000000,-128.000000,-21.000000
1295524.531375,40.000000,64.000000,8.000000,10.000000,9.000000,34.000000,127.000000,51.000000
1295524.546255,1.000000,-49.000000,-17.000000,5.000000,-3.000000,-21.000000,-88.000000,3.000000
1295524.546278,1.000000,10.000000,6.000000,-9.000000,8.000000,6.000000,15.000000,-8.000000
1295524.547292,-10.000000,-18.000000,-8.000000,-19.000000,-13.000000,-17.000000,-37.000000,-28.000000
1295524.547301,10.000000,25.000000,-11.000000,-9.000000,-3.000000,-2.000000,-102.000000,-2.000000
1295524.547889,13.000000,-1.000000,35.000000,23.000000,29.000000,44.000000,127.000000,52.000000
1295524.547898,19.000000,29.000000,-21.000000,-27.000000,-11.000000,-49.000000,-114.000000,-32.000000
1295524.548659,-6.000000,-16.000000,-23.000000,-41.000000,-14.000000,0.000000,12.000000,-4.000000
1295524.548678,-1.000000,20.000000,-15.000000,-3.000000,-12.000000,-15.000000,-128.000000,-126.000000
1295524.550086,27.000000,-11.000000,11.000000,-19.000000,-12.000000,7.000000,127.000000,127.000000
1295524.550095,-18.000000,-39.000000,-13.000000,1.000000,8.000000,-11.000000,-128.000000,19.000000
1295524.553585,16.000000,23.000000,11.000000,-9.000000,-11.000000,8.000000,-37.000000,-41.000000
1295524.553594,-1.000000,18.000000,-29.000000,-21.000000,-19.000000,-38.000000,-105.000000,-34.000000
1295524.562003,-7.000000,24.000000,-17.000000,-37.000000,-15.000000,-8.000000,-74.000000,-12.000000
1295524.562030,27.000000,51.000000,37.000000,56.000000,26.000000,31.000000,127.000000,16.000000
1295524.569154,-6.000000,-48.000000,-14.000000,-19.000000,-2.000000,-8.000000,123.000000,53.000000
1295524.569164,1.000000,6.000000,5.000000,-7.000000,-9.000000,-17.000000,-53.000000,-20.000000
1295524.591517,6.000000,7.000000,3.000000,2.000000,0.000000,-14.000000,-2.000000,-21.000000
1295524.591528,-11.000000,-21.000000,-22.000000,-14.000000,-16.000000,-21.000000,-128.000000,-63.000000
1295524.598653,43.000000,0.000000,9.000000,11.000000,1.000000,19.000000,127.000000,115.000000
1295524.598663,-16.000000,-1.000000,-12.000000,-2.000000,0.000000,6.000000,-22.000000,-16.000000
1295524.621423,-11.000000,-12.000000,-2.000000,-12.000000,-17.000000,-32.000000,-75.000000,-23.000000
1295524.621431,-48.000000,-77.000000,-38.000000,-35.000000,-16.000000,-9.000000,-128.000000,-54.000000
1295524.628767,32.000000,44.000000,56.000000,59.000000,6.000000,-2.000000,67.000000,26.000000
1295524.628777,-2.000000,5.000000,-3.000000,-5.000000,5.000000,4.000000,25.000000,-15.000000
1295524.643928,-20.000000,-15.000000,-25.000000,-16.000000,-6.000000,-2.000000,-118.000000,-25.000000
1295524.643946,17.000000,28.000000,-9.000000,-53.000000,-50.000000,-100.000000,97.000000,13.000000
1295524.659085,-5.000000,-6.000000,-8.000000,2.000000,10.000000,18.000000,-20.000000,17.000000
1295524.659098,-2.000000,8.000000,-1.000000,-9.000000,2.000000,9.000000,71.000000,17.000000
1295524.674639,-9.000000,-3.000000,2.000000,-19.000000,-2.000000,2.000000,24.000000,-46.000000
1295524.674664,10.000000,25.000000,-10.000000,-19.000000,-13.000000,-14.000000,-128.000000,-20.000000
1295524.675002,13.000000,16.000000,22.000000,16.000000,4.000000,9.000000,86.000000,43.000000
1295524.675058,2.000000,-12.000000,-9.000000,-26.000000,-10.000000,-4.000000,1.000000,-4.000000
1295524.676145,19.000000,34.000000,20.000000,41.000000,11.000000,3.000000,28.000000,22.000000
1295524.676166,-24.000000,-18.000000,-15.000000,1.000000,-1.000000,-3.000000,-45.000000,-20.000000
1295524.677062,-20.000000,0.000000,9.000000,0.000000,2.000000,-1.000000,37.000000,9.000000
1295524.677088,-15.000000,-5.000000,-11.000000,-13.000000,6.000000,32.000000,-128.000000,-52.000000
1295524.696340,63.000000,27.000000,30.000000,51.000000,13.000000,-16.000000,127.000000,127.000000
1295524.696350,-28.000000,-34.000000,-9.000000,-34.000000,-15.000000,-13.000000,-86.000000,-35.000000
1295524.711410,-11.000000,2.000000,-20.000000,-1.000000,-3.000000,7.000000,-128.000000,-92.000000
1295524.711419,25.000000,20.000000,11.000000,0.000000,16.000000,43.000000,127.000000,124.000000
1295524.734003,-30.000000,-78.000000,7.000000,16.000000,9.000000,-6.000000,5.000000,8.000000
1295524.734039,-16.000000,-17.000000,-22.000000,-38.000000,-12.000000,-27.000000,-121.000000,-49.000000
1295524.734467,9.000000,1.000000,-2.000000,40.000000,-1.000000,14.000000,-27.000000,-49.000000
1295524.734518,38.000000,43.000000,70.000000,48.000000,22.000000,14.000000,127.000000,101.000000
1295524.735504,12.000000,30.000000,-4.000000,-14.000000,-2.000000,9.000000,-36.000000,-35.000000
1295524.735531,2.000000,-27.000000,-28.000000,4.000000,5.000000,9.000000,48.000000,13.000000
1295524.748807,-43.000000,-1.000000,-34.000000,-28.000000,-4.000000,9.000000,-98.000000,-59.000000
1295524.748868,8.000000,-12.000000,27.000000,63.000000,29.000000,30.000000,127.000000,53.000000
1295524.750268,44.000000,-25.000000,10.000000,-14.000000,5.000000,22.000000,-87.000000,17.000000
1295524.750283,-2.000000,29.000000,7.000000,6.000000,-4.000000,17.000000,127.000000,55.000000
1295524.756181,-13.000000,-19.000000,-2.000000,-2.000000,12.000000,20.000000,-94.000000,-28.000000
1295524.756191,-6.000000,-17.000000,-23.000000,-10.000000,-5.000000,-13.000000,-81.000000,-29.000000
1295524.778761,1.000000,14.000000,-7.000000,1.000000,4.000000,12.000000,35.000000,-6.000000
1295524.778771,19.000000,-5.000000,44.000000,38.000000,15.000000,13.000000,56.000000,32.000000
1295524.786131,0.000000,2.000000,-5.000000,20.000000,10.000000,-1.000000,-128.000000,-37.000000
1295524.786144,-5.000000,34.000000,-4.000000,7.000000,11.000000,28.000000,127.000000,66.000000
1295524.787463,37.000000,9.000000,13.000000,15.000000,0.000000,8.000000,-52.000000,-17.000000
1295524.787471,-27.000000,14.000000,27.000000,22.000000,8.000000,-15.000000,127.000000,-5.000000
1295524.793982,-1.000000,-10.000000,-22.000000,-41.000000,-19.000000,-37.000000,20.000000,24.000000
1295524.794011,-25.000000,-24.000000,-1.000000,-11.000000,0.000000,32.000000,-17.000000,-20.000000
1295524.808952,9.000000,-1.000000,-2.000000,22.000000,18.000000,7.000000,25.000000,31.000000
1295524.808980,-15.000000,-32.000000,-23.000000,-21.000000,-14.000000,-7.000000,-25.000000,-35.000000
1295524.824031,-21.000000,19.000000,14.000000,17.000000,13.000000,34.000000,-109.000000,-46.000000
1295524.824055,11.000000,-2.000000,2.000000,-6.000000,-2.000000,-9.000000,127.000000,56.000000
1295524.838833,-6.000000,-5.000000,-3.000000,13.000000,-2.000000,-11.000000,-53.000000,-8.000000
1295524.838857,-16.000000,8.000000,27.000000,2.000000,4.000000,3.000000,-47.000000,-20.000000
1295524.846586,-5.000000,-16.000000,-43.000000,-6.000000,-5.000000,2.000000,-72.000000,-52.000000
1295524.846598,-5.000000,-31.000000,-20.000000,-32.000000,-11.000000,-16.000000,3.000000,2.000000
1295524.883863,30.000000,52.000000,26.000000,4.000000,4.000000,20.000000,88.000000,47.000000
1295524.883874,5.000000,-2.000000,-7.000000,-4.000000,-1.000000,5.000000,39.000000,26.000000
1295524.906588,-35.000000,-15.000000,-20.000000,0.000000,0.000000,2.000000,-128.000000,-99.000000
1295524.906602,-11.000000,-31.000000,-26.000000,-50.000000,-57.000000,-86.000000,127.000000,25.000000
1295524.907367,15.000000,11.000000,7.000000,8.000000,8.000000,-2.000000,33.000000,53.000000
1295524.907376,-1.000000,48.000000,32.000000,25.000000,-3.000000,-9.000000,-128.000000,-65.000000
1295524.907913,-30.000000,7.000000,-20.000000,-4.000000,-6.000000,8.000000,16.000000,-27.000000
1295524.907921,23.000000,-3.000000,-4.000000,-11.000000,1.000000,-3.000000,-45.000000,13.000000
1295524.909323,19.000000,-2.000000,4.000000,-23.000000,-10.000000,-5.000000,-19.000000,-1.000000
1295524.909350,-26.000000,-29.000000,1.000000,2.000000,5.000000,-1.000000,-89.000000,-32.000000
1295524.913732,7.000000,-5.000000,-2.000000,5.000000,13.000000,22.000000,127.000000,59.000000
1295524.913778,-28.000000,9.000000,-5.000000,3.000000,6.000000,15.000000,-113.000000,-87.000000
1295524.936656,-5.000000,-16.000000,-14.000000,-18.000000,-17.000000,-32.000000,127.000000,36.000000
1295524.936686,26.000000,-18.000000,-7.000000,-31.000000,-19.000000,1.000000,-128.000000,-9.000000
1295524.943922,-24.000000,-14.000000,6.000000,32.000000,7.000000,7.000000,90.000000,21.000000
1295524.943932,4.000000,38.000000,-10.000000,-4.000000,-4.000000,2.000000,-88.000000,-52.000000
1295524.958997,-23.000000,-10.000000,-10.000000,0.000000,-12.000000,-31.000000,31.000000,-19.000000
1295524.959014,16.000000,0.000000,8.000000,-14.000000,10.000000,35.000000,39.000000,43.000000
1295524.981410,-6.000000,-18.000000,-55.000000,-33.000000,-21.000000,-33.000000,-58.000000,-12.000000
1295524.981422,-8.000000,14.000000,7.000000,-13.000000,-2.000000,-18.000000,-128.000000,-49.000000
1295524.996580,-12.000000,16.000000,8.000000,6.000000,7.000000,20.000000,81.000000,-39.000000
1295524.996591,69.000000,30.000000,-13.000000,-31.000000,-23.000000,-5.000000,127.000000,94.000000
1295525.026641,-48.000000,-115.000000,-16.000000,-16.000000,14.000000,-13.000000,-53.000000,40.000000
1295525.026672,2.000000,5.000000,-9.000000,1.000000,-19.000000,-26.000000,-33.000000,-44.000000
1295525.027431,13.000000,-11.000000,-22.000000,-12.000000,0.000000,13.000000,-66.000000,-33.000000
1295525.027442,15.000000,-32.000000,-9.000000,-1.000000,-3.000000,5.000000,59.000000,41.000000
1295525.027971,-13.000000,20.000000,27.000000,3.000000,-1.000000,-2.000000,-128.000000,-49.000000
1295525.027978,-25.000000,-6.000000,-6.000000,-23.000000,-16.000000,-17.000000,127.000000,2.000000
1295525.029264,12.000000,2.000000,28.000000,52.000000,40.000000,13.000000,8.000000,16.000000
1295525.029272,-1.000000,-5.000000,-10.000000,-19.000000,-9.000000,3.000000,-35.000000,-14.000000
1295525.030126,4.000000,-4.000000,-4.000000,1.000000,4.000000,3.000000,2.000000,-18.000000
1295525.030133,8.000000,43.000000,5.000000,-31.000000,-20.000000,-16.000000,-51.000000,-8.000000
1295525.034130,21.000000,-5.000000,-9.000000,-26.000000,-24.000000,-12.000000,71.000000,44.000000
1295525.034139,-28.000000,-58.000000,-24.000000,-9.000000,10.000000,7.000000,-76.000000,-1.000000
1295525.056297,-8.000000,3.000000,-30.000000,-21.000000,-17.000000,4.000000,-73.000000,-50.000000
1295525.056306,7.000000,20.000000,35.000000,6.000000,-10.000000,-25.000000,127.000000,112.000000
1295525.063764,-4.000000,-16.000000,-4.000000,-1.000000,-13.000000,-29.000000,-79.000000,-49.000000
1295525.063786,-22.000000,-1.000000,-22.000000,-19.000000,-6.000000,-3.000000,-109.000000,-33.000000
1295525.079252,-23.000000,-27.000000,0.000000,34.000000,7.000000,-7.000000,-51.000000,-24.000000
1295525.079280,-6.000000,9.000000,-4.000000,-21.000000,-13.000000,-3.000000,65.000000,-19.000000
1295525.086741,9.000000,-11.000000,-23.000000,-37.000000,-12.000000,15.000000,84.000000,19.000000
1295525.086752,7.000000,-6.000000,29.000000,29.000000,14.000000,21.000000,18.000000,11.000000
1295525.108760,4.000000,26.000000,-10.000000,-12.000000,7.000000,22.000000,-74.000000,32.000000
1295525.108770,-26.000000,-107.000000,-27.000000,-12.000000,-7.000000,-2.000000,54.000000,12.000000
1295525.109081,3.000000,13.000000,11.000000,5.000000,-4.000000,-10.000000,103.000000,42.000000
1295525.109090,-15.000000,17.000000,-10.000000,1.000000,1.000000,9.000000,-128.000000,-97.000000
1295525.110748,22.000000,-4.000000,17.000000,12.000000,-6.000000,-10.000000,127.000000,69.000000
1295525.110777,9.000000,8.000000,30.000000,18.000000,15.000000,-8.000000,-128.000000,-33.000000
1295525.116105,-2.000000,0.000000,-46.000000,-40.000000,-35.000000,-28.000000,-104.000000,-21.000000
1295525.116116,10.000000,17.000000,29.000000,27.000000,15.000000,19.000000,43.000000,20.000000
1295525.146208,1.000000,-14.000000,-10.000000,-20.000000,-7.000000,-2.000000,-13.000000,-17.000000
1295525.146224,-26.000000,-3.000000,-4.000000,-9.000000,-5.000000,0.000000,-100.000000,-52.000000
1295525.146752,18.000000,32.000000,29.000000,12.000000,10.000000,0.000000,11.000000,25.000000
1295525.146771,6.000000,-69.000000,-22.000000,-13.000000,-8.000000,-2.000000,-15.000000,-2.000000
1295525.148197,-7.000000,16.000000,-1.000000,2.000000,6.000000,-19.000000,92.000000,4.000000
1295525.148207,-24.000000,-22.000000,-22.000000,-2.000000,-10.000000,-14.000000,-128.000000,-69.000000
1295525.153809,19.000000,-17.000000,22.000000,22.000000,15.000000,52.000000,127.000000,114.000000
1295525.153825,-24.000000,-65.000000,-26.000000,-33.000000,-6.000000,9.000000,-68.000000,-17.000000
1295525.191344,-30.000000,-9.000000,-13.000000,16.000000,-4.000000,-27.000000,-78.000000,-29.000000
1295525.191372,34.000000,59.000000,48.000000,55.000000,27.000000,8.000000,75.000000,-10.000000
1295525.198910,0.000000,1.000000,-4.000000,0.000000,-5.000000,1.000000,39.000000,44.000000
1295525.198957,-6.000000,-13.000000,-14.000000,-19.000000,-6.000000,4.000000,1.000000,1.000000
1295525.228995,7.000000,18.000000,2.000000,-10.000000,-8.000000,5.000000,-11.000000,-26.000000
1295525.229007,-21.000000,9.000000,4.000000,-14.000000,-16.000000,-42.000000,-124.000000,-36.000000
1295525.236314,3.000000,1.000000,-10.000000,-15.000000,-1.000000,-9.000000,6.000000,-6.000000
1295525.236323,1.000000,17.000000,-10.000000,-19.000000,-17.000000,-13.000000,52.000000,-2.000000
1295525.266673,12.000000,-50.000000,11.000000,4.000000,13.000000,-7.000000,54.000000,22.000000
1295525.266685,4.000000,27.000000,5.000000,-15.000000,-9.000000,-6.000000,-128.000000,-42.000000
1295525.288981,13.000000,-8.000000,-11.000000,13.000000,6.000000,16.000000,127.000000,87.000000
1295525.289078,-13.000000,-14.000000,9.000000,4.000000,1.000000,-7.000000,-108.000000,-33.000000
1295525.303616,-8.000000,22.000000,13.000000,40.000000,8.000000,14.000000,-50.000000,-20.000000
1295525.303644,-15.000000,-40.000000,-22.000000,-6.000000,-10.000000,-37.000000,45.000000,-9.000000
1295525.304234,-7.000000,-1.000000,4.000000,-18.000000,1.000000,13.000000,-73.000000,-15.000000
1295525.304260,9.000000,14.000000,7.000000,-3.000000,15.000000,34.000000,95.000000,23.000000
1295525.304990,1.000000,-20.000000,-6.000000,14.000000,-13.000000,-8.000000,27.000000,31.000000
1295525.305020,-24.000000,-40.000000,-27.000000,-50.000000,-4.000000,3.000000,-25.000000,-24.000000
1295525.305592,-14.000000,18.000000,27.000000,59.000000,19.000000,-10.000000,-61.000000,-45.000000
1295525.305603,11.000000,27.000000,11.000000,-15.000000,-14.000000,-6.000000,-56.000000,14.000000
1295525.305988,47.000000,9.000000,28.000000,25.000000,17.000000,20.000000,127.000000,127.000000
1295525.306009,-11.000000,28.000000,-15.000000,-2.000000,3.000000,9.000000,-120.000000,-45.000000
1295525.307520,17.000000,1.000000,5.000000,20.000000,0.000000,-5.000000,-9.000000,-28.000000
1295525.307542,-24.000000,-14.000000,-8.000000,-27.000000,-3.000000,20.000000,16.000000,9.000000
1295525.311038,-10.000000,5.000000,-45.000000,-23.000000,-10.000000,-11.000000,-128.000000,-53.000000
1295525.311059,4.000000,42.000000,65.000000,47.000000,6.000000,17.000000,20.000000,-14.000000
1295525.341157,16.000000,-15.000000,12.000000,-9.000000,3.000000,-5.000000,127.000000,65.000000
1295525.341172,18.000000,-7.000000,-32.000000,-49.000000,-13.000000,-17.000000,-104.000000,-5.000000
1295525.341631,-23.000000,81.000000,16.000000,36.000000,-5.000000,0.000000,-128.000000,-128.000000
1295525.341639,-16.000000,-24.000000,-30.000000,-14.000000,-11.000000,16.000000,127.000000,127.000000
1295525.343184,16.000000,-21.000000,14.000000,-14.000000,4.000000,12.000000,30.000000,65.000000
1295525.343193,-10.000000,32.000000,11.000000,9.000000,-4.000000,-18.000000,-128.000000,-83.000000
1295525.356951,-3.000000,18.000000,13.000000,16.000000,2.000000,24.000000,-70.000000,-17.000000
1295525.356981,40.000000,0.000000,17.000000,0.000000,11.000000,1.000000,127.000000,75.000000
1295525.364084,-22.000000,6.000000,3.000000,0.000000,1.000000,20.000000,68.000000,-25.000000
1295525.364112,1.000000,-7.000000,-2.000000,6.000000,4.000000,5.000000,3.000000,12.000000
1295525.378892,5.000000,-13.000000,3.000000,-13.000000,-9.000000,-12.000000,-88.000000,-38.000000
1295525.378906,4.000000,14.000000,0.000000,-1.000000,-1.000000,4.000000,-7.000000,4.000000
1295525.386241,6.000000,46.000000,15.000000,4.000000,-6.000000,-32.000000,-39.000000,-53.000000
1295525.386260,30.000000,-14.000000,-1.000000,21.000000,-12.000000,-1.000000,72.000000,13.000000
1295525.393762,16.000000,-20.000000,11.000000,28.000000,29.000000,0.000000,77.000000,87.000000
1295525.393783,4.000000,-18.000000,-1.000000,-14.000000,2.000000,0.000000,-128.000000,-76.000000
1295525.424169,40.000000,40.000000,9.000000,29.000000,27.000000,44.000000,127.000000,71.000000
1295525.424187,1.000000,-20.000000,2.000000,1.000000,-4.000000,3.000000,-7.000000,20.000000
1295525.431391,-8.000000,30.000000,-1.000000,11.000000,-6.000000,-13.000000,-61.000000,-32.000000
1295525.431408,55.000000,26.000000,9.000000,2.000000,-6.000000,-22.000000,-128.000000,-92.000000
1295525.461536,-128.000000,-58.000000,-17.000000,-20.000000,-12.000000,20.000000,-47.000000,-3.000000
1295525.461546,1.000000,-92.000000,24.000000,6.000000,-2.000000,6.000000,127.000000,127.000000
1295525.461767,41.000000,35.000000,-2.000000,-7.000000,5.000000,4.000000,-93.000000,-36.000000
1295525.461777,-40.000000,-6.000000,-22.000000,-19.000000,-13.000000,-16.000000,-128.000000,-79.000000
1295525.463009,-10.000000,-2.000000,-7.000000,21.000000,-6.000000,13.000000,-116.000000,-54.000000
1295525.463017,52.000000,33.000000,-3.000000,-15.000000,5.000000,-2.000000,127.000000,63.000000
1295525.463892,-11.000000,-33.000000,12.000000,21.000000,-14.000000,-6.000000,-23.000000,-7.000000
1295525.463920,-16.000000,-41.000000,1.000000,-24.000000,-10.000000,-9.000000,-37.000000,-12.000000
1295525.465135,-9.000000,33.000000,-5.000000,-16.000000,-9.000000,-5.000000,-37.000000,-30.000000
1295525.465174,-1.000000,-23.000000,-16.000000,10.000000,-7.000000,-15.000000,29.000000,7.000000
1295525.491275,12.000000,-27.000000,-4.000000,-13.000000,0.000000,3.000000,25.000000,9.000000
1295525.491326,-12.000000,-8.000000,-6.000000,-18.000000,0.000000,3.000000,-20.000000,-37.000000
1295525.492314,7.000000,11.000000,-6.000000,-3.000000,2.000000,12.000000,-45.000000,20.000000
1295525.492335,15.000000,-16.000000,66.000000,19.000000,11.000000,-9.000000,91.000000,26.000000
1295525.493069,12.000000,14.000000,-33.000000,2.000000,11.000000,-1.000000,-25.000000,3.000000
1295525.493090,-13.000000,19.000000,9.000000,4.000000,1.000000,-3.000000,6.000000,-6.000000
1295525.506562,-19.000000,-23.000000,-22.000000,-19.000000,-10.000000,-16.000000,-22.000000,-40.000000
1295525.506590,26.000000,3.000000,0.000000,6.000000,0.000000,6.000000,50.000000,20.000000
1295525.513884,-15.000000,17.000000,-9.000000,-46.000000,-9.000000,-35.000000,-128.000000,-71.000000
1295525.513904,43.000000,8.000000,28.000000,16.000000,-14.000000,-22.000000,127.000000,127.000000
1295525.544040,-15.000000,-43.000000,-33.000000,-47.000000,-17.000000,-8.000000,-120.000000,-8.000000
1295525.544052,-12.000000,41.000000,15.000000,0.000000,9.000000,2.000000,-28.000000,-67.000000
1295525.551329,23.000000,28.000000,14.000000,14.000000,4.000000,21.000000,-92.000000,-4.000000
1295525.551339,-23.000000,-1.000000,19.000000,17.000000,3.000000,-4.000000,127.000000,57.000000
1295525.552392,-28.000000,-52.000000,-25.000000,-6.000000,-2.000000,-5.000000,-76.000000,-28.000000
1295525.552405,6.000000,20.000000,35.000000,35.000000,5.000000,-14.000000,-46.000000,-29.000000
1295525.553225,28.000000,12.000000,-15.000000,-4.000000,2.000000,29.000000,-32.000000,-8.000000
1295525.553234,21.000000,-14.000000,0.000000,-17.000000,0.000000,10.000000,127.000000,59.000000
1295525.567040,-6.000000,-23.000000,-3.000000,-18.000000,-10.000000,-22.000000,-108.000000,-29.000000
1295525.567063,-24.000000,67.000000,25.000000,76.000000,36.000000,33.000000,-128.000000,-90.000000
1295525.581338,57.000000,-6.000000,18.000000,10.000000,8.000000,31.000000,127.000000,127.000000
1295525.581348,-37.000000,-82.000000,-21.000000,-23.000000,-10.000000,-9.000000,-128.000000,-36.000000
1295525.582639,-29.000000,26.000000,6.000000,17.000000,-7.000000,16.000000,-128.000000,-85.000000
1295525.582661,7.000000,-18.000000,-9.000000,-11.000000,-25.000000,-78.000000,127.000000,16.000000
1295525.596894,4.000000,-22.000000,-1.000000,-2.000000,12.000000,16.000000,57.000000,51.000000
1295525.596906,-4.000000,24.000000,7.000000,-2.000000,-9.000000,-16.000000,-102.000000,-37.000000
1295525.618852,-8.000000,54.000000,-7.000000,-9.000000,-9.000000,9.000000,-12.000000,-23.000000
1295525.618904,20.000000,-15.000000,21.000000,25.000000,29.000000,36.000000,127.000000,55.000000
1295525.619291,13.000000,-5.000000,8.000000,0.000000,4.000000,6.000000,13.000000,-14.000000
1295525.619310,-36.000000,-20.000000,-52.000000,-10.000000,-13.000000,-19.000000,-98.000000,-44.000000
1295525.633884,7.000000,-28.000000,12.000000,67.000000,38.000000,25.000000,49.000000,38.000000
1295525.633895,35.000000,27.000000,-4.000000,-52.000000,-10.000000,14.000000,127.000000,73.000000
1295525.663958,-99.000000,-19.000000,3.000000,23.000000,16.000000,2.000000,-83.000000,-75.000000
1295525.663976,-10.000000,32.000000,-17.000000,-16.000000,-12.000000,-12.000000,-68.000000,-68.000000
1295525.678884,56.000000,18.000000,3.000000,-4.000000,14.000000,25.000000,127.000000,127.000000
1295525.678896,-9.000000,23.000000,30.000000,26.000000,11.000000,1.000000,-76.000000,-36.000000
1295525.701317,-6.000000,-13.000000,-50.000000,-35.000000,-22.000000,-9.000000,-18.000000,-25.000000
1295525.701345,-12.000000,-19.000000,5.000000,23.000000,3.000000,-5.000000,-29.000000,-20.000000
1295525.702352,-14.000000,-12.000000,-5.000000,-11.000000,-3.000000,9.000000,-9.000000,-16.000000
1295525.702368,25.000000,2.000000,6.000000,17.000000,12.000000,-5.000000,20.000000,36.000000
1295525.703014,-7.000000,-12.000000,-28.000000,-38.000000,-19.000000,-12.000000,33.000000,-5.000000
1295525.703045,-3.000000,23.000000,44.000000,68.000000,20.000000,6.000000,-42.000000,-10.000000
1295525.704409,-11.000000,21.000000,-21.000000,-2.000000,-3.000000,3.000000,-91.000000,-30.000000
1295525.704436,-10.000000,13.000000,-9.000000,5.000000,10.000000,18.000000,4.000000,-15.000000
1295525.705458,43.000000,18.000000,15.000000,18.000000,14.000000,40.000000,127.000000,101.000000
1295525.705481,-11.000000,-16.000000,1.000000,1.000000,10.000000,10.000000,-71.000000,-3.000000
1295525.708686,-31.000000,-17.000000,15.000000,-5.000000,-12.000000,-16.000000,-109.000000,-78.000000
1295525.708695,-2.000000,-1.000000,-6.000000,-2.000000,-2.000000,-13.000000,28.000000,3.000000
1295525.716147,-24.000000,-52.000000,-15.000000,-15.000000,-10.000000,-15.000000,52.000000,49.000000
1295525.716156,-17.000000,-65.000000,24.000000,26.000000,13.000000,-1.000000,-29.000000,-5.000000
1295525.739124,-6.000000,15.000000,-3.000000,-16.000000,-9.000000,-29.000000,-128.000000,-74.000000
1295525.739267,-3.000000,11.000000,-15.000000,-6.000000,-8.000000,13.000000,103.000000,5.000000
1295525.739578,32.000000,0.000000,35.000000,17.000000,18.000000,8.000000,103.000000,58.000000
1295525.739605,12.000000,0.000000,-31.000000,-3.000000,16.000000,4.000000,40.000000,21.000000
1295525.746426,1.000000,10.000000,-5.000000,-4.000000,-10.000000,-8.000000,-51.000000,-25.000000
1295525.746456,-12.000000,22.000000,7.000000,7.000000,9.000000,4.000000,-74.000000,-38.000000
1295525.754016,-3.000000,-8.000000,-19.000000,0.000000,0.000000,-1.000000,-101.000000,-31.000000
1295525.754036,22.000000,35.000000,21.000000,-20.000000,-15.000000,1.000000,71.000000,25.000000
1295525.776463,-20.000000,-23.000000,-8.000000,-9.000000,5.000000,5.000000,22.000000,28.000000
1295525.776473,-22.000000,-9.000000,-5.000000,-2.000000,8.000000,2.000000,-128.000000,-54.000000
1295525.783905,18.000000,2.000000,16.000000,21.000000,11.000000,35.000000,127.000000,67.000000
1295525.783915,-27.000000,-38.000000,-28.000000,-9.000000,6.000000,17.000000,85.000000,12.000000
1295525.806520,-7.000000,11.000000,27.000000,31.000000,4.000000,13.000000,-53.000000,-42.000000
1295525.806549,-15.000000,-29.000000,-30.000000,-63.000000,-30.000000,-57.000000,-112.000000,-29.000000
1295525.821366,2.000000,15.000000,29.000000,56.000000,19.000000,20.000000,66.000000,20.000000
1295525.821411,16.000000,28.000000,15.000000,-8.000000,6.000000,4.000000,-12.000000,-6.000000
1295525.822369,-3.000000,-19.000000,-37.000000,-19.000000,-4.000000,10.000000,-80.000000,-29.000000
1295525.822377,33.000000,3.000000,-9.000000,-24.000000,-22.000000,-42.000000,127.000000,26.000000
1295525.823025,-22.000000,-42.000000,24.000000,6.000000,17.000000,18.000000,1.000000,33.000000
1295525.823033,-1.000000,8.000000,-25.000000,8.000000,0.000000,0.000000,-18.000000,-22.000000
1295525.829258,-3.000000,-14.000000,2.000000,-9.000000,-3.000000,-1.000000,-26.000000,-7.000000
1295525.829292,6.000000,18.000000,9.000000,-8.000000,-6.000000,-10.000000,-2.000000,-19.000000
1295525.845595,10.000000,-34.000000,15.000000,15.000000,8.000000,-19.000000,-128.000000,-14.000000
1295525.845607,26.000000,2.000000,0.000000,-1.000000,0.000000,29.000000,127.000000,32.000000
1295525.866725,22.000000,-7.000000,-2.000000,-9.000000,9.000000,3.000000,26.000000,28.000000
1295525.866754,14.000000,-41.000000,-14.000000,15.000000,14.000000,10.000000,56.000000,28.000000
1295525.874145,36.000000,23.000000,16.000000,-55.000000,-15.000000,-18.000000,6.000000,26.000000
1295525.874173,-3.000000,-19.000000,12.000000,3.000000,-8.000000,5.000000,-61.000000,-12.000000
1295525.903811,-19.000000,-8.000000,-17.000000,-21.000000,-12.000000,13.000000,55.000000,0.000000
1295525.903833,-2.000000,-6.000000,-10.000000,5.000000,0.000000,3.000000,-33.000000,-7.000000
1295525.919148,-54.000000,6.000000,-9.000000,-5.000000,0.000000,-15.000000,-44.000000,-33.000000
1295525.919160,127.000000,60.000000,17.000000,-2.000000,4.000000,15.000000,9.000000,32.000000
1295525.941542,-21.000000,-5.000000,1.000000,-12.000000,-11.000000,-11.000000,2.000000,-17.000000
1295525.941553,-11.000000,-43.000000,-20.000000,-11.000000,-15.000000,-7.000000,-128.000000,-57.000000
1295525.948821,11.000000,36.000000,18.000000,3.000000,2.000000,11.000000,127.000000,120.000000
1295525.948870,28.000000,-17.000000,-26.000000,-16.000000,12.000000,-4.000000,-94.000000,5.000000
1295525.979069,-37.000000,-6.000000,19.000000,-3.000000,5.000000,-16.000000,40.000000,4.000000
1295525.979079,2.000000,-12.000000,-17.000000,-12.000000,-3.000000,2.000000,31.000000,4.000000
1295525.986386,-7.000000,-19.000000,0.000000,-5.000000,1.000000,-5.000000,-22.000000,-15.000000
1295525.986400,5.000000,19.000000,19.000000,-11.000000,-6.000000,-6.000000,-25.000000,-19.000000
1295526.024132,46.000000,42.000000,0.000000,-15.000000,3.000000,-6.000000,-21.000000,-14.000000
1295526.024161,-33.000000,6.000000,1.000000,-9.000000,-13.000000,-6.000000,64.000000,23.000000
1295526.032336,42.000000,31.000000,40.000000,14.000000,12.000000,26.000000,111.000000,53.000000
1295526.032364,-19.000000,-10.000000,-7.000000,-2.000000,-1.000000,5.000000,-26.000000,-2.000000
1295526.046499,42.000000,37.000000,12.000000,-7.000000,-9.000000,-27.000000,-17.000000,4.000000
1295526.046509,11.000000,-20.000000,11.000000,11.000000,4.000000,-1.000000,20.000000,0.000000
1295526.053832,-3.000000,-8.000000,-12.000000,-9.000000,-2.000000,-28.000000,-128.000000,-43.000000
1295526.053844,0.000000,8.000000,-8.000000,7.000000,1.000000,34.000000,127.000000,54.000000
1295526.061092,11.000000,-35.000000,2.000000,8.000000,8.000000,1.000000,-5.000000,7.000000
1295526.061137,-47.000000,-12.000000,-8.000000,-5.000000,-10.000000,-37.000000,-128.000000,-64.000000
1295526.062475,-9.000000,-12.000000,7.000000,-6.000000,0.000000,5.000000,-102.000000,-8.000000
1295526.062487,-15.000000,-19.000000,-7.000000,-23.000000,-19.000000,-15.000000,-128.000000,-75.000000
1295526.063627,-22.000000,25.000000,27.000000,45.000000,22.000000,26.000000,127.000000,7.000000
1295526.063649,19.000000,44.000000,24.000000,18.000000,-4.000000,-23.000000,5.000000,42.000000
1295526.068593,-25.000000,20.000000,-9.000000,3.000000,-3.000000,-17.000000,-92.000000,-56.000000
1295526.068602,-43.000000,-28.000000,-12.000000,-9.000000,-5.000000,-4.000000,74.000000,32.000000
1295526.084291,-22.000000,-28.000000,-17.000000,-29.000000,-1.000000,-5.000000,54.000000,26.000000
1295526.084301,-4.000000,-15.000000,2.000000,44.000000,12.000000,-4.000000,-98.000000,-35.000000
1295526.106494,-9.000000,-15.000000,8.000000,1.000000,-2.000000,-22.000000,-128.000000,-47.000000
1295526.106512,13.000000,-13.000000,0.000000,-2.000000,1.000000,47.000000,127.000000,58.000000
1295526.121559,16.000000,-27.000000,-6.000000,8.000000,-2.000000,-11.000000,-26.000000,34.000000
1295526.121569,-6.000000,28.000000,20.000000,5.000000,1.000000,1.000000,-38.000000,-23.000000
1295526.136454,-14.000000,-12.000000,-19.000000,-6.000000,-4.000000,-7.000000,-2.000000,-11.000000
1295526.136476,-8.000000,-11.000000,-18.000000,-17.000000,-6.000000,-8.000000,-87.000000,-40.000000
1295526.143805,17.000000,17.000000,6.000000,12.000000,6.000000,22.000000,8.000000,44.000000
1295526.143815,3.000000,-24.000000,21.000000,-5.000000,-1.000000,-1.000000,127.000000,52.000000
1295526.174084,-12.000000,-13.000000,-18.000000,-23.000000,-11.000000,5.000000,1.000000,-23.000000
1295526.174095,-7.000000,-6.000000,-6.000000,18.000000,4.000000,-1.000000,-109.000000,-45.000000
1295526.181595,1.000000,-67.000000,-13.000000,-11.000000,1.000000,31.000000,56.000000,49.000000
1295526.181606,32.000000,-31.000000,5.000000,16.000000,13.000000,29.000000,127.000000,58.000000
1295526.196405,-5.000000,27.000000,8.000000,-19.000000,-17.000000,-14.000000,-61.000000,-36.000000
1295526.196423,-6.000000,-32.000000,-10.000000,-8.000000,-7.000000,-22.000000,-59.000000,-48.000000
1295526.211270,-5.000000,2.000000,12.000000,4.000000,6.000000,21.000000,-65.000000,-13.000000
1295526.211280,22.000000,-2.000000,20.000000,6.000000,4.000000,19.000000,127.000000,84.000000
1295526.227221,-22.000000,-10.000000,-8.000000,-10.000000,-2.000000,20.000000,127.000000,22.000000
1295526.227249,25.000000,-26.000000,-10.000000,-2.000000,7.000000,17.000000,-111.000000,7.000000
1295526.227561,-49.000000,3.000000,-8.000000,-2.000000,-4.000000,-20.000000,81.000000,-11.000000
1295526.227587,9.000000,33.000000,10.000000,2.000000,1.000000,7.000000,-55.000000,-16.000000
1295526.228248,-16.000000,-35.000000,-14.000000,17.000000,-16.000000,-24.000000,-128.000000,-32.000000
1295526.228255,53.000000,75.000000,5.000000,9.000000,5.000000,27.000000,127.000000,70.000000
1295526.228832,-44.000000,-66.000000,-3.000000,-18.000000,-14.000000,-24.000000,-30.000000,-30.000000
1295526.228840,-25.000000,-2.000000,-4.000000,-27.000000,-16.000000,-27.000000,-128.000000,-44.000000
1295526.229543,11.000000,8.000000,-1.000000,1.000000,2.000000,16.000000,75.000000,-24.000000
1295526.229551,-24.000000,-39.000000,-24.000000,-10.000000,-8.000000,-15.000000,-22.000000,49.000000
1295526.248803,29.000000,21.000000,22.000000,27.000000,10.000000,12.000000,55.000000,7.000000
1295526.248903,2.000000,-23.000000,-4.000000,-4.000000,-9.000000,-14.000000,-49.000000,-29.000000
1295526.256766,-13.000000,0.000000,3.000000,-4.000000,9.000000,4.000000,-82.000000,-43.000000
1295526.256781,-18.000000,-3.000000,2.000000,-15.000000,-12.000000,-26.000000,-119.000000,-32.000000
1295526.257494,27.000000,-20.000000,7.000000,9.000000,14.000000,20.000000,96.000000,61.000000
1295526.257503,-2.000000,7.000000,14.000000,-14.000000,3.000000,15.000000,41.000000,0.000000
1295526.264484,5.000000,34.000000,-45.000000,-13.000000,-2.000000,-14.000000,28.000000,4.000000
1295526.264511,-13.000000,5.000000,6.000000,22.000000,-2.000000,12.000000,-128.000000,-50.000000
1295526.293657,-13.000000,-18.000000,-37.000000,-43.000000,-25.000000,-62.000000,76.000000,12.000000
1295526.293687,3.000000,34.000000,22.000000,16.000000,7.000000,7.000000,34.000000,3.000000
1295526.295046,-3.000000,2.000000,-2.000000,0.000000,4.000000,-15.000000,-128.000000,-51.000000
1295526.295064,-2.000000,-67.000000,-17.000000,-9.000000,1.000000,40.000000,127.000000,63.000000
1295526.302095,26.000000,20.000000,19.000000,13.000000,8.000000,4.000000,83.000000,52.000000
1295526.302136,-13.000000,-46.000000,-4.000000,-5.000000,-7.000000,-13.000000,-114.000000,-40.000000
1295526.308867,0.000000,12.000000,-6.000000,13.000000,8.000000,-10.000000,-80.000000,-58.000000
1295526.308881,13.000000,8.000000,-19.000000,3.000000,-16.000000,-24.000000,113.000000,65.000000
1295526.331358,-4.000000,11.000000,32.000000,-3.000000,9.000000,3.000000,-80.000000,-20.000000
1295526.331380,-18.000000,-34.000000,-45.000000,-18.000000,-18.000000,-8.000000,41.000000,-6.000000
1295526.338803,2.000000,-41.000000,5.000000,-1.000000,0.000000,-15.000000,1.000000,19.000000
1295526.338837,4.000000,6.000000,-7.000000,13.000000,7.000000,6.000000,-49.000000,-26.000000
1295526.376405,9.000000,-6.000000,-3.000000,-5.000000,6.000000,11.000000,13.000000,-2.000000
1295526.376415,-20.000000,13.000000,16.000000,21.000000,-6.000000,2.000000,-128.000000,-55.000000
1295526.391553,63.000000,27.000000,9.000000,26.000000,19.000000,44.000000,127.000000,127.000000
1295526.391583,-15.000000,-10.000000,-14.000000,3.000000,7.000000,11.000000,-48.000000,-4.000000
1295526.413678,0.000000,4.000000,7.000000,-12.000000,-8.000000,-5.000000,-81.000000,-48.000000
1295526.413707,-25.000000,-66.000000,-14.000000,-15.000000,-31.000000,-57.000000,-14.000000,-6.000000
1295526.414312,16.000000,48.000000,-10.000000,1.000000,17.000000,-2.000000,26.000000,-10.000000
1295526.414339,-5.000000,-3.000000,22.000000,54.000000,7.000000,4.000000,-87.000000,-13.000000
1295526.415551,1.000000,-9.000000,-11.000000,-26.000000,-7.000000,-5.000000,91.000000,33.000000
1295526.415578,14.000000,-10.000000,-17.000000,-8.000000,2.000000,11.000000,66.000000,27.000000
1295526.417055,-4.000000,-24.000000,-12.000000,-17.000000,-8.000000,-11.000000,-58.000000,-9.000000
1295526.417081,3.000000,1.000000,11.000000,9.000000,-4.000000,-18.000000,-26.000000,-25.000000
1295526.422135,4.000000,38.000000,-12.000000,3.000000,-7.000000,3.000000,-51.000000,-18.000000
1295526.422162,-15.000000,-78.000000,-1.000000,26.000000,-5.000000,1.000000,56.000000,10.000000
1295526.436461,0.000000,6.000000,-18.000000,-13.000000,-10.000000,-1.000000,-51.000000,-23.000000
1295526.436482,1.000000,-13.000000,18.000000,3.000000,8.000000,-6.000000,127.000000,64.000000
1295526.451758,-2.000000,-9.000000,-6.000000,-66.000000,-10.000000,14.000000,-28.000000,-13.000000
1295526.451780,16.000000,-1.000000,13.000000,67.000000,-12.000000,-25.000000,-36.000000,-15.000000
1295526.458843,-27.000000,-9.000000,42.000000,118.000000,41.000000,7.000000,-34.000000,-52.000000
1295526.458853,5.000000,28.000000,3.000000,-7.000000,5.000000,32.000000,38.000000,25.000000
1295526.489135,29.000000,11.000000,-19.000000,-16.000000,-7.000000,-20.000000,71.000000,65.000000
1295526.489163,-45.000000,-13.000000,-54.000000,-117.000000,-48.000000,-11.000000,-63.000000,-13.000000
1295526.496656,-18.000000,45.000000,81.000000,127.000000,71.000000,28.000000,6.000000,-33.000000
1295526.496676,-4.000000,-9.000000,-16.000000,-17.000000,-2.000000,8.000000,36.000000,11.000000
1295526.518853,-10.000000,-17.000000,-54.000000,-52.000000,-37.000000,-55.000000,-61.000000,-13.000000
1295526.518876,-7.000000,2.000000,40.000000,89.000000,7.000000,-18.000000,-128.000000,-64.000000
1295526.533997,-23.000000,22.000000,17.000000,-9.000000,7.000000,37.000000,127.000000,33.000000
1295526.534016,7.000000,-44.000000,-10.000000,-14.000000,15.000000,37.000000,87.000000,48.000000
1295526.549031,26.000000,-6.000000,3.000000,-2.000000,-14.000000,-21.000000,-53.000000,-7.000000
1295526.549045,-32.000000,-25.000000,-59.000000,-83.000000,-20.000000,-18.000000,-92.000000,-31.000000
1295526.549480,12.000000,43.000000,92.000000,127.000000,51.000000,19.000000,31.000000,4.000000
1295526.549490,-16.000000,-17.000000,-22.000000,-15.000000,-8.000000,-13.000000,-128.000000,-69.000000
1295526.550526,12.000000,32.000000,-27.000000,-2.000000,-4.000000,24.000000,127.000000,90.000000
1295526.550536,3.000000,-17.000000,28.000000,-10.000000,1.000000,-20.000000,-93.000000,37.000000
1295526.552127,-20.000000,3.000000,4.000000,-5.000000,-11.000000,-23.000000,-128.000000,-77.000000
1295526.552136,-10.000000,41.000000,-10.000000,25.000000,2.000000,0.000000,112.000000,-27.000000
1295526.571318,33.000000,-3.000000,-3.000000,-12.000000,-8.000000,-49.000000,-48.000000,21.000000
1295526.571354,-13.000000,-33.000000,-3.000000,-11.000000,6.000000,2.000000,-78.000000,-31.000000
1295526.578698,-7.000000,6.000000,-1.000000,13.000000,-8.000000,-17.000000,62.000000,-12.000000
1295526.578708,-4.000000,-27.000000,-13.000000,-10.000000,-2.000000,3.000000,-80.000000,-13.000000
1295526.601594,-5.000000,-34.000000,11.000000,-12.000000,5.000000,15.000000,52.000000,-1.000000
1295526.601607,-6.000000,5.000000,-14.000000,11.000000,-8.000000,-37.000000,-58.000000,-1.000000
1295526.623947,-15.000000,-11.000000,-4.000000,2.000000,0.000000,3.000000,-18.000000,-45.000000
1295526.623959,14.000000,7.000000,9.000000,6.000000,9.000000,22.000000,127.000000,82.000000
1295526.624900,-10.000000,-32.000000,-11.000000,-13.000000,4.000000,20.000000,-35.000000,-17.000000
1295526.624922,18.000000,92.000000,0.000000,-8.000000,-19.000000,-16.000000,24.000000,-24.000000
1295526.625430,-6.000000,-1.000000,13.000000,8.000000,-3.000000,1.000000,8.000000,32.000000
1295526.625439,42.000000,-21.000000,7.000000,2.000000,12.000000,-4.000000,-29.000000,30.000000
1295526.627194,-44.000000,-66.000000,-17.000000,10.000000,-9.000000,-20.000000,-21.000000,-29.000000
1295526.627209,18.000000,14.000000,-3.000000,-6.000000,-4.000000,-7.000000,-3.000000,9.000000
1295526.654142,15.000000,-20.000000,1.000000,-1.000000,3.000000,-2.000000,-16.000000,-7.000000
1295526.654156,-6.000000,12.000000,-1.000000,-4.000000,-4.000000,-12.000000,-48.000000,-47.000000
1295526.654980,-13.000000,-14.000000,3.000000,8.000000,0.000000,12.000000,93.000000,19.000000
1295526.654990,11.000000,-15.000000,-2.000000,5.000000,6.000000,20.000000,79.000000,48.000000
1295526.655824,-1.000000,2.000000,-12.000000,-8.000000,-1.000000,-7.000000,-74.000000,-20.000000
1295526.655834,-9.000000,-8.000000,5.000000,2.000000,-7.000000,10.000000,-6.000000,-25.000000
1295526.662054,-2.000000,-10.000000,15.000000,24.000000,10.000000,-31.000000,-77.000000,-16.000000
1295526.662063,10.000000,27.000000,5.000000,15.000000,17.000000,-5.000000,-128.000000,-24.000000
1295526.676494,1.000000,26.000000,-31.000000,-45.000000,-19.000000,24.000000,127.000000,13.000000
1295526.676505,-13.000000,-39.000000,-9.000000,-21.000000,-10.000000,-16.000000,-95.000000,40.000000
1295526.699222,-12.000000,23.000000,19.000000,16.000000,3.000000,11.000000,-68.000000,-16.000000
1295526.699254,-12.000000,-6.000000,-23.000000,-6.000000,-5.000000,-25.000000,60.000000,4.000000
1295526.728711,-18.000000,19.000000,-24.000000,-9.000000,-10.000000,-12.000000,-126.000000,-68.000000
1295526.728726,-8.000000,32.000000,-6.000000,-12.000000,-16.000000,-24.000000,34.000000,-29.000000
1295526.729786,16.000000,-39.000000,-8.000000,-3.000000,13.000000,7.000000,101.000000,63.000000
1295526.729795,-6.000000,12.000000,27.000000,13.000000,6.000000,-16.000000,-108.000000,-57.000000
1295526.730324,-3.000000,-20.000000,-27.000000,-40.000000,-17.000000,2.000000,73.000000,6.000000
1295526.730332,9.000000,-18.000000,18.000000,-5.000000,6.000000,8.000000,17.000000,32.000000
1295526.731662,-7.000000,3.000000,-4.000000,-2.000000,-2.000000,-7.000000,-36.000000,-19.000000
1295526.731670,0.000000,6.000000,-10.000000,12.000000,-1.000000,2.000000,-58.000000,-22.000000
1295526.732507,-9.000000,-1.000000,9.000000,-3.000000,-4.000000,-9.000000,17.000000,-5.000000
1295526.732515,1.000000,8.000000,-42.000000,-44.000000,-28.000000,-3.000000,-91.000000,-17.000000
1295526.737314,6.000000,43.000000,-6.000000,7.000000,9.000000,20.000000,-88.000000,8.000000
1295526.737324,3.000000,0.000000,14.000000,21.000000,-1.000000,-19.000000,116.000000,23.000000
1295526.766258,-22.000000,-28.000000,-7.000000,-35.000000,-11.000000,-10.000000,-104.000000,-30.000000
1295526.766320,-1.000000,14.000000,27.000000,37.000000,14.000000,25.000000,12.000000,-13.000000
1295526.767335,-25.000000,-25.000000,7.000000,-26.000000,0.000000,16.000000,-9.000000,51.000000
1295526.767350,8.000000,-10.000000,13.000000,37.000000,19.000000,25.000000,82.000000,4.000000
1295526.768210,-7.000000,-6.000000,-17.000000,-1.000000,-4.000000,-1.000000,-55.000000,-22.000000
1295526.768218,-25.000000,-14.000000,4.000000,-4.000000,-6.000000,-19.000000,-128.000000,-64.000000
1295526.811491,22.000000,-1.000000,1.000000,-3.000000,-6.000000,3.000000,127.000000,45.000000
1295526.811514,-18.000000,1.000000,1.000000,7.000000,3.000000,-8.000000,-36.000000,-3.000000
1295526.818751,4.000000,-13.000000,0.000000,10.000000,-5.000000,-2.000000,2.000000,0.000000
1295526.818761,4.000000,-6.000000,0.000000,-11.000000,6.000000,-4.000000,-41.000000,-15.000000
1295526.863713,-14.000000,21.000000,7.000000,-6.000000,-16.000000,-21.000000,-128.000000,-61.000000
1295526.863748,47.000000,40.000000,5.000000,15.000000,9.000000,28.000000,127.000000,84.000000
1295526.864324,-35.000000,-53.000000,-7.000000,-30.000000,-1.000000,22.000000,82.000000,5.000000
1295526.864354,-4.000000,10.000000,-10.000000,-29.000000,-23.000000,-62.000000,-89.000000,-17.000000
1295526.865519,7.000000,20.000000,-11.000000,19.000000,3.000000,6.000000,11.000000,3.000000
1295526.865527,-25.000000,-22.000000,9.000000,23.000000,0.000000,-28.000000,-128.000000,-57.000000
1295526.866100,32.000000,19.000000,2.000000,-7.000000,4.000000,12.000000,94.000000,42.000000
1295526.866110,3.000000,32.000000,4.000000,21.000000,0.000000,23.000000,78.000000,32.000000
1295526.879085,-15.000000,22.000000,33.000000,44.000000,-4.000000,-11.000000,-75.000000,-41.000000
1295526.879099,-2.000000,28.000000,-7.000000,-60.000000,-22.000000,-21.000000,2.000000,-36.000000
1295526.880200,23.000000,-18.000000,3.000000,6.000000,24.000000,33.000000,127.000000,97.000000
1295526.880210,0.000000,0.000000,-28.000000,-1.000000,1.000000,0.000000,-17.000000,2.000000
1295526.886593,-12.000000,1.000000,6.000000,-73.000000,-19.000000,-1.000000,-115.000000,-35.000000
1295526.886607,-41.000000,-40.000000,-14.000000,3.000000,-5.000000,-3.000000,-128.000000,-87.000000
1295526.901914,52.000000,119.000000,21.000000,5.000000,8.000000,-3.000000,127.000000,127.000000
1295526.901923,2.000000,-23.000000,-40.000000,-50.000000,-19.000000,-2.000000,-128.000000,-35.000000
1295526.908865,-10.000000,-20.000000,59.000000,119.000000,27.000000,-7.000000,127.000000,4.000000
1295526.908877,6.000000,-40.000000,-14.000000,-2.000000,11.000000,3.000000,-55.000000,-4.000000
1295526.938920,-33.000000,-45.000000,21.000000,11.000000,-7.000000,4.000000,-128.000000,-77.000000
1295526.938935,15.000000,-3.000000,-20.000000,-1.000000,9.000000,17.000000,127.000000,52.000000
1295526.954314,15.000000,37.000000,21.000000,-19.000000,-20.000000,-20.000000,-48.000000,-23.000000
1295526.954325,-46.000000,23.000000,-16.000000,-17.000000,-6.000000,7.000000,-41.000000,-35.000000
1295526.969196,10.000000,19.000000,13.000000,-19.000000,-4.000000,-37.000000,-102.000000,-38.000000
1295526.969206,-9.000000,-47.000000,-63.000000,-21.000000,-35.000000,-40.000000,68.000000,19.000000
1295526.970135,35.000000,37.000000,28.000000,-38.000000,13.000000,33.000000,26.000000,57.000000
1295526.970160,-20.000000,-26.000000,6.000000,39.000000,20.000000,0.000000,-128.000000,-50.000000
1295526.977013,-21.000000,-19.000000,-19.000000,-29.000000,-23.000000,-24.000000,127.000000,-23.000000
1295526.977042,29.000000,-2.000000,12.000000,14.000000,10.000000,17.000000,74.000000,42.000000
1295526.977580,3.000000,44.000000,6.000000,-9.000000,-3.000000,5.000000,-46.000000,-18.000000
1295526.977607,-17.000000,-62.000000,-16.000000,9.000000,14.000000,34.000000,45.000000,29.000000
1295526.979214,-4.000000,29.000000,15.000000,8.000000,-12.000000,-40.000000,-27.000000,-34.000000
1295526.979259,5.000000,1.000000,0.000000,-18.000000,-5.000000,-18.000000,13.000000,15.000000
1295527.006156,-3.000000,-8.000000,-20.000000,3.000000,-1.000000,-5.000000,-26.000000,-20.000000
1295527.006171,-8.000000,-8.000000,-1.000000,0.000000,2.000000,-9.000000,-23.000000,-13.000000
1295527.007207,-12.000000,24.000000,0.000000,-31.000000,-22.000000,-11.000000,51.000000,7.000000
1295527.007214,12.000000,23.000000,-8.000000,6.000000,8.000000,14.000000,-37.000000,2.000000
1295527.008066,-5.000000,-70.000000,-14.000000,-17.000000,-13.000000,-10.000000,91.000000,35.000000
1295527.008073,-26.000000,10.000000,11.000000,2.000000,2.000000,-10.000000,-51.000000,-22.000000
1295527.021418,11.000000,6.000000,18.000000,45.000000,13.000000,-5.000000,-109.000000,-8.000000
1295527.021430,6.000000,12.000000,7.000000,5.000000,5.000000,17.000000,127.000000,18.000000
1295527.028959,6.000000,14.000000,-1.000000,6.000000,-6.000000,5.000000,25.000000,18.000000
1295527.028970,-41.000000,-91.000000,-16.000000,5.000000,-3.000000,-25.000000,-47.000000,-27.000000
1295527.043851,-7.000000,37.000000,16.000000,5.000000,-2.000000,-2.000000,-65.000000,-44.000000
1295527.043872,-12.000000,-36.000000,-14.000000,-13.000000,-11.000000,-14.000000,46.000000,-14.000000
1295527.051169,16.000000,14.000000,23.000000,33.000000,19.000000,25.000000,79.000000,52.000000
1295527.051187,8.000000,7.000000,-9.000000,-11.000000,-3.000000,1.000000,-16.000000,-5.000000
1295527.088817,2.000000,33.000000,5.000000,-9.000000,-14.000000,1.000000,-128.000000,-99.000000
1295527.088827,49.000000,34.000000,11.000000,20.000000,24.000000,54.000000,127.000000,127.000000
1295527.096321,-38.000000,-52.000000,-25.000000,-30.000000,-8.000000,1.000000,-120.000000,-21.000000
1295527.096340,13.000000,-2.000000,-7.000000,25.000000,6.000000,-11.000000,-78.000000,-30.000000
1295527.126440,-28.000000,34.000000,2.000000,14.000000,3.000000,-12.000000,-56.000000,-45.000000
1295527.126470,-1.000000,13.000000,4.000000,-26.000000,-9.000000,5.000000,-128.000000,-27.000000
1295527.126793,23.000000,-4.000000,1.000000,-11.000000,4.000000,4.000000,127.000000,73.000000
1295527.126801,1.000000,-49.000000,-14.000000,-24.000000,-9.000000,-4.000000,6.000000,-6.000000
1295527.127975,-30.000000,70.000000,-3.000000,12.000000,1.000000,-7.000000,-128.000000,-70.000000
1295527.127988,2.000000,-42.000000,16.000000,41.000000,-12.000000,-17.000000,127.000000,36.000000
1295527.128633,45.000000,9.000000,-12.000000,-24.000000,0.000000,17.000000,18.000000,63.000000
1295527.128641,-34.000000,11.000000,-3.000000,-7.000000,-1.000000,-14.000000,-94.000000,-75.000000
1295527.130086,5.000000,6.000000,-27.000000,-12.000000,-25.000000,-3.000000,-102.000000,7.000000
1295527.130093,18.000000,-18.000000,33.000000,17.000000,22.000000,21.000000,127.000000,64.000000
1295527.141361,-5.000000,24.000000,16.000000,5.000000,-11.000000,-23.000000,-128.000000,-83.000000
1295527.141389,11.000000,-8.000000,14.000000,-16.000000,-5.000000,11.000000,127.000000,97.000000
1295527.156494,1.000000,-15.000000,-23.000000,-7.000000,6.000000,11.000000,-24.000000,20.000000
1295527.156504,-2.000000,6.000000,-2.000000,-8.000000,-10.000000,-5.000000,-59.000000,-36.000000
1295527.171744,-24.000000,-33.000000,-11.000000,-6.000000,-3.000000,-2.000000,-48.000000,-24.000000
1295527.171754,-15.000000,19.000000,5.000000,10.000000,0.000000,-9.000000,3.000000,-2.000000
1295527.178752,-3.000000,-9.000000,1.000000,-23.000000,-6.000000,-3.000000,-51.000000,-15.000000
1295527.178761,9.000000,-3.000000,-5.000000,-26.000000,-5.000000,6.000000,13.000000,-8.000000
1295527.209152,22.000000,16.000000,36.000000,37.000000,19.000000,22.000000,127.000000,63.000000
1295527.209180,-32.000000,-23.000000,-42.000000,-26.000000,-7.000000,-23.000000,-128.000000,-93.000000
1295527.216993,-2.000000,34.000000,-8.000000,6.000000,-20.000000,-26.000000,127.000000,64.000000
1295527.217094,22.000000,-5.000000,11.000000,-41.000000,-9.000000,0.000000,-98.000000,46.000000
1295527.246287,-5.000000,33.000000,-2.000000,25.000000,-1.000000,-10.000000,-83.000000,-24.000000
1295527.246296,-6.000000,6.000000,8.000000,6.000000,-7.000000,-5.000000,-56.000000,-36.000000
1295527.253847,-3.000000,3.000000,-3.000000,12.000000,-7.000000,-8.000000,-10.000000,-40.000000
1295527.253857,5.000000,-27.000000,0.000000,-5.000000,-10.000000,-30.000000,-39.000000,41.000000
1295527.255215,-59.000000,-23.000000,-23.000000,-20.000000,-16.000000,4.000000,123.000000,-17.000000
1295527.255227,16.000000,-7.000000,27.000000,21.000000,8.000000,6.000000,-21.000000,31.000000
1295527.255872,7.000000,-8.000000,-27.000000,17.000000,10.000000,11.000000,64.000000,11.000000
1295527.255880,-12.000000,1.000000,-6.000000,-5.000000,-4.000000,4.000000,-63.000000,-34.000000
1295527.256990,-4.000000,-15.000000,6.000000,9.000000,5.000000,6.000000,4.000000,-8.000000
1295527.256999,-51.000000,-114.000000,-9.000000,-7.000000,1.000000,6.000000,-39.000000,-20.000000
1295527.283851,11.000000,34.000000,20.000000,-2.000000,-6.000000,-16.000000,-128.000000,-49.000000
1295527.283861,6.000000,8.000000,10.000000,-5.000000,9.000000,36.000000,127.000000,111.000000
1295527.299038,0.000000,-16.000000,-39.000000,-26.000000,1.000000,18.000000,-70.000000,7.000000
1295527.299048,-12.000000,31.000000,38.000000,-10.000000,0.000000,10.000000,-128.000000,-69.000000
1295527.328692,6.000000,0.000000,-8.000000,-12.000000,-17.000000,-40.000000,127.000000,-2.000000
1295527.328711,-6.000000,-29.000000,-7.000000,1.000000,-3.000000,-4.000000,-65.000000,-6.000000
1295527.329207,-10.000000,9.000000,-15.000000,-7.000000,-11.000000,-19.000000,-23.000000,-21.000000
1295527.329219,-10.000000,-13.000000,-6.000000,-15.000000,-6.000000,4.000000,-47.000000,-29.000000
1295527.330411,27.000000,56.000000,18.000000,-6.000000,-1.000000,21.000000,54.000000,35.000000
1295527.330420,3.000000,1.000000,20.000000,18.000000,12.000000,0.000000,46.000000,20.000000
1295527.331034,-15.000000,-43.000000,-28.000000,-6.000000,-4.000000,-2.000000,-5.000000,-27.000000
1295527.331043,23.000000,77.000000,1.000000,1.000000,9.000000,22.000000,-103.000000,-24.000000
1295527.337344,-6.000000,-3.000000,3.000000,53.000000,33.000000,3.000000,-87.000000,-46.000000
1295527.337353,-15.000000,-7.000000,-12.000000,-26.000000,-27.000000,-5.000000,-21.000000,-37.000000
1295527.366297,3.000000,-9.000000,6.000000,6.000000,7.000000,25.000000,103.000000,48.000000
1295527.366316,10.000000,-14.000000,-19.000000,40.000000,3.000000,-8.000000,10.000000,15.000000
1295527.367402,-12.000000,0.000000,-4.000000,-7.000000,2.000000,-5.000000,-99.000000,-32.000000
1295527.367419,-6.000000,-14.000000,22.000000,25.000000,-6.000000,4.000000,45.000000,2.000000
1295527.368292,2.000000,-5.000000,-12.000000,-18.000000,-5.000000,-15.000000,0.000000,-10.000000
1295527.368327,-8.000000,-8.000000,-4.000000,-30.000000,-4.000000,-9.000000,-99.000000,-22.000000
1295527.381426,4.000000,20.000000,4.000000,-9.000000,4.000000,19.000000,127.000000,40.000000
1295527.381443,2.000000,10.000000,11.000000,5.000000,9.000000,14.000000,-106.000000,-29.000000
1295527.404869,-9.000000,-23.000000,-26.000000,-28.000000,-31.000000,-54.000000,-1.000000,-24.000000
1295527.404973,43.000000,15.000000,46.000000,67.000000,43.000000,44.000000,86.000000,91.000000
1295527.418807,-15.000000,17.000000,-19.000000,-9.000000,10.000000,21.000000,4.000000,-11.000000
1295527.418820,-1.000000,28.000000,17.000000,6.000000,5.000000,13.000000,-18.000000,4.000000
1295527.426459,-19.000000,-32.000000,-16.000000,-17.000000,-8.000000,2.000000,19.000000,-11.000000
1295527.426479,18.000000,12.000000,-11.000000,41.000000,7.000000,-15.000000,-92.000000,-6.000000
1295527.441653,7.000000,33.000000,17.000000,-2.000000,4.000000,10.000000,24.000000,2.000000
1295527.441683,-6.000000,1.000000,-4.000000,0.000000,-11.000000,-11.000000,-50.000000,-27.000000
1295527.442239,-13.000000,23.000000,-14.000000,-26.000000,0.000000,4.000000,-45.000000,-18.000000
1295527.442266,26.000000,8.000000,17.000000,25.000000,28.000000,29.000000,127.000000,65.000000
1295527.443219,1.000000,25.000000,-10.000000,11.000000,1.000000,7.000000,-86.000000,-40.000000
1295527.443227,-23.000000,1.000000,-18.000000,-9.000000,-21.000000,-30.000000,-29.000000,-7.000000
1295527.448975,-1.000000,-23.000000,-8.000000,1.000000,5.000000,-11.000000,-77.000000,-1.000000
1295527.448989,7.000000,-12.000000,19.000000,-5.000000,-5.000000,1.000000,10.000000,-36.000000
1295527.457043,-9.000000,10.000000,-8.000000,-9.000000,4.000000,23.000000,127.000000,7.000000
1295527.457052,9.000000,-22.000000,-15.000000,-6.000000,3.000000,-14.000000,19.000000,72.000000
1295527.471303,17.000000,8.000000,25.000000,15.000000,0.000000,-29.000000,-90.000000,-34.000000
1295527.471326,-12.000000,16.000000,-5.000000,-25.000000,-20.000000,-2.000000,-25.000000,-35.000000
1295527.486317,13.000000,20.000000,20.000000,34.000000,20.000000,17.000000,61.000000,10.000000
1295527.486330,-21.000000,-8.000000,-18.000000,2.000000,2.000000,6.000000,-111.000000,-39.000000
1295527.487107,15.000000,41.000000,9.000000,-13.000000,-13.000000,-19.000000,26.000000,-12.000000
1295527.487117,11.000000,-18.000000,-3.000000,12.000000,-4.000000,-8.000000,35.000000,35.000000
1295527.501580,-9.000000,24.000000,-9.000000,1.000000,3.000000,2.000000,-5.000000,-18.000000
1295527.501593,26.000000,11.000000,34.000000,55.000000,27.000000,15.000000,10.000000,-3.000000
1295527.523761,-33.000000,-1.000000,-10.000000,-33.000000,-17.000000,-20.000000,-110.000000,-19.000000
1295527.523771,6.000000,14.000000,-36.000000,-34.000000,-27.000000,-11.000000,-128.000000,-60.000000
1295527.561399,15.000000,51.000000,53.000000,53.000000,15.000000,5.000000,87.000000,29.000000
1295527.561410,44.000000,-54.000000,-16.000000,-9.000000,16.000000,33.000000,127.000000,127.000000
1295527.568701,-13.000000,24.000000,16.000000,-7.000000,-5.000000,1.000000,-98.000000,-29.000000
1295527.568717,27.000000,43.000000,-24.000000,-5.000000,-13.000000,-6.000000,-69.000000,-45.000000
1295527.570013,-2.000000,-17.000000,14.000000,46.000000,23.000000,21.000000,89.000000,26.000000
1295527.570022,-23.000000,-14.000000,24.000000,36.000000,-4.000000,5.000000,-35.000000,-31.000000
1295527.570402,15.000000,5.000000,-8.000000,-6.000000,-9.000000,-15.000000,-56.000000,2.000000
1295527.570409,-10.000000,-11.000000,-11.000000,-15.000000,-7.000000,-4.000000,32.000000,14.000000
1295527.571876,33.000000,65.000000,35.000000,13.000000,24.000000,21.000000,10.000000,4.000000
1295527.571884,5.000000,32.000000,-11.000000,-22.000000,-7.000000,-14.000000,3.000000,14.000000
1295527.598826,-18.000000,-33.000000,2.000000,-8.000000,4.000000,27.000000,127.000000,115.000000
1295527.598845,22.000000,-11.000000,4.000000,1.000000,3.000000,-4.000000,-51.000000,16.000000
1295527.599299,-17.000000,14.000000,3.000000,-10.000000,-8.000000,-10.000000,-128.000000,-78.000000
1295527.599310,5.000000,7.000000,-3.000000,-25.000000,-15.000000,-31.000000,127.000000,21.000000
1295527.600642,13.000000,16.000000,7.000000,4.000000,14.000000,2.000000,-26.000000,1.000000
1295527.600665,-13.000000,-27.000000,-20.000000,-2.000000,-14.000000,-11.000000,23.000000,-4.000000
1295527.613770,6.000000,23.000000,46.000000,49.000000,16.000000,10.000000,-28.000000,-14.000000
1295527.613780,-6.000000,5.000000,-45.000000,6.000000,10.000000,-4.000000,-56.000000,-15.000000
1295527.643796,27.000000,21.000000,34.000000,5.000000,-8.000000,12.000000,103.000000,34.000000
1295527.643816,-17.000000,-36.000000,-14.000000,-5.000000,-6.000000,2.000000,-78.000000,-24.000000
1295527.651308,13.000000,53.000000,11.000000,21.000000,9.000000,14.000000,96.000000,25.000000
1295527.651318,2.000000,-7.000000,-13.000000,-37.000000,-8.000000,-5.000000,-2.000000,19.000000
1295527.681513,-28.000000,-9.000000,3.000000,62.000000,17.000000,12.000000,-128.000000,-123.000000
1295527.681701,-15.000000,19.000000,-14.000000,-54.000000,-33.000000,-115.000000,127.000000,30.000000
1295527.681964,37.000000,-14.000000,-2.000000,-2.000000,18.000000,40.000000,-68.000000,17.000000
1295527.681972,-27.000000,12.000000,6.000000,-3.000000,4.000000,21.000000,127.000000,53.000000
1295527.683464,14.000000,-8.000000,14.000000,-2.000000,1.000000,13.000000,-9.000000,21.000000
1295527.683577,-15.000000,-34.000000,-38.000000,-6.000000,-9.000000,-11.000000,-120.000000,-55.000000
1295527.683801,8.000000,36.000000,21.000000,21.000000,5.000000,0.000000,-50.000000,-28.000000
1295527.683811,-23.000000,-10.000000,-4.000000,-43.000000,-19.000000,-19.000000,-26.000000,-19.000000
1295527.685523,-25.000000,-28.000000,-11.000000,-36.000000,-10.000000,2.000000,-10.000000,-2.000000
1295527.685540,-2.000000,-14.000000,11.000000,8.000000,10.000000,9.000000,30.000000,6.000000
1295527.689089,3.000000,34.000000,19.000000,17.000000,11.000000,1.000000,-51.000000,-5.000000
1295527.689113,-18.000000,-14.000000,-26.000000,-37.000000,-20.000000,-23.000000,-53.000000,-39.000000
1295527.711938,-7.000000,18.000000,23.000000,23.000000,18.000000,67.000000,-128.000000,-100.000000
1295527.712015,120.000000,9.000000,52.000000,57.000000,50.000000,69.000000,127.000000,127.000000
1295527.712823,-16.000000,18.000000,-1.000000,-30.000000,-15.000000,-5.000000,-128.000000,-80.000000
1295527.712856,-11.000000,1.000000,-10.000000,12.000000,5.000000,13.000000,-79.000000,-54.000000
1295527.720133,5.000000,12.000000,3.000000,2.000000,-8.000000,-7.000000,-34.000000,-23.000000
1295527.720177,-19.000000,-29.000000,-18.000000,-26.000000,-13.000000,-17.000000,-20.000000,-23.000000
1295527.734299,0.000000,23.000000,8.000000,17.000000,4.000000,9.000000,29.000000,25.000000
1295527.734342,-8.000000,26.000000,8.000000,25.000000,-10.000000,-17.000000,40.000000,12.000000
1295527.749263,13.000000,-20.000000,-1.000000,27.000000,31.000000,22.000000,-48.000000,-6.000000
1295527.749276,-7.000000,-53.000000,-37.000000,-35.000000,-10.000000,-8.000000,91.000000,47.000000
1295527.764024,11.000000,9.000000,3.000000,-1.000000,0.000000,17.000000,41.000000,12.000000
1295527.764037,-37.000000,-73.000000,-51.000000,-77.000000,-51.000000,-73.000000,-9.000000,-35.000000
1295527.786884,35.000000,29.000000,2.000000,-12.000000,1.000000,15.000000,74.000000,45.000000
1295527.786937,-24.000000,16.000000,-18.000000,-11.000000,5.000000,-2.000000,-70.000000,-69.000000
1295527.787327,-15.000000,-53.000000,-9.000000,-8.000000,-16.000000,5.000000,-6.000000,-4.000000
1295527.787435,23.000000,-28.000000,9.000000,33.000000,4.000000,-27.000000,-80.000000,23.000000
1295527.788595,38.000000,86.000000,33.000000,42.000000,11.000000,41.000000,127.000000,45.000000
1295527.788603,-5.000000,-65.000000,-13.000000,-13.000000,9.000000,19.000000,-59.000000,57.000000
1295527.801350,-40.000000,-23.000000,-13.000000,-27.000000,-9.000000,3.000000,-128.000000,-63.000000
1295527.801369,-7.000000,8.000000,0.000000,7.000000,-1.000000,-44.000000,-34.000000,19.000000
1295527.838818,-10.000000,-22.000000,-14.000000,-3.000000,-5.000000,-2.000000,6.000000,-39.000000
1295527.838829,1.000000,-26.000000,38.000000,21.000000,6.000000,13.000000,30.000000,33.000000
1295527.846607,-9.000000,17.000000,-40.000000,-21.000000,-8.000000,-1.000000,-2.000000,-31.000000
1295527.846725,2.000000,17.000000,18.000000,56.000000,19.000000,11.000000,22.000000,12.000000
1295527.847289,41.000000,24.000000,18.000000,15.000000,2.000000,-13.000000,-21.000000,-4.000000
1295527.847297,-3.000000,-13.000000,-23.000000,-13.000000,4.000000,8.000000,1.000000,7.000000
1295527.847902,-13.000000,-23.000000,-26.000000,-30.000000,-9.000000,0.000000,-60.000000,-24.000000
1295527.847910,17.000000,44.000000,33.000000,68.000000,25.000000,16.000000,35.000000,-32.000000
1295527.849461,42.000000,-4.000000,0.000000,-20.000000,20.000000,33.000000,127.000000,118.000000
1295527.849476,-24.000000,-16.000000,0.000000,8.000000,-3.000000,-25.000000,-128.000000,-94.000000
1295527.853843,15.000000,-2.000000,10.000000,25.000000,-3.000000,21.000000,127.000000,57.000000
1295527.853852,-3.000000,-25.000000,-2.000000,-14.000000,3.000000,31.000000,-36.000000,26.000000
1295527.876376,6.000000,28.000000,31.000000,41.000000,26.000000,3.000000,37.000000,10.000000
1295527.876389,-7.000000,2.000000,-34.000000,-73.000000,-15.000000,0.000000,-33.000000,-29.000000
1295527.883781,-8.000000,3.000000,-8.000000,5.000000,-12.000000,-20.000000,-128.000000,-53.000000
1295527.883791,11.000000,-17.000000,21.000000,21.000000,8.000000,2.000000,127.000000,50.000000
1295527.898862,-4.000000,-10.000000,-27.000000,-57.000000,-12.000000,-14.000000,-54.000000,-14.000000
1295527.898871,16.000000,-20.000000,26.000000,90.000000,37.000000,15.000000,62.000000,38.000000
1295527.921402,-19.000000,-25.000000,-10.000000,1.000000,9.000000,22.000000,-113.000000,-47.000000
1295527.921413,8.000000,40.000000,52.000000,14.000000,-20.000000,-28.000000,2.000000,36.000000
1295527.936448,-7.000000,3.000000,-24.000000,-19.000000,1.000000,5.000000,34.000000,-6.000000
1295527.936458,-9.000000,-6.000000,-56.000000,-55.000000,-16.000000,-6.000000,-124.000000,-61.000000
1295527.959441,-34.000000,-125.000000,17.000000,63.000000,15.000000,31.000000,21.000000,28.000000
1295527.959490,11.000000,36.000000,-1.000000,9.000000,2.000000,-22.000000,109.000000,33.000000
1295527.960016,-60.000000,-15.000000,18.000000,4.000000,-12.000000,-12.000000,-128.000000,-58.000000
1295527.960031,-21.000000,10.000000,-25.000000,-11.000000,-2.000000,55.000000,73.000000,3.000000
1295527.960690,4.000000,-41.000000,-5.000000,-32.000000,-21.000000,-89.000000,26.000000,34.000000
1295527.960700,0.000000,11.000000,-12.000000,-17.000000,-7.000000,-11.000000,-22.000000,0.000000
1295527.961933,-7.000000,-26.000000,-18.000000,-29.000000,-15.000000,-6.000000,-38.000000,-29.000000
1295527.961942,-13.000000,-16.000000,-14.000000,-40.000000,-14.000000,-6.000000,-57.000000,-45.000000
1295527.962727,-3.000000,42.000000,11.000000,19.000000,6.000000,5.000000,-12.000000,3.000000
1295527.962735,-8.000000,-10.000000,18.000000,35.000000,24.000000,7.000000,-98.000000,-37.000000
1295527.973755,11.000000,-15.000000,21.000000,15.000000,5.000000,-4.000000,-25.000000,1.000000
1295527.973766,-22.000000,7.000000,-16.000000,-28.000000,-16.000000,-20.000000,-125.000000,-64.000000
1295527.996390,-9.000000,16.000000,35.000000,49.000000,6.000000,2.000000,17.000000,9.000000
1295527.996402,57.000000,-5.000000,-4.000000,-5.000000,5.000000,21.000000,72.000000,45.000000
1295528.003971,-66.000000,-62.000000,-10.000000,10.000000,-18.000000,-43.000000,-46.000000,-32.000000
1295528.003983,-14.000000,6.000000,-11.000000,-21.000000,-8.000000,15.000000,36.000000,-15.000000
1295528.026426,20.000000,16.000000,27.000000,15.000000,19.000000,10.000000,6.000000,-13.000000
1295528.026446,-28.000000,-56.000000,-34.000000,-40.000000,-35.000000,-30.000000,55.000000,80.000000
1295528.033876,-6.000000,30.000000,5.000000,21.000000,25.000000,15.000000,-77.000000,-19.000000
1295528.033886,51.000000,7.000000,-4.000000,-41.000000,-15.000000,-28.000000,17.000000,-48.000000
1295528.048656,-8.000000,-6.000000,-17.000000,-24.000000,-17.000000,-21.000000,-128.000000,-61.000000
1295528.048673,-12.000000,-16.000000,-18.000000,-29.000000,-17.000000,-13.000000,-106.000000,-29.000000
1295528.049163,34.000000,91.000000,53.000000,43.000000,5.000000,34.000000,127.000000,75.000000
1295528.049173,12.000000,-25.000000,4.000000,-11.000000,8.000000,1.000000,-128.000000,18.000000
1295528.050557,-17.000000,-38.000000,-22.000000,-36.000000,-14.000000,-21.000000,64.000000,-10.000000
1295528.050567,-14.000000,17.000000,-33.000000,-28.000000,-16.000000,-32.000000,-128.000000,-59.000000
1295528.051466,-1.000000,2.000000,-15.000000,-27.000000,-29.000000,-20.000000,60.000000,0.000000
1295528.051477,43.000000,-19.000000,11.000000,9.000000,15.000000,6.000000,58.000000,83.000000
1295528.079270,-13.000000,-16.000000,-1.000000,-12.000000,-15.000000,-20.000000,-70.000000,-25.000000
1295528.079287,-17.000000,8.000000,-17.000000,11.000000,0.000000,0.000000,-25.000000,-30.000000
1295528.079848,-22.000000,-22.000000,-8.000000,22.000000,1.000000,-6.000000,-128.000000,-90.000000
1295528.079855,5.000000,66.000000,23.000000,-48.000000,-78.000000,-110.000000,127.000000,28.000000
1295528.081331,-2.000000,-1.000000,8.000000,-44.000000,10.000000,28.000000,-1.000000,52.000000
1295528.081340,-8.000000,22.000000,-54.000000,-17.000000,-7.000000,-13.000000,-91.000000,-46.000000
1295528.101543,-22.000000,3.000000,64.000000,72.000000,21.000000,8.000000,-83.000000,-25.000000
1295528.101555,-2.000000,-31.000000,-42.000000,-4.000000,5.000000,14.000000,94.000000,22.000000
1295528.123838,15.000000,10.000000,2.000000,14.000000,6.000000,4.000000,57.000000,24.000000
1295528.123856,-9.000000,-15.000000,-21.000000,-10.000000,2.000000,13.000000,10.000000,-14.000000
1295528.131428,5.000000,14.000000,3.000000,-17.000000,-16.000000,-27.000000,-47.000000,-23.000000
1295528.131440,10.000000,18.000000,-7.000000,3.000000,-10.000000,-16.000000,-37.000000,13.000000
1295528.153812,-33.000000,-42.000000,-17.000000,-4.000000,6.000000,16.000000,124.000000,7.000000
1295528.153842,33.000000,-12.000000,21.000000,-5.000000,-5.000000,-19.000000,23.000000,34.000000
1295528.161186,-42.000000,4.000000,-17.000000,6.000000,3.000000,50.000000,-96.000000,-128.000000
1295528.161195,56.000000,47.000000,44.000000,55.000000,43.000000,33.000000,127.000000,127.000000
1295528.162260,-12.000000,-47.000000,-42.000000,-33.000000,-12.000000,-25.000000,-106.000000,-11.000000
1295528.162269,-17.000000,33.000000,-26.000000,-29.000000,-15.000000,-17.000000,-122.000000,-64.000000
1295528.162990,-3.000000,28.000000,-10.000000,-5.000000,-9.000000,-1.000000,-82.000000,-29.000000
1295528.163002,-19.000000,-4.000000,17.000000,36.000000,25.000000,31.000000,82.000000,16.000000
1295528.164393,3.000000,0.000000,-22.000000,-10.000000,-4.000000,-4.000000,-10.000000,-6.000000
1295528.164401,8.000000,11.000000,-1.000000,3.000000,-2.000000,-4.000000,-47.000000,0.000000
1295528.168773,13.000000,10.000000,12.000000,-13.000000,-10.000000,3.000000,89.000000,35.000000
1295528.168782,-1.000000,-2.000000,41.000000,59.000000,31.000000,9.000000,8.000000,1.000000
1295528.199432,-4.000000,7.000000,-16.000000,-10.000000,0.000000,21.000000,25.000000,-7.000000
1295528.199460,-27.000000,-12.000000,-32.000000,4.000000,1.000000,-43.000000,-128.000000,-52.000000
1295528.200106,27.000000,31.000000,35.000000,55.000000,9.000000,-13.000000,-8.000000,16.000000
1295528.200128,2.000000,-8.000000,-18.000000,13.000000,-11.000000,7.000000,127.000000,-1.000000
1295528.201333,22.000000,3.000000,23.000000,-3.000000,3.000000,33.000000,127.000000,96.000000
1295528.201386,-33.000000,-48.000000,-3.000000,-4.000000,4.000000,5.000000,-116.000000,-47.000000
1295528.213892,-5.000000,-8.000000,2.000000,2.000000,9.000000,-2.000000,-118.000000,-48.000000
1295528.213912,-1.000000,3.000000,-15.000000,-35.000000,6.000000,1.000000,1.000000,0.000000
1295528.244096,-17.000000,-22.000000,7.000000,4.000000,-13.000000,-8.000000,-64.000000,-54.000000
1295528.244109,47.000000,24.000000,16.000000,-1.000000,10.000000,40.000000,127.000000,120.000000
1295528.251419,19.000000,-3.000000,-4.000000,-16.000000,-6.000000,-8.000000,-70.000000,-1.000000
1295528.251436,-21.000000,-13.000000,-21.000000,-15.000000,-21.000000,-14.000000,-76.000000,-49.000000
1295528.274121,-3.000000,-15.000000,23.000000,38.000000,11.000000,22.000000,-13.000000,-12.000000
1295528.274150,-6.000000,-6.000000,-7.000000,-21.000000,-21.000000,-21.000000,3.000000,-14.000000
1295528.281639,-7.000000,1.000000,10.000000,-12.000000,-2.000000,-1.000000,27.000000,-1.000000
1295528.281668,5.000000,-12.000000,-37.000000,-22.000000,4.000000,-4.000000,-52.000000,-8.000000
1295528.318754,2.000000,25.000000,12.000000,38.000000,17.000000,40.000000,-5.000000,-33.000000
1295528.318765,23.000000,-39.000000,16.000000,6.000000,9.000000,30.000000,127.000000,109.000000
1295528.326494,-10.000000,-35.000000,-10.000000,-32.000000,-7.000000,6.000000,-3.000000,-3.000000
1295528.326505,-35.000000,-42.000000,-12.000000,-28.000000,-5.000000,1.000000,-82.000000,-25.000000
1295528.327594,3.000000,37.000000,17.000000,25.000000,8.000000,9.000000,46.000000,3.000000
1295528.327602,31.000000,-2.000000,18.000000,22.000000,-2.000000,0.000000,-4.000000,18.000000
1295528.333898,-28.000000,-4.000000,-1.000000,-16.000000,-9.000000,-4.000000,-53.000000,-55.000000
1295528.333908,-30.000000,-15.000000,-44.000000,-26.000000,-16.000000,-42.000000,-128.000000,-55.000000
1295528.364160,27.000000,5.000000,27.000000,25.000000,11.000000,1.000000,127.000000,103.000000
1295528.364188,-1.000000,-9.000000,-22.000000,2.000000,-1.000000,8.000000,-48.000000,-24.000000
1295528.379160,-10.000000,-16.000000,-57.000000,-6.000000,-12.000000,-16.000000,-40.000000,-8.000000
1295528.379191,7.000000,28.000000,19.000000,-2.000000,-13.000000,-5.000000,-52.000000,-28.000000
1295528.394085,-33.000000,-65.000000,-15.000000,-17.000000,-5.000000,-21.000000,-31.000000,-28.000000
1295528.394101,27.000000,66.000000,-5.000000,-11.000000,-12.000000,-21.000000,20.000000,19.000000
1295528.401371,21.000000,18.000000,33.000000,26.000000,13.000000,12.000000,7.000000,40.000000
1295528.401390,-29.000000,-30.000000,-7.000000,16.000000,10.000000,7.000000,30.000000,-30.000000
1295528.409258,-4.000000,-38.000000,-5.000000,1.000000,1.000000,-11.000000,-99.000000,-24.000000
1295528.409273,-19.000000,-6.000000,-7.000000,-14.000000,-9.000000,-5.000000,-66.000000,-51.000000
1295528.410689,2.000000,7.000000,5.000000,-11.000000,-11.000000,-6.000000,-3.000000,3.000000
1295528.410709,-6.000000,-12.000000,-39.000000,-20.000000,2.000000,-1.000000,14.000000,-4.000000
1295528.431936,-6.000000,-4.000000,-11.000000,-11.000000,-2.000000,-4.000000,-35.000000,-17.000000
1295528.431983,9.000000,-27.000000,-6.000000,-16.000000,-4.000000,18.000000,30.000000,9.000000
1295528.438856,6.000000,37.000000,2.000000,19.000000,12.000000,3.000000,81.000000,24.000000
1295528.438878,-10.000000,-4.000000,9.000000,8.000000,5.000000,-15.000000,-52.000000,-31.000000
1295528.476628,-16.000000,-53.000000,-34.000000,-42.000000,-29.000000,-8.000000,-56.000000,-48.000000
1295528.476659,31.000000,-30.000000,30.000000,54.000000,33.000000,31.000000,127.000000,120.000000
1295528.483673,4.000000,20.000000,7.000000,-7.000000,-2.000000,0.000000,-128.000000,-35.000000
1295528.483682,-30.000000,-12.000000,-32.000000,-35.000000,-16.000000,-13.000000,-9.000000,-37.000000
1295528.514137,-46.000000,-53.000000,-26.000000,41.000000,15.000000,8.000000,21.000000,-12.000000
1295528.514150,31.000000,-20.000000,-17.000000,-48.000000,-8.000000,9.000000,47.000000,54.000000
1295528.528807,13.000000,46.000000,32.000000,11.000000,18.000000,8.000000,-74.000000,-39.000000
1295528.528817,-11.000000,-30.000000,-7.000000,18.000000,-4.000000,-9.000000,102.000000,26.000000
1295528.544223,5.000000,-18.000000,0.000000,46.000000,24.000000,-5.000000,-61.000000,-9.000000
1295528.544238,-12.000000,34.000000,-17.000000,-26.000000,-45.000000,-74.000000,-31.000000,-39.000000
1295528.544899,17.000000,41.000000,-11.000000,3.000000,16.000000,15.000000,11.000000,-1.000000
1295528.544918,-13.000000,-2.000000,-9.000000,-19.000000,-25.000000,-54.000000,-128.000000,-65.000000
1295528.546101,17.000000,-32.000000,-28.000000,-11.000000,4.000000,15.000000,-35.000000,30.000000
1295528.546110,-46.000000,-2.000000,-22.000000,-20.000000,-33.000000,-72.000000,-45.000000,-79.000000
1295528.546658,-20.000000,20.000000,1.000000,3.000000,-6.000000,-20.000000,-65.000000,-55.000000
1295528.546665,-7.000000,-7.000000,-18.000000,-20.000000,-22.000000,-5.000000,8.000000,-2.000000
1295528.547684,22.000000,17.000000,15.000000,-7.000000,7.000000,23.000000,127.000000,95.000000
1295528.547693,-10.000000,-21.000000,8.000000,36.000000,14.000000,7.000000,-42.000000,-27.000000
1295528.551431,-2.000000,-17.000000,-16.000000,-3.000000,-13.000000,-43.000000,-46.000000,-13.000000
1295528.551492,-15.000000,-36.000000,-42.000000,-32.000000,-17.000000,-13.000000,17.000000,-8.000000
1295528.566452,-2.000000,-7.000000,-4.000000,-30.000000,-9.000000,3.000000,-124.000000,-54.000000
1295528.566481,-13.000000,18.000000,-4.000000,13.000000,-26.000000,-30.000000,105.000000,-2.000000
1295528.596462,41.000000,-36.000000,-5.000000,-23.000000,2.000000,11.000000,41.000000,75.000000
1295528.596473,-8.000000,1.000000,12.000000,-19.000000,-2.000000,0.000000,-45.000000,-15.000000
1295528.634094,-18.000000,43.000000,3.000000,-17.000000,-17.000000,-19.000000,-128.000000,-68.000000
1295528.634123,36.000000,62.000000,14.000000,-2.000000,-7.000000,-19.000000,-47.000000,-7.000000
1295528.641358,-3.000000,-11.000000,-26.000000,-24.000000,-14.000000,-6.000000,84.000000,13.000000
1295528.641376,-10.000000,-36.000000,-7.000000,15.000000,-7.000000,6.000000,53.000000,25.000000
1295528.642330,-1.000000,14.000000,-14.000000,-17.000000,-13.000000,-25.000000,-99.000000,-36.000000
1295528.642339,6.000000,-1.000000,13.000000,-32.000000,-15.000000,-12.000000,7.000000,-7.000000
1295528.642922,-6.000000,2.000000,-17.000000,-15.000000,-15.000000,-10.000000,-48.000000,-10.000000
1295528.642930,1.000000,-13.000000,10.000000,-1.000000,5.000000,1.000000,28.000000,-8.000000
1295528.644618,-6.000000,-28.000000,-53.000000,-12.000000,-6.000000,-36.000000,-25.000000,-11.000000
1295528.644627,-13.000000,-61.000000,37.000000,58.000000,16.000000,-1.000000,-128.000000,-22.000000
1295528.656278,8.000000,55.000000,29.000000,23.000000,-1.000000,-11.000000,35.000000,6.000000
1295528.656288,-17.000000,-20.000000,-7.000000,-6.000000,1.000000,11.000000,-90.000000,-52.000000
1295528.671411,-14.000000,-7.000000,-27.000000,-11.000000,-17.000000,-24.000000,14.000000,-19.000000
1295528.671422,26.000000,19.000000,5.000000,6.000000,11.000000,9.000000,114.000000,72.000000
1295528.672151,-15.000000,-16.000000,1.000000,-6.000000,-8.000000,-8.000000,-58.000000,-32.000000
1295528.672178,-17.000000,-1.000000,-58.000000,-70.000000,-23.000000,-10.000000,-58.000000,-41.000000
1295528.686394,-8.000000,-11.000000,19.000000,27.000000,-9.000000,-22.000000,-32.000000,-17.000000
1295528.686418,-8.000000,39.000000,7.000000,-4.000000,1.000000,11.000000,-7.000000,-11.000000
1295528.693999,10.000000,-2.000000,1.000000,6.000000,0.000000,-5.000000,9.000000,10.000000
1295528.694009,26.000000,22.000000,11.000000,-2.000000,19.000000,10.000000,68.000000,23.000000
1295528.716594,-43.000000,-20.000000,-6.000000,5.000000,5.000000,9.000000,-54.000000,-22.000000
1295528.716605,0.000000,-48.000000,-26.000000,-24.000000,-8.000000,18.000000,42.000000,-7.000000
1295528.723940,12.000000,-18.000000,29.000000,57.000000,11.000000,1.000000,42.000000,40.000000
1295528.723951,-6.000000,24.000000,-6.000000,-18.000000,-7.000000,-7.000000,-83.000000,-36.000000
1295528.754153,7.000000,-16.000000,25.000000,40.000000,12.000000,-5.000000,12.000000,-12.000000
1295528.754182,14.000000,14.000000,-12.000000,38.000000,19.000000,5.000000,59.000000,48.000000
1295528.761668,-9.000000,7.000000,8.000000,-12.000000,-5.000000,19.000000,-15.000000,-16.000000
1295528.761705,-38.000000,-61.000000,-43.000000,-57.000000,-27.000000,-47.000000,-52.000000,-35.000000
1295528.762635,19.000000,37.000000,39.000000,27.000000,12.000000,15.000000,41.000000,23.000000
1295528.762643,3.000000,5.000000,0.000000,5.000000,9.000000,-1.000000,-20.000000,-16.000000
1295528.763302,-12.000000,5.000000,-7.000000,-7.000000,-6.000000,-14.000000,-128.000000,-39.000000
1295528.763328,6.000000,-11.000000,0.000000,13.000000,1.000000,24.000000,127.000000,34.000000
1295528.791696,12.000000,-14.000000,3.000000,-3.000000,18.000000,19.000000,62.000000,49.000000
1295528.791712,-17.000000,39.000000,13.000000,2.000000,-10.000000,-29.000000,-128.000000,-74.000000
1295528.792340,10.000000,0.000000,-36.000000,-6.000000,-1.000000,15.000000,16.000000,1.000000
1295528.792350,36.000000,52.000000,37.000000,-35.000000,-16.000000,-38.000000,115.000000,51.000000
1295528.793622,13.000000,22.000000,-5.000000,18.000000,3.000000,3.000000,-29.000000,21.000000
1295528.793632,-55.000000,26.000000,0.000000,-11.000000,-13.000000,-12.000000,-98.000000,-79.000000
1295528.794430,-1.000000,-7.000000,-3.000000,10.000000,9.000000,26.000000,-128.000000,-80.000000
1295528.794439,99.000000,2.000000,53.000000,61.000000,26.000000,62.000000,127.000000,127.000000
1295528.806662,-16.000000,-15.000000,-13.000000,-59.000000,-13.000000,-9.000000,-128.000000,-68.000000
1295528.806675,-17.000000,5.000000,-13.000000,0.000000,-12.000000,-32.000000,-128.000000,-106.000000
1295528.828948,-9.000000,1.000000,-5.000000,-1.000000,-2.000000,18.000000,127.000000,-4.000000
1295528.828983,3.000000,7.000000,-10.000000,-6.000000,2.000000,-9.000000,-104.000000,-15.000000
1295528.874959,2.000000,1.000000,-8.000000,44.000000,12.000000,8.000000,-2.000000,20.000000
1295528.875016,-22.000000,7.000000,31.000000,4.000000,-10.000000,-23.000000,-19.000000,-9.000000
1295528.875691,4.000000,16.000000,-20.000000,32.000000,10.000000,10.000000,6.000000,-32.000000
1295528.875988,8.000000,-25.000000,44.000000,-23.000000,1.000000,3.000000,64.000000,66.000000
1295528.877695,10.000000,-10.000000,-27.000000,-18.000000,-3.000000,6.000000,93.000000,40.000000
1295528.878007,11.000000,38.000000,-2.000000,-4.000000,-4.000000,-24.000000,-107.000000,-35.000000
1295528.878783,0.000000,13.000000,-13.000000,-30.000000,-32.000000,-35.000000,-8.000000,-24.000000
1295528.878840,-3.000000,-39.000000,-12.000000,-9.000000,4.000000,-9.000000,-128.000000,-47.000000
1295528.879607,28.000000,39.000000,2.000000,-2.000000,6.000000,29.000000,127.000000,101.000000
1295528.879650,3.000000,-10.000000,3.000000,16.000000,-3.000000,-2.000000,-128.000000,-52.000000
1295528.882290,-43.000000,-10.000000,-2.000000,4.000000,2.000000,-3.000000,-107.000000,-77.000000
