# participant_id: P2
# gesture: hard
# trial_number: 2
# stream_name: Myo_EMG
# stream_type: emg
# timestamp: 20260420_131846
# samples: 5100
# duration_sec: 30.450
# nominal_sample_rate: 200.0
# effective_sample_rate: 167.46
#
timestamp,emg_1,emg_2,emg_3,emg_4,emg_5,emg_6,emg_7,emg_8
1295818.592243,105.000000,31.000000,92.000000,127.000000,105.000000,84.000000,-43.000000,-29.000000
1295818.592257,127.000000,41.000000,96.000000,6.000000,31.000000,48.000000,127.000000,127.000000
1295818.621932,-111.000000,-59.000000,-49.000000,-20.000000,-14.000000,-16.000000,-128.000000,-94.000000
1295818.621960,127.000000,127.000000,112.000000,31.000000,-1.000000,40.000000,-49.000000,43.000000
1295818.659243,56.000000,-57.000000,-38.000000,-2.000000,-11.000000,-51.000000,4.000000,-36.000000
1295818.659275,-25.000000,-39.000000,-22.000000,3.000000,-2.000000,-1.000000,-14.000000,-11.000000
1295818.659704,-6.000000,23.000000,-24.000000,-30.000000,-19.000000,-33.000000,-61.000000,-74.000000
1295818.659734,56.000000,43.000000,52.000000,127.000000,26.000000,-3.000000,-56.000000,-59.000000
1295818.660807,91.000000,16.000000,5.000000,7.000000,29.000000,53.000000,127.000000,127.000000
1295818.660815,45.000000,29.000000,58.000000,29.000000,31.000000,27.000000,8.000000,116.000000
1295818.661495,-43.000000,-18.000000,-37.000000,-44.000000,-13.000000,-10.000000,-128.000000,-99.000000
1295818.661508,-16.000000,24.000000,34.000000,110.000000,16.000000,-30.000000,46.000000,-13.000000
1295818.662237,5.000000,6.000000,2.000000,-4.000000,-27.000000,-44.000000,-99.000000,-39.000000
1295818.662251,-54.000000,-59.000000,-51.000000,-74.000000,-33.000000,29.000000,-102.000000,-41.000000
1295818.663121,50.000000,-39.000000,-37.000000,-82.000000,-33.000000,12.000000,46.000000,82.000000
1295818.663137,-57.000000,-29.000000,-13.000000,7.000000,-4.000000,-6.000000,-8.000000,-91.000000
1295818.666592,-27.000000,-1.000000,-36.000000,-33.000000,-20.000000,-41.000000,-4.000000,-75.000000
1295818.666603,-3.000000,-22.000000,-30.000000,0.000000,0.000000,42.000000,-128.000000,-61.000000
1295818.674423,-17.000000,-22.000000,15.000000,-81.000000,-14.000000,-15.000000,127.000000,115.000000
1295818.674452,-11.000000,7.000000,2.000000,-2.000000,-15.000000,-1.000000,-117.000000,-74.000000
1295818.696808,78.000000,0.000000,27.000000,48.000000,30.000000,43.000000,127.000000,110.000000
1295818.696819,-31.000000,-34.000000,-51.000000,-37.000000,-12.000000,-9.000000,-60.000000,-49.000000
1295818.741808,-7.000000,11.000000,46.000000,27.000000,-5.000000,-11.000000,-99.000000,-31.000000
1295818.741819,-62.000000,-58.000000,-1.000000,45.000000,9.000000,8.000000,-103.000000,-23.000000
1295818.749175,23.000000,-31.000000,2.000000,3.000000,0.000000,22.000000,127.000000,72.000000
1295818.749186,-17.000000,14.000000,14.000000,23.000000,7.000000,-15.000000,-128.000000,-57.000000
1295818.771821,-64.000000,-25.000000,-85.000000,-92.000000,-64.000000,-16.000000,30.000000,7.000000
1295818.771833,15.000000,-10.000000,103.000000,80.000000,57.000000,50.000000,-57.000000,-27.000000
1295818.772266,75.000000,29.000000,-4.000000,-4.000000,-16.000000,-16.000000,127.000000,108.000000
1295818.772277,-45.000000,-87.000000,-37.000000,-20.000000,-9.000000,-43.000000,-128.000000,-82.000000
1295818.773517,-7.000000,5.000000,-29.000000,-27.000000,-27.000000,-19.000000,127.000000,-11.000000
1295818.773535,24.000000,-6.000000,19.000000,-5.000000,9.000000,20.000000,19.000000,24.000000
1295818.774034,-33.000000,-55.000000,-75.000000,-32.000000,-11.000000,-31.000000,-117.000000,-60.000000
1295818.774042,8.000000,17.000000,103.000000,127.000000,46.000000,10.000000,-48.000000,-4.000000
1295818.775103,-26.000000,38.000000,-19.000000,-10.000000,1.000000,-14.000000,-128.000000,-83.000000
1295818.775120,1.000000,47.000000,17.000000,-2.000000,-13.000000,-13.000000,127.000000,43.000000
1295818.779154,37.000000,-10.000000,5.000000,52.000000,13.000000,-9.000000,-24.000000,5.000000
1295818.779164,-73.000000,-25.000000,-66.000000,-61.000000,-19.000000,-5.000000,-102.000000,-36.000000
1295818.786857,66.000000,27.000000,41.000000,30.000000,17.000000,-6.000000,6.000000,16.000000
1295818.786875,-5.000000,-15.000000,-19.000000,-11.000000,2.000000,-23.000000,-11.000000,-26.000000
1295818.794032,-28.000000,-58.000000,-30.000000,-30.000000,-35.000000,-5.000000,-48.000000,6.000000
1295818.794041,16.000000,13.000000,18.000000,21.000000,11.000000,38.000000,127.000000,93.000000
1295818.816838,-28.000000,-11.000000,-10.000000,-34.000000,-27.000000,-31.000000,-128.000000,-100.000000
1295818.816849,38.000000,35.000000,8.000000,18.000000,23.000000,46.000000,127.000000,60.000000
1295818.839377,9.000000,-30.000000,23.000000,-7.000000,-6.000000,-38.000000,-106.000000,-14.000000
1295818.839395,12.000000,11.000000,-6.000000,19.000000,1.000000,-4.000000,-128.000000,-41.000000
1295818.861988,-126.000000,-41.000000,-23.000000,-53.000000,-14.000000,29.000000,127.000000,6.000000
1295818.862001,10.000000,44.000000,7.000000,54.000000,3.000000,13.000000,-75.000000,-14.000000
1295818.884454,32.000000,0.000000,8.000000,9.000000,-5.000000,-56.000000,19.000000,-15.000000
1295818.884465,-11.000000,13.000000,-1.000000,-17.000000,6.000000,35.000000,-5.000000,8.000000
1295818.899720,12.000000,35.000000,-27.000000,-28.000000,-7.000000,-16.000000,-107.000000,-56.000000
1295818.899752,45.000000,21.000000,-9.000000,-13.000000,-18.000000,30.000000,127.000000,103.000000
1295818.900699,-56.000000,-18.000000,14.000000,92.000000,26.000000,-11.000000,-128.000000,-39.000000
1295818.900726,15.000000,-29.000000,14.000000,8.000000,-8.000000,7.000000,94.000000,33.000000
1295818.901247,-28.000000,9.000000,15.000000,5.000000,1.000000,0.000000,-3.000000,18.000000
1295818.901255,-52.000000,-9.000000,-9.000000,-21.000000,-18.000000,-21.000000,-78.000000,-43.000000
1295818.901843,-27.000000,-35.000000,-4.000000,11.000000,-1.000000,-6.000000,-22.000000,-33.000000
1295818.901870,-16.000000,12.000000,-21.000000,-43.000000,-22.000000,-10.000000,-42.000000,-22.000000
1295818.902328,13.000000,8.000000,31.000000,59.000000,21.000000,-1.000000,32.000000,23.000000
1295818.902354,-3.000000,-1.000000,15.000000,3.000000,0.000000,-1.000000,-17.000000,-9.000000
1295818.903136,9.000000,-16.000000,-45.000000,-20.000000,-11.000000,-4.000000,3.000000,-5.000000
1295818.903144,-8.000000,-3.000000,34.000000,-4.000000,-13.000000,-15.000000,-83.000000,-13.000000
1295818.906447,-8.000000,-11.000000,-16.000000,-7.000000,-2.000000,-4.000000,85.000000,-15.000000
1295818.906455,-54.000000,-18.000000,-108.000000,-128.000000,-57.000000,-60.000000,-128.000000,-108.000000
1295818.921789,65.000000,64.000000,95.000000,127.000000,114.000000,115.000000,127.000000,127.000000
1295818.921813,49.000000,-8.000000,-14.000000,-19.000000,13.000000,31.000000,-128.000000,35.000000
1295818.936851,-21.000000,-22.000000,-32.000000,-27.000000,-10.000000,1.000000,-53.000000,-74.000000
1295818.936870,-51.000000,18.000000,-1.000000,-3.000000,4.000000,14.000000,-128.000000,-89.000000
1295818.952003,63.000000,0.000000,-7.000000,-1.000000,-37.000000,-16.000000,127.000000,102.000000
1295818.952031,-87.000000,-83.000000,7.000000,41.000000,11.000000,-1.000000,21.000000,-7.000000
1295818.959742,8.000000,63.000000,14.000000,6.000000,3.000000,3.000000,-37.000000,-30.000000
1295818.959773,-4.000000,-23.000000,-35.000000,-4.000000,-6.000000,-5.000000,-22.000000,-18.000000
1295818.981676,-26.000000,-27.000000,-114.000000,-107.000000,-55.000000,-28.000000,-16.000000,-22.000000
1295818.981686,17.000000,34.000000,127.000000,82.000000,73.000000,50.000000,-5.000000,11.000000
1295818.997034,14.000000,30.000000,21.000000,1.000000,9.000000,12.000000,-63.000000,6.000000
1295818.997063,-4.000000,-25.000000,-40.000000,-17.000000,-2.000000,13.000000,123.000000,22.000000
1295819.019386,-14.000000,-15.000000,-29.000000,-23.000000,-7.000000,-4.000000,-108.000000,-43.000000
1295819.019397,1.000000,8.000000,7.000000,-4.000000,-8.000000,-23.000000,127.000000,70.000000
1295819.026838,17.000000,-3.000000,19.000000,30.000000,17.000000,19.000000,-1.000000,18.000000
1295819.026847,-11.000000,0.000000,-5.000000,-32.000000,-11.000000,9.000000,-128.000000,-85.000000
1295819.056889,59.000000,13.000000,19.000000,49.000000,26.000000,47.000000,127.000000,127.000000
1295819.056902,-10.000000,-3.000000,-7.000000,-5.000000,1.000000,-10.000000,-63.000000,-33.000000
1295819.057242,-11.000000,4.000000,-11.000000,-8.000000,-8.000000,-7.000000,-65.000000,-41.000000
1295819.057252,-55.000000,7.000000,-48.000000,-40.000000,-18.000000,7.000000,-41.000000,-38.000000
1295819.057969,46.000000,5.000000,102.000000,92.000000,11.000000,0.000000,97.000000,41.000000
1295819.057980,-11.000000,-54.000000,-19.000000,-26.000000,-3.000000,-8.000000,-8.000000,3.000000
1295819.058598,-14.000000,-3.000000,-14.000000,-24.000000,-8.000000,-11.000000,-73.000000,-41.000000
1295819.058618,-3.000000,-23.000000,-42.000000,-12.000000,-7.000000,12.000000,71.000000,24.000000
1295819.059181,11.000000,55.000000,51.000000,42.000000,9.000000,0.000000,-100.000000,-5.000000
1295819.059201,2.000000,-39.000000,-41.000000,-68.000000,-29.000000,-4.000000,-2.000000,-27.000000
1295819.059986,-77.000000,27.000000,3.000000,40.000000,20.000000,-12.000000,-7.000000,-35.000000
1295819.060001,45.000000,31.000000,12.000000,5.000000,5.000000,21.000000,1.000000,41.000000
1295819.064090,-14.000000,2.000000,-12.000000,-45.000000,-9.000000,17.000000,-6.000000,-1.000000
1295819.064125,14.000000,-36.000000,-2.000000,63.000000,19.000000,-7.000000,-15.000000,-4.000000
1295819.086762,-6.000000,46.000000,24.000000,21.000000,-7.000000,-16.000000,-10.000000,-22.000000
1295819.086772,26.000000,25.000000,-14.000000,-16.000000,-12.000000,-26.000000,-16.000000,6.000000
1295819.094457,-30.000000,-37.000000,-9.000000,-6.000000,10.000000,8.000000,-128.000000,-87.000000
1295819.094468,27.000000,0.000000,15.000000,23.000000,-5.000000,10.000000,127.000000,121.000000
1295819.102508,7.000000,-7.000000,2.000000,-13.000000,-1.000000,4.000000,-43.000000,13.000000
1295819.102535,-32.000000,0.000000,-3.000000,-2.000000,-4.000000,-15.000000,-70.000000,-42.000000
1295819.139363,10.000000,-17.000000,8.000000,-1.000000,8.000000,17.000000,-24.000000,-21.000000
1295819.139375,-14.000000,43.000000,-3.000000,-27.000000,-17.000000,-11.000000,-68.000000,-30.000000
1295819.140311,-12.000000,52.000000,14.000000,3.000000,11.000000,26.000000,127.000000,26.000000
1295819.140319,-4.000000,-40.000000,8.000000,31.000000,11.000000,14.000000,-6.000000,6.000000
1295819.140953,1.000000,35.000000,-3.000000,-7.000000,-12.000000,-14.000000,4.000000,8.000000
1295819.140961,-25.000000,-6.000000,-3.000000,5.000000,-2.000000,-8.000000,-24.000000,-19.000000
1295819.142499,-33.000000,2.000000,15.000000,-1.000000,-7.000000,-21.000000,2.000000,1.000000
1295819.142507,-11.000000,-23.000000,-22.000000,-17.000000,-10.000000,-3.000000,12.000000,-4.000000
1295819.154331,-1.000000,30.000000,10.000000,-7.000000,0.000000,3.000000,-19.000000,-9.000000
1295819.154349,-2.000000,22.000000,0.000000,-9.000000,-12.000000,-7.000000,6.000000,-17.000000
1295819.161980,-1.000000,54.000000,-22.000000,-10.000000,-7.000000,9.000000,-128.000000,-42.000000
1295819.162012,-15.000000,-87.000000,-9.000000,-18.000000,3.000000,-21.000000,127.000000,60.000000
1295819.199495,4.000000,41.000000,26.000000,12.000000,4.000000,-17.000000,-98.000000,18.000000
1295819.199508,0.000000,29.000000,17.000000,21.000000,22.000000,6.000000,-128.000000,-96.000000
1295819.214335,-58.000000,-13.000000,-10.000000,-34.000000,-25.000000,-20.000000,127.000000,75.000000
1295819.214351,3.000000,8.000000,-8.000000,-12.000000,5.000000,-2.000000,-72.000000,6.000000
1295819.229528,-13.000000,-27.000000,-7.000000,-12.000000,-9.000000,-10.000000,-68.000000,-48.000000
1295819.229559,-32.000000,-5.000000,-6.000000,-12.000000,-5.000000,-13.000000,-85.000000,-32.000000
1295819.230076,51.000000,13.000000,1.000000,-4.000000,-8.000000,-6.000000,40.000000,22.000000
1295819.230084,7.000000,-7.000000,5.000000,7.000000,3.000000,8.000000,-15.000000,-16.000000
1295819.231131,-35.000000,-10.000000,4.000000,-3.000000,-8.000000,-5.000000,44.000000,22.000000
1295819.231161,9.000000,16.000000,24.000000,54.000000,26.000000,14.000000,-7.000000,-30.000000
1295819.231856,-27.000000,0.000000,-3.000000,-28.000000,-30.000000,-29.000000,-31.000000,-84.000000
1295819.231865,39.000000,45.000000,6.000000,-8.000000,5.000000,30.000000,127.000000,127.000000
1295819.237242,10.000000,-15.000000,-4.000000,-9.000000,5.000000,9.000000,21.000000,26.000000
1295819.237254,-17.000000,-2.000000,-20.000000,-31.000000,-20.000000,-22.000000,-41.000000,-30.000000
1295819.252350,38.000000,-19.000000,7.000000,-40.000000,-16.000000,-32.000000,20.000000,43.000000
1295819.252359,-40.000000,-11.000000,-6.000000,-18.000000,-4.000000,5.000000,-19.000000,-30.000000
1295819.259182,6.000000,8.000000,-14.000000,-21.000000,-11.000000,-10.000000,-21.000000,-11.000000
1295819.259206,10.000000,1.000000,2.000000,-5.000000,2.000000,-12.000000,-71.000000,-13.000000
1295819.296633,3.000000,7.000000,-16.000000,1.000000,1.000000,10.000000,100.000000,26.000000
1295819.296647,5.000000,9.000000,27.000000,2.000000,7.000000,16.000000,-3.000000,-3.000000
1295819.304362,-32.000000,-11.000000,-16.000000,-3.000000,-18.000000,-52.000000,-128.000000,-77.000000
1295819.304375,18.000000,18.000000,7.000000,-1.000000,-4.000000,6.000000,127.000000,67.000000
1295819.334361,39.000000,-9.000000,-19.000000,-26.000000,-1.000000,2.000000,-18.000000,74.000000
1295819.334420,-45.000000,-31.000000,58.000000,94.000000,13.000000,-19.000000,-128.000000,-81.000000
1295819.334743,42.000000,15.000000,0.000000,-4.000000,0.000000,3.000000,78.000000,53.000000
1295819.334755,-46.000000,24.000000,-27.000000,-42.000000,-21.000000,13.000000,-128.000000,-100.000000
1295819.336167,17.000000,15.000000,18.000000,27.000000,1.000000,-8.000000,127.000000,67.000000
1295819.336184,7.000000,-32.000000,-7.000000,-4.000000,12.000000,14.000000,-3.000000,66.000000
1295819.336736,-32.000000,-16.000000,-20.000000,-17.000000,-15.000000,-18.000000,-115.000000,-50.000000
1295819.336747,6.000000,-16.000000,-13.000000,-14.000000,-16.000000,-23.000000,-110.000000,-44.000000
1295819.349904,0.000000,26.000000,33.000000,29.000000,4.000000,9.000000,24.000000,23.000000
1295819.349918,19.000000,17.000000,-14.000000,-3.000000,-1.000000,4.000000,33.000000,7.000000
1295819.364217,-22.000000,-14.000000,-21.000000,-68.000000,-39.000000,-76.000000,-128.000000,-50.000000
1295819.364227,-1.000000,-57.000000,-11.000000,17.000000,25.000000,37.000000,127.000000,-11.000000
1295819.372640,2.000000,-22.000000,-6.000000,-16.000000,12.000000,29.000000,41.000000,78.000000
1295819.372667,-29.000000,-6.000000,-8.000000,-11.000000,-1.000000,-1.000000,2.000000,3.000000
1295819.379407,-5.000000,-1.000000,-8.000000,-24.000000,-14.000000,-2.000000,-56.000000,-25.000000
1295819.379436,-6.000000,-1.000000,4.000000,11.000000,3.000000,-4.000000,36.000000,10.000000
1295819.394202,-47.000000,-17.000000,-17.000000,-13.000000,-8.000000,19.000000,-7.000000,-14.000000
1295819.394212,-17.000000,-26.000000,-8.000000,-9.000000,1.000000,0.000000,-98.000000,-17.000000
1295819.417088,20.000000,18.000000,16.000000,4.000000,2.000000,28.000000,103.000000,9.000000
1295819.417116,-19.000000,-11.000000,-21.000000,-5.000000,-6.000000,-21.000000,13.000000,-9.000000
1295819.454325,19.000000,-4.000000,4.000000,3.000000,2.000000,-12.000000,-128.000000,-4.000000
1295819.454344,2.000000,9.000000,12.000000,3.000000,1.000000,25.000000,127.000000,73.000000
1295819.454674,-21.000000,-18.000000,-22.000000,-4.000000,-6.000000,-9.000000,-88.000000,-49.000000
1295819.454690,-19.000000,2.000000,-7.000000,27.000000,12.000000,-6.000000,-128.000000,-68.000000
1295819.455849,56.000000,24.000000,12.000000,-33.000000,-6.000000,67.000000,127.000000,105.000000
1295819.455858,2.000000,3.000000,7.000000,1.000000,-25.000000,-50.000000,38.000000,8.000000
1295819.456532,-17.000000,-11.000000,-25.000000,-26.000000,-15.000000,-24.000000,-108.000000,-31.000000
1295819.456542,-3.000000,-13.000000,-38.000000,-32.000000,-11.000000,-25.000000,100.000000,-5.000000
1295819.458033,-2.000000,-4.000000,19.000000,3.000000,8.000000,7.000000,-47.000000,8.000000
1295819.458054,4.000000,25.000000,-8.000000,-14.000000,-17.000000,-19.000000,127.000000,11.000000
1295819.491886,42.000000,22.000000,-8.000000,-8.000000,51.000000,72.000000,127.000000,127.000000
1295819.491909,-32.000000,-34.000000,-53.000000,7.000000,-22.000000,-17.000000,-128.000000,-60.000000
1295819.499143,10.000000,25.000000,62.000000,29.000000,6.000000,-7.000000,127.000000,-2.000000
1295819.499154,6.000000,-10.000000,-14.000000,-34.000000,-10.000000,-13.000000,-78.000000,-26.000000
1295819.529500,-55.000000,-18.000000,-24.000000,11.000000,12.000000,38.000000,74.000000,-28.000000
1295819.529524,19.000000,23.000000,103.000000,59.000000,28.000000,3.000000,37.000000,34.000000
1295819.536836,-11.000000,-8.000000,-64.000000,-30.000000,-14.000000,10.000000,-42.000000,-20.000000
1295819.536859,31.000000,11.000000,13.000000,-10.000000,1.000000,-20.000000,51.000000,21.000000
1295819.574333,12.000000,15.000000,57.000000,-29.000000,-29.000000,-52.000000,-128.000000,38.000000
1295819.574354,8.000000,-11.000000,59.000000,12.000000,-4.000000,-49.000000,106.000000,-16.000000
1295819.581701,4.000000,-24.000000,-52.000000,14.000000,0.000000,24.000000,-15.000000,3.000000
1295819.581717,-25.000000,-8.000000,1.000000,-30.000000,-25.000000,-21.000000,-39.000000,-11.000000
1295819.582769,30.000000,-30.000000,-43.000000,-9.000000,-3.000000,-14.000000,22.000000,33.000000
1295819.582776,15.000000,44.000000,1.000000,-7.000000,0.000000,-6.000000,-39.000000,-2.000000
1295819.584212,-1.000000,14.000000,31.000000,-3.000000,23.000000,14.000000,-68.000000,-18.000000
1295819.584222,-6.000000,-2.000000,16.000000,-24.000000,-14.000000,-12.000000,71.000000,1.000000
1295819.604595,-8.000000,1.000000,16.000000,-9.000000,-9.000000,-9.000000,-65.000000,-22.000000
1295819.604624,-1.000000,3.000000,-7.000000,25.000000,-3.000000,14.000000,-19.000000,-3.000000
1295819.611914,1.000000,6.000000,31.000000,18.000000,13.000000,-1.000000,-6.000000,2.000000
1295819.611942,-21.000000,-19.000000,-68.000000,-25.000000,-8.000000,-1.000000,-123.000000,-21.000000
1295819.619636,13.000000,12.000000,-3.000000,-32.000000,-2.000000,8.000000,50.000000,9.000000
1295819.619646,-29.000000,-9.000000,20.000000,8.000000,1.000000,-15.000000,56.000000,23.000000
1295819.620427,1.000000,11.000000,-4.000000,-1.000000,-5.000000,-11.000000,-76.000000,-22.000000
1295819.620436,-8.000000,-19.000000,9.000000,-29.000000,-20.000000,-28.000000,-31.000000,-8.000000
1295819.649485,34.000000,-4.000000,-23.000000,0.000000,-4.000000,31.000000,79.000000,21.000000
1295819.649496,-11.000000,14.000000,41.000000,-12.000000,3.000000,-53.000000,-111.000000,-23.000000
1295819.656991,-11.000000,-7.000000,-60.000000,-8.000000,7.000000,27.000000,18.000000,-29.000000
1295819.657003,77.000000,26.000000,-2.000000,-14.000000,7.000000,18.000000,-6.000000,87.000000
1295819.679377,-21.000000,-13.000000,32.000000,-6.000000,-5.000000,-22.000000,27.000000,7.000000
1295819.679391,2.000000,0.000000,-31.000000,-2.000000,0.000000,10.000000,11.000000,-24.000000
1295819.702079,0.000000,-11.000000,18.000000,8.000000,5.000000,5.000000,-44.000000,-11.000000
1295819.702092,-36.000000,20.000000,9.000000,13.000000,-4.000000,-40.000000,-120.000000,-68.000000
1295819.731811,11.000000,23.000000,18.000000,12.000000,17.000000,36.000000,127.000000,47.000000
1295819.731821,-30.000000,-22.000000,14.000000,-14.000000,-5.000000,-26.000000,-17.000000,-7.000000
1295819.739645,-41.000000,-13.000000,-17.000000,4.000000,3.000000,11.000000,-65.000000,-39.000000
1295819.739673,33.000000,30.000000,0.000000,2.000000,-1.000000,25.000000,-7.000000,-28.000000
1295819.754875,-23.000000,-30.000000,-14.000000,-30.000000,-29.000000,-67.000000,-5.000000,32.000000
1295819.754891,6.000000,24.000000,32.000000,4.000000,0.000000,-37.000000,-21.000000,-3.000000
1295819.755486,-29.000000,-8.000000,3.000000,2.000000,-14.000000,5.000000,-46.000000,-50.000000
1295819.755503,-7.000000,-11.000000,-43.000000,-20.000000,-12.000000,-28.000000,26.000000,35.000000
1295819.756101,-13.000000,-1.000000,38.000000,41.000000,7.000000,7.000000,42.000000,-24.000000
1295819.756130,-5.000000,-37.000000,3.000000,-7.000000,3.000000,-6.000000,14.000000,37.000000
1295819.769477,-33.000000,-39.000000,-9.000000,-23.000000,-27.000000,-50.000000,84.000000,-5.000000
1295819.769491,33.000000,6.000000,11.000000,-9.000000,-5.000000,-7.000000,60.000000,70.000000
1295819.770343,-15.000000,-11.000000,16.000000,4.000000,-4.000000,4.000000,-19.000000,-19.000000
1295819.770359,-19.000000,-24.000000,-55.000000,-13.000000,-5.000000,-13.000000,-41.000000,-28.000000
1295819.771715,16.000000,24.000000,-14.000000,1.000000,4.000000,6.000000,54.000000,33.000000
1295819.771724,0.000000,1.000000,64.000000,16.000000,8.000000,18.000000,11.000000,6.000000
1295819.776632,3.000000,2.000000,67.000000,0.000000,-5.000000,-14.000000,-64.000000,-2.000000
1295819.776641,-2.000000,0.000000,-56.000000,-11.000000,-3.000000,-5.000000,35.000000,4.000000
1295819.806624,3.000000,-16.000000,-35.000000,4.000000,6.000000,9.000000,-9.000000,-6.000000
1295819.806638,-11.000000,-20.000000,-92.000000,-30.000000,-22.000000,-37.000000,-45.000000,13.000000
1295819.807067,19.000000,36.000000,33.000000,8.000000,16.000000,87.000000,57.000000,-16.000000
1295819.807075,-15.000000,-59.000000,-94.000000,-13.000000,-6.000000,-27.000000,-37.000000,3.000000
1295819.808661,9.000000,12.000000,-1.000000,0.000000,2.000000,22.000000,3.000000,-23.000000
1295819.808688,14.000000,6.000000,-18.000000,9.000000,3.000000,9.000000,-1.000000,-4.000000
1295819.829423,-20.000000,3.000000,-66.000000,-14.000000,-3.000000,-3.000000,16.000000,10.000000
1295819.829451,3.000000,5.000000,-87.000000,21.000000,10.000000,12.000000,-11.000000,-4.000000
1295819.844687,-7.000000,-12.000000,58.000000,-6.000000,-9.000000,-25.000000,29.000000,-5.000000
1295819.844700,6.000000,-20.000000,-128.000000,-13.000000,-17.000000,17.000000,30.000000,36.000000
1295819.851901,7.000000,23.000000,127.000000,28.000000,12.000000,-11.000000,3.000000,19.000000
1295819.851911,-6.000000,-9.000000,115.000000,-2.000000,12.000000,1.000000,-25.000000,-6.000000
1295819.866839,-16.000000,10.000000,-2.000000,-14.000000,-4.000000,-13.000000,15.000000,-7.000000
1295819.866869,15.000000,-3.000000,-9.000000,3.000000,-4.000000,2.000000,-14.000000,30.000000
1295819.881976,-43.000000,-8.000000,10.000000,3.000000,9.000000,3.000000,-76.000000,-89.000000
1295819.881988,9.000000,-27.000000,-21.000000,-15.000000,-12.000000,32.000000,76.000000,34.000000
1295819.896995,1.000000,-2.000000,-51.000000,20.000000,-7.000000,0.000000,25.000000,20.000000
1295819.897018,-10.000000,-5.000000,111.000000,-26.000000,-13.000000,-6.000000,-22.000000,16.000000
1295819.904343,-16.000000,-45.000000,-128.000000,-7.000000,-5.000000,14.000000,-24.000000,-26.000000
1295819.904354,-22.000000,10.000000,16.000000,30.000000,26.000000,-74.000000,-34.000000,-10.000000
1295819.919615,12.000000,26.000000,54.000000,-4.000000,6.000000,76.000000,48.000000,29.000000
1295819.919638,-21.000000,-74.000000,-27.000000,-54.000000,-33.000000,17.000000,-6.000000,-13.000000
1295819.920280,10.000000,16.000000,46.000000,90.000000,48.000000,44.000000,35.000000,8.000000
1295819.920289,-10.000000,-33.000000,-100.000000,-73.000000,-54.000000,-46.000000,-14.000000,-10.000000
1295819.927084,-26.000000,-61.000000,-128.000000,-35.000000,-12.000000,2.000000,-57.000000,-17.000000
1295819.927093,29.000000,40.000000,-128.000000,30.000000,34.000000,24.000000,24.000000,11.000000
1295819.927726,2.000000,6.000000,1.000000,14.000000,18.000000,46.000000,55.000000,19.000000
1295819.927747,13.000000,5.000000,101.000000,42.000000,55.000000,-13.000000,-36.000000,12.000000
1295819.929357,-40.000000,-42.000000,-81.000000,-92.000000,-110.000000,-77.000000,41.000000,-39.000000
1295819.929365,50.000000,21.000000,-45.000000,30.000000,35.000000,42.000000,26.000000,42.000000
1295819.956732,20.000000,33.000000,79.000000,30.000000,14.000000,-1.000000,-10.000000,2.000000
1295819.956750,-11.000000,-81.000000,-128.000000,-50.000000,-21.000000,50.000000,-16.000000,5.000000
1295819.979497,-4.000000,10.000000,-128.000000,13.000000,28.000000,68.000000,7.000000,-20.000000
1295819.979526,27.000000,21.000000,39.000000,23.000000,25.000000,23.000000,-24.000000,8.000000
1295819.994871,1.000000,-11.000000,-78.000000,-24.000000,-12.000000,-24.000000,19.000000,16.000000
1295819.994888,22.000000,48.000000,127.000000,31.000000,-3.000000,-3.000000,33.000000,2.000000
1295820.016723,1.000000,16.000000,44.000000,29.000000,-5.000000,6.000000,-16.000000,-11.000000
1295820.016738,-20.000000,-16.000000,-117.000000,-21.000000,8.000000,14.000000,2.000000,-1.000000
1295820.046657,2.000000,-54.000000,-128.000000,-34.000000,-5.000000,10.000000,-31.000000,-8.000000
1295820.046684,0.000000,36.000000,23.000000,50.000000,27.000000,37.000000,14.000000,-14.000000
1295820.047936,-1.000000,-33.000000,-108.000000,-42.000000,-18.000000,-2.000000,-1.000000,33.000000
1295820.047956,-30.000000,2.000000,11.000000,-11.000000,-16.000000,-21.000000,0.000000,-15.000000
1295820.048656,8.000000,18.000000,-13.000000,22.000000,11.000000,2.000000,-23.000000,2.000000
1295820.048672,-5.000000,-32.000000,-86.000000,-27.000000,-18.000000,1.000000,0.000000,-2.000000
1295820.050502,6.000000,13.000000,-98.000000,28.000000,23.000000,-31.000000,-21.000000,-8.000000
1295820.050511,10.000000,26.000000,127.000000,1.000000,-22.000000,-30.000000,-14.000000,-3.000000
1295820.062180,19.000000,2.000000,7.000000,-5.000000,-21.000000,-27.000000,79.000000,51.000000
1295820.062189,7.000000,28.000000,48.000000,14.000000,13.000000,-13.000000,-3.000000,39.000000
1295820.084824,-8.000000,4.000000,35.000000,-8.000000,2.000000,1.000000,-18.000000,-60.000000
1295820.084846,-42.000000,-34.000000,11.000000,17.000000,9.000000,-19.000000,-5.000000,-37.000000
1295820.091664,2.000000,4.000000,-22.000000,14.000000,11.000000,21.000000,-106.000000,-26.000000
1295820.091673,47.000000,26.000000,13.000000,12.000000,23.000000,66.000000,127.000000,84.000000
1295820.122112,-37.000000,-18.000000,13.000000,-1.000000,10.000000,11.000000,-35.000000,84.000000
1295820.122140,-45.000000,-17.000000,-28.000000,-32.000000,-50.000000,-51.000000,-47.000000,-90.000000
1295820.129392,31.000000,3.000000,-25.000000,-6.000000,-4.000000,-15.000000,-54.000000,-9.000000
1295820.129457,2.000000,18.000000,30.000000,-14.000000,-6.000000,4.000000,35.000000,36.000000
1295820.159201,-13.000000,0.000000,19.000000,2.000000,10.000000,-1.000000,-65.000000,-51.000000
1295820.159225,-2.000000,4.000000,58.000000,41.000000,-2.000000,-17.000000,30.000000,24.000000
1295820.166831,-7.000000,18.000000,56.000000,-10.000000,-3.000000,18.000000,52.000000,21.000000
1295820.166857,-12.000000,-28.000000,-42.000000,-24.000000,-10.000000,-12.000000,-24.000000,-14.000000
1295820.167795,-12.000000,-11.000000,-34.000000,-16.000000,-6.000000,26.000000,-25.000000,-17.000000
1295820.167803,4.000000,16.000000,-7.000000,1.000000,1.000000,-5.000000,-12.000000,-7.000000
1295820.168446,-15.000000,-9.000000,0.000000,-11.000000,-10.000000,-15.000000,113.000000,25.000000
1295820.168454,20.000000,3.000000,1.000000,-10.000000,-10.000000,2.000000,-79.000000,-12.000000
1295820.169970,-29.000000,-4.000000,-8.000000,3.000000,7.000000,3.000000,108.000000,51.000000
1295820.169978,31.000000,-7.000000,-14.000000,5.000000,-1.000000,-24.000000,-71.000000,-25.000000
1295820.181858,80.000000,11.000000,36.000000,37.000000,22.000000,7.000000,42.000000,17.000000
1295820.181868,-26.000000,5.000000,-50.000000,4.000000,9.000000,44.000000,-47.000000,-11.000000
1295820.204335,-2.000000,-17.000000,5.000000,-16.000000,-19.000000,-24.000000,-128.000000,-43.000000
1295820.204353,-29.000000,-8.000000,-36.000000,2.000000,10.000000,3.000000,85.000000,2.000000
1295820.211667,-2.000000,17.000000,12.000000,0.000000,-1.000000,27.000000,-11.000000,9.000000
1295820.211684,29.000000,8.000000,3.000000,-3.000000,2.000000,-53.000000,73.000000,69.000000
1295820.249378,59.000000,-13.000000,-2.000000,1.000000,-11.000000,-46.000000,21.000000,-25.000000
1295820.249388,-55.000000,-13.000000,-60.000000,-37.000000,-5.000000,62.000000,28.000000,-17.000000
1295820.272558,127.000000,34.000000,3.000000,29.000000,-1.000000,-10.000000,-93.000000,-19.000000
1295820.272579,-15.000000,0.000000,10.000000,12.000000,10.000000,-32.000000,1.000000,-25.000000
1295820.294181,-20.000000,-9.000000,-6.000000,-23.000000,-14.000000,-52.000000,-128.000000,-56.000000
1295820.294200,-5.000000,-13.000000,-16.000000,3.000000,3.000000,65.000000,127.000000,23.000000
1295820.309514,-23.000000,2.000000,22.000000,-33.000000,-12.000000,-9.000000,93.000000,68.000000
1295820.309545,-96.000000,4.000000,-25.000000,27.000000,11.000000,-4.000000,-63.000000,-15.000000
1295820.310584,44.000000,41.000000,16.000000,7.000000,23.000000,17.000000,-2.000000,14.000000
1295820.310610,99.000000,20.000000,-24.000000,-30.000000,-30.000000,0.000000,26.000000,25.000000
1295820.311178,127.000000,53.000000,-8.000000,-8.000000,-7.000000,-12.000000,12.000000,35.000000
1295820.311199,65.000000,-3.000000,15.000000,-36.000000,-10.000000,20.000000,10.000000,-17.000000
1295820.312285,-125.000000,-8.000000,-43.000000,-20.000000,0.000000,-16.000000,-18.000000,-24.000000
1295820.312311,50.000000,-21.000000,-2.000000,8.000000,-3.000000,-1.000000,-17.000000,-19.000000
1295820.331943,-4.000000,17.000000,72.000000,12.000000,-27.000000,-80.000000,-4.000000,54.000000
1295820.331967,-103.000000,-25.000000,4.000000,17.000000,30.000000,11.000000,-19.000000,-56.000000
1295820.361854,109.000000,37.000000,-18.000000,-2.000000,6.000000,3.000000,2.000000,60.000000
1295820.361865,-117.000000,-93.000000,-39.000000,-41.000000,-32.000000,-33.000000,-96.000000,-73.000000
1295820.369211,127.000000,40.000000,30.000000,24.000000,2.000000,-27.000000,39.000000,-18.000000
1295820.369221,127.000000,62.000000,-18.000000,33.000000,3.000000,-5.000000,-3.000000,9.000000
1295820.406683,127.000000,49.000000,24.000000,-5.000000,-6.000000,-2.000000,-36.000000,26.000000
1295820.406711,76.000000,10.000000,4.000000,-1.000000,8.000000,12.000000,44.000000,2.000000
1295820.407299,-74.000000,20.000000,16.000000,6.000000,5.000000,-20.000000,-61.000000,-9.000000
1295820.407328,3.000000,-13.000000,7.000000,3.000000,-18.000000,-17.000000,22.000000,-14.000000
1295820.408423,-2.000000,2.000000,6.000000,28.000000,33.000000,21.000000,27.000000,23.000000
1295820.408449,-30.000000,-26.000000,-31.000000,-29.000000,-12.000000,-18.000000,44.000000,36.000000
1295820.409239,-18.000000,1.000000,23.000000,-4.000000,-1.000000,7.000000,-20.000000,-26.000000
1295820.409265,-66.000000,11.000000,27.000000,-12.000000,-11.000000,-14.000000,-41.000000,-51.000000
1295820.437066,60.000000,14.000000,-25.000000,36.000000,23.000000,40.000000,82.000000,21.000000
1295820.437087,-33.000000,-75.000000,-117.000000,-67.000000,-18.000000,7.000000,6.000000,-20.000000
1295820.459188,127.000000,31.000000,96.000000,29.000000,2.000000,-48.000000,-35.000000,-16.000000
1295820.459199,-128.000000,-15.000000,-12.000000,-3.000000,9.000000,22.000000,-9.000000,1.000000
1295820.482154,46.000000,28.000000,61.000000,18.000000,6.000000,13.000000,7.000000,1.000000
1295820.482165,-64.000000,-3.000000,-48.000000,-4.000000,-5.000000,4.000000,23.000000,37.000000
1295820.511998,-128.000000,-48.000000,2.000000,1.000000,5.000000,-17.000000,-41.000000,-66.000000
1295820.512010,-128.000000,-53.000000,-8.000000,-30.000000,-26.000000,-36.000000,-126.000000,-73.000000
1295820.526775,65.000000,42.000000,-2.000000,-4.000000,4.000000,22.000000,127.000000,88.000000
1295820.526793,-128.000000,-60.000000,-8.000000,-12.000000,-16.000000,-24.000000,-26.000000,0.000000
1295820.534706,22.000000,5.000000,-13.000000,3.000000,-2.000000,-19.000000,55.000000,6.000000
1295820.534757,-128.000000,-22.000000,26.000000,14.000000,9.000000,23.000000,16.000000,16.000000
1295820.535302,-28.000000,-31.000000,-48.000000,-31.000000,-18.000000,-4.000000,-46.000000,-37.000000
1295820.535312,8.000000,21.000000,11.000000,-69.000000,-20.000000,-1.000000,18.000000,-64.000000
1295820.535882,127.000000,20.000000,-23.000000,-12.000000,4.000000,-6.000000,-19.000000,12.000000
1295820.535908,-128.000000,-57.000000,0.000000,-33.000000,-14.000000,-9.000000,-21.000000,-48.000000
1295820.549124,19.000000,3.000000,40.000000,-20.000000,-21.000000,-34.000000,-51.000000,-10.000000
1295820.549135,3.000000,5.000000,-46.000000,3.000000,1.000000,-19.000000,-19.000000,-14.000000
1295820.571729,-36.000000,-5.000000,-27.000000,-31.000000,-23.000000,-17.000000,-15.000000,-10.000000
1295820.571739,8.000000,2.000000,-8.000000,6.000000,-4.000000,-25.000000,-48.000000,-13.000000
1295820.587057,3.000000,-49.000000,27.000000,4.000000,-8.000000,-21.000000,17.000000,24.000000
1295820.587070,10.000000,35.000000,-14.000000,21.000000,30.000000,25.000000,54.000000,42.000000
1295820.617082,7.000000,31.000000,19.000000,6.000000,-4.000000,-6.000000,-38.000000,-17.000000
1295820.617099,-15.000000,-34.000000,2.000000,-35.000000,-20.000000,-4.000000,3.000000,13.000000
1295820.639112,-54.000000,-3.000000,3.000000,30.000000,18.000000,8.000000,-20.000000,-63.000000
1295820.639128,-36.000000,2.000000,-32.000000,-23.000000,-14.000000,7.000000,-3.000000,14.000000
1295820.640329,-64.000000,-47.000000,-12.000000,3.000000,3.000000,11.000000,6.000000,-19.000000
1295820.640345,12.000000,15.000000,35.000000,13.000000,-1.000000,-31.000000,-61.000000,-14.000000
1295820.641012,-6.000000,9.000000,-7.000000,4.000000,0.000000,16.000000,-22.000000,-20.000000
1295820.641028,48.000000,27.000000,21.000000,14.000000,9.000000,20.000000,60.000000,21.000000
1295820.643087,-11.000000,-7.000000,27.000000,28.000000,1.000000,0.000000,22.000000,7.000000
1295820.643097,7.000000,17.000000,-22.000000,-10.000000,3.000000,-2.000000,-16.000000,-3.000000
1295820.647751,119.000000,-24.000000,-37.000000,29.000000,-8.000000,16.000000,-47.000000,-6.000000
1295820.647762,53.000000,16.000000,-22.000000,-22.000000,-10.000000,1.000000,106.000000,29.000000
1295820.661652,-27.000000,-48.000000,-23.000000,-29.000000,-14.000000,-20.000000,-26.000000,-16.000000
1295820.661662,16.000000,50.000000,-10.000000,-27.000000,-11.000000,9.000000,-75.000000,-54.000000
1295820.684573,127.000000,22.000000,7.000000,26.000000,2.000000,11.000000,77.000000,63.000000
1295820.684585,23.000000,-32.000000,-7.000000,-40.000000,-4.000000,6.000000,119.000000,84.000000
1295820.692065,-17.000000,29.000000,9.000000,31.000000,16.000000,0.000000,-27.000000,7.000000
1295820.692078,36.000000,10.000000,-13.000000,-3.000000,-4.000000,6.000000,-52.000000,-41.000000
1295820.721741,93.000000,-5.000000,-26.000000,-29.000000,-19.000000,-37.000000,-49.000000,-36.000000
1295820.721757,-19.000000,0.000000,4.000000,-52.000000,-11.000000,10.000000,0.000000,8.000000
1295820.729176,-50.000000,16.000000,5.000000,31.000000,22.000000,-3.000000,-52.000000,-55.000000
1295820.729185,-17.000000,-18.000000,-6.000000,-22.000000,-16.000000,-3.000000,28.000000,4.000000
1295820.759086,8.000000,6.000000,11.000000,5.000000,11.000000,26.000000,84.000000,47.000000
1295820.759096,102.000000,-2.000000,-41.000000,-128.000000,-56.000000,-41.000000,-29.000000,-13.000000
1295820.766848,12.000000,54.000000,83.000000,127.000000,107.000000,56.000000,53.000000,21.000000
1295820.766868,89.000000,-1.000000,-53.000000,-16.000000,-11.000000,-30.000000,69.000000,29.000000
1295820.804402,-93.000000,-37.000000,47.000000,16.000000,-16.000000,-12.000000,-27.000000,-28.000000
1295820.804418,-54.000000,-11.000000,-27.000000,-26.000000,-16.000000,0.000000,-54.000000,-46.000000
1295820.811682,98.000000,24.000000,6.000000,-18.000000,-44.000000,-26.000000,19.000000,67.000000
1295820.811692,9.000000,5.000000,-1.000000,8.000000,19.000000,-3.000000,-10.000000,1.000000
1295820.826785,-15.000000,22.000000,-8.000000,-8.000000,-4.000000,6.000000,-16.000000,-19.000000
1295820.826797,31.000000,-17.000000,31.000000,13.000000,29.000000,27.000000,23.000000,33.000000
1295820.841841,-128.000000,-55.000000,4.000000,40.000000,11.000000,-3.000000,50.000000,21.000000
1295820.841853,-6.000000,3.000000,-75.000000,-80.000000,-21.000000,9.000000,-30.000000,-27.000000
1295820.849373,40.000000,13.000000,-12.000000,3.000000,25.000000,25.000000,15.000000,20.000000
1295820.849396,2.000000,0.000000,-11.000000,21.000000,-10.000000,6.000000,-11.000000,-17.000000
1295820.879627,8.000000,3.000000,-34.000000,6.000000,-15.000000,-34.000000,75.000000,32.000000
1295820.879636,-8.000000,19.000000,97.000000,80.000000,27.000000,21.000000,39.000000,32.000000
1295820.881115,11.000000,-5.000000,-13.000000,38.000000,20.000000,2.000000,29.000000,-16.000000
1295820.881126,-25.000000,10.000000,4.000000,-7.000000,8.000000,10.000000,-25.000000,17.000000
1295820.882284,3.000000,-8.000000,19.000000,25.000000,19.000000,-8.000000,47.000000,40.000000
1295820.882291,20.000000,18.000000,-21.000000,-14.000000,-6.000000,-5.000000,-37.000000,-20.000000
1295820.894194,107.000000,22.000000,36.000000,27.000000,9.000000,0.000000,127.000000,127.000000
1295820.894204,0.000000,-15.000000,-12.000000,10.000000,11.000000,7.000000,-128.000000,-4.000000
1295820.916787,-19.000000,-3.000000,-8.000000,-44.000000,-11.000000,-36.000000,-100.000000,-45.000000
1295820.916814,35.000000,9.000000,17.000000,5.000000,-1.000000,5.000000,18.000000,7.000000
1295820.939953,-39.000000,-5.000000,-10.000000,-12.000000,-1.000000,6.000000,7.000000,-23.000000
1295820.939985,59.000000,11.000000,-28.000000,-35.000000,-21.000000,-9.000000,-57.000000,-3.000000
1295820.954469,6.000000,6.000000,18.000000,-4.000000,22.000000,14.000000,22.000000,40.000000
1295820.954511,-43.000000,-2.000000,6.000000,-20.000000,-6.000000,-12.000000,11.000000,0.000000
1295820.984517,-42.000000,-36.000000,-17.000000,-61.000000,-24.000000,-11.000000,0.000000,-28.000000
1295820.984527,7.000000,2.000000,-24.000000,-45.000000,-20.000000,-6.000000,14.000000,0.000000
1295820.991643,-41.000000,-3.000000,11.000000,29.000000,11.000000,5.000000,-3.000000,-7.000000
1295820.991653,18.000000,-22.000000,-4.000000,-7.000000,-9.000000,-13.000000,-93.000000,-37.000000
1295821.006469,47.000000,34.000000,4.000000,8.000000,6.000000,8.000000,106.000000,55.000000
1295821.006478,-26.000000,-32.000000,12.000000,20.000000,7.000000,9.000000,-67.000000,-6.000000
1295821.007171,21.000000,-20.000000,-14.000000,-5.000000,0.000000,-13.000000,9.000000,-45.000000
1295821.007188,-62.000000,-11.000000,-29.000000,-61.000000,-40.000000,23.000000,19.000000,-3.000000
1295821.008438,-27.000000,11.000000,41.000000,-38.000000,-18.000000,-10.000000,-40.000000,-22.000000
1295821.008446,-16.000000,-3.000000,-20.000000,5.000000,-3.000000,-1.000000,-128.000000,-94.000000
1295821.009012,77.000000,-44.000000,-9.000000,0.000000,-12.000000,-14.000000,14.000000,17.000000
1295821.009021,-18.000000,-10.000000,1.000000,-34.000000,-8.000000,-10.000000,-46.000000,-59.000000
1295821.014466,63.000000,48.000000,13.000000,75.000000,16.000000,0.000000,-26.000000,6.000000
1295821.014495,-7.000000,27.000000,9.000000,-13.000000,1.000000,5.000000,-56.000000,-25.000000
1295821.036851,-93.000000,-23.000000,6.000000,30.000000,7.000000,6.000000,-8.000000,-48.000000
1295821.036873,30.000000,-14.000000,-10.000000,46.000000,15.000000,4.000000,29.000000,40.000000
1295821.051808,8.000000,23.000000,0.000000,-22.000000,-13.000000,-4.000000,97.000000,-4.000000
1295821.051823,-4.000000,-7.000000,-9.000000,-12.000000,-11.000000,-12.000000,93.000000,45.000000
1295821.081825,29.000000,-20.000000,-12.000000,-6.000000,3.000000,4.000000,-32.000000,-3.000000
1295821.081835,-80.000000,-7.000000,-15.000000,-36.000000,-31.000000,-38.000000,-70.000000,-35.000000
1295821.119454,31.000000,19.000000,12.000000,13.000000,9.000000,12.000000,-30.000000,-11.000000
1295821.119465,12.000000,-8.000000,-11.000000,-8.000000,10.000000,2.000000,24.000000,32.000000
1295821.120084,-20.000000,5.000000,-6.000000,8.000000,-7.000000,-19.000000,-128.000000,-65.000000
1295821.120113,-15.000000,9.000000,2.000000,6.000000,7.000000,-17.000000,55.000000,10.000000
1295821.120945,20.000000,-14.000000,-5.000000,4.000000,4.000000,9.000000,27.000000,13.000000
1295821.120953,-66.000000,0.000000,-5.000000,-11.000000,-6.000000,11.000000,41.000000,4.000000
1295821.121792,13.000000,1.000000,-10.000000,-18.000000,8.000000,-10.000000,-10.000000,-1.000000
1295821.121801,-19.000000,17.000000,1.000000,-30.000000,-13.000000,-10.000000,-94.000000,-82.000000
1295821.122342,-18.000000,-30.000000,-30.000000,12.000000,-2.000000,7.000000,16.000000,23.000000
1295821.122350,15.000000,13.000000,33.000000,65.000000,16.000000,2.000000,-92.000000,-52.000000
1295821.141752,5.000000,11.000000,45.000000,-24.000000,-3.000000,-12.000000,-85.000000,-15.000000
1295821.141776,-12.000000,-1.000000,8.000000,15.000000,-4.000000,-13.000000,-39.000000,-38.000000
1295821.149425,0.000000,-11.000000,-38.000000,-12.000000,2.000000,8.000000,58.000000,10.000000
1295821.149449,28.000000,10.000000,6.000000,14.000000,16.000000,29.000000,14.000000,38.000000
1295821.164511,-1.000000,-17.000000,-21.000000,-16.000000,-22.000000,-39.000000,-56.000000,-33.000000
1295821.164524,1.000000,-1.000000,11.000000,-1.000000,-1.000000,-13.000000,17.000000,-13.000000
1295821.172006,44.000000,-18.000000,3.000000,15.000000,7.000000,58.000000,38.000000,127.000000
1295821.172018,-44.000000,16.000000,-5.000000,-28.000000,-4.000000,24.000000,123.000000,-46.000000
1295821.202091,5.000000,-4.000000,6.000000,30.000000,1.000000,-14.000000,-128.000000,-15.000000
1295821.202120,30.000000,9.000000,23.000000,-8.000000,-3.000000,5.000000,127.000000,47.000000
1295821.224314,20.000000,11.000000,3.000000,18.000000,8.000000,-13.000000,-12.000000,16.000000
1295821.224330,-18.000000,-9.000000,-64.000000,-21.000000,-12.000000,-8.000000,-106.000000,-44.000000
1295821.239989,-23.000000,-15.000000,77.000000,-6.000000,8.000000,17.000000,-128.000000,-60.000000
1295821.240006,-4.000000,2.000000,-19.000000,18.000000,18.000000,-26.000000,35.000000,4.000000
1295821.240526,40.000000,-25.000000,-48.000000,-12.000000,-3.000000,-27.000000,127.000000,75.000000
1295821.240544,7.000000,-12.000000,-1.000000,-56.000000,-22.000000,-20.000000,-67.000000,-21.000000
1295821.241575,-46.000000,27.000000,47.000000,54.000000,-3.000000,10.000000,-60.000000,-58.000000
1295821.241583,48.000000,18.000000,-1.000000,23.000000,16.000000,9.000000,9.000000,23.000000
1295821.242207,-60.000000,-46.000000,-10.000000,-12.000000,-10.000000,-16.000000,-97.000000,-54.000000
1295821.242218,6.000000,2.000000,-16.000000,-3.000000,-2.000000,2.000000,23.000000,37.000000
1295821.243334,-5.000000,10.000000,-1.000000,-14.000000,6.000000,8.000000,70.000000,29.000000
1295821.243347,32.000000,-1.000000,-9.000000,-18.000000,-23.000000,-33.000000,-50.000000,-30.000000
1295821.269210,-38.000000,15.000000,20.000000,-4.000000,20.000000,25.000000,9.000000,15.000000
1295821.269235,-19.000000,-61.000000,-3.000000,22.000000,13.000000,-14.000000,-68.000000,-60.000000
1295821.276758,-21.000000,10.000000,-8.000000,-8.000000,-10.000000,-21.000000,87.000000,57.000000
1295821.276773,32.000000,21.000000,-7.000000,-4.000000,10.000000,-6.000000,-6.000000,37.000000
1295821.291694,-5.000000,-33.000000,13.000000,24.000000,16.000000,8.000000,-12.000000,-16.000000
1295821.291705,-29.000000,-16.000000,9.000000,-11.000000,-3.000000,6.000000,-26.000000,-33.000000
1295821.314526,-21.000000,2.000000,-35.000000,-44.000000,-24.000000,-40.000000,-128.000000,-59.000000
1295821.314579,36.000000,-4.000000,14.000000,28.000000,30.000000,52.000000,127.000000,80.000000
1295821.344659,-34.000000,-7.000000,5.000000,-8.000000,-6.000000,-18.000000,-96.000000,-63.000000
1295821.344690,-55.000000,-15.000000,-17.000000,-9.000000,-12.000000,-12.000000,-50.000000,2.000000
1295821.345111,21.000000,12.000000,-12.000000,-4.000000,6.000000,17.000000,-113.000000,-12.000000
1295821.345136,-5.000000,33.000000,9.000000,2.000000,2.000000,-11.000000,103.000000,3.000000
1295821.359922,-19.000000,-62.000000,-18.000000,23.000000,14.000000,-1.000000,8.000000,0.000000
1295821.359936,12.000000,6.000000,24.000000,64.000000,6.000000,12.000000,62.000000,15.000000
1295821.360548,-32.000000,-8.000000,-5.000000,-14.000000,-1.000000,0.000000,-29.000000,-16.000000
1295821.360566,-12.000000,-48.000000,-14.000000,-20.000000,-9.000000,3.000000,-9.000000,-29.000000
1295821.361637,54.000000,-5.000000,-7.000000,16.000000,-2.000000,14.000000,29.000000,-14.000000
1295821.361646,-23.000000,12.000000,23.000000,57.000000,32.000000,13.000000,-26.000000,-3.000000
1295821.362397,-10.000000,2.000000,7.000000,0.000000,1.000000,13.000000,51.000000,48.000000
1295821.362410,43.000000,8.000000,12.000000,5.000000,-8.000000,-8.000000,58.000000,33.000000
1295821.363446,1.000000,-4.000000,-18.000000,-7.000000,9.000000,-3.000000,-58.000000,-26.000000
1295821.363457,3.000000,30.000000,-20.000000,0.000000,0.000000,29.000000,55.000000,-7.000000
1295821.397004,24.000000,-27.000000,53.000000,96.000000,37.000000,-1.000000,31.000000,38.000000
1295821.397016,-39.000000,18.000000,-4.000000,12.000000,-16.000000,-34.000000,-23.000000,-120.000000
1295821.434625,8.000000,-2.000000,-4.000000,-2.000000,17.000000,6.000000,24.000000,79.000000
1295821.434635,49.000000,36.000000,33.000000,60.000000,35.000000,43.000000,127.000000,119.000000
1295821.442457,-4.000000,-4.000000,-6.000000,-2.000000,9.000000,-3.000000,-108.000000,-41.000000
1295821.442467,-37.000000,-5.000000,-4.000000,-11.000000,-6.000000,-7.000000,2.000000,-42.000000
1295821.443034,9.000000,-29.000000,-20.000000,-25.000000,-15.000000,-16.000000,-49.000000,-17.000000
1295821.443042,-39.000000,5.000000,20.000000,30.000000,5.000000,3.000000,34.000000,-7.000000
1295821.444172,27.000000,23.000000,1.000000,9.000000,1.000000,-13.000000,-63.000000,-42.000000
1295821.444201,26.000000,8.000000,12.000000,26.000000,9.000000,32.000000,108.000000,50.000000
1295821.445061,12.000000,-1.000000,-9.000000,0.000000,-4.000000,-22.000000,60.000000,29.000000
1295821.445070,-13.000000,-10.000000,-1.000000,-18.000000,-15.000000,-2.000000,27.000000,-7.000000
1295821.449929,27.000000,8.000000,2.000000,-8.000000,-6.000000,-7.000000,-51.000000,20.000000
1295821.449946,-45.000000,-66.000000,-2.000000,28.000000,3.000000,-9.000000,-1.000000,-23.000000
1295821.471755,19.000000,65.000000,9.000000,1.000000,6.000000,18.000000,0.000000,4.000000
1295821.471766,-36.000000,27.000000,-2.000000,-15.000000,-1.000000,8.000000,127.000000,47.000000
1295821.472926,-21.000000,-109.000000,0.000000,-13.000000,1.000000,2.000000,-122.000000,-22.000000
1295821.472942,10.000000,25.000000,-7.000000,-48.000000,-10.000000,8.000000,35.000000,-17.000000
1295821.479294,33.000000,31.000000,58.000000,102.000000,27.000000,20.000000,71.000000,53.000000
1295821.479328,-19.000000,-24.000000,-20.000000,-19.000000,-4.000000,-11.000000,-50.000000,-48.000000
1295821.509294,-32.000000,-8.000000,1.000000,-9.000000,-10.000000,15.000000,22.000000,17.000000
1295821.509312,57.000000,8.000000,-1.000000,-39.000000,-5.000000,-14.000000,-3.000000,9.000000
1295821.516806,9.000000,26.000000,-9.000000,5.000000,9.000000,-4.000000,-43.000000,-18.000000
1295821.516819,-18.000000,-30.000000,-17.000000,-19.000000,0.000000,15.000000,127.000000,37.000000
1295821.532092,-30.000000,12.000000,6.000000,-24.000000,-11.000000,-19.000000,-54.000000,-67.000000
1295821.532121,2.000000,-15.000000,-2.000000,2.000000,4.000000,28.000000,17.000000,66.000000
1295821.539538,7.000000,-13.000000,7.000000,22.000000,21.000000,2.000000,92.000000,-12.000000
1295821.539552,-2.000000,-11.000000,-3.000000,-19.000000,-8.000000,-10.000000,-92.000000,-11.000000
1295821.561744,57.000000,30.000000,-2.000000,0.000000,1.000000,5.000000,20.000000,13.000000
1295821.561760,-42.000000,-8.000000,10.000000,18.000000,-5.000000,-11.000000,-33.000000,-22.000000
1295821.569332,-11.000000,-31.000000,-15.000000,-23.000000,-13.000000,-16.000000,-76.000000,-31.000000
1295821.569343,17.000000,-2.000000,-6.000000,13.000000,12.000000,20.000000,101.000000,30.000000
1295821.592292,-13.000000,0.000000,-9.000000,22.000000,12.000000,5.000000,-63.000000,-34.000000
1295821.592303,44.000000,0.000000,1.000000,8.000000,3.000000,10.000000,42.000000,10.000000
1295821.599406,-71.000000,-7.000000,0.000000,-19.000000,-2.000000,1.000000,98.000000,63.000000
1295821.599418,23.000000,48.000000,32.000000,50.000000,29.000000,12.000000,-110.000000,-55.000000
1295821.644136,-16.000000,-34.000000,-19.000000,-35.000000,-20.000000,-16.000000,23.000000,3.000000
1295821.644152,-19.000000,13.000000,14.000000,65.000000,30.000000,-1.000000,-62.000000,-21.000000
1295821.659350,9.000000,-16.000000,-25.000000,-35.000000,-8.000000,-10.000000,-11.000000,-26.000000
1295821.659366,0.000000,40.000000,-1.000000,-39.000000,-25.000000,-40.000000,-58.000000,-34.000000
1295821.674573,20.000000,19.000000,-27.000000,-15.000000,-11.000000,5.000000,127.000000,-8.000000
1295821.674583,-43.000000,-49.000000,2.000000,11.000000,17.000000,16.000000,97.000000,75.000000
1295821.682562,-48.000000,-10.000000,5.000000,45.000000,24.000000,-2.000000,-36.000000,-26.000000
1295821.682590,4.000000,-14.000000,-26.000000,-27.000000,-3.000000,10.000000,35.000000,18.000000
1295821.683006,16.000000,14.000000,-2.000000,-17.000000,-6.000000,2.000000,0.000000,2.000000
1295821.683027,25.000000,-7.000000,-11.000000,-31.000000,-28.000000,-7.000000,127.000000,71.000000
1295821.683744,-5.000000,17.000000,29.000000,43.000000,30.000000,23.000000,14.000000,-26.000000
1295821.683752,17.000000,-14.000000,-21.000000,-26.000000,-2.000000,6.000000,-6.000000,31.000000
1295821.684249,-7.000000,8.000000,21.000000,16.000000,3.000000,-11.000000,37.000000,52.000000
1295821.684275,-13.000000,-7.000000,-17.000000,-5.000000,1.000000,-4.000000,-20.000000,-47.000000
1295821.685259,-12.000000,-22.000000,18.000000,-8.000000,-18.000000,-14.000000,-44.000000,-21.000000
1295821.685305,-26.000000,-54.000000,-27.000000,-14.000000,-7.000000,-5.000000,-13.000000,6.000000
1295821.711943,15.000000,5.000000,17.000000,-33.000000,-5.000000,14.000000,71.000000,15.000000
1295821.711988,-10.000000,-5.000000,-12.000000,-4.000000,0.000000,-20.000000,-65.000000,-54.000000
1295821.712460,3.000000,-11.000000,-16.000000,-20.000000,-3.000000,4.000000,-13.000000,30.000000
1295821.712479,5.000000,-2.000000,29.000000,25.000000,20.000000,25.000000,94.000000,28.000000
1295821.713846,-6.000000,16.000000,-15.000000,-3.000000,-9.000000,-12.000000,-119.000000,-30.000000
1295821.713861,22.000000,-1.000000,-22.000000,-17.000000,-13.000000,-11.000000,124.000000,42.000000
1295821.727284,-76.000000,-27.000000,5.000000,16.000000,-5.000000,-8.000000,-19.000000,-30.000000
1295821.727294,0.000000,12.000000,17.000000,44.000000,19.000000,20.000000,23.000000,12.000000
1295821.749414,-15.000000,-7.000000,-12.000000,-12.000000,-6.000000,-38.000000,-128.000000,-81.000000
1295821.749425,0.000000,2.000000,-10.000000,0.000000,-2.000000,35.000000,127.000000,18.000000
1295821.756911,11.000000,14.000000,-14.000000,4.000000,24.000000,4.000000,127.000000,71.000000
1295821.756931,35.000000,11.000000,37.000000,-52.000000,-20.000000,-7.000000,-128.000000,-55.000000
1295821.772110,-4.000000,1.000000,-7.000000,5.000000,-6.000000,-7.000000,38.000000,22.000000
1295821.772139,18.000000,-16.000000,-51.000000,-128.000000,-43.000000,-20.000000,-30.000000,-9.000000
1295821.786764,20.000000,42.000000,78.000000,127.000000,55.000000,18.000000,-60.000000,-7.000000
1295821.786780,-30.000000,-28.000000,-26.000000,3.000000,1.000000,16.000000,45.000000,-1.000000
1295821.801848,7.000000,23.000000,-25.000000,-19.000000,-9.000000,-17.000000,-77.000000,-22.000000
1295821.801920,20.000000,27.000000,38.000000,50.000000,1.000000,15.000000,78.000000,34.000000
1295821.809189,-38.000000,13.000000,4.000000,4.000000,5.000000,-8.000000,36.000000,9.000000
1295821.809213,3.000000,13.000000,-17.000000,-14.000000,-15.000000,-12.000000,-84.000000,-11.000000
1295821.831776,11.000000,20.000000,26.000000,-11.000000,15.000000,17.000000,56.000000,24.000000
1295821.831795,-13.000000,-15.000000,-18.000000,-44.000000,-13.000000,-22.000000,-96.000000,-82.000000
1295821.832136,26.000000,26.000000,-1.000000,2.000000,-11.000000,-4.000000,127.000000,60.000000
1295821.832198,-1.000000,-19.000000,-7.000000,-1.000000,-3.000000,-7.000000,17.000000,26.000000
1295821.833336,31.000000,-18.000000,-8.000000,-1.000000,-25.000000,-43.000000,-98.000000,-28.000000
1295821.833351,-7.000000,-13.000000,0.000000,5.000000,-4.000000,3.000000,53.000000,9.000000
1295821.834054,-5.000000,-12.000000,1.000000,-26.000000,-1.000000,3.000000,19.000000,-11.000000
1295821.834065,7.000000,37.000000,4.000000,8.000000,2.000000,-11.000000,-111.000000,-22.000000
1295821.835545,25.000000,22.000000,-8.000000,-9.000000,-2.000000,11.000000,36.000000,35.000000
1295821.835558,-17.000000,18.000000,8.000000,27.000000,-5.000000,-21.000000,-92.000000,-109.000000
1295821.846640,19.000000,4.000000,-5.000000,6.000000,-1.000000,20.000000,127.000000,115.000000
1295821.846664,-3.000000,-22.000000,26.000000,46.000000,13.000000,6.000000,29.000000,30.000000
1295821.869438,-22.000000,-19.000000,-22.000000,-29.000000,-17.000000,-12.000000,-91.000000,-41.000000
1295821.869448,-14.000000,1.000000,-13.000000,-26.000000,-21.000000,-25.000000,-6.000000,-32.000000
1295821.876794,-3.000000,9.000000,3.000000,19.000000,7.000000,8.000000,-32.000000,-4.000000
1295821.876804,26.000000,43.000000,3.000000,-12.000000,-11.000000,5.000000,53.000000,33.000000
1295821.899419,9.000000,-33.000000,-1.000000,18.000000,11.000000,11.000000,-105.000000,-27.000000
1295821.899437,46.000000,45.000000,5.000000,9.000000,4.000000,4.000000,63.000000,34.000000
1295821.914345,0.000000,-3.000000,-5.000000,13.000000,-24.000000,-50.000000,-118.000000,-53.000000
1295821.914356,1.000000,-30.000000,-25.000000,-28.000000,23.000000,33.000000,127.000000,19.000000
1295821.951979,-29.000000,-19.000000,13.000000,64.000000,11.000000,-3.000000,-56.000000,-5.000000
1295821.952039,12.000000,-6.000000,-4.000000,-23.000000,-9.000000,2.000000,-94.000000,-35.000000
1295821.952673,3.000000,15.000000,4.000000,5.000000,2.000000,9.000000,38.000000,32.000000
1295821.952700,-22.000000,-26.000000,-43.000000,-17.000000,-22.000000,1.000000,28.000000,-2.000000
1295821.953607,6.000000,-12.000000,43.000000,55.000000,32.000000,5.000000,-29.000000,-1.000000
1295821.953634,-7.000000,51.000000,2.000000,15.000000,-3.000000,-1.000000,20.000000,-21.000000
1295821.954209,-13.000000,-5.000000,-27.000000,-20.000000,-20.000000,-25.000000,-59.000000,-34.000000
1295821.954220,26.000000,-12.000000,-2.000000,-18.000000,-4.000000,6.000000,4.000000,14.000000
1295821.955596,-29.000000,20.000000,39.000000,72.000000,32.000000,22.000000,69.000000,20.000000
1295821.955604,15.000000,-20.000000,-4.000000,9.000000,-8.000000,-5.000000,-33.000000,-5.000000
1295821.989292,2.000000,28.000000,14.000000,-13.000000,-4.000000,12.000000,63.000000,25.000000
1295821.989304,2.000000,-17.000000,-9.000000,25.000000,-2.000000,-26.000000,-9.000000,-18.000000
1295822.004479,-7.000000,-69.000000,0.000000,4.000000,-9.000000,-3.000000,27.000000,19.000000
1295822.004490,-28.000000,-12.000000,-14.000000,-14.000000,-10.000000,-3.000000,-128.000000,-72.000000
1295822.026865,14.000000,-4.000000,-17.000000,-2.000000,-7.000000,-2.000000,127.000000,48.000000
1295822.026895,-18.000000,-13.000000,1.000000,3.000000,4.000000,-9.000000,-65.000000,5.000000
1295822.041747,-24.000000,-14.000000,-28.000000,-76.000000,-23.000000,-11.000000,-51.000000,-53.000000
1295822.041775,26.000000,8.000000,51.000000,124.000000,28.000000,25.000000,9.000000,40.000000
1295822.071829,16.000000,32.000000,8.000000,18.000000,15.000000,10.000000,20.000000,17.000000
1295822.071848,-7.000000,-54.000000,-22.000000,-29.000000,-17.000000,-19.000000,-66.000000,-48.000000
1295822.072773,-16.000000,19.000000,8.000000,-33.000000,9.000000,34.000000,-49.000000,32.000000
1295822.072789,-30.000000,-42.000000,-5.000000,42.000000,13.000000,11.000000,127.000000,53.000000
1295822.073445,4.000000,1.000000,5.000000,13.000000,5.000000,-5.000000,-6.000000,-25.000000
1295822.073453,14.000000,-22.000000,-11.000000,13.000000,9.000000,-5.000000,-128.000000,-44.000000
1295822.073960,-43.000000,-109.000000,-47.000000,-84.000000,-23.000000,-19.000000,-53.000000,-62.000000
1295822.073969,-11.000000,-37.000000,10.000000,81.000000,29.000000,9.000000,-128.000000,-13.000000
1295822.075658,34.000000,24.000000,16.000000,16.000000,22.000000,9.000000,127.000000,63.000000
1295822.075676,-1.000000,-5.000000,-4.000000,-14.000000,-1.000000,-9.000000,-55.000000,-31.000000
1295822.086647,0.000000,-26.000000,-11.000000,-5.000000,-2.000000,-5.000000,-85.000000,-24.000000
1295822.086670,-56.000000,-17.000000,-16.000000,-36.000000,-31.000000,-20.000000,-41.000000,-31.000000
1295822.109432,32.000000,-1.000000,2.000000,27.000000,11.000000,-1.000000,-25.000000,4.000000
1295822.109449,7.000000,-14.000000,-10.000000,-17.000000,-16.000000,-14.000000,-26.000000,4.000000
1295822.116872,-33.000000,-10.000000,19.000000,43.000000,-2.000000,-6.000000,-7.000000,-39.000000
1295822.116883,-2.000000,-14.000000,-27.000000,-60.000000,-16.000000,5.000000,17.000000,-11.000000
1295822.139579,30.000000,22.000000,30.000000,48.000000,19.000000,-4.000000,51.000000,36.000000
1295822.139608,22.000000,-4.000000,9.000000,14.000000,20.000000,27.000000,40.000000,32.000000
1295822.147208,-24.000000,-36.000000,-21.000000,-33.000000,-7.000000,-22.000000,12.000000,-20.000000
1295822.147220,-19.000000,30.000000,-14.000000,-58.000000,-19.000000,-17.000000,-62.000000,-39.000000
1295822.161778,-38.000000,-105.000000,2.000000,26.000000,16.000000,13.000000,-62.000000,-15.000000
1295822.161792,4.000000,0.000000,-11.000000,14.000000,12.000000,16.000000,112.000000,22.000000
1295822.176644,35.000000,35.000000,12.000000,14.000000,5.000000,0.000000,-15.000000,4.000000
1295822.176654,-10.000000,-7.000000,-2.000000,9.000000,-1.000000,-2.000000,-38.000000,-13.000000
1295822.177844,-8.000000,-10.000000,-4.000000,-3.000000,-17.000000,-13.000000,8.000000,-11.000000
1295822.177853,-11.000000,-10.000000,20.000000,19.000000,2.000000,9.000000,-10.000000,0.000000
1295822.178474,-5.000000,9.000000,-31.000000,-9.000000,-5.000000,-13.000000,12.000000,0.000000
1295822.178488,32.000000,11.000000,45.000000,44.000000,27.000000,17.000000,7.000000,36.000000
1295822.191937,-128.000000,-38.000000,-30.000000,-1.000000,-8.000000,-35.000000,-86.000000,-109.000000
1295822.191948,78.000000,20.000000,16.000000,6.000000,9.000000,41.000000,127.000000,92.000000
1295822.199621,42.000000,22.000000,-6.000000,-48.000000,3.000000,33.000000,88.000000,89.000000
1295822.199645,-17.000000,11.000000,21.000000,41.000000,19.000000,-10.000000,-32.000000,-32.000000
1295822.236954,-27.000000,-23.000000,-22.000000,-18.000000,-4.000000,-17.000000,-52.000000,-44.000000
1295822.236965,-48.000000,-28.000000,-1.000000,-14.000000,-9.000000,2.000000,-128.000000,-96.000000
1295822.267003,47.000000,51.000000,-28.000000,-15.000000,-5.000000,3.000000,127.000000,127.000000
1295822.267026,12.000000,-27.000000,50.000000,49.000000,10.000000,-7.000000,-88.000000,-8.000000
1295822.281965,-55.000000,-22.000000,-21.000000,-12.000000,-4.000000,-8.000000,-41.000000,-46.000000
1295822.281975,13.000000,22.000000,-8.000000,2.000000,-10.000000,-3.000000,-28.000000,-40.000000
1295822.304242,21.000000,-10.000000,18.000000,57.000000,25.000000,-2.000000,0.000000,7.000000
1295822.304277,-9.000000,-4.000000,0.000000,7.000000,3.000000,8.000000,70.000000,24.000000
1295822.305997,-17.000000,-1.000000,-6.000000,0.000000,-9.000000,-12.000000,116.000000,27.000000
1295822.306015,17.000000,-22.000000,-25.000000,-43.000000,-12.000000,-13.000000,-36.000000,-6.000000
1295822.307149,43.000000,5.000000,23.000000,24.000000,0.000000,-18.000000,71.000000,88.000000
1295822.307158,-33.000000,-12.000000,-12.000000,-52.000000,-16.000000,9.000000,-92.000000,-85.000000
1295822.308114,30.000000,7.000000,0.000000,-1.000000,-7.000000,-14.000000,110.000000,67.000000
1295822.308135,32.000000,24.000000,6.000000,2.000000,2.000000,-25.000000,-56.000000,-6.000000
1295822.311691,10.000000,2.000000,-20.000000,-15.000000,-8.000000,-6.000000,-6.000000,-8.000000
1295822.311709,33.000000,3.000000,21.000000,-3.000000,8.000000,-6.000000,-113.000000,-29.000000
1295822.349774,-128.000000,-33.000000,-3.000000,47.000000,27.000000,31.000000,127.000000,44.000000
1295822.349802,47.000000,16.000000,2.000000,-17.000000,-2.000000,-14.000000,-90.000000,9.000000
1295822.357067,-1.000000,-2.000000,-20.000000,3.000000,-15.000000,-10.000000,42.000000,-16.000000
1295822.357088,-38.000000,-11.000000,5.000000,-14.000000,5.000000,3.000000,7.000000,1.000000
1295822.386931,-6.000000,-10.000000,-8.000000,-25.000000,-19.000000,-17.000000,-47.000000,-25.000000
1295822.386945,-9.000000,16.000000,0.000000,2.000000,14.000000,-17.000000,-53.000000,-20.000000
1295822.394387,23.000000,3.000000,-8.000000,-14.000000,-18.000000,10.000000,8.000000,32.000000
1295822.394397,-15.000000,-10.000000,24.000000,11.000000,20.000000,12.000000,66.000000,27.000000
1295822.402291,-9.000000,22.000000,5.000000,-14.000000,-8.000000,-10.000000,-26.000000,-29.000000
1295822.402305,-15.000000,-1.000000,-25.000000,-54.000000,-22.000000,-4.000000,-114.000000,-94.000000
1295822.402787,80.000000,67.000000,31.000000,18.000000,-7.000000,36.000000,127.000000,127.000000
1295822.402809,-30.000000,-21.000000,14.000000,20.000000,21.000000,-1.000000,-8.000000,19.000000
1295822.404392,12.000000,-7.000000,3.000000,-1.000000,5.000000,5.000000,127.000000,30.000000
1295822.404400,27.000000,21.000000,-2.000000,-10.000000,-2.000000,4.000000,-13.000000,-5.000000
1295822.424439,-69.000000,-28.000000,-18.000000,-9.000000,-7.000000,5.000000,-7.000000,8.000000
1295822.424450,5.000000,-1.000000,-5.000000,-13.000000,-3.000000,5.000000,67.000000,10.000000
1295822.425022,13.000000,22.000000,17.000000,-10.000000,-8.000000,-8.000000,-89.000000,-18.000000
1295822.425030,-4.000000,0.000000,0.000000,10.000000,14.000000,16.000000,74.000000,2.000000
1295822.426147,16.000000,-7.000000,-15.000000,-50.000000,-23.000000,-15.000000,-18.000000,-7.000000
1295822.426155,-84.000000,-18.000000,-3.000000,14.000000,10.000000,15.000000,-36.000000,0.000000
1295822.431920,39.000000,-18.000000,0.000000,9.000000,-10.000000,-28.000000,56.000000,29.000000
1295822.431930,-10.000000,2.000000,4.000000,21.000000,13.000000,4.000000,-21.000000,-3.000000
1295822.469548,-51.000000,-19.000000,-23.000000,-16.000000,-15.000000,-38.000000,-92.000000,-43.000000
1295822.469559,3.000000,33.000000,-18.000000,-41.000000,-10.000000,9.000000,40.000000,6.000000
1295822.477136,0.000000,9.000000,12.000000,-1.000000,5.000000,6.000000,16.000000,5.000000
1295822.477146,26.000000,-13.000000,-9.000000,-4.000000,6.000000,10.000000,-32.000000,1.000000
1295822.506649,14.000000,37.000000,19.000000,-10.000000,2.000000,20.000000,101.000000,45.000000
1295822.506660,-9.000000,-17.000000,-7.000000,53.000000,11.000000,-3.000000,-16.000000,-17.000000
1295822.514359,-13.000000,16.000000,1.000000,-7.000000,-4.000000,-7.000000,-38.000000,-27.000000
1295822.514388,8.000000,-1.000000,-1.000000,2.000000,-11.000000,1.000000,28.000000,30.000000
1295822.515346,10.000000,70.000000,2.000000,-50.000000,-13.000000,-12.000000,-37.000000,-22.000000
1295822.515373,-7.000000,-4.000000,-16.000000,-20.000000,-1.000000,5.000000,8.000000,0.000000
1295822.516004,2.000000,-26.000000,22.000000,-31.000000,7.000000,6.000000,11.000000,11.000000
1295822.516031,11.000000,57.000000,30.000000,13.000000,3.000000,0.000000,-10.000000,-10.000000
1295822.517545,5.000000,-11.000000,-12.000000,-2.000000,-1.000000,9.000000,-73.000000,-9.000000
1295822.517572,2.000000,1.000000,-7.000000,-19.000000,-28.000000,-20.000000,127.000000,15.000000
1295822.552023,2.000000,7.000000,2.000000,-7.000000,3.000000,8.000000,-14.000000,-4.000000
1295822.552077,10.000000,6.000000,-13.000000,2.000000,-8.000000,-10.000000,6.000000,1.000000
1295822.559306,-25.000000,-15.000000,0.000000,-20.000000,-16.000000,-9.000000,12.000000,-7.000000
1295822.559316,1.000000,29.000000,5.000000,-8.000000,-4.000000,-2.000000,-128.000000,-54.000000
1295822.560212,-7.000000,-67.000000,-39.000000,-29.000000,-23.000000,-31.000000,-61.000000,19.000000
1295822.560238,48.000000,19.000000,22.000000,29.000000,19.000000,43.000000,127.000000,127.000000
1295822.561051,4.000000,27.000000,28.000000,48.000000,21.000000,-8.000000,-80.000000,-33.000000
1295822.561078,-10.000000,-32.000000,-22.000000,-32.000000,-3.000000,6.000000,2.000000,11.000000
1295822.589186,-10.000000,20.000000,1.000000,7.000000,0.000000,-27.000000,-38.000000,-36.000000
1295822.589197,-14.000000,-57.000000,-38.000000,-36.000000,-25.000000,-16.000000,-23.000000,-25.000000
1295822.596953,-4.000000,4.000000,-1.000000,-20.000000,-14.000000,-9.000000,-35.000000,-36.000000
1295822.596962,-32.000000,-9.000000,7.000000,28.000000,31.000000,15.000000,-74.000000,-6.000000
1295822.619722,29.000000,40.000000,-12.000000,13.000000,-1.000000,-11.000000,127.000000,68.000000
1295822.619750,0.000000,-26.000000,-8.000000,-41.000000,-10.000000,3.000000,-11.000000,-18.000000
1295822.620134,-1.000000,-24.000000,-33.000000,-38.000000,-26.000000,-14.000000,-121.000000,-41.000000
1295822.620151,-2.000000,2.000000,9.000000,9.000000,11.000000,16.000000,127.000000,54.000000
1295822.621243,31.000000,17.000000,10.000000,3.000000,13.000000,18.000000,-33.000000,3.000000
1295822.621268,-29.000000,-34.000000,-15.000000,11.000000,-1.000000,-33.000000,-128.000000,-69.000000
1295822.626866,-19.000000,-13.000000,-10.000000,-12.000000,-7.000000,10.000000,36.000000,8.000000
1295822.626890,54.000000,24.000000,0.000000,-9.000000,0.000000,18.000000,99.000000,80.000000
1295822.628203,-19.000000,-20.000000,-4.000000,10.000000,0.000000,-18.000000,-67.000000,-35.000000
1295822.628225,-29.000000,0.000000,9.000000,23.000000,30.000000,11.000000,-46.000000,-54.000000
1295822.634306,-6.000000,6.000000,-3.000000,-18.000000,-23.000000,-35.000000,-128.000000,-21.000000
1295822.634321,-9.000000,-23.000000,-20.000000,-21.000000,-8.000000,0.000000,127.000000,52.000000
1295822.664230,-2.000000,-23.000000,-1.000000,16.000000,17.000000,12.000000,-54.000000,-6.000000
1295822.664242,42.000000,47.000000,10.000000,-11.000000,-16.000000,-16.000000,-18.000000,13.000000
1295822.664634,-63.000000,-128.000000,11.000000,31.000000,16.000000,4.000000,-33.000000,-13.000000
1295822.664644,1.000000,-10.000000,-31.000000,-23.000000,-23.000000,-7.000000,21.000000,-16.000000
1295822.666241,29.000000,18.000000,30.000000,27.000000,11.000000,10.000000,5.000000,16.000000
1295822.666252,-34.000000,0.000000,0.000000,7.000000,4.000000,-9.000000,-24.000000,-30.000000
1295822.679864,-24.000000,2.000000,-11.000000,-48.000000,-29.000000,-9.000000,-103.000000,-23.000000
1295822.679875,9.000000,15.000000,27.000000,-14.000000,13.000000,12.000000,84.000000,30.000000
1295822.709364,11.000000,1.000000,-14.000000,1.000000,-20.000000,-26.000000,-75.000000,-36.000000
1295822.709376,-15.000000,-14.000000,-3.000000,-34.000000,-6.000000,3.000000,94.000000,2.000000
1295822.716780,7.000000,-44.000000,15.000000,7.000000,5.000000,-10.000000,-125.000000,-21.000000
1295822.716791,-11.000000,18.000000,-7.000000,-29.000000,-45.000000,-22.000000,9.000000,-27.000000
1295822.747626,51.000000,19.000000,-36.000000,-45.000000,0.000000,16.000000,-101.000000,70.000000
1295822.747653,37.000000,17.000000,25.000000,24.000000,17.000000,8.000000,127.000000,23.000000
1295822.747981,-28.000000,-24.000000,-5.000000,11.000000,-12.000000,-21.000000,-64.000000,-31.000000
1295822.748006,-13.000000,-12.000000,-14.000000,3.000000,-9.000000,-1.000000,-63.000000,-20.000000
1295822.754308,-29.000000,25.000000,9.000000,0.000000,3.000000,6.000000,34.000000,-6.000000
1295822.754336,-10.000000,-7.000000,-15.000000,1.000000,2.000000,-2.000000,-128.000000,-34.000000
1295822.754880,-21.000000,2.000000,-13.000000,-9.000000,-10.000000,7.000000,127.000000,22.000000
1295822.754889,6.000000,30.000000,-5.000000,-30.000000,-8.000000,-11.000000,-86.000000,-29.000000
1295822.756225,19.000000,36.000000,-5.000000,-35.000000,-20.000000,-9.000000,-36.000000,-22.000000
1295822.756252,2.000000,-56.000000,-11.000000,27.000000,-1.000000,-5.000000,49.000000,37.000000
1295822.784051,-17.000000,60.000000,23.000000,-5.000000,-7.000000,1.000000,-60.000000,-36.000000
1295822.784071,36.000000,-13.000000,12.000000,21.000000,9.000000,-8.000000,-100.000000,-11.000000
1295822.784510,-59.000000,-26.000000,-15.000000,-25.000000,-17.000000,-4.000000,-36.000000,-18.000000
1295822.784518,-12.000000,0.000000,-24.000000,-10.000000,1.000000,9.000000,30.000000,-10.000000
1295822.786010,8.000000,36.000000,34.000000,69.000000,5.000000,-24.000000,-80.000000,13.000000
1295822.786018,4.000000,-8.000000,24.000000,0.000000,-7.000000,-4.000000,68.000000,43.000000
1295822.821803,-1.000000,5.000000,-1.000000,-13.000000,-8.000000,-6.000000,59.000000,9.000000
1295822.821813,-17.000000,-13.000000,-18.000000,-11.000000,-7.000000,-14.000000,-91.000000,-75.000000
1295822.836618,3.000000,22.000000,-9.000000,-17.000000,1.000000,-8.000000,-45.000000,-11.000000
1295822.836627,-1.000000,3.000000,8.000000,-13.000000,-15.000000,8.000000,14.000000,19.000000
1295822.859439,-5.000000,17.000000,-13.000000,-31.000000,-12.000000,-9.000000,34.000000,-25.000000
1295822.859450,-40.000000,-56.000000,-4.000000,1.000000,3.000000,2.000000,-128.000000,-31.000000
1295822.874093,102.000000,18.000000,25.000000,-13.000000,16.000000,17.000000,127.000000,124.000000
1295822.874104,26.000000,-8.000000,-32.000000,-60.000000,-9.000000,-10.000000,-128.000000,-50.000000
1295822.904348,-74.000000,50.000000,26.000000,97.000000,19.000000,-18.000000,92.000000,-27.000000
1295822.904371,10.000000,-10.000000,34.000000,39.000000,39.000000,12.000000,-5.000000,35.000000
1295822.912496,54.000000,-29.000000,-46.000000,-36.000000,-23.000000,-15.000000,-76.000000,-14.000000
1295822.912515,-3.000000,-3.000000,-4.000000,-36.000000,-16.000000,-4.000000,23.000000,-5.000000
1295822.912934,7.000000,27.000000,18.000000,-6.000000,9.000000,5.000000,-52.000000,-8.000000
1295822.912973,-23.000000,-3.000000,11.000000,20.000000,15.000000,9.000000,-33.000000,7.000000
1295822.913368,27.000000,23.000000,6.000000,31.000000,24.000000,36.000000,127.000000,92.000000
1295822.913376,-30.000000,-41.000000,-19.000000,-26.000000,-7.000000,-10.000000,-60.000000,-35.000000
1295822.941930,1.000000,21.000000,-21.000000,-60.000000,-25.000000,-1.000000,-92.000000,-70.000000
1295822.941959,11.000000,-38.000000,-2.000000,-30.000000,-13.000000,-48.000000,-40.000000,-19.000000
1295822.949270,-27.000000,-20.000000,-47.000000,-75.000000,-23.000000,17.000000,-78.000000,-2.000000
1295822.949292,45.000000,35.000000,85.000000,127.000000,69.000000,1.000000,127.000000,76.000000
1295822.971837,-40.000000,-37.000000,-14.000000,-51.000000,-15.000000,-9.000000,-101.000000,-54.000000
1295822.971866,14.000000,35.000000,0.000000,-21.000000,-16.000000,-17.000000,-4.000000,-32.000000
1295822.979604,-8.000000,0.000000,-11.000000,-16.000000,-15.000000,-22.000000,-128.000000,-51.000000
1295822.979632,9.000000,-20.000000,-35.000000,-6.000000,-7.000000,-11.000000,9.000000,34.000000
1295822.994701,11.000000,1.000000,27.000000,-49.000000,5.000000,4.000000,117.000000,-11.000000
1295822.994753,-28.000000,21.000000,19.000000,37.000000,12.000000,-10.000000,-128.000000,-22.000000
1295823.002027,22.000000,-37.000000,-12.000000,-14.000000,-11.000000,29.000000,127.000000,22.000000
1295823.002072,3.000000,21.000000,-9.000000,2.000000,1.000000,-1.000000,121.000000,36.000000
1295823.024852,28.000000,11.000000,11.000000,96.000000,47.000000,13.000000,43.000000,-2.000000
1295823.024883,-6.000000,-26.000000,-15.000000,-53.000000,-39.000000,-41.000000,127.000000,14.000000
1295823.025876,-11.000000,52.000000,78.000000,123.000000,54.000000,-11.000000,112.000000,25.000000
1295823.025883,9.000000,-34.000000,-16.000000,-36.000000,-7.000000,3.000000,-1.000000,55.000000
1295823.027283,-42.000000,-18.000000,-11.000000,-18.000000,-17.000000,-13.000000,-11.000000,-38.000000
1295823.027408,-4.000000,-29.000000,-11.000000,25.000000,5.000000,-9.000000,13.000000,18.000000
1295823.028137,64.000000,14.000000,44.000000,108.000000,54.000000,24.000000,40.000000,64.000000
1295823.028146,3.000000,29.000000,-20.000000,-19.000000,0.000000,25.000000,75.000000,15.000000
1295823.046844,-4.000000,-32.000000,-48.000000,-20.000000,-37.000000,-70.000000,-124.000000,-27.000000
1295823.046855,7.000000,-18.000000,23.000000,-42.000000,8.000000,51.000000,26.000000,16.000000
1295823.069624,91.000000,87.000000,-7.000000,-83.000000,-50.000000,-55.000000,74.000000,78.000000
1295823.069652,11.000000,-14.000000,-10.000000,19.000000,23.000000,4.000000,-18.000000,-17.000000
1295823.084532,-61.000000,-25.000000,-16.000000,-73.000000,-22.000000,-8.000000,-115.000000,-69.000000
1295823.084564,-109.000000,-55.000000,-92.000000,-73.000000,-18.000000,-19.000000,7.000000,-23.000000
1295823.106767,52.000000,62.000000,20.000000,51.000000,18.000000,11.000000,17.000000,-10.000000
1295823.106814,23.000000,-5.000000,1.000000,-16.000000,7.000000,19.000000,127.000000,126.000000
1295823.114309,-39.000000,-23.000000,1.000000,-47.000000,-24.000000,-14.000000,-74.000000,-13.000000
1295823.114320,-27.000000,-24.000000,-22.000000,46.000000,10.000000,-17.000000,-87.000000,-58.000000
1295823.137202,45.000000,18.000000,-17.000000,-19.000000,1.000000,21.000000,14.000000,6.000000
1295823.137254,-37.000000,27.000000,2.000000,-16.000000,-21.000000,-14.000000,86.000000,4.000000
1295823.137884,-31.000000,-90.000000,15.000000,-56.000000,5.000000,-20.000000,-82.000000,-28.000000
1295823.137900,69.000000,28.000000,71.000000,127.000000,-7.000000,6.000000,34.000000,34.000000
1295823.139322,55.000000,33.000000,31.000000,14.000000,43.000000,66.000000,127.000000,127.000000
1295823.139355,-51.000000,-6.000000,-47.000000,-41.000000,-23.000000,-17.000000,-108.000000,-50.000000
1295823.140791,-40.000000,-53.000000,5.000000,27.000000,11.000000,-13.000000,-104.000000,-71.000000
1295823.140800,-29.000000,34.000000,-54.000000,-65.000000,-24.000000,-18.000000,-54.000000,-66.000000
1295823.145057,-36.000000,-40.000000,-33.000000,-122.000000,-27.000000,-21.000000,-39.000000,-39.000000
1295823.145089,-50.000000,21.000000,22.000000,127.000000,60.000000,18.000000,-128.000000,-113.000000
1295823.181995,99.000000,10.000000,40.000000,-9.000000,-16.000000,6.000000,127.000000,127.000000
1295823.182007,-32.000000,26.000000,-36.000000,-19.000000,8.000000,28.000000,74.000000,21.000000
1295823.204251,34.000000,-26.000000,-3.000000,37.000000,27.000000,26.000000,71.000000,88.000000
1295823.204269,-28.000000,16.000000,41.000000,3.000000,2.000000,-10.000000,-128.000000,-65.000000
1295823.219474,-26.000000,-1.000000,-6.000000,-50.000000,-26.000000,-40.000000,127.000000,-40.000000
1295823.219485,-40.000000,-106.000000,-42.000000,-42.000000,-1.000000,43.000000,-40.000000,-76.000000
1295823.220346,76.000000,35.000000,22.000000,65.000000,31.000000,-1.000000,127.000000,115.000000
1295823.220354,-47.000000,-49.000000,-14.000000,-15.000000,5.000000,-3.000000,-86.000000,41.000000
1295823.221004,-63.000000,26.000000,-53.000000,-71.000000,-25.000000,-2.000000,-11.000000,-54.000000
1295823.221012,127.000000,47.000000,47.000000,45.000000,46.000000,37.000000,-74.000000,2.000000
1295823.222266,-77.000000,-31.000000,-23.000000,6.000000,8.000000,-31.000000,125.000000,-16.000000
1295823.222275,-34.000000,-13.000000,-31.000000,-24.000000,-8.000000,-23.000000,-74.000000,-27.000000
1295823.223156,-18.000000,14.000000,3.000000,2.000000,-12.000000,-1.000000,-128.000000,-78.000000
1295823.223165,86.000000,93.000000,127.000000,127.000000,71.000000,51.000000,127.000000,127.000000
1295823.227675,-41.000000,-17.000000,-3.000000,-17.000000,-13.000000,4.000000,34.000000,-14.000000
1295823.227713,-33.000000,-26.000000,-38.000000,10.000000,5.000000,-15.000000,-128.000000,-71.000000
1295823.234422,38.000000,127.000000,55.000000,-38.000000,-21.000000,-8.000000,-48.000000,8.000000
1295823.234446,11.000000,-16.000000,19.000000,44.000000,10.000000,25.000000,127.000000,47.000000
1295823.249888,-9.000000,-62.000000,-11.000000,-6.000000,1.000000,8.000000,8.000000,36.000000
1295823.249897,-36.000000,-2.000000,-10.000000,-16.000000,-12.000000,-26.000000,-128.000000,-85.000000
1295823.256710,-20.000000,15.000000,-46.000000,-38.000000,-15.000000,-22.000000,-128.000000,-93.000000
1295823.256733,32.000000,14.000000,28.000000,50.000000,2.000000,-22.000000,127.000000,127.000000
1295823.265010,69.000000,60.000000,18.000000,27.000000,19.000000,26.000000,127.000000,76.000000
1295823.265019,-101.000000,-32.000000,-21.000000,-28.000000,-9.000000,-27.000000,-123.000000,-74.000000
1295823.301774,18.000000,13.000000,-25.000000,-29.000000,-9.000000,8.000000,-79.000000,-12.000000
1295823.301784,-5.000000,12.000000,89.000000,127.000000,63.000000,34.000000,92.000000,23.000000
1295823.339286,-12.000000,-52.000000,-21.000000,-41.000000,-24.000000,-12.000000,-41.000000,-40.000000
1295823.339297,-16.000000,5.000000,-29.000000,-42.000000,-15.000000,-37.000000,-122.000000,-66.000000
1295823.346760,-30.000000,-24.000000,26.000000,-31.000000,-18.000000,-4.000000,22.000000,37.000000
1295823.346779,77.000000,3.000000,47.000000,65.000000,39.000000,32.000000,127.000000,104.000000
1295823.347833,-74.000000,-32.000000,-37.000000,-3.000000,-1.000000,-11.000000,9.000000,-3.000000
1295823.347844,-28.000000,-44.000000,-108.000000,-112.000000,-34.000000,-30.000000,-128.000000,-128.000000
1295823.348419,-16.000000,72.000000,127.000000,127.000000,27.000000,1.000000,127.000000,69.000000
1295823.348429,-8.000000,-35.000000,-28.000000,5.000000,15.000000,-1.000000,30.000000,96.000000
1295823.349945,-68.000000,-27.000000,2.000000,-19.000000,-11.000000,-7.000000,-52.000000,-50.000000
1295823.349975,-50.000000,28.000000,-46.000000,-93.000000,-39.000000,-3.000000,-128.000000,-128.000000
1295823.362104,-18.000000,-7.000000,1.000000,14.000000,4.000000,-9.000000,-21.000000,-28.000000
1295823.362117,-7.000000,-12.000000,-33.000000,-26.000000,-11.000000,-11.000000,-18.000000,-22.000000
1295823.384530,19.000000,-18.000000,37.000000,70.000000,21.000000,17.000000,3.000000,11.000000
1295823.384560,-9.000000,-1.000000,6.000000,17.000000,-8.000000,-4.000000,69.000000,17.000000
1295823.385042,-1.000000,55.000000,18.000000,7.000000,7.000000,5.000000,-94.000000,-24.000000
1295823.385059,34.000000,14.000000,3.000000,67.000000,17.000000,-7.000000,127.000000,71.000000
1295823.386269,17.000000,-3.000000,-13.000000,-106.000000,-22.000000,8.000000,-88.000000,-44.000000
1295823.386290,30.000000,-33.000000,-1.000000,23.000000,19.000000,-1.000000,49.000000,18.000000
1295823.414286,-25.000000,0.000000,-14.000000,-30.000000,-17.000000,-12.000000,-33.000000,-20.000000
1295823.414296,6.000000,-38.000000,-84.000000,-128.000000,-33.000000,-16.000000,-34.000000,32.000000
1295823.429545,3.000000,51.000000,79.000000,127.000000,85.000000,36.000000,23.000000,-3.000000
1295823.429594,26.000000,5.000000,21.000000,49.000000,9.000000,-11.000000,-50.000000,-47.000000
1295823.430063,-128.000000,-28.000000,-38.000000,-48.000000,-27.000000,-17.000000,-6.000000,-33.000000
1295823.430091,20.000000,-7.000000,-15.000000,-25.000000,9.000000,39.000000,57.000000,32.000000
1295823.431445,44.000000,-11.000000,-27.000000,-22.000000,-1.000000,7.000000,120.000000,95.000000
1295823.431459,25.000000,102.000000,70.000000,-7.000000,-5.000000,0.000000,-95.000000,-44.000000
1295823.451937,-18.000000,-51.000000,-28.000000,-17.000000,-2.000000,11.000000,127.000000,29.000000
1295823.451954,-39.000000,-10.000000,48.000000,-6.000000,-23.000000,-16.000000,-128.000000,-121.000000
1295823.466977,88.000000,95.000000,88.000000,127.000000,68.000000,49.000000,127.000000,127.000000
1295823.466991,-3.000000,-37.000000,-14.000000,-30.000000,-17.000000,-5.000000,-15.000000,4.000000
1295823.467374,-26.000000,22.000000,-10.000000,-10.000000,-4.000000,-30.000000,-128.000000,-106.000000
1295823.467384,-47.000000,-93.000000,-39.000000,-31.000000,-7.000000,16.000000,-43.000000,-16.000000
1295823.469155,55.000000,13.000000,-4.000000,43.000000,30.000000,40.000000,127.000000,127.000000
1295823.469167,-23.000000,-19.000000,-12.000000,-41.000000,-6.000000,-7.000000,-100.000000,-36.000000
1295823.474366,0.000000,-14.000000,-7.000000,-11.000000,-4.000000,6.000000,-70.000000,-19.000000
1295823.474377,-6.000000,25.000000,15.000000,-13.000000,-15.000000,-16.000000,-65.000000,-32.000000
1295823.496610,2.000000,-55.000000,-1.000000,76.000000,49.000000,16.000000,42.000000,11.000000
1295823.496620,-13.000000,-26.000000,10.000000,-8.000000,-16.000000,-10.000000,-3.000000,-4.000000
1295823.504134,14.000000,38.000000,-8.000000,-49.000000,-21.000000,-12.000000,-9.000000,-13.000000
1295823.504144,-22.000000,-21.000000,-7.000000,67.000000,-5.000000,-21.000000,-38.000000,-40.000000
1295823.526857,-32.000000,-20.000000,13.000000,7.000000,16.000000,45.000000,-128.000000,-96.000000
1295823.526868,127.000000,78.000000,30.000000,24.000000,39.000000,62.000000,127.000000,127.000000
1295823.534196,-40.000000,-35.000000,-31.000000,-32.000000,-13.000000,-18.000000,-128.000000,-81.000000
1295823.534266,-16.000000,7.000000,-14.000000,-42.000000,-8.000000,7.000000,-38.000000,-76.000000
1295823.535428,-58.000000,26.000000,44.000000,30.000000,19.000000,0.000000,26.000000,11.000000
1295823.535472,-44.000000,-99.000000,-49.000000,-46.000000,-24.000000,-17.000000,-73.000000,-86.000000
1295823.541463,48.000000,3.000000,9.000000,13.000000,-4.000000,1.000000,48.000000,74.000000
1295823.541472,15.000000,9.000000,10.000000,25.000000,-3.000000,-1.000000,17.000000,28.000000
1295823.549141,-25.000000,-4.000000,7.000000,22.000000,15.000000,8.000000,13.000000,-23.000000
1295823.549152,21.000000,-15.000000,-28.000000,28.000000,-4.000000,-1.000000,-128.000000,-37.000000
1295823.579273,54.000000,23.000000,68.000000,69.000000,41.000000,21.000000,127.000000,107.000000
1295823.579283,-43.000000,5.000000,-19.000000,-48.000000,-19.000000,-11.000000,-84.000000,-39.000000
1295823.586771,2.000000,-14.000000,-10.000000,-14.000000,-6.000000,-9.000000,-21.000000,-16.000000
1295823.586814,16.000000,32.000000,-3.000000,-23.000000,-10.000000,0.000000,16.000000,6.000000
1295823.587243,17.000000,47.000000,-55.000000,-102.000000,-36.000000,-25.000000,0.000000,-32.000000
1295823.587255,13.000000,14.000000,44.000000,75.000000,19.000000,6.000000,-116.000000,10.000000
1295823.588668,-2.000000,-67.000000,-22.000000,0.000000,10.000000,23.000000,127.000000,56.000000
1295823.588680,-94.000000,5.000000,-29.000000,-31.000000,-24.000000,-32.000000,-128.000000,-128.000000
1295823.601587,-34.000000,-7.000000,-29.000000,0.000000,-22.000000,-24.000000,127.000000,63.000000
1295823.601597,82.000000,-6.000000,33.000000,-5.000000,34.000000,27.000000,-31.000000,83.000000
1295823.617411,-49.000000,-37.000000,-15.000000,-24.000000,-15.000000,-14.000000,-123.000000,-81.000000
1295823.617423,-31.000000,29.000000,-22.000000,-13.000000,-16.000000,-32.000000,-112.000000,-89.000000
1295823.618120,-19.000000,-12.000000,4.000000,-9.000000,-9.000000,4.000000,29.000000,36.000000
1295823.618133,4.000000,11.000000,5.000000,8.000000,19.000000,9.000000,26.000000,6.000000
1295823.654307,-20.000000,-37.000000,-13.000000,12.000000,2.000000,-8.000000,-14.000000,-13.000000
1295823.654330,-13.000000,4.000000,-79.000000,-128.000000,-35.000000,-16.000000,0.000000,-14.000000
1295823.661960,59.000000,54.000000,127.000000,127.000000,106.000000,65.000000,127.000000,58.000000
1295823.661972,12.000000,-22.000000,-26.000000,-32.000000,-1.000000,-12.000000,8.000000,22.000000
1295823.691927,-12.000000,-26.000000,32.000000,-16.000000,0.000000,-5.000000,-112.000000,-32.000000
1295823.691937,-6.000000,24.000000,-4.000000,14.000000,-5.000000,-2.000000,38.000000,17.000000
1295823.698994,0.000000,6.000000,29.000000,9.000000,10.000000,32.000000,65.000000,27.000000
1295823.699004,21.000000,-23.000000,-21.000000,-6.000000,-23.000000,-16.000000,30.000000,-7.000000
1295823.700369,-42.000000,-35.000000,11.000000,3.000000,-2.000000,4.000000,-123.000000,38.000000
1295823.700378,12.000000,2.000000,-31.000000,-20.000000,2.000000,13.000000,127.000000,38.000000
1295823.700940,-12.000000,-55.000000,-2.000000,16.000000,1.000000,-15.000000,-105.000000,-51.000000
1295823.700948,27.000000,83.000000,-11.000000,9.000000,10.000000,15.000000,118.000000,42.000000
1295823.702502,-14.000000,1.000000,25.000000,88.000000,27.000000,-5.000000,-122.000000,-50.000000
1295823.702511,3.000000,12.000000,31.000000,85.000000,15.000000,11.000000,-15.000000,-18.000000
1295823.707411,14.000000,-4.000000,17.000000,52.000000,-21.000000,-15.000000,-93.000000,0.000000
1295823.707419,-35.000000,-17.000000,5.000000,30.000000,11.000000,2.000000,94.000000,46.000000
1295823.729445,-17.000000,35.000000,8.000000,8.000000,3.000000,4.000000,-15.000000,-14.000000
1295823.729457,-1.000000,14.000000,6.000000,-14.000000,-15.000000,-31.000000,-42.000000,-46.000000
1295823.737302,37.000000,13.000000,6.000000,13.000000,1.000000,2.000000,47.000000,30.000000
1295823.737314,-5.000000,0.000000,-16.000000,-34.000000,-7.000000,-4.000000,46.000000,8.000000
1295823.738118,-17.000000,18.000000,82.000000,112.000000,14.000000,10.000000,-70.000000,-13.000000
1295823.738129,11.000000,-32.000000,6.000000,-10.000000,-2.000000,-9.000000,38.000000,17.000000
1295823.751869,-55.000000,-12.000000,-55.000000,-17.000000,-20.000000,-7.000000,-128.000000,-128.000000
1295823.751887,76.000000,18.000000,25.000000,40.000000,22.000000,22.000000,127.000000,127.000000
1295823.781903,42.000000,24.000000,-21.000000,-17.000000,1.000000,-2.000000,-67.000000,-3.000000
1295823.781931,-25.000000,-52.000000,-29.000000,-36.000000,-42.000000,-24.000000,-88.000000,-63.000000
1295823.804283,-100.000000,-35.000000,1.000000,-24.000000,-29.000000,-39.000000,-124.000000,-92.000000
1295823.804294,22.000000,37.000000,16.000000,16.000000,2.000000,19.000000,127.000000,40.000000
1295823.811798,35.000000,-12.000000,15.000000,67.000000,30.000000,28.000000,44.000000,40.000000
1295823.811837,-12.000000,-19.000000,-5.000000,24.000000,8.000000,22.000000,-18.000000,-6.000000
1295823.812711,-35.000000,5.000000,9.000000,0.000000,-13.000000,-38.000000,-12.000000,-21.000000
1295823.812720,-5.000000,6.000000,-9.000000,-21.000000,2.000000,2.000000,-27.000000,-15.000000
1295823.813329,-29.000000,-59.000000,-52.000000,-41.000000,-20.000000,-16.000000,6.000000,-28.000000
1295823.813338,33.000000,65.000000,96.000000,92.000000,82.000000,68.000000,49.000000,64.000000
1295823.814821,54.000000,19.000000,-4.000000,-48.000000,-24.000000,5.000000,68.000000,60.000000
1295823.814830,-12.000000,0.000000,-29.000000,-9.000000,5.000000,0.000000,43.000000,10.000000
1295823.819258,-17.000000,1.000000,-12.000000,-16.000000,-16.000000,-18.000000,-122.000000,-79.000000
1295823.819277,22.000000,8.000000,-12.000000,-33.000000,3.000000,34.000000,127.000000,66.000000
1295823.827346,21.000000,-29.000000,-30.000000,14.000000,2.000000,-9.000000,15.000000,23.000000
1295823.827356,15.000000,53.000000,5.000000,-5.000000,-15.000000,-22.000000,-120.000000,-59.000000
1295823.857005,-92.000000,-11.000000,28.000000,83.000000,8.000000,12.000000,-11.000000,16.000000
1295823.857017,6.000000,-32.000000,-40.000000,4.000000,-8.000000,0.000000,57.000000,-8.000000
1295823.857862,-33.000000,30.000000,33.000000,42.000000,24.000000,24.000000,20.000000,22.000000
1295823.857870,-8.000000,6.000000,53.000000,-15.000000,-6.000000,-3.000000,-25.000000,-14.000000
1295823.858774,43.000000,19.000000,-41.000000,-87.000000,-23.000000,-21.000000,-32.000000,-58.000000
1295823.858782,127.000000,44.000000,-74.000000,78.000000,26.000000,16.000000,17.000000,75.000000
1295823.886843,-12.000000,-37.000000,5.000000,-6.000000,4.000000,10.000000,43.000000,21.000000
1295823.886862,-128.000000,-3.000000,33.000000,8.000000,7.000000,-8.000000,-36.000000,-58.000000
1295823.894551,61.000000,45.000000,35.000000,-21.000000,5.000000,20.000000,87.000000,37.000000
1295823.894582,-8.000000,18.000000,-32.000000,-26.000000,-22.000000,-49.000000,116.000000,18.000000
1295823.931772,71.000000,12.000000,37.000000,16.000000,6.000000,-21.000000,-49.000000,22.000000
1295823.931782,-128.000000,-70.000000,-45.000000,-91.000000,-28.000000,-31.000000,-128.000000,-128.000000
1295823.939277,51.000000,45.000000,127.000000,127.000000,66.000000,54.000000,127.000000,107.000000
1295823.939305,17.000000,-2.000000,-6.000000,-7.000000,16.000000,38.000000,127.000000,127.000000
1295823.940297,12.000000,-21.000000,-24.000000,-34.000000,-13.000000,-16.000000,-128.000000,-70.000000
1295823.940323,-14.000000,-8.000000,-20.000000,-15.000000,-16.000000,-15.000000,-84.000000,-73.000000
1295823.941048,-41.000000,5.000000,-17.000000,-7.000000,-12.000000,0.000000,29.000000,-22.000000
1295823.941075,-6.000000,-22.000000,-14.000000,1.000000,-16.000000,-24.000000,-30.000000,-9.000000
1295823.942856,21.000000,19.000000,2.000000,-31.000000,-22.000000,-24.000000,18.000000,-11.000000
1295823.942866,-11.000000,-13.000000,28.000000,31.000000,5.000000,4.000000,0.000000,5.000000
1295823.947536,10.000000,-28.000000,29.000000,38.000000,21.000000,25.000000,-45.000000,-5.000000
1295823.947545,-29.000000,-47.000000,4.000000,17.000000,3.000000,-24.000000,60.000000,7.000000
1295823.961851,30.000000,3.000000,-27.000000,-34.000000,2.000000,-6.000000,-34.000000,-28.000000
1295823.961888,-12.000000,-55.000000,25.000000,-86.000000,-29.000000,15.000000,-80.000000,-12.000000
1295823.969413,18.000000,13.000000,51.000000,118.000000,68.000000,26.000000,127.000000,62.000000
1295823.969443,-45.000000,-27.000000,1.000000,-29.000000,-17.000000,-27.000000,-40.000000,-46.000000
1295823.977113,127.000000,-2.000000,-3.000000,-42.000000,-3.000000,-2.000000,-28.000000,56.000000
1295823.977137,-8.000000,-15.000000,-18.000000,-11.000000,0.000000,23.000000,41.000000,-16.000000
1295823.991766,5.000000,4.000000,0.000000,-8.000000,0.000000,-27.000000,-3.000000,-12.000000
1295823.991788,34.000000,-8.000000,39.000000,44.000000,13.000000,-5.000000,-47.000000,-11.000000
1295824.014207,6.000000,0.000000,-51.000000,-6.000000,-3.000000,-7.000000,42.000000,-2.000000
1295824.014217,-16.000000,32.000000,-40.000000,-90.000000,-38.000000,-41.000000,-128.000000,-46.000000
1295824.029290,82.000000,30.000000,82.000000,103.000000,64.000000,47.000000,127.000000,100.000000
1295824.029305,-75.000000,-87.000000,-57.000000,-39.000000,-19.000000,-31.000000,-101.000000,-76.000000
1295824.044511,36.000000,46.000000,30.000000,-44.000000,-21.000000,6.000000,58.000000,51.000000
1295824.044562,-10.000000,-8.000000,8.000000,74.000000,11.000000,6.000000,-3.000000,-8.000000
1295824.052691,50.000000,28.000000,21.000000,-25.000000,-13.000000,-27.000000,-25.000000,3.000000
1295824.052699,-120.000000,-54.000000,-60.000000,-27.000000,-25.000000,-18.000000,-68.000000,-36.000000
1295824.053141,-37.000000,-16.000000,-54.000000,-74.000000,-26.000000,-25.000000,-128.000000,-87.000000
1295824.053167,25.000000,37.000000,107.000000,127.000000,81.000000,58.000000,127.000000,94.000000
1295824.054760,37.000000,-23.000000,-24.000000,2.000000,2.000000,8.000000,22.000000,31.000000
1295824.054788,33.000000,-35.000000,-6.000000,-42.000000,-21.000000,-10.000000,-128.000000,-40.000000
1295824.059727,8.000000,11.000000,30.000000,29.000000,11.000000,9.000000,32.000000,-17.000000
1295824.059778,-56.000000,13.000000,-10.000000,35.000000,7.000000,-9.000000,-107.000000,-52.000000
1295824.067745,50.000000,-2.000000,-7.000000,-49.000000,-29.000000,-53.000000,82.000000,27.000000
1295824.067766,15.000000,26.000000,37.000000,34.000000,10.000000,2.000000,0.000000,25.000000
1295824.089211,-45.000000,-35.000000,-59.000000,6.000000,-6.000000,2.000000,-36.000000,-38.000000
1295824.089221,5.000000,10.000000,14.000000,5.000000,0.000000,-7.000000,-32.000000,-2.000000
1295824.090588,-4.000000,-3.000000,18.000000,-53.000000,-30.000000,-3.000000,-5.000000,-33.000000
1295824.090605,-3.000000,-79.000000,-103.000000,-22.000000,21.000000,30.000000,99.000000,65.000000
1295824.096723,0.000000,16.000000,-14.000000,-1.000000,3.000000,-9.000000,-50.000000,2.000000
1295824.096734,-12.000000,-1.000000,10.000000,38.000000,6.000000,17.000000,-10.000000,-18.000000
1295824.119324,-40.000000,-32.000000,-43.000000,-51.000000,-3.000000,-13.000000,-9.000000,-31.000000
1295824.119335,71.000000,66.000000,57.000000,94.000000,35.000000,10.000000,127.000000,32.000000
1295824.134356,-117.000000,1.000000,23.000000,55.000000,28.000000,6.000000,20.000000,39.000000
1295824.134368,-26.000000,1.000000,11.000000,-15.000000,-7.000000,-12.000000,-96.000000,-52.000000
1295824.156818,8.000000,-21.000000,-25.000000,42.000000,-15.000000,-24.000000,6.000000,-20.000000
1295824.156829,-28.000000,-60.000000,-28.000000,-3.000000,-2.000000,-13.000000,-22.000000,-3.000000
1295824.172627,9.000000,38.000000,3.000000,-6.000000,-10.000000,-10.000000,-69.000000,-57.000000
1295824.172649,10.000000,20.000000,43.000000,11.000000,-2.000000,-10.000000,-84.000000,21.000000
1295824.209766,-14.000000,-6.000000,-9.000000,-4.000000,3.000000,8.000000,127.000000,62.000000
1295824.210030,58.000000,-6.000000,-20.000000,3.000000,14.000000,21.000000,-2.000000,24.000000
1295824.210616,-74.000000,-33.000000,-9.000000,-56.000000,-30.000000,-25.000000,-22.000000,-32.000000
1295824.210641,-64.000000,17.000000,39.000000,97.000000,21.000000,3.000000,-53.000000,-42.000000
1295824.212337,62.000000,7.000000,-31.000000,-39.000000,-5.000000,-8.000000,26.000000,-10.000000
1295824.212377,-34.000000,0.000000,6.000000,27.000000,-22.000000,10.000000,-36.000000,-5.000000
1295824.212574,-52.000000,-34.000000,-27.000000,9.000000,-8.000000,-41.000000,126.000000,13.000000
1295824.212615,45.000000,11.000000,-4.000000,-23.000000,-5.000000,2.000000,-36.000000,16.000000
1295824.214222,32.000000,39.000000,48.000000,24.000000,21.000000,12.000000,49.000000,27.000000
1295824.214241,0.000000,-33.000000,-43.000000,-20.000000,-11.000000,-16.000000,-41.000000,-37.000000
1295824.217089,-115.000000,4.000000,48.000000,31.000000,12.000000,14.000000,64.000000,9.000000
1295824.217109,-13.000000,-2.000000,-9.000000,-37.000000,-10.000000,3.000000,-15.000000,2.000000
1295824.231828,-116.000000,-26.000000,-62.000000,-123.000000,-36.000000,-10.000000,-62.000000,-124.000000
1295824.231848,21.000000,13.000000,67.000000,112.000000,84.000000,44.000000,22.000000,57.000000
1295824.246852,-3.000000,13.000000,4.000000,-19.000000,4.000000,-4.000000,97.000000,18.000000
1295824.246874,42.000000,-17.000000,-17.000000,-35.000000,-16.000000,-8.000000,-39.000000,18.000000
1295824.262264,91.000000,66.000000,-18.000000,-25.000000,-11.000000,-5.000000,-17.000000,-15.000000
1295824.262280,2.000000,-4.000000,10.000000,60.000000,24.000000,0.000000,-20.000000,-1.000000
1295824.291882,12.000000,6.000000,-5.000000,-5.000000,-4.000000,-17.000000,-128.000000,-47.000000
1295824.291896,-58.000000,33.000000,-29.000000,-19.000000,12.000000,27.000000,127.000000,38.000000
1295824.292882,-13.000000,-23.000000,-26.000000,-36.000000,-5.000000,11.000000,-44.000000,-57.000000
1295824.292896,44.000000,-11.000000,-11.000000,-8.000000,-15.000000,-54.000000,-29.000000,27.000000
1295824.293522,-29.000000,19.000000,5.000000,17.000000,11.000000,-9.000000,115.000000,56.000000
1295824.293533,14.000000,-5.000000,-42.000000,-21.000000,-14.000000,-21.000000,-128.000000,-36.000000
1295824.295007,30.000000,17.000000,86.000000,127.000000,24.000000,31.000000,-14.000000,-3.000000
1295824.295016,36.000000,-11.000000,-13.000000,10.000000,2.000000,14.000000,-9.000000,59.000000
1295824.299485,-37.000000,-59.000000,-69.000000,-26.000000,-15.000000,-10.000000,29.000000,-12.000000
1295824.299496,26.000000,-19.000000,-7.000000,-39.000000,-41.000000,-12.000000,-112.000000,-46.000000
1295824.331314,20.000000,58.000000,44.000000,68.000000,22.000000,13.000000,120.000000,67.000000
1295824.331537,-53.000000,-53.000000,-26.000000,-39.000000,-24.000000,-34.000000,-103.000000,-50.000000
1295824.331758,12.000000,-12.000000,-42.000000,-27.000000,-7.000000,-5.000000,-43.000000,-41.000000
1295824.331850,-19.000000,-16.000000,-3.000000,-25.000000,-25.000000,-17.000000,88.000000,-2.000000
1295824.332857,-8.000000,-15.000000,8.000000,40.000000,26.000000,13.000000,-26.000000,4.000000
1295824.332876,28.000000,29.000000,15.000000,10.000000,4.000000,9.000000,-16.000000,-33.000000
1295824.337386,-8.000000,-28.000000,13.000000,-57.000000,-33.000000,-31.000000,2.000000,20.000000
1295824.337406,6.000000,-7.000000,2.000000,25.000000,14.000000,13.000000,102.000000,62.000000
1295824.367496,-17.000000,15.000000,2.000000,-19.000000,-13.000000,-7.000000,-117.000000,-55.000000
1295824.367516,93.000000,55.000000,37.000000,-22.000000,8.000000,46.000000,127.000000,95.000000
1295824.375161,-128.000000,-49.000000,-37.000000,19.000000,-10.000000,-28.000000,-60.000000,-65.000000
1295824.375184,-28.000000,19.000000,37.000000,16.000000,-8.000000,-8.000000,-14.000000,-42.000000
1295824.411592,20.000000,-14.000000,16.000000,13.000000,-10.000000,-29.000000,-14.000000,31.000000
1295824.411607,35.000000,6.000000,12.000000,-24.000000,1.000000,14.000000,38.000000,21.000000
1295824.412065,-10.000000,10.000000,-6.000000,50.000000,12.000000,7.000000,0.000000,-14.000000
1295824.412085,-7.000000,-11.000000,-6.000000,-33.000000,-30.000000,-17.000000,-73.000000,-29.000000
1295824.413545,-26.000000,-71.000000,-92.000000,-82.000000,-21.000000,-26.000000,-53.000000,-59.000000
1295824.413560,4.000000,12.000000,30.000000,56.000000,28.000000,25.000000,-11.000000,53.000000
1295824.414042,-2.000000,8.000000,33.000000,32.000000,23.000000,12.000000,121.000000,48.000000
1295824.414059,-11.000000,-13.000000,-38.000000,-15.000000,-1.000000,1.000000,-6.000000,1.000000
1295824.415547,-13.000000,57.000000,11.000000,-81.000000,-23.000000,1.000000,-52.000000,-56.000000
1295824.415575,-9.000000,-36.000000,-14.000000,40.000000,20.000000,21.000000,23.000000,1.000000
1295824.419103,53.000000,43.000000,21.000000,-22.000000,-4.000000,-16.000000,-10.000000,21.000000
1295824.419112,-8.000000,-26.000000,-32.000000,-22.000000,-8.000000,-19.000000,87.000000,75.000000
1295824.449785,-42.000000,-38.000000,-54.000000,-23.000000,-23.000000,-26.000000,-128.000000,-88.000000
1295824.449795,46.000000,33.000000,28.000000,16.000000,15.000000,57.000000,127.000000,40.000000
1295824.450356,10.000000,0.000000,-44.000000,-8.000000,-3.000000,-38.000000,15.000000,15.000000
1295824.450364,-44.000000,-17.000000,-12.000000,6.000000,-5.000000,-9.000000,-40.000000,-31.000000
1295824.451771,19.000000,4.000000,8.000000,16.000000,15.000000,23.000000,5.000000,-16.000000
1295824.451781,-56.000000,-7.000000,6.000000,10.000000,6.000000,-16.000000,-22.000000,9.000000
1295824.457006,22.000000,19.000000,30.000000,2.000000,1.000000,7.000000,-128.000000,-31.000000
1295824.457034,16.000000,-7.000000,-41.000000,-89.000000,-25.000000,-16.000000,119.000000,9.000000
1295824.486888,7.000000,3.000000,48.000000,37.000000,24.000000,-2.000000,-23.000000,29.000000
1295824.486900,-12.000000,-34.000000,-56.000000,-49.000000,-14.000000,4.000000,109.000000,9.000000
1295824.494432,-24.000000,-12.000000,11.000000,-53.000000,-15.000000,-21.000000,-71.000000,-14.000000
1295824.494444,9.000000,7.000000,-32.000000,-4.000000,-6.000000,-10.000000,-45.000000,-25.000000
1295824.524310,-31.000000,4.000000,61.000000,48.000000,11.000000,15.000000,-2.000000,-30.000000
1295824.524322,-15.000000,-30.000000,-1.000000,-38.000000,-8.000000,-12.000000,-123.000000,-73.000000
1295824.531543,69.000000,58.000000,-10.000000,4.000000,-24.000000,-56.000000,123.000000,100.000000
1295824.531553,-36.000000,-16.000000,-24.000000,-5.000000,10.000000,20.000000,72.000000,-3.000000
1295824.532716,25.000000,15.000000,24.000000,-5.000000,8.000000,28.000000,-59.000000,61.000000
1295824.532724,-4.000000,13.000000,23.000000,63.000000,-5.000000,-10.000000,56.000000,-6.000000
1295824.533430,12.000000,-5.000000,-14.000000,-42.000000,-15.000000,5.000000,-42.000000,-53.000000
1295824.533438,-34.000000,-17.000000,-18.000000,-9.000000,1.000000,-40.000000,-128.000000,-30.000000
1295824.534917,-63.000000,-23.000000,-6.000000,-14.000000,0.000000,-1.000000,48.000000,-41.000000
1295824.534925,24.000000,1.000000,35.000000,32.000000,6.000000,3.000000,15.000000,69.000000
1295824.539123,-2.000000,21.000000,-26.000000,-24.000000,-7.000000,10.000000,-26.000000,-40.000000
1295824.539130,-18.000000,-1.000000,4.000000,-4.000000,-3.000000,-15.000000,-84.000000,-35.000000
1295824.569579,29.000000,16.000000,17.000000,55.000000,17.000000,26.000000,37.000000,36.000000
1295824.569589,-33.000000,-4.000000,-4.000000,-28.000000,-14.000000,10.000000,84.000000,23.000000
1295824.570270,-86.000000,-15.000000,19.000000,23.000000,17.000000,-7.000000,-128.000000,-58.000000
1295824.570285,12.000000,-4.000000,-14.000000,0.000000,14.000000,27.000000,127.000000,61.000000
1295824.571757,59.000000,23.000000,29.000000,4.000000,-2.000000,-4.000000,-52.000000,-25.000000
1295824.571766,-4.000000,1.000000,-29.000000,-28.000000,-11.000000,0.000000,11.000000,43.000000
1295824.599533,-46.000000,-11.000000,16.000000,122.000000,57.000000,21.000000,46.000000,19.000000
1295824.599543,-19.000000,22.000000,92.000000,15.000000,-3.000000,-7.000000,-118.000000,-75.000000
1295824.614755,58.000000,-15.000000,-107.000000,-6.000000,8.000000,-8.000000,-47.000000,-25.000000
1295824.614780,11.000000,-5.000000,63.000000,80.000000,34.000000,45.000000,42.000000,58.000000
1295824.621744,-84.000000,-2.000000,-1.000000,-9.000000,-12.000000,15.000000,-7.000000,-71.000000
1295824.621754,53.000000,2.000000,10.000000,27.000000,21.000000,51.000000,127.000000,124.000000
1295824.652054,34.000000,95.000000,39.000000,31.000000,32.000000,39.000000,127.000000,102.000000
1295824.652092,-68.000000,-50.000000,8.000000,-48.000000,-8.000000,-10.000000,-121.000000,-61.000000
1295824.689230,10.000000,-17.000000,-58.000000,-32.000000,-19.000000,-13.000000,-21.000000,-44.000000
1295824.689239,26.000000,8.000000,3.000000,-8.000000,-2.000000,1.000000,7.000000,14.000000
1295824.690239,-29.000000,-18.000000,-45.000000,-58.000000,-20.000000,0.000000,-128.000000,-39.000000
1295824.690248,-103.000000,-2.000000,-20.000000,61.000000,-9.000000,-14.000000,127.000000,38.000000
1295824.690896,15.000000,2.000000,21.000000,-34.000000,-8.000000,7.000000,-15.000000,-20.000000
1295824.690905,-42.000000,-9.000000,26.000000,33.000000,4.000000,-26.000000,-122.000000,-34.000000
1295824.692490,-20.000000,6.000000,57.000000,126.000000,27.000000,-25.000000,7.000000,-15.000000
1295824.692499,26.000000,-33.000000,-29.000000,-10.000000,10.000000,20.000000,123.000000,41.000000
1295824.696761,11.000000,78.000000,31.000000,-9.000000,0.000000,12.000000,-36.000000,-13.000000
1295824.696772,4.000000,-37.000000,-1.000000,-20.000000,-7.000000,-15.000000,2.000000,55.000000
1295824.712037,-13.000000,1.000000,-8.000000,-26.000000,-16.000000,-15.000000,72.000000,19.000000
1295824.712059,-51.000000,-22.000000,-10.000000,0.000000,-1.000000,-4.000000,-40.000000,-23.000000
1295824.734569,-5.000000,-11.000000,-6.000000,-72.000000,-17.000000,-6.000000,-29.000000,-31.000000
1295824.734590,-1.000000,-13.000000,6.000000,-20.000000,-30.000000,-34.000000,-43.000000,-10.000000
1295824.741877,-21.000000,-7.000000,-17.000000,-7.000000,-13.000000,1.000000,-128.000000,-46.000000
1295824.741890,18.000000,3.000000,5.000000,8.000000,0.000000,20.000000,58.000000,52.000000
1295824.764375,43.000000,11.000000,18.000000,38.000000,5.000000,-1.000000,127.000000,55.000000
1295824.764393,-31.000000,-3.000000,37.000000,16.000000,6.000000,-5.000000,-97.000000,-7.000000
1295824.771818,-8.000000,6.000000,-29.000000,-9.000000,0.000000,9.000000,-80.000000,-65.000000
1295824.771828,-9.000000,-6.000000,-7.000000,-10.000000,-3.000000,-6.000000,-68.000000,8.000000
1295824.786689,65.000000,21.000000,-5.000000,-26.000000,-21.000000,-7.000000,27.000000,1.000000
1295824.786700,46.000000,15.000000,37.000000,17.000000,23.000000,33.000000,127.000000,74.000000
1295824.802013,-38.000000,-13.000000,-21.000000,-30.000000,-12.000000,-19.000000,-128.000000,-74.000000
1295824.802029,25.000000,16.000000,4.000000,38.000000,32.000000,25.000000,69.000000,78.000000
1295824.809715,47.000000,-12.000000,-10.000000,-46.000000,-33.000000,-29.000000,-31.000000,-28.000000
1295824.809735,-42.000000,28.000000,0.000000,24.000000,9.000000,-3.000000,-58.000000,-27.000000
1295824.810563,19.000000,-26.000000,42.000000,56.000000,14.000000,18.000000,28.000000,-7.000000
1295824.810580,20.000000,31.000000,-24.000000,-16.000000,-4.000000,2.000000,47.000000,30.000000
1295824.824107,47.000000,-14.000000,10.000000,-5.000000,-4.000000,-6.000000,-20.000000,-15.000000
1295824.824117,-123.000000,-36.000000,-17.000000,-14.000000,-14.000000,10.000000,-105.000000,2.000000
1295824.839405,18.000000,13.000000,32.000000,22.000000,-1.000000,8.000000,127.000000,61.000000
1295824.839417,0.000000,-7.000000,-9.000000,-2.000000,2.000000,21.000000,-10.000000,-30.000000
1295824.846848,2.000000,9.000000,22.000000,37.000000,37.000000,47.000000,64.000000,59.000000
1295824.846860,25.000000,21.000000,-7.000000,-28.000000,-7.000000,-5.000000,-34.000000,-16.000000
1295824.876911,-44.000000,-24.000000,-11.000000,32.000000,1.000000,-12.000000,-68.000000,-32.000000
1295824.876924,21.000000,19.000000,-11.000000,2.000000,1.000000,14.000000,-9.000000,34.000000
1295824.884245,-34.000000,-31.000000,-33.000000,-33.000000,-19.000000,-19.000000,-17.000000,-38.000000
1295824.884256,18.000000,27.000000,10.000000,42.000000,0.000000,-12.000000,-25.000000,-13.000000
1295824.885312,5.000000,-46.000000,74.000000,26.000000,0.000000,22.000000,84.000000,-12.000000
1295824.885322,-21.000000,-2.000000,-31.000000,-26.000000,-11.000000,-7.000000,-47.000000,38.000000
1295824.885941,19.000000,5.000000,10.000000,10.000000,6.000000,-7.000000,52.000000,14.000000
1295824.885950,23.000000,-8.000000,-27.000000,-11.000000,2.000000,10.000000,2.000000,21.000000
1295824.887528,-52.000000,-13.000000,-37.000000,-22.000000,-19.000000,-11.000000,-44.000000,-46.000000
1295824.887538,53.000000,17.000000,20.000000,18.000000,10.000000,18.000000,84.000000,43.000000
1295824.891770,46.000000,1.000000,-14.000000,-35.000000,2.000000,9.000000,40.000000,105.000000
1295824.891782,-28.000000,-50.000000,-62.000000,40.000000,7.000000,-12.000000,-128.000000,-33.000000
1295824.899295,35.000000,97.000000,82.000000,71.000000,24.000000,20.000000,52.000000,-18.000000
1295824.899313,-28.000000,-46.000000,-14.000000,-10.000000,-16.000000,-7.000000,-3.000000,-23.000000
1295824.922375,9.000000,-13.000000,-103.000000,-64.000000,-18.000000,-35.000000,-47.000000,-17.000000
1295824.922403,-3.000000,28.000000,79.000000,113.000000,6.000000,4.000000,-128.000000,-25.000000
1295824.923010,22.000000,6.000000,2.000000,-12.000000,-4.000000,6.000000,127.000000,33.000000
1295824.923018,-14.000000,-9.000000,-13.000000,-25.000000,-5.000000,-12.000000,-47.000000,7.000000
1295824.929684,-27.000000,-24.000000,-75.000000,-17.000000,-24.000000,-8.000000,-80.000000,-79.000000
1295824.929702,21.000000,9.000000,0.000000,-10.000000,7.000000,15.000000,127.000000,52.000000
1295824.959471,-11.000000,-1.000000,66.000000,99.000000,42.000000,-12.000000,-108.000000,-34.000000
1295824.959483,-7.000000,3.000000,-7.000000,-68.000000,-28.000000,12.000000,12.000000,4.000000
1295824.974427,-1.000000,21.000000,0.000000,27.000000,17.000000,-7.000000,25.000000,1.000000
1295824.974450,-55.000000,-7.000000,9.000000,-6.000000,-10.000000,-4.000000,-61.000000,-103.000000
1295824.989223,-31.000000,-19.000000,-23.000000,-53.000000,-56.000000,-46.000000,-128.000000,-15.000000
1295824.989233,92.000000,3.000000,-31.000000,4.000000,12.000000,36.000000,127.000000,127.000000
1295825.004712,-10.000000,25.000000,22.000000,-9.000000,-6.000000,-32.000000,-128.000000,-109.000000
1295825.004723,-37.000000,-31.000000,-45.000000,-52.000000,-19.000000,-7.000000,-8.000000,-36.000000
1295825.005301,23.000000,25.000000,51.000000,108.000000,23.000000,9.000000,3.000000,22.000000
1295825.005312,-40.000000,-26.000000,-32.000000,-24.000000,-4.000000,-26.000000,-93.000000,-76.000000
1295825.006638,14.000000,26.000000,-14.000000,-20.000000,-30.000000,-17.000000,6.000000,6.000000
1295825.006648,37.000000,-2.000000,22.000000,62.000000,47.000000,24.000000,97.000000,94.000000
1295825.007237,-44.000000,-32.000000,-36.000000,3.000000,-7.000000,0.000000,-26.000000,-95.000000
1295825.007247,-15.000000,5.000000,27.000000,0.000000,-15.000000,-56.000000,-104.000000,-47.000000
1295825.011891,-36.000000,-39.000000,-3.000000,-47.000000,-10.000000,16.000000,8.000000,15.000000
1295825.011903,24.000000,23.000000,37.000000,15.000000,19.000000,15.000000,94.000000,60.000000
1295825.041963,-36.000000,-20.000000,-36.000000,-22.000000,-7.000000,-11.000000,47.000000,-48.000000
1295825.041974,19.000000,-7.000000,11.000000,-4.000000,-9.000000,-5.000000,-67.000000,-14.000000
1295825.056581,-30.000000,-15.000000,-44.000000,18.000000,17.000000,-11.000000,-91.000000,-36.000000
1295825.056591,57.000000,23.000000,13.000000,-19.000000,5.000000,25.000000,127.000000,127.000000
1295825.064253,-48.000000,-48.000000,17.000000,82.000000,9.000000,-14.000000,-80.000000,-89.000000
1295825.064262,23.000000,1.000000,23.000000,25.000000,7.000000,12.000000,1.000000,-14.000000
1295825.086742,-28.000000,-13.000000,-1.000000,-5.000000,-4.000000,-8.000000,-48.000000,-15.000000
1295825.086776,22.000000,35.000000,-21.000000,-40.000000,-25.000000,-19.000000,-26.000000,-20.000000
1295825.094324,1.000000,-9.000000,-26.000000,3.000000,9.000000,21.000000,64.000000,8.000000
1295825.094335,-15.000000,3.000000,-21.000000,-24.000000,-20.000000,-40.000000,-24.000000,-13.000000
1295825.117269,2.000000,13.000000,17.000000,64.000000,19.000000,4.000000,16.000000,17.000000
1295825.117280,-4.000000,-16.000000,37.000000,52.000000,32.000000,0.000000,-128.000000,-39.000000
1295825.124045,-12.000000,-3.000000,-54.000000,-30.000000,-25.000000,7.000000,57.000000,-18.000000
1295825.124055,43.000000,16.000000,29.000000,19.000000,17.000000,22.000000,127.000000,91.000000
1295825.126224,-21.000000,-34.000000,-6.000000,-9.000000,-10.000000,-36.000000,-76.000000,-46.000000
1295825.126250,0.000000,14.000000,-9.000000,2.000000,-1.000000,19.000000,-120.000000,-84.000000
1295825.126985,-15.000000,12.000000,-12.000000,-40.000000,-4.000000,25.000000,127.000000,77.000000
1295825.127008,52.000000,-11.000000,2.000000,11.000000,1.000000,-21.000000,37.000000,120.000000
1295825.128056,-25.000000,38.000000,-4.000000,33.000000,22.000000,55.000000,127.000000,127.000000
1295825.128083,-10.000000,-21.000000,-13.000000,-30.000000,-5.000000,-7.000000,-128.000000,-82.000000
1295825.132438,-36.000000,9.000000,28.000000,11.000000,-25.000000,-86.000000,-128.000000,-105.000000
1295825.132470,51.000000,17.000000,-7.000000,-19.000000,1.000000,-8.000000,127.000000,127.000000
1295825.140569,-14.000000,-32.000000,16.000000,14.000000,16.000000,5.000000,-128.000000,12.000000
1295825.140641,-3.000000,30.000000,0.000000,-48.000000,-14.000000,-11.000000,-128.000000,-79.000000
1295825.154951,-21.000000,-28.000000,-31.000000,-42.000000,-16.000000,-26.000000,-128.000000,-103.000000
1295825.154963,13.000000,40.000000,36.000000,25.000000,17.000000,9.000000,127.000000,-48.000000
1295825.161698,19.000000,-16.000000,-24.000000,2.000000,4.000000,-32.000000,-57.000000,39.000000
1295825.161711,-36.000000,25.000000,-5.000000,-1.000000,11.000000,33.000000,114.000000,15.000000
1295825.169311,25.000000,-5.000000,-24.000000,-25.000000,5.000000,28.000000,109.000000,76.000000
1295825.169323,-25.000000,-29.000000,2.000000,18.000000,13.000000,-6.000000,-41.000000,-24.000000
1295825.207041,-1.000000,16.000000,-11.000000,11.000000,-7.000000,-7.000000,-16.000000,18.000000
1295825.207055,-24.000000,5.000000,-24.000000,-23.000000,-9.000000,-9.000000,-64.000000,-27.000000
1295825.229380,3.000000,-20.000000,-5.000000,-68.000000,-31.000000,5.000000,-7.000000,-25.000000
1295825.229398,-48.000000,-17.000000,-11.000000,5.000000,6.000000,1.000000,-18.000000,-20.000000
1295825.236478,-42.000000,4.000000,-12.000000,4.000000,-11.000000,-7.000000,28.000000,-23.000000
1295825.236487,100.000000,-15.000000,30.000000,53.000000,28.000000,55.000000,127.000000,127.000000
1295825.244552,4.000000,32.000000,23.000000,14.000000,7.000000,16.000000,43.000000,-28.000000
1295825.244561,-19.000000,-3.000000,-7.000000,7.000000,-1.000000,-14.000000,-128.000000,-128.000000
1295825.245191,-29.000000,-23.000000,-59.000000,-107.000000,-42.000000,-25.000000,65.000000,21.000000
1295825.245200,48.000000,8.000000,-2.000000,2.000000,14.000000,11.000000,49.000000,97.000000
1295825.246521,-41.000000,-38.000000,-16.000000,-33.000000,-26.000000,-16.000000,-87.000000,-77.000000
1295825.246541,20.000000,22.000000,36.000000,60.000000,38.000000,27.000000,-25.000000,40.000000
1295825.247193,6.000000,-17.000000,-21.000000,3.000000,2.000000,7.000000,58.000000,26.000000
1295825.247207,-42.000000,-9.000000,-33.000000,-25.000000,-9.000000,-3.000000,-83.000000,-114.000000
1295825.252063,30.000000,27.000000,-45.000000,-84.000000,-31.000000,-20.000000,1.000000,102.000000
1295825.252072,52.000000,19.000000,127.000000,127.000000,47.000000,26.000000,108.000000,87.000000
1295825.266807,-11.000000,-2.000000,-8.000000,-47.000000,-14.000000,-10.000000,-55.000000,-42.000000
1295825.266818,-15.000000,2.000000,-43.000000,-52.000000,-18.000000,-3.000000,-17.000000,-28.000000
1295825.282207,-2.000000,8.000000,3.000000,5.000000,2.000000,-1.000000,-2.000000,-1.000000
1295825.282227,-30.000000,-38.000000,-37.000000,-23.000000,-8.000000,-13.000000,-57.000000,-23.000000
1295825.282967,36.000000,16.000000,11.000000,37.000000,21.000000,15.000000,56.000000,14.000000
1295825.282983,-17.000000,-26.000000,-32.000000,-17.000000,-12.000000,-1.000000,-3.000000,27.000000
1295825.319425,-76.000000,8.000000,7.000000,-7.000000,-9.000000,-42.000000,-128.000000,-128.000000
1295825.319437,38.000000,-2.000000,8.000000,4.000000,-2.000000,12.000000,127.000000,127.000000
1295825.326849,52.000000,23.000000,20.000000,4.000000,11.000000,25.000000,53.000000,69.000000
1295825.326899,-64.000000,-33.000000,-37.000000,-25.000000,-9.000000,13.000000,-28.000000,-35.000000
1295825.356790,-47.000000,-3.000000,8.000000,27.000000,19.000000,-6.000000,-43.000000,-49.000000
1295825.356802,-4.000000,-5.000000,-41.000000,-40.000000,-12.000000,-23.000000,-77.000000,-7.000000
1295825.357144,-15.000000,-37.000000,-32.000000,14.000000,-5.000000,0.000000,42.000000,-41.000000
1295825.357154,-9.000000,-26.000000,-21.000000,-112.000000,-39.000000,-21.000000,-33.000000,26.000000
1295825.358429,31.000000,26.000000,16.000000,0.000000,4.000000,9.000000,55.000000,35.000000
1295825.358439,-5.000000,1.000000,-1.000000,4.000000,-5.000000,-5.000000,-22.000000,-44.000000
1295825.359125,-46.000000,-25.000000,-26.000000,-27.000000,-24.000000,-15.000000,-84.000000,-91.000000
1295825.359136,50.000000,22.000000,16.000000,-22.000000,-1.000000,37.000000,127.000000,127.000000
1295825.360948,32.000000,8.000000,16.000000,24.000000,12.000000,2.000000,-29.000000,11.000000
1295825.360969,1.000000,-21.000000,-42.000000,1.000000,-12.000000,-15.000000,-74.000000,-43.000000
1295825.365125,-3.000000,9.000000,-5.000000,-14.000000,-4.000000,-11.000000,-100.000000,-34.000000
1295825.365142,19.000000,5.000000,-17.000000,-9.000000,-1.000000,8.000000,65.000000,24.000000
1295825.372152,-60.000000,-39.000000,-16.000000,-8.000000,-9.000000,-4.000000,-54.000000,-80.000000
1295825.372178,61.000000,35.000000,-1.000000,12.000000,15.000000,35.000000,41.000000,81.000000
1295825.409271,15.000000,5.000000,17.000000,-4.000000,-16.000000,-19.000000,75.000000,47.000000
1295825.409284,-24.000000,11.000000,9.000000,-6.000000,-6.000000,-8.000000,-23.000000,-28.000000
1295825.424277,-2.000000,-23.000000,-14.000000,-60.000000,-16.000000,-4.000000,-38.000000,-43.000000
1295825.424296,1.000000,12.000000,-8.000000,88.000000,39.000000,12.000000,54.000000,32.000000
1295825.446881,-31.000000,-5.000000,25.000000,-12.000000,-10.000000,-23.000000,-128.000000,-34.000000
1295825.446893,4.000000,-20.000000,-50.000000,-56.000000,-45.000000,-17.000000,49.000000,19.000000
1295825.469302,0.000000,9.000000,70.000000,82.000000,20.000000,17.000000,110.000000,22.000000
1295825.469312,-32.000000,7.000000,-12.000000,-10.000000,-12.000000,-12.000000,-122.000000,-44.000000
1295825.484470,-2.000000,0.000000,-20.000000,-18.000000,-17.000000,-70.000000,52.000000,-1.000000
1295825.484480,17.000000,-5.000000,5.000000,-1.000000,3.000000,12.000000,51.000000,54.000000
1295825.491684,-31.000000,-20.000000,-16.000000,-50.000000,-23.000000,-17.000000,-128.000000,-62.000000
1295825.491694,-19.000000,3.000000,4.000000,6.000000,14.000000,16.000000,50.000000,0.000000
1295825.529156,30.000000,30.000000,9.000000,-20.000000,-14.000000,-14.000000,-12.000000,-14.000000
1295825.529166,-38.000000,2.000000,40.000000,67.000000,31.000000,12.000000,24.000000,31.000000
1295825.544391,29.000000,1.000000,-6.000000,-15.000000,2.000000,-17.000000,107.000000,75.000000
1295825.544403,-21.000000,-31.000000,-20.000000,-15.000000,-5.000000,-10.000000,-128.000000,-30.000000
1295825.567030,-19.000000,-7.000000,-7.000000,-13.000000,-24.000000,-26.000000,-128.000000,-43.000000
1295825.567050,-17.000000,-30.000000,-26.000000,-17.000000,-9.000000,-10.000000,-8.000000,-7.000000
1295825.597552,-21.000000,19.000000,32.000000,-20.000000,-7.000000,23.000000,-59.000000,-38.000000
1295825.597582,2.000000,13.000000,4.000000,26.000000,9.000000,2.000000,101.000000,41.000000
1295825.598005,27.000000,22.000000,41.000000,79.000000,39.000000,63.000000,127.000000,127.000000
1295825.598032,-18.000000,-23.000000,-22.000000,-49.000000,-23.000000,-20.000000,-128.000000,-55.000000
1295825.600040,0.000000,-16.000000,-8.000000,10.000000,4.000000,9.000000,15.000000,18.000000
1295825.600064,0.000000,-8.000000,-13.000000,-8.000000,-1.000000,-2.000000,27.000000,-12.000000
1295825.605063,-24.000000,-41.000000,-117.000000,-43.000000,-24.000000,-19.000000,-119.000000,-59.000000
1295825.605072,-29.000000,35.000000,41.000000,-3.000000,-1.000000,6.000000,-128.000000,-104.000000
1295825.611919,44.000000,-28.000000,-106.000000,-25.000000,-15.000000,-17.000000,67.000000,39.000000
1295825.611947,15.000000,-28.000000,23.000000,31.000000,20.000000,26.000000,81.000000,34.000000
1295825.634597,-16.000000,-20.000000,-31.000000,-10.000000,-5.000000,-5.000000,-58.000000,-39.000000
1295825.634606,-15.000000,-28.000000,-25.000000,-40.000000,-24.000000,-7.000000,23.000000,-36.000000
1295825.635493,76.000000,113.000000,68.000000,-9.000000,-3.000000,-2.000000,107.000000,101.000000
1295825.635516,-6.000000,-8.000000,46.000000,64.000000,28.000000,13.000000,-32.000000,23.000000
1295825.649365,-10.000000,10.000000,-29.000000,-54.000000,-7.000000,1.000000,78.000000,-6.000000
1295825.649375,-2.000000,13.000000,82.000000,112.000000,11.000000,-21.000000,-80.000000,-40.000000
1295825.656905,9.000000,0.000000,-58.000000,-50.000000,-11.000000,-9.000000,-23.000000,6.000000
1295825.656916,33.000000,10.000000,31.000000,-41.000000,-17.000000,6.000000,-48.000000,-20.000000
1295825.687025,19.000000,4.000000,21.000000,8.000000,16.000000,8.000000,127.000000,50.000000
1295825.687043,11.000000,2.000000,-61.000000,-10.000000,0.000000,-8.000000,-128.000000,-22.000000
1295825.694444,-22.000000,-7.000000,33.000000,-7.000000,-18.000000,15.000000,-77.000000,-69.000000
1295825.694469,18.000000,22.000000,7.000000,-5.000000,-5.000000,21.000000,-72.000000,62.000000
1295825.724705,74.000000,26.000000,-22.000000,-3.000000,-7.000000,17.000000,127.000000,106.000000
1295825.724720,-34.000000,-24.000000,-25.000000,-33.000000,-16.000000,-20.000000,-108.000000,-61.000000
1295825.725336,-59.000000,-31.000000,21.000000,50.000000,26.000000,6.000000,-80.000000,-56.000000
1295825.725384,18.000000,43.000000,9.000000,-11.000000,-7.000000,-12.000000,-64.000000,-22.000000
1295825.726873,5.000000,-27.000000,-16.000000,-39.000000,-19.000000,1.000000,22.000000,27.000000
1295825.726883,-3.000000,3.000000,-11.000000,8.000000,13.000000,22.000000,0.000000,1.000000
