# participant_id: P1
# gesture: medium
# trial_number: 2
# stream_name: Myo_EMG
# stream_type: emg
# timestamp: 20260420_130649
# samples: 4802
# duration_sec: 30.496
# nominal_sample_rate: 200.0
# effective_sample_rate: 157.43
#
timestamp,emg_1,emg_2,emg_3,emg_4,emg_5,emg_6,emg_7,emg_8
1295101.245611,-1.000000,8.000000,5.000000,12.000000,24.000000,4.000000,-12.000000,8.000000
1295101.245621,-18.000000,-31.000000,-4.000000,-13.000000,-15.000000,-10.000000,-21.000000,-17.000000
1295101.260975,1.000000,1.000000,-25.000000,-4.000000,23.000000,17.000000,-22.000000,0.000000
1295101.260987,-1.000000,-11.000000,-2.000000,8.000000,-15.000000,1.000000,96.000000,5.000000
1295101.268579,2.000000,-1.000000,6.000000,14.000000,23.000000,15.000000,-7.000000,0.000000
1295101.268588,3.000000,20.000000,24.000000,19.000000,-10.000000,-8.000000,-6.000000,1.000000
1295101.283264,-19.000000,-24.000000,-38.000000,-3.000000,39.000000,5.000000,-17.000000,-29.000000
1295101.283283,-1.000000,1.000000,6.000000,16.000000,11.000000,-8.000000,-11.000000,0.000000
1295101.284324,-11.000000,18.000000,0.000000,3.000000,5.000000,-13.000000,-44.000000,-9.000000
1295101.284355,19.000000,15.000000,39.000000,-15.000000,-38.000000,9.000000,39.000000,12.000000
1295101.284942,0.000000,-9.000000,-29.000000,-7.000000,-11.000000,-12.000000,-1.000000,5.000000
1295101.284954,6.000000,-7.000000,-23.000000,-14.000000,-2.000000,-8.000000,-36.000000,0.000000
1295101.286471,-11.000000,5.000000,17.000000,-5.000000,2.000000,-2.000000,6.000000,-14.000000
1295101.286491,2.000000,-17.000000,-3.000000,22.000000,32.000000,-11.000000,-2.000000,10.000000
1295101.290431,-5.000000,-8.000000,-6.000000,-22.000000,10.000000,10.000000,5.000000,4.000000
1295101.290453,9.000000,7.000000,5.000000,10.000000,20.000000,18.000000,10.000000,12.000000
1295101.328336,-14.000000,0.000000,1.000000,-13.000000,-4.000000,-33.000000,-58.000000,-28.000000
1295101.328347,-2.000000,-11.000000,-26.000000,7.000000,7.000000,16.000000,-18.000000,-6.000000
1295101.335633,7.000000,11.000000,24.000000,-20.000000,7.000000,24.000000,-15.000000,-1.000000
1295101.335642,0.000000,-29.000000,-28.000000,-2.000000,-17.000000,12.000000,63.000000,26.000000
1295101.365792,5.000000,36.000000,52.000000,63.000000,6.000000,-5.000000,-22.000000,-4.000000
1295101.365810,7.000000,-11.000000,-16.000000,-9.000000,-8.000000,-8.000000,2.000000,-4.000000
1295101.403129,-1.000000,17.000000,10.000000,3.000000,23.000000,30.000000,61.000000,-1.000000
1295101.403139,17.000000,-6.000000,-37.000000,-19.000000,1.000000,12.000000,20.000000,18.000000
1295101.404175,-5.000000,-13.000000,-4.000000,-29.000000,-69.000000,-16.000000,-25.000000,-7.000000
1295101.404183,-1.000000,-2.000000,-15.000000,-4.000000,3.000000,9.000000,34.000000,-1.000000
1295101.404827,-9.000000,0.000000,-1.000000,-7.000000,0.000000,-24.000000,-24.000000,-10.000000
1295101.404836,-11.000000,-9.000000,-5.000000,0.000000,4.000000,-9.000000,-19.000000,-14.000000
1295101.406085,26.000000,-21.000000,18.000000,85.000000,13.000000,81.000000,39.000000,45.000000
1295101.406093,14.000000,42.000000,14.000000,-6.000000,6.000000,2.000000,56.000000,21.000000
1295101.417978,-9.000000,-18.000000,-6.000000,-10.000000,-4.000000,-3.000000,-14.000000,-7.000000
1295101.417988,-2.000000,-1.000000,-2.000000,-12.000000,-15.000000,-17.000000,-43.000000,-2.000000
1295101.419416,-27.000000,-23.000000,-26.000000,-5.000000,-6.000000,-23.000000,-24.000000,-36.000000
1295101.419425,55.000000,69.000000,66.000000,21.000000,-34.000000,27.000000,70.000000,44.000000
1295101.441105,-1.000000,-3.000000,-3.000000,8.000000,-5.000000,-13.000000,-9.000000,0.000000
1295101.441121,-30.000000,-27.000000,-23.000000,-6.000000,19.000000,-21.000000,-36.000000,-21.000000
1295101.455761,19.000000,9.000000,19.000000,-28.000000,-124.000000,10.000000,31.000000,15.000000
1295101.455777,1.000000,8.000000,1.000000,3.000000,-2.000000,-1.000000,20.000000,11.000000
1295101.478187,2.000000,4.000000,15.000000,-14.000000,-32.000000,-22.000000,-25.000000,-14.000000
1295101.478197,4.000000,10.000000,18.000000,8.000000,7.000000,13.000000,42.000000,12.000000
1295101.493722,3.000000,12.000000,12.000000,22.000000,10.000000,7.000000,3.000000,1.000000
1295101.493751,-11.000000,-9.000000,-16.000000,-3.000000,22.000000,-20.000000,-48.000000,-17.000000
1295101.523040,-24.000000,-21.000000,-28.000000,-29.000000,-8.000000,-16.000000,0.000000,-7.000000
1295101.523054,26.000000,26.000000,31.000000,1.000000,-82.000000,28.000000,80.000000,19.000000
1295101.524183,-8.000000,-3.000000,-9.000000,6.000000,13.000000,-5.000000,-13.000000,-4.000000
1295101.524192,-16.000000,-26.000000,-13.000000,-3.000000,6.000000,-29.000000,-43.000000,-15.000000
1295101.525181,5.000000,-7.000000,2.000000,-22.000000,-50.000000,0.000000,13.000000,8.000000
1295101.525190,10.000000,6.000000,9.000000,15.000000,8.000000,26.000000,53.000000,26.000000
1295101.526198,-15.000000,-5.000000,-3.000000,-9.000000,3.000000,-5.000000,-32.000000,-21.000000
1295101.526206,3.000000,-6.000000,-5.000000,17.000000,-10.000000,-9.000000,2.000000,10.000000
1295101.526962,-8.000000,-19.000000,-16.000000,-28.000000,0.000000,-7.000000,-8.000000,-7.000000
1295101.526970,12.000000,19.000000,27.000000,32.000000,-8.000000,16.000000,30.000000,20.000000
1295101.560701,-7.000000,-2.000000,11.000000,4.000000,29.000000,11.000000,-41.000000,-21.000000
1295101.560730,17.000000,12.000000,11.000000,-15.000000,-8.000000,18.000000,124.000000,26.000000
1295101.575862,-10.000000,-16.000000,0.000000,24.000000,23.000000,11.000000,-32.000000,-7.000000
1295101.575890,11.000000,2.000000,-6.000000,9.000000,-27.000000,2.000000,-3.000000,21.000000
1295101.583394,-4.000000,-6.000000,-15.000000,-9.000000,40.000000,37.000000,-57.000000,-35.000000
1295101.583411,13.000000,18.000000,50.000000,28.000000,0.000000,14.000000,23.000000,12.000000
1295101.613147,-7.000000,-15.000000,-17.000000,-22.000000,-10.000000,-17.000000,-14.000000,-6.000000
1295101.613157,-14.000000,-4.000000,-5.000000,5.000000,45.000000,24.000000,-1.000000,-7.000000
1295101.635840,-2.000000,5.000000,6.000000,0.000000,-10.000000,-5.000000,12.000000,13.000000
1295101.635850,2.000000,-8.000000,-15.000000,4.000000,24.000000,-5.000000,-9.000000,-7.000000
1295101.643625,11.000000,22.000000,17.000000,-47.000000,-79.000000,-16.000000,-5.000000,8.000000
1295101.643635,-9.000000,-1.000000,-6.000000,23.000000,47.000000,-1.000000,-28.000000,-14.000000
1295101.644253,-6.000000,-22.000000,2.000000,15.000000,21.000000,10.000000,44.000000,-1.000000
1295101.644261,7.000000,29.000000,-3.000000,6.000000,11.000000,-6.000000,5.000000,-1.000000
1295101.644842,-3.000000,1.000000,4.000000,-15.000000,19.000000,-6.000000,-16.000000,-6.000000
1295101.644849,-14.000000,-19.000000,-16.000000,-14.000000,-15.000000,-17.000000,-46.000000,-14.000000
1295101.645551,14.000000,13.000000,5.000000,21.000000,20.000000,19.000000,37.000000,19.000000
1295101.645559,-7.000000,-16.000000,-20.000000,-6.000000,4.000000,-10.000000,-9.000000,-15.000000
1295101.646215,-8.000000,6.000000,3.000000,-27.000000,-45.000000,-15.000000,-30.000000,-8.000000
1295101.646223,7.000000,1.000000,3.000000,23.000000,37.000000,9.000000,-9.000000,3.000000
1295101.657972,-2.000000,10.000000,4.000000,25.000000,8.000000,-9.000000,2.000000,13.000000
1295101.657996,-26.000000,-30.000000,-36.000000,-32.000000,-6.000000,-34.000000,-52.000000,-33.000000
1295101.665664,9.000000,1.000000,4.000000,13.000000,6.000000,26.000000,39.000000,5.000000
1295101.665673,-9.000000,-3.000000,-7.000000,18.000000,9.000000,-6.000000,-20.000000,-2.000000
1295101.680632,-3.000000,-5.000000,-2.000000,-8.000000,7.000000,-9.000000,10.000000,5.000000
1295101.680643,-20.000000,-17.000000,-14.000000,-21.000000,-49.000000,-49.000000,-52.000000,-16.000000
1295101.710771,-1.000000,-4.000000,3.000000,28.000000,88.000000,15.000000,-37.000000,-11.000000
1295101.710781,34.000000,35.000000,39.000000,48.000000,-7.000000,40.000000,103.000000,45.000000
1295101.718371,-3.000000,4.000000,1.000000,-23.000000,-20.000000,-21.000000,-13.000000,-6.000000
1295101.718381,-5.000000,-9.000000,-24.000000,1.000000,7.000000,8.000000,-3.000000,0.000000
1295101.733167,-16.000000,-15.000000,-10.000000,-6.000000,-7.000000,-5.000000,-9.000000,-9.000000
1295101.733205,4.000000,-11.000000,-14.000000,-9.000000,5.000000,7.000000,1.000000,0.000000
1295101.755720,-2.000000,11.000000,1.000000,5.000000,10.000000,-6.000000,-21.000000,-5.000000
1295101.755732,8.000000,9.000000,32.000000,45.000000,61.000000,31.000000,46.000000,6.000000
1295101.756746,-11.000000,3.000000,13.000000,0.000000,3.000000,-36.000000,-25.000000,-17.000000
1295101.756756,-11.000000,-18.000000,-17.000000,-34.000000,-24.000000,-1.000000,4.000000,-7.000000
1295101.757674,9.000000,14.000000,4.000000,14.000000,23.000000,17.000000,25.000000,15.000000
1295101.757694,-17.000000,-10.000000,-8.000000,-44.000000,-51.000000,-47.000000,-44.000000,-29.000000
1295101.758769,5.000000,0.000000,-7.000000,18.000000,9.000000,6.000000,31.000000,17.000000
1295101.758779,20.000000,15.000000,39.000000,45.000000,42.000000,40.000000,60.000000,15.000000
1295101.759571,-11.000000,-1.000000,-26.000000,-8.000000,-8.000000,-11.000000,-3.000000,-3.000000
1295101.759581,-22.000000,-21.000000,-22.000000,-9.000000,0.000000,-25.000000,-36.000000,-34.000000
1295101.763127,25.000000,15.000000,21.000000,-12.000000,-61.000000,13.000000,92.000000,37.000000
1295101.763137,5.000000,4.000000,7.000000,0.000000,13.000000,2.000000,-5.000000,5.000000
1295101.770680,-19.000000,-22.000000,-20.000000,-6.000000,0.000000,-14.000000,-58.000000,-31.000000
1295101.770699,-5.000000,-13.000000,-27.000000,23.000000,48.000000,7.000000,36.000000,5.000000
1295101.778298,18.000000,36.000000,35.000000,-15.000000,-71.000000,13.000000,16.000000,17.000000
1295101.778308,-4.000000,-17.000000,-13.000000,-22.000000,-10.000000,-13.000000,-15.000000,-11.000000
1295101.800700,-12.000000,-15.000000,-10.000000,38.000000,24.000000,-1.000000,-15.000000,-8.000000
1295101.800712,-5.000000,19.000000,4.000000,4.000000,-13.000000,-18.000000,23.000000,2.000000
1295101.883186,-12.000000,-31.000000,-22.000000,-33.000000,-38.000000,0.000000,-36.000000,-23.000000
1295101.883204,6.000000,0.000000,-3.000000,-6.000000,17.000000,5.000000,29.000000,3.000000
1295101.883635,-2.000000,-11.000000,-18.000000,-8.000000,-2.000000,-2.000000,-2.000000,3.000000
1295101.883643,1.000000,0.000000,-8.000000,-14.000000,-5.000000,-14.000000,-12.000000,2.000000
1295101.884767,-6.000000,-6.000000,-15.000000,2.000000,48.000000,17.000000,-82.000000,-13.000000
1295101.884776,19.000000,0.000000,24.000000,36.000000,-4.000000,33.000000,112.000000,29.000000
1295101.885516,4.000000,22.000000,1.000000,38.000000,52.000000,-9.000000,-10.000000,7.000000
1295101.885546,-20.000000,-18.000000,-7.000000,-67.000000,-14.000000,-9.000000,-5.000000,-20.000000
1295101.887002,5.000000,11.000000,16.000000,1.000000,8.000000,12.000000,-18.000000,-1.000000
1295101.887016,0.000000,12.000000,10.000000,26.000000,30.000000,7.000000,13.000000,8.000000
1295101.890825,-10.000000,-13.000000,-15.000000,-1.000000,15.000000,3.000000,-1.000000,0.000000
1295101.890860,-14.000000,-6.000000,-9.000000,-1.000000,8.000000,-11.000000,-8.000000,-6.000000
1295101.921201,-8.000000,-8.000000,3.000000,-16.000000,-6.000000,5.000000,-10.000000,-10.000000
1295101.921231,-2.000000,-10.000000,-7.000000,-13.000000,-15.000000,-15.000000,-23.000000,-3.000000
1295101.935818,5.000000,5.000000,-14.000000,-11.000000,-19.000000,-8.000000,-6.000000,-1.000000
1295101.935828,-18.000000,-32.000000,-36.000000,4.000000,33.000000,-6.000000,-36.000000,-17.000000
1295101.988234,11.000000,5.000000,0.000000,20.000000,38.000000,24.000000,7.000000,13.000000
1295101.988252,-1.000000,-4.000000,-2.000000,-7.000000,-4.000000,-7.000000,-8.000000,-4.000000
1295101.988556,-12.000000,-23.000000,-35.000000,-29.000000,-23.000000,-23.000000,-83.000000,-17.000000
1295101.988565,-15.000000,-9.000000,-1.000000,-21.000000,-50.000000,-5.000000,40.000000,-19.000000
1295101.995469,18.000000,30.000000,28.000000,47.000000,69.000000,43.000000,28.000000,11.000000
1295101.995482,4.000000,-5.000000,-1.000000,10.000000,-6.000000,-10.000000,-6.000000,5.000000
1295101.995938,-18.000000,-11.000000,-18.000000,-6.000000,-8.000000,-9.000000,-16.000000,-12.000000
1295101.995950,8.000000,-1.000000,10.000000,7.000000,35.000000,-15.000000,-48.000000,-4.000000
1295101.997420,3.000000,2.000000,-9.000000,36.000000,70.000000,30.000000,44.000000,9.000000
1295101.997428,10.000000,-6.000000,2.000000,9.000000,5.000000,3.000000,-6.000000,14.000000
1295102.004140,7.000000,11.000000,9.000000,13.000000,-36.000000,-10.000000,47.000000,14.000000
1295102.004166,-1.000000,-5.000000,9.000000,7.000000,42.000000,13.000000,-40.000000,-9.000000
1295102.010879,-14.000000,-23.000000,-17.000000,-7.000000,10.000000,-14.000000,2.000000,-7.000000
1295102.010910,-15.000000,26.000000,22.000000,3.000000,4.000000,-19.000000,-51.000000,-15.000000
1295102.033240,12.000000,10.000000,33.000000,24.000000,-47.000000,23.000000,18.000000,4.000000
1295102.033265,20.000000,9.000000,20.000000,63.000000,49.000000,28.000000,26.000000,27.000000
1295102.040804,-15.000000,-4.000000,-25.000000,-17.000000,-4.000000,-9.000000,-14.000000,-4.000000
1295102.040814,-21.000000,-26.000000,-17.000000,-17.000000,5.000000,-23.000000,-34.000000,-20.000000
1295102.063197,9.000000,18.000000,10.000000,-7.000000,9.000000,14.000000,-15.000000,0.000000
1295102.063207,21.000000,9.000000,11.000000,27.000000,45.000000,50.000000,79.000000,37.000000
1295102.115735,-3.000000,21.000000,4.000000,9.000000,15.000000,-10.000000,-16.000000,-6.000000
1295102.115746,-11.000000,-19.000000,-14.000000,-5.000000,-14.000000,-29.000000,-33.000000,-15.000000
1295102.146084,-14.000000,-13.000000,-8.000000,-22.000000,-30.000000,-3.000000,-35.000000,-11.000000
1295102.146113,-7.000000,-19.000000,-13.000000,-8.000000,-3.000000,-4.000000,8.000000,-7.000000
1295102.161288,-3.000000,20.000000,19.000000,13.000000,19.000000,14.000000,-30.000000,-5.000000
1295102.161320,-3.000000,-7.000000,5.000000,5.000000,13.000000,3.000000,3.000000,2.000000
1295102.190693,-7.000000,-19.000000,-48.000000,-22.000000,-7.000000,-10.000000,-3.000000,3.000000
1295102.190704,16.000000,23.000000,30.000000,33.000000,72.000000,31.000000,6.000000,10.000000
1295102.198499,-13.000000,-15.000000,-20.000000,-7.000000,11.000000,4.000000,12.000000,-9.000000
1295102.198543,-9.000000,-2.000000,7.000000,-6.000000,-27.000000,-20.000000,-49.000000,-7.000000
1295102.213390,-8.000000,-12.000000,-8.000000,12.000000,46.000000,3.000000,-16.000000,-5.000000
1295102.213407,-16.000000,-5.000000,-18.000000,-17.000000,-20.000000,-25.000000,-55.000000,-24.000000
1295102.220798,5.000000,13.000000,22.000000,13.000000,37.000000,14.000000,22.000000,2.000000
1295102.220815,8.000000,14.000000,11.000000,-1.000000,-38.000000,11.000000,29.000000,10.000000
1295102.228319,5.000000,-6.000000,12.000000,24.000000,37.000000,6.000000,15.000000,1.000000
1295102.228329,-14.000000,-15.000000,-8.000000,-7.000000,-6.000000,-19.000000,-15.000000,-13.000000
1295102.265897,-10.000000,-7.000000,8.000000,18.000000,-5.000000,-11.000000,-8.000000,-16.000000
1295102.265919,-12.000000,-7.000000,-15.000000,-20.000000,21.000000,-5.000000,-30.000000,-13.000000
1295102.273054,10.000000,5.000000,5.000000,-22.000000,-7.000000,22.000000,38.000000,6.000000
1295102.273064,-1.000000,-4.000000,0.000000,2.000000,17.000000,7.000000,45.000000,18.000000
1295102.288471,-18.000000,-30.000000,-23.000000,-8.000000,-10.000000,-17.000000,-26.000000,-20.000000
1295102.288482,20.000000,61.000000,69.000000,-24.000000,-72.000000,0.000000,-12.000000,8.000000
1295102.311024,-1.000000,-8.000000,-8.000000,5.000000,17.000000,2.000000,2.000000,2.000000
1295102.311033,-21.000000,-24.000000,-12.000000,-11.000000,-10.000000,-19.000000,-21.000000,-19.000000
1295102.311814,4.000000,11.000000,-4.000000,-20.000000,-26.000000,-16.000000,-43.000000,6.000000
1295102.311826,10.000000,18.000000,12.000000,38.000000,54.000000,34.000000,59.000000,8.000000
1295102.312433,6.000000,15.000000,21.000000,11.000000,-28.000000,26.000000,-21.000000,-2.000000
1295102.312448,12.000000,43.000000,26.000000,13.000000,19.000000,7.000000,19.000000,7.000000
1295102.313060,2.000000,-3.000000,7.000000,-33.000000,-45.000000,-25.000000,-28.000000,-5.000000
1295102.313071,9.000000,23.000000,13.000000,59.000000,54.000000,36.000000,32.000000,2.000000
1295102.314421,-3.000000,-16.000000,-10.000000,12.000000,24.000000,-23.000000,-44.000000,-2.000000
1295102.314430,-4.000000,5.000000,15.000000,-8.000000,-18.000000,5.000000,8.000000,-13.000000
1295102.340800,2.000000,-25.000000,7.000000,40.000000,56.000000,-6.000000,-15.000000,8.000000
1295102.340811,-8.000000,4.000000,-3.000000,-23.000000,-4.000000,-1.000000,-19.000000,-17.000000
1295102.341735,-9.000000,-12.000000,-25.000000,-11.000000,-3.000000,-18.000000,-20.000000,-3.000000
1295102.341743,5.000000,-1.000000,-1.000000,4.000000,55.000000,25.000000,16.000000,9.000000
1295102.355634,0.000000,5.000000,0.000000,1.000000,33.000000,-10.000000,-18.000000,-8.000000
1295102.355653,0.000000,-5.000000,-2.000000,5.000000,-23.000000,-11.000000,22.000000,5.000000
1295102.357082,-5.000000,-3.000000,3.000000,2.000000,-34.000000,-7.000000,-10.000000,-6.000000
1295102.357113,-3.000000,-2.000000,-2.000000,7.000000,16.000000,-13.000000,-17.000000,-6.000000
1295102.378458,10.000000,9.000000,20.000000,0.000000,0.000000,12.000000,10.000000,12.000000
1295102.378486,-6.000000,-2.000000,-19.000000,-10.000000,25.000000,-13.000000,5.000000,-2.000000
1295102.393601,12.000000,5.000000,20.000000,21.000000,39.000000,18.000000,13.000000,19.000000
1295102.393619,-1.000000,-14.000000,-28.000000,0.000000,2.000000,-12.000000,44.000000,1.000000
1295102.400611,2.000000,20.000000,34.000000,-34.000000,-35.000000,-10.000000,-23.000000,-2.000000
1295102.400664,4.000000,2.000000,-12.000000,2.000000,12.000000,26.000000,44.000000,15.000000
1295102.468446,-4.000000,-20.000000,-4.000000,-2.000000,-3.000000,-9.000000,4.000000,1.000000
1295102.468476,5.000000,10.000000,-4.000000,-5.000000,-13.000000,-25.000000,8.000000,13.000000
1295102.475699,-12.000000,-23.000000,-20.000000,-11.000000,-7.000000,-7.000000,-13.000000,-14.000000
1295102.475711,6.000000,35.000000,14.000000,-18.000000,-3.000000,8.000000,10.000000,7.000000
1295102.476891,3.000000,3.000000,-1.000000,-1.000000,-35.000000,-9.000000,-15.000000,-4.000000
1295102.476907,-5.000000,-7.000000,1.000000,-1.000000,9.000000,-7.000000,54.000000,-1.000000
1295102.477479,-12.000000,-4.000000,-3.000000,-34.000000,-14.000000,-2.000000,-20.000000,-12.000000
1295102.477501,4.000000,5.000000,-3.000000,33.000000,91.000000,16.000000,22.000000,2.000000
1295102.479164,-24.000000,-28.000000,-38.000000,-12.000000,-4.000000,-21.000000,-37.000000,-21.000000
1295102.479193,16.000000,1.000000,6.000000,-32.000000,-34.000000,-12.000000,1.000000,20.000000
1295102.513259,-6.000000,5.000000,3.000000,-8.000000,-6.000000,-3.000000,-8.000000,-8.000000
1295102.513269,-18.000000,-15.000000,-8.000000,-5.000000,-16.000000,-13.000000,-26.000000,-6.000000
1295102.550919,19.000000,26.000000,-6.000000,5.000000,7.000000,-4.000000,12.000000,7.000000
1295102.550931,17.000000,3.000000,29.000000,-30.000000,-45.000000,14.000000,58.000000,9.000000
1295102.558092,3.000000,0.000000,-6.000000,39.000000,96.000000,49.000000,3.000000,2.000000
1295102.558102,-11.000000,-15.000000,-4.000000,-6.000000,-7.000000,-7.000000,-5.000000,2.000000
1295102.588122,1.000000,19.000000,5.000000,5.000000,10.000000,5.000000,-17.000000,-5.000000
1295102.588138,-1.000000,-7.000000,-3.000000,15.000000,2.000000,18.000000,22.000000,4.000000
1295102.588597,3.000000,11.000000,-4.000000,8.000000,51.000000,7.000000,-10.000000,-4.000000
1295102.588617,-6.000000,-14.000000,-11.000000,-27.000000,-40.000000,-19.000000,-14.000000,-3.000000
1295102.589853,5.000000,1.000000,4.000000,11.000000,18.000000,4.000000,-4.000000,4.000000
1295102.589865,-7.000000,14.000000,6.000000,-8.000000,0.000000,-6.000000,-20.000000,-10.000000
1295102.591307,-8.000000,-20.000000,-15.000000,-4.000000,-2.000000,-15.000000,-20.000000,-15.000000
1295102.591318,-15.000000,-3.000000,-5.000000,-16.000000,-15.000000,-4.000000,-49.000000,-24.000000
1295102.592060,15.000000,19.000000,25.000000,37.000000,38.000000,39.000000,92.000000,36.000000
1295102.592078,10.000000,0.000000,-7.000000,13.000000,10.000000,1.000000,-13.000000,-8.000000
1295102.596193,-7.000000,-30.000000,-11.000000,-17.000000,-36.000000,-26.000000,10.000000,6.000000
1295102.596202,-21.000000,-8.000000,-37.000000,-26.000000,-25.000000,-6.000000,-46.000000,-33.000000
1295102.603097,18.000000,30.000000,55.000000,-16.000000,-20.000000,1.000000,13.000000,11.000000
1295102.603108,4.000000,-11.000000,-26.000000,33.000000,49.000000,7.000000,5.000000,6.000000
1295102.633311,-4.000000,-2.000000,-10.000000,-11.000000,-8.000000,2.000000,-4.000000,-8.000000
1295102.633324,-20.000000,-10.000000,-7.000000,-9.000000,-17.000000,-7.000000,-27.000000,-16.000000
1295102.671173,2.000000,-3.000000,-3.000000,4.000000,-4.000000,-13.000000,25.000000,10.000000
1295102.671214,10.000000,6.000000,9.000000,-11.000000,-101.000000,-3.000000,17.000000,4.000000
1295102.716179,-3.000000,-5.000000,-8.000000,10.000000,0.000000,-10.000000,-8.000000,-10.000000
1295102.716189,-7.000000,-17.000000,-15.000000,-29.000000,-19.000000,-23.000000,-46.000000,-17.000000
1295102.716346,9.000000,31.000000,24.000000,-6.000000,-13.000000,-17.000000,52.000000,15.000000
1295102.716363,-5.000000,2.000000,2.000000,4.000000,11.000000,-7.000000,-4.000000,-14.000000
1295102.717422,-8.000000,-15.000000,-13.000000,-8.000000,5.000000,1.000000,1.000000,-12.000000
1295102.717430,1.000000,-22.000000,-14.000000,-1.000000,-26.000000,-15.000000,-45.000000,-8.000000
1295102.718045,0.000000,36.000000,7.000000,9.000000,14.000000,6.000000,14.000000,3.000000
1295102.718053,-6.000000,-7.000000,-10.000000,-24.000000,-20.000000,-11.000000,-22.000000,2.000000
1295102.722990,-3.000000,-6.000000,9.000000,1.000000,-7.000000,-2.000000,-13.000000,-9.000000
1295102.722999,2.000000,-20.000000,-9.000000,10.000000,25.000000,20.000000,37.000000,15.000000
1295102.731259,8.000000,25.000000,7.000000,2.000000,-8.000000,-5.000000,-3.000000,2.000000
1295102.731298,-2.000000,-7.000000,4.000000,14.000000,6.000000,7.000000,-6.000000,0.000000
1295102.745582,-14.000000,-6.000000,-6.000000,9.000000,16.000000,-24.000000,-29.000000,-22.000000
1295102.745592,1.000000,4.000000,-18.000000,-36.000000,-16.000000,5.000000,-2.000000,3.000000
1295102.768314,4.000000,-9.000000,0.000000,-4.000000,1.000000,0.000000,48.000000,8.000000
1295102.768334,-3.000000,-10.000000,2.000000,12.000000,22.000000,7.000000,-24.000000,-12.000000
1295102.783305,-3.000000,1.000000,-8.000000,0.000000,-5.000000,-17.000000,19.000000,3.000000
1295102.783318,-3.000000,4.000000,0.000000,-25.000000,-43.000000,12.000000,-1.000000,8.000000
1295102.828287,12.000000,47.000000,48.000000,31.000000,47.000000,22.000000,8.000000,2.000000
1295102.828297,14.000000,2.000000,1.000000,5.000000,-21.000000,-2.000000,-13.000000,3.000000
1295102.835795,-3.000000,-13.000000,-8.000000,4.000000,12.000000,1.000000,13.000000,3.000000
1295102.835822,-1.000000,-3.000000,-7.000000,-20.000000,-59.000000,-23.000000,-20.000000,-4.000000
1295102.865647,-8.000000,-22.000000,-11.000000,11.000000,18.000000,12.000000,-10.000000,-8.000000
1295102.865657,-6.000000,-13.000000,-16.000000,-1.000000,67.000000,9.000000,-19.000000,-1.000000
1295102.873185,-4.000000,-5.000000,-12.000000,-13.000000,-59.000000,-9.000000,27.000000,-6.000000
1295102.873195,17.000000,22.000000,47.000000,9.000000,24.000000,20.000000,27.000000,20.000000
1295102.896022,-1.000000,-13.000000,-40.000000,-26.000000,-12.000000,-28.000000,-16.000000,-4.000000
1295102.896042,-9.000000,-20.000000,-20.000000,10.000000,-6.000000,-12.000000,-63.000000,-23.000000
1295102.910852,-1.000000,-17.000000,-1.000000,-2.000000,-10.000000,-11.000000,-14.000000,6.000000
1295102.910862,-6.000000,2.000000,-9.000000,-6.000000,-4.000000,-7.000000,-11.000000,-14.000000
1295102.948332,26.000000,35.000000,40.000000,31.000000,7.000000,25.000000,23.000000,31.000000
1295102.948342,-4.000000,-7.000000,-10.000000,-5.000000,6.000000,-7.000000,-15.000000,-8.000000
1295102.948897,10.000000,20.000000,6.000000,-21.000000,-32.000000,12.000000,9.000000,2.000000
1295102.948920,-7.000000,-9.000000,3.000000,20.000000,4.000000,6.000000,1.000000,-2.000000
1295102.949924,-3.000000,-5.000000,-3.000000,-29.000000,-40.000000,-10.000000,-27.000000,2.000000
1295102.949936,6.000000,-3.000000,-9.000000,-13.000000,7.000000,6.000000,52.000000,7.000000
1295102.978070,0.000000,17.000000,16.000000,-12.000000,-8.000000,-14.000000,32.000000,3.000000
1295102.978081,5.000000,2.000000,1.000000,11.000000,31.000000,19.000000,-3.000000,-4.000000
1295102.993303,6.000000,6.000000,0.000000,-2.000000,12.000000,4.000000,15.000000,11.000000
1295102.993315,-11.000000,-14.000000,-14.000000,-3.000000,1.000000,-17.000000,-10.000000,-5.000000
1295103.008166,-10.000000,-11.000000,-20.000000,-11.000000,25.000000,12.000000,-9.000000,0.000000
1295103.008177,-1.000000,-5.000000,17.000000,50.000000,44.000000,1.000000,-52.000000,-13.000000
1295103.023501,17.000000,23.000000,17.000000,-26.000000,-6.000000,42.000000,127.000000,54.000000
1295103.023531,-15.000000,-5.000000,2.000000,8.000000,8.000000,-13.000000,-25.000000,-24.000000
1295103.060788,3.000000,2.000000,-23.000000,14.000000,9.000000,-6.000000,-12.000000,0.000000
1295103.060808,-1.000000,0.000000,5.000000,8.000000,27.000000,1.000000,-5.000000,-1.000000
1295103.067985,-6.000000,-9.000000,1.000000,-32.000000,-56.000000,-26.000000,-41.000000,-15.000000
1295103.067995,9.000000,-12.000000,-3.000000,50.000000,23.000000,30.000000,13.000000,8.000000
1295103.069062,-6.000000,29.000000,13.000000,13.000000,-29.000000,-27.000000,6.000000,1.000000
1295103.069070,-14.000000,-17.000000,-13.000000,13.000000,38.000000,3.000000,-70.000000,-31.000000
1295103.070345,8.000000,6.000000,17.000000,-5.000000,-33.000000,0.000000,-12.000000,7.000000
1295103.070353,-6.000000,-1.000000,-4.000000,6.000000,38.000000,19.000000,11.000000,-2.000000
1295103.071237,-4.000000,-13.000000,-8.000000,-1.000000,-20.000000,-19.000000,-25.000000,-35.000000
1295103.071244,18.000000,12.000000,-6.000000,10.000000,57.000000,43.000000,65.000000,36.000000
1295103.105701,-3.000000,1.000000,3.000000,6.000000,18.000000,-7.000000,-9.000000,2.000000
1295103.105712,-21.000000,-20.000000,-18.000000,0.000000,2.000000,-23.000000,-41.000000,-22.000000
1295103.113149,1.000000,20.000000,30.000000,-11.000000,-32.000000,15.000000,26.000000,2.000000
1295103.113159,-1.000000,-13.000000,-9.000000,18.000000,41.000000,14.000000,-3.000000,-1.000000
1295103.143426,6.000000,5.000000,8.000000,0.000000,1.000000,1.000000,14.000000,11.000000
1295103.143437,-8.000000,-10.000000,-4.000000,-3.000000,-16.000000,-27.000000,-37.000000,-9.000000
1295103.150959,-1.000000,4.000000,0.000000,-7.000000,1.000000,0.000000,65.000000,14.000000
1295103.150971,-13.000000,-13.000000,22.000000,3.000000,25.000000,-6.000000,-10.000000,-19.000000
1295103.188625,11.000000,6.000000,-24.000000,-12.000000,0.000000,-4.000000,-9.000000,10.000000
1295103.188635,-6.000000,-3.000000,10.000000,16.000000,-14.000000,-7.000000,1.000000,-8.000000
1295103.189207,-13.000000,-16.000000,3.000000,-19.000000,-19.000000,-18.000000,-6.000000,-11.000000
1295103.189263,3.000000,4.000000,-5.000000,-22.000000,-16.000000,-8.000000,-37.000000,-4.000000
1295103.190699,3.000000,13.000000,13.000000,52.000000,53.000000,29.000000,46.000000,9.000000
1295103.190712,5.000000,-16.000000,-5.000000,-4.000000,-7.000000,-7.000000,4.000000,4.000000
1295103.191147,-2.000000,7.000000,20.000000,54.000000,36.000000,20.000000,-53.000000,-1.000000
1295103.191155,-6.000000,-21.000000,-18.000000,-16.000000,-19.000000,-5.000000,-22.000000,-13.000000
1295103.225841,-4.000000,-8.000000,-2.000000,-13.000000,-2.000000,-2.000000,-1.000000,-12.000000
1295103.225853,-8.000000,-13.000000,-21.000000,-4.000000,2.000000,5.000000,-23.000000,-16.000000
1295103.233449,-4.000000,-12.000000,-1.000000,-3.000000,5.000000,3.000000,9.000000,-6.000000
1295103.233459,5.000000,23.000000,3.000000,-2.000000,-6.000000,-8.000000,15.000000,8.000000
1295103.271036,4.000000,20.000000,-4.000000,-3.000000,-8.000000,-9.000000,-15.000000,1.000000
1295103.271049,-1.000000,0.000000,6.000000,16.000000,27.000000,24.000000,34.000000,0.000000
1295103.278339,2.000000,-9.000000,7.000000,25.000000,19.000000,13.000000,34.000000,10.000000
1295103.278351,3.000000,-4.000000,-6.000000,15.000000,12.000000,0.000000,-10.000000,-4.000000
1295103.301374,-6.000000,-10.000000,-11.000000,22.000000,70.000000,3.000000,-16.000000,-7.000000
1295103.301395,-7.000000,1.000000,11.000000,-33.000000,-48.000000,-9.000000,-35.000000,-9.000000
1295103.301876,11.000000,-8.000000,-8.000000,-5.000000,-56.000000,0.000000,26.000000,-4.000000
1295103.301894,2.000000,8.000000,-1.000000,21.000000,31.000000,12.000000,13.000000,8.000000
1295103.303404,15.000000,37.000000,26.000000,11.000000,39.000000,14.000000,11.000000,21.000000
1295103.303425,0.000000,19.000000,30.000000,-10.000000,-4.000000,-23.000000,-43.000000,-23.000000
1295103.303866,4.000000,10.000000,-5.000000,1.000000,0.000000,8.000000,12.000000,10.000000
1295103.303892,2.000000,-9.000000,-1.000000,-10.000000,-7.000000,-24.000000,-24.000000,-5.000000
1295103.308210,9.000000,3.000000,7.000000,8.000000,-9.000000,5.000000,0.000000,4.000000
1295103.308237,-4.000000,-8.000000,-7.000000,-3.000000,5.000000,-22.000000,-17.000000,-5.000000
1295103.338419,-4.000000,0.000000,2.000000,3.000000,16.000000,12.000000,-9.000000,-11.000000
1295103.338438,0.000000,0.000000,-4.000000,-3.000000,9.000000,5.000000,12.000000,6.000000
1295103.345819,2.000000,1.000000,-15.000000,-4.000000,23.000000,5.000000,36.000000,10.000000
1295103.345842,-3.000000,-15.000000,-9.000000,4.000000,-11.000000,-13.000000,-16.000000,5.000000
1295103.383448,-5.000000,28.000000,17.000000,-16.000000,6.000000,12.000000,-5.000000,-10.000000
1295103.383464,5.000000,18.000000,13.000000,-16.000000,-6.000000,6.000000,6.000000,4.000000
1295103.390623,6.000000,3.000000,6.000000,46.000000,38.000000,23.000000,-8.000000,2.000000
1295103.390633,-11.000000,-12.000000,-38.000000,-14.000000,-6.000000,-10.000000,-5.000000,-9.000000
1295103.421228,9.000000,13.000000,35.000000,-36.000000,-31.000000,-16.000000,-3.000000,0.000000
1295103.421249,-3.000000,-1.000000,-5.000000,-2.000000,-12.000000,-5.000000,7.000000,0.000000
1295103.428158,-18.000000,-22.000000,-17.000000,7.000000,12.000000,-34.000000,-84.000000,-14.000000
1295103.428176,-19.000000,-2.000000,-14.000000,-14.000000,-28.000000,-24.000000,58.000000,-19.000000
1295103.465855,55.000000,39.000000,55.000000,46.000000,32.000000,67.000000,64.000000,55.000000
1295103.465865,-11.000000,-17.000000,-40.000000,-13.000000,-4.000000,-18.000000,-16.000000,-1.000000
1295103.480669,-11.000000,-29.000000,-26.000000,-16.000000,-33.000000,-25.000000,-64.000000,-29.000000
1295103.480679,42.000000,34.000000,23.000000,3.000000,-11.000000,50.000000,127.000000,71.000000
1295103.488181,-1.000000,-11.000000,-1.000000,3.000000,11.000000,-1.000000,-10.000000,-5.000000
1295103.488201,-12.000000,-13.000000,-22.000000,-7.000000,7.000000,-6.000000,-15.000000,-11.000000
1295103.525811,-14.000000,-20.000000,-2.000000,-2.000000,16.000000,-15.000000,-51.000000,-14.000000
1295103.525822,0.000000,21.000000,2.000000,-16.000000,-42.000000,2.000000,17.000000,-2.000000
1295103.555931,12.000000,9.000000,1.000000,14.000000,29.000000,14.000000,14.000000,21.000000
1295103.555941,-6.000000,-12.000000,-6.000000,-33.000000,-35.000000,-17.000000,-12.000000,-5.000000
1295103.585561,0.000000,-10.000000,-3.000000,15.000000,8.000000,-18.000000,-12.000000,-1.000000
1295103.585585,12.000000,8.000000,6.000000,12.000000,-15.000000,5.000000,4.000000,12.000000
1295103.615700,-7.000000,-2.000000,-13.000000,-2.000000,5.000000,-4.000000,-15.000000,-7.000000
1295103.615712,-12.000000,-12.000000,-6.000000,-6.000000,2.000000,-7.000000,-35.000000,-16.000000
1295103.623162,0.000000,-17.000000,-18.000000,-24.000000,-21.000000,5.000000,36.000000,10.000000
1295103.623182,18.000000,22.000000,37.000000,93.000000,109.000000,52.000000,14.000000,17.000000
1295103.624201,9.000000,-3.000000,-13.000000,-4.000000,2.000000,0.000000,9.000000,6.000000
1295103.624209,3.000000,-8.000000,-22.000000,-8.000000,6.000000,2.000000,-8.000000,3.000000
1295103.626174,-18.000000,-28.000000,-22.000000,-23.000000,-5.000000,-25.000000,-44.000000,-21.000000
1295103.626190,13.000000,22.000000,2.000000,7.000000,14.000000,30.000000,44.000000,14.000000
1295103.627090,-11.000000,-29.000000,-27.000000,-4.000000,19.000000,-9.000000,10.000000,-6.000000
1295103.627104,-9.000000,-22.000000,-16.000000,-38.000000,-42.000000,0.000000,-24.000000,-12.000000
1295103.660781,1.000000,32.000000,27.000000,15.000000,27.000000,0.000000,17.000000,-4.000000
1295103.660801,-10.000000,-23.000000,-2.000000,0.000000,6.000000,-7.000000,-28.000000,-10.000000
1295103.661217,-8.000000,-2.000000,-5.000000,-4.000000,2.000000,-3.000000,10.000000,-4.000000
1295103.661234,-3.000000,-15.000000,-21.000000,-10.000000,-15.000000,-24.000000,-34.000000,-9.000000
1295103.662554,34.000000,42.000000,28.000000,2.000000,14.000000,60.000000,78.000000,40.000000
1295103.662571,3.000000,-14.000000,-9.000000,33.000000,66.000000,10.000000,0.000000,6.000000
1295103.668157,2.000000,4.000000,-4.000000,1.000000,-24.000000,-15.000000,-4.000000,6.000000
1295103.668170,-22.000000,-31.000000,-41.000000,-10.000000,-2.000000,-39.000000,-66.000000,-20.000000
1295103.676461,-22.000000,-10.000000,25.000000,-43.000000,-68.000000,-4.000000,8.000000,-32.000000
1295103.676471,32.000000,27.000000,19.000000,9.000000,-7.000000,19.000000,56.000000,43.000000
1295103.698276,-11.000000,-19.000000,-14.000000,2.000000,17.000000,-9.000000,-17.000000,-9.000000
1295103.698288,-14.000000,-21.000000,-11.000000,-8.000000,-4.000000,-21.000000,-43.000000,-18.000000
1295103.713407,16.000000,45.000000,11.000000,5.000000,2.000000,26.000000,12.000000,14.000000
1295103.713418,13.000000,15.000000,15.000000,22.000000,18.000000,12.000000,17.000000,15.000000
1295103.765636,-15.000000,-24.000000,-15.000000,0.000000,-5.000000,0.000000,-13.000000,-19.000000
1295103.765657,-1.000000,11.000000,5.000000,-2.000000,-6.000000,-9.000000,-19.000000,2.000000
1295103.781620,-1.000000,-7.000000,3.000000,-3.000000,6.000000,-9.000000,-33.000000,3.000000
1295103.781648,-14.000000,-14.000000,-17.000000,-4.000000,6.000000,19.000000,1.000000,-19.000000
1295103.782065,25.000000,-13.000000,-3.000000,14.000000,16.000000,30.000000,64.000000,31.000000
1295103.782091,1.000000,10.000000,-2.000000,4.000000,3.000000,-4.000000,-12.000000,-4.000000
1295103.783055,-20.000000,-14.000000,-11.000000,-12.000000,-10.000000,-13.000000,-17.000000,-18.000000
1295103.783080,3.000000,11.000000,12.000000,20.000000,41.000000,5.000000,-23.000000,2.000000
1295103.783813,27.000000,49.000000,63.000000,27.000000,-45.000000,44.000000,61.000000,29.000000
1295103.783838,-12.000000,-12.000000,-19.000000,-12.000000,-2.000000,-30.000000,-24.000000,-17.000000
1295103.788378,0.000000,36.000000,32.000000,2.000000,-55.000000,-7.000000,10.000000,-10.000000
1295103.788402,8.000000,0.000000,5.000000,21.000000,21.000000,15.000000,8.000000,7.000000
1295103.803626,-1.000000,5.000000,5.000000,8.000000,2.000000,3.000000,10.000000,13.000000
1295103.803635,4.000000,9.000000,23.000000,9.000000,18.000000,-2.000000,10.000000,-1.000000
1295103.825935,-6.000000,-12.000000,-6.000000,-8.000000,-36.000000,-10.000000,-17.000000,-6.000000
1295103.825946,-8.000000,-1.000000,-16.000000,-12.000000,13.000000,-4.000000,12.000000,2.000000
1295103.840882,10.000000,0.000000,-14.000000,15.000000,18.000000,14.000000,17.000000,8.000000
1295103.840906,5.000000,16.000000,0.000000,-31.000000,-25.000000,-9.000000,-27.000000,-4.000000
1295103.855780,-12.000000,-6.000000,-18.000000,35.000000,73.000000,6.000000,-4.000000,-13.000000
1295103.855800,14.000000,10.000000,19.000000,-5.000000,13.000000,19.000000,85.000000,32.000000
1295103.878389,-2.000000,-19.000000,-11.000000,-35.000000,-23.000000,-8.000000,-13.000000,-4.000000
1295103.878400,-4.000000,18.000000,28.000000,23.000000,1.000000,-3.000000,-33.000000,-5.000000
1295103.878857,-16.000000,-7.000000,1.000000,3.000000,-3.000000,2.000000,2.000000,-12.000000
1295103.878866,-3.000000,-6.000000,-20.000000,-14.000000,7.000000,-7.000000,16.000000,-5.000000
1295103.900463,-12.000000,-22.000000,-6.000000,9.000000,38.000000,-1.000000,-28.000000,-6.000000
1295103.900473,7.000000,12.000000,-11.000000,-5.000000,-32.000000,3.000000,18.000000,8.000000
1295103.901007,-11.000000,-3.000000,4.000000,3.000000,7.000000,-4.000000,1.000000,-15.000000
1295103.901040,1.000000,-11.000000,3.000000,-24.000000,-57.000000,-25.000000,-34.000000,-1.000000
1295103.902437,-11.000000,-13.000000,-19.000000,-28.000000,-28.000000,-39.000000,-34.000000,-18.000000
1295103.902450,-14.000000,-22.000000,-17.000000,8.000000,41.000000,36.000000,69.000000,7.000000
1295103.903760,2.000000,1.000000,5.000000,5.000000,-11.000000,-7.000000,-2.000000,-3.000000
1295103.903768,3.000000,13.000000,-4.000000,-30.000000,-55.000000,-1.000000,-11.000000,-9.000000
1295103.915637,-9.000000,-12.000000,0.000000,-15.000000,-1.000000,-6.000000,-17.000000,-13.000000
1295103.915646,4.000000,1.000000,0.000000,22.000000,11.000000,6.000000,9.000000,6.000000
1295103.938181,-11.000000,-6.000000,-2.000000,-19.000000,-35.000000,-13.000000,-17.000000,-6.000000
1295103.938191,-6.000000,-7.000000,-18.000000,22.000000,10.000000,-22.000000,10.000000,-8.000000
1295103.945769,22.000000,7.000000,19.000000,8.000000,-40.000000,19.000000,22.000000,27.000000
1295103.945802,0.000000,2.000000,-2.000000,4.000000,6.000000,-4.000000,2.000000,-4.000000
1295103.975897,-10.000000,-19.000000,-6.000000,-1.000000,-13.000000,-7.000000,-6.000000,-9.000000
1295103.975907,9.000000,4.000000,-16.000000,-29.000000,-26.000000,-4.000000,19.000000,8.000000
1295103.983138,14.000000,5.000000,11.000000,44.000000,67.000000,4.000000,28.000000,13.000000
1295103.983147,-8.000000,9.000000,-5.000000,2.000000,6.000000,-5.000000,-2.000000,-12.000000
1295104.006038,-15.000000,-29.000000,-20.000000,-28.000000,-27.000000,-11.000000,-6.000000,-9.000000
1295104.006048,15.000000,25.000000,25.000000,29.000000,40.000000,15.000000,6.000000,15.000000
1295104.021181,7.000000,1.000000,10.000000,4.000000,27.000000,8.000000,-17.000000,6.000000
1295104.021216,-5.000000,1.000000,-2.000000,-1.000000,7.000000,-18.000000,-20.000000,0.000000
1295104.022218,-6.000000,-15.000000,-16.000000,-3.000000,-21.000000,-12.000000,8.000000,-7.000000
1295104.022226,-3.000000,4.000000,9.000000,-15.000000,41.000000,19.000000,-10.000000,-8.000000
1295104.023689,21.000000,34.000000,-8.000000,-70.000000,-70.000000,19.000000,60.000000,20.000000
1295104.023704,13.000000,-3.000000,-1.000000,30.000000,47.000000,22.000000,14.000000,14.000000
1295104.024178,-8.000000,-21.000000,-25.000000,-9.000000,-17.000000,-13.000000,-21.000000,-6.000000
1295104.024207,-12.000000,7.000000,28.000000,0.000000,19.000000,-17.000000,-27.000000,-13.000000
1295104.058469,6.000000,4.000000,7.000000,-19.000000,-16.000000,12.000000,-1.000000,7.000000
1295104.058482,1.000000,-2.000000,4.000000,9.000000,1.000000,7.000000,-5.000000,-10.000000
1295104.103410,-10.000000,-10.000000,-10.000000,-5.000000,2.000000,-5.000000,-8.000000,-11.000000
1295104.103421,-12.000000,-26.000000,-29.000000,-10.000000,-15.000000,-16.000000,-5.000000,-11.000000
1295104.111025,6.000000,10.000000,26.000000,-21.000000,-88.000000,-3.000000,34.000000,3.000000
1295104.111037,9.000000,20.000000,3.000000,12.000000,36.000000,-1.000000,0.000000,3.000000
1295104.133350,-16.000000,-19.000000,-20.000000,-16.000000,-3.000000,-5.000000,-70.000000,-17.000000
1295104.133369,7.000000,-22.000000,-13.000000,-3.000000,-5.000000,8.000000,76.000000,15.000000
1295104.141175,16.000000,41.000000,16.000000,21.000000,51.000000,36.000000,22.000000,21.000000
1295104.141195,-2.000000,-9.000000,-5.000000,-2.000000,-8.000000,-11.000000,51.000000,7.000000
1295104.178258,-7.000000,-16.000000,-17.000000,-24.000000,-38.000000,-15.000000,-19.000000,-3.000000
1295104.178268,12.000000,-7.000000,3.000000,-5.000000,1.000000,-6.000000,-11.000000,-1.000000
1295104.215736,-11.000000,-10.000000,-14.000000,-50.000000,-86.000000,-31.000000,-43.000000,-8.000000
1295104.215746,-14.000000,-12.000000,-17.000000,0.000000,28.000000,2.000000,25.000000,-2.000000
1295104.223120,-2.000000,-7.000000,-2.000000,-7.000000,-10.000000,20.000000,-4.000000,-3.000000
1295104.223131,16.000000,10.000000,5.000000,-13.000000,-13.000000,13.000000,46.000000,23.000000
1295104.223490,-13.000000,-13.000000,-5.000000,56.000000,34.000000,8.000000,-41.000000,-15.000000
1295104.223499,-17.000000,-27.000000,-27.000000,-100.000000,-104.000000,-48.000000,48.000000,-4.000000
1295104.224138,-19.000000,-17.000000,-25.000000,-2.000000,8.000000,-8.000000,-24.000000,-18.000000
1295104.224158,-9.000000,-17.000000,-6.000000,-18.000000,-25.000000,-2.000000,-90.000000,-25.000000
1295104.225455,-1.000000,4.000000,1.000000,-9.000000,-11.000000,-13.000000,-7.000000,-6.000000
1295104.225463,-12.000000,-22.000000,-26.000000,-11.000000,0.000000,-4.000000,-13.000000,-14.000000
1295104.226296,4.000000,23.000000,-4.000000,-9.000000,-14.000000,-17.000000,-39.000000,-3.000000
1295104.226304,-2.000000,0.000000,-4.000000,10.000000,24.000000,-2.000000,13.000000,1.000000
1295104.230430,-1.000000,4.000000,10.000000,34.000000,-15.000000,14.000000,98.000000,18.000000
1295104.230439,3.000000,7.000000,-8.000000,7.000000,46.000000,15.000000,-35.000000,-10.000000
1295104.253296,8.000000,-1.000000,15.000000,-21.000000,-47.000000,-7.000000,40.000000,19.000000
1295104.253325,-4.000000,-13.000000,-16.000000,29.000000,38.000000,15.000000,5.000000,9.000000
1295104.253752,-4.000000,19.000000,6.000000,-6.000000,1.000000,-7.000000,-16.000000,-4.000000
1295104.253782,-9.000000,-15.000000,-15.000000,-11.000000,-28.000000,3.000000,-15.000000,-7.000000
1295104.260684,6.000000,-9.000000,-1.000000,-8.000000,-7.000000,-4.000000,13.000000,8.000000
1295104.260695,-1.000000,-3.000000,-16.000000,-13.000000,-15.000000,-6.000000,-13.000000,-5.000000
1295104.268176,-12.000000,-19.000000,-15.000000,13.000000,17.000000,3.000000,8.000000,-6.000000
1295104.268195,10.000000,16.000000,33.000000,4.000000,11.000000,22.000000,20.000000,10.000000
1295104.335733,21.000000,24.000000,17.000000,6.000000,6.000000,19.000000,84.000000,33.000000
1295104.335743,-11.000000,-16.000000,-12.000000,-15.000000,-2.000000,-6.000000,-8.000000,-16.000000
1295104.380906,-4.000000,3.000000,22.000000,47.000000,16.000000,-1.000000,-32.000000,-23.000000
1295104.380917,1.000000,2.000000,-11.000000,-8.000000,-20.000000,-5.000000,4.000000,17.000000
1295104.381757,-11.000000,-6.000000,-5.000000,-16.000000,24.000000,-5.000000,-26.000000,-17.000000
1295104.381765,7.000000,3.000000,-1.000000,8.000000,3.000000,6.000000,22.000000,8.000000
1295104.382284,10.000000,16.000000,22.000000,50.000000,59.000000,41.000000,-14.000000,6.000000
1295104.382292,-2.000000,0.000000,-15.000000,2.000000,-5.000000,-9.000000,-13.000000,-10.000000
1295104.383700,-19.000000,-20.000000,-26.000000,-15.000000,1.000000,-51.000000,-34.000000,-24.000000
1295104.383707,-6.000000,-5.000000,4.000000,-28.000000,-58.000000,-5.000000,-39.000000,-10.000000
1295104.384477,-13.000000,-16.000000,-19.000000,13.000000,0.000000,-31.000000,-29.000000,-10.000000
1295104.384484,19.000000,15.000000,14.000000,-19.000000,-38.000000,-5.000000,11.000000,14.000000
1295104.388025,12.000000,21.000000,16.000000,10.000000,15.000000,14.000000,20.000000,15.000000
1295104.388033,3.000000,10.000000,4.000000,2.000000,-10.000000,-9.000000,-37.000000,-1.000000
1295104.418198,-23.000000,-24.000000,-32.000000,-37.000000,-15.000000,-20.000000,-54.000000,-33.000000
1295104.418222,9.000000,33.000000,21.000000,-3.000000,-9.000000,-12.000000,2.000000,-6.000000
1295104.456043,17.000000,13.000000,9.000000,3.000000,-35.000000,13.000000,12.000000,19.000000
1295104.456063,-12.000000,-13.000000,-21.000000,9.000000,-9.000000,-2.000000,-37.000000,-16.000000
1295104.493419,-6.000000,2.000000,32.000000,-5.000000,15.000000,-7.000000,-42.000000,-18.000000
1295104.493432,7.000000,7.000000,7.000000,-26.000000,-26.000000,-5.000000,52.000000,18.000000
1295104.493826,-15.000000,-7.000000,-11.000000,7.000000,32.000000,5.000000,-25.000000,-19.000000
1295104.493833,18.000000,8.000000,-7.000000,-28.000000,-56.000000,19.000000,57.000000,52.000000
1295104.494880,2.000000,5.000000,11.000000,9.000000,-1.000000,-9.000000,-23.000000,-4.000000
1295104.494890,-8.000000,-14.000000,-9.000000,3.000000,4.000000,-5.000000,-11.000000,-15.000000
1295104.495538,4.000000,8.000000,4.000000,14.000000,26.000000,10.000000,12.000000,3.000000
1295104.495548,-2.000000,-12.000000,-21.000000,-23.000000,-19.000000,-5.000000,-14.000000,-3.000000
1295104.496256,12.000000,-7.000000,-2.000000,-6.000000,-26.000000,15.000000,46.000000,12.000000
1295104.496266,-1.000000,1.000000,20.000000,20.000000,0.000000,0.000000,12.000000,10.000000
1295104.500665,1.000000,-3.000000,-1.000000,-32.000000,-31.000000,6.000000,-13.000000,-2.000000
1295104.500676,12.000000,8.000000,10.000000,25.000000,24.000000,16.000000,72.000000,17.000000
1295104.508265,-1.000000,12.000000,22.000000,2.000000,11.000000,-13.000000,0.000000,12.000000
1295104.508290,0.000000,9.000000,16.000000,6.000000,-27.000000,-21.000000,-33.000000,2.000000
1295104.538586,-6.000000,-10.000000,-23.000000,-20.000000,13.000000,-7.000000,46.000000,-18.000000
1295104.538619,7.000000,5.000000,2.000000,3.000000,-30.000000,-7.000000,14.000000,0.000000
1295104.545799,-4.000000,-3.000000,4.000000,7.000000,9.000000,4.000000,-1.000000,1.000000
1295104.545828,-11.000000,-23.000000,-31.000000,-19.000000,-3.000000,12.000000,5.000000,4.000000
1295104.598285,12.000000,1.000000,12.000000,12.000000,6.000000,-4.000000,-58.000000,-7.000000
1295104.598306,19.000000,18.000000,7.000000,0.000000,0.000000,32.000000,111.000000,48.000000
1295104.598688,0.000000,-11.000000,-7.000000,24.000000,43.000000,5.000000,4.000000,1.000000
1295104.598705,-13.000000,10.000000,29.000000,1.000000,-5.000000,-8.000000,4.000000,-13.000000
1295104.613623,-2.000000,0.000000,-1.000000,10.000000,-6.000000,-10.000000,9.000000,-2.000000
1295104.613632,12.000000,-2.000000,-13.000000,0.000000,27.000000,18.000000,36.000000,14.000000
1295104.614227,2.000000,-6.000000,-12.000000,-10.000000,-15.000000,7.000000,28.000000,-9.000000
1295104.614245,2.000000,16.000000,3.000000,-2.000000,7.000000,-7.000000,-13.000000,-3.000000
1295104.615579,-9.000000,3.000000,-1.000000,0.000000,-40.000000,-2.000000,-13.000000,-8.000000
1295104.615603,16.000000,36.000000,21.000000,11.000000,8.000000,-4.000000,14.000000,23.000000
1295104.616202,3.000000,-3.000000,19.000000,-12.000000,-5.000000,5.000000,28.000000,1.000000
1295104.616211,5.000000,3.000000,-4.000000,-12.000000,-8.000000,7.000000,1.000000,2.000000
1295104.620752,9.000000,-5.000000,2.000000,20.000000,-52.000000,8.000000,22.000000,20.000000
1295104.620763,12.000000,-2.000000,5.000000,35.000000,67.000000,32.000000,35.000000,31.000000
1295104.636050,4.000000,27.000000,5.000000,-6.000000,-9.000000,-7.000000,16.000000,-4.000000
1295104.636062,-14.000000,-14.000000,-19.000000,-7.000000,-3.000000,-16.000000,-21.000000,-11.000000
1295104.665556,-14.000000,-21.000000,-28.000000,-40.000000,-23.000000,-21.000000,-23.000000,-12.000000
1295104.665566,8.000000,3.000000,17.000000,29.000000,47.000000,22.000000,25.000000,14.000000
1295104.673510,-6.000000,-12.000000,-14.000000,-6.000000,3.000000,-3.000000,-7.000000,1.000000
1295104.673538,-7.000000,-9.000000,-8.000000,-4.000000,3.000000,-21.000000,-14.000000,-11.000000
1295104.695554,-2.000000,-8.000000,-13.000000,-25.000000,-57.000000,-31.000000,-26.000000,-7.000000
1295104.695565,3.000000,2.000000,-1.000000,36.000000,31.000000,13.000000,47.000000,32.000000
1295104.695998,-5.000000,-9.000000,-11.000000,-18.000000,-5.000000,-14.000000,3.000000,-2.000000
1295104.696006,-12.000000,-5.000000,-11.000000,-22.000000,6.000000,7.000000,1.000000,-15.000000
1295104.697487,3.000000,-4.000000,28.000000,-20.000000,-44.000000,-17.000000,3.000000,9.000000
1295104.697499,2.000000,-13.000000,-29.000000,27.000000,7.000000,27.000000,11.000000,19.000000
1295104.698102,13.000000,37.000000,34.000000,30.000000,57.000000,13.000000,32.000000,8.000000
1295104.698118,-1.000000,-17.000000,-19.000000,-7.000000,-3.000000,0.000000,-48.000000,-9.000000
1295104.725941,-13.000000,-9.000000,15.000000,5.000000,-1.000000,-28.000000,-42.000000,-15.000000
1295104.725953,-31.000000,-27.000000,-35.000000,-1.000000,35.000000,-4.000000,-67.000000,-34.000000
1295104.733875,41.000000,55.000000,73.000000,-25.000000,-98.000000,35.000000,127.000000,42.000000
1295104.733898,4.000000,-8.000000,0.000000,10.000000,28.000000,-3.000000,-16.000000,-4.000000
1295104.734465,-5.000000,-28.000000,-11.000000,35.000000,35.000000,9.000000,-15.000000,-2.000000
1295104.734500,-5.000000,-7.000000,-3.000000,0.000000,-7.000000,-11.000000,-24.000000,-14.000000
1295104.755997,-9.000000,1.000000,-20.000000,-9.000000,-5.000000,-13.000000,-21.000000,-7.000000
1295104.756029,0.000000,-18.000000,-17.000000,-5.000000,20.000000,10.000000,14.000000,-1.000000
1295104.770989,-6.000000,18.000000,19.000000,1.000000,0.000000,-11.000000,19.000000,-9.000000
1295104.771000,5.000000,5.000000,3.000000,-10.000000,-17.000000,7.000000,18.000000,6.000000
1295104.785633,1.000000,-11.000000,-8.000000,-9.000000,19.000000,-12.000000,-9.000000,-3.000000
1295104.785651,-12.000000,-6.000000,-9.000000,0.000000,1.000000,-6.000000,-26.000000,-10.000000
1295104.808309,-8.000000,-12.000000,-23.000000,-26.000000,-16.000000,-14.000000,-13.000000,-12.000000
1295104.808321,24.000000,26.000000,26.000000,47.000000,71.000000,45.000000,82.000000,29.000000
1295104.823291,7.000000,-4.000000,-4.000000,6.000000,11.000000,4.000000,17.000000,9.000000
1295104.823302,-2.000000,-14.000000,-32.000000,-16.000000,-17.000000,-5.000000,-18.000000,-5.000000
1295104.853500,-32.000000,-37.000000,-38.000000,-19.000000,-10.000000,-11.000000,-73.000000,-28.000000
1295104.853513,9.000000,24.000000,21.000000,-30.000000,-42.000000,-4.000000,10.000000,-14.000000
1295104.890706,26.000000,24.000000,9.000000,36.000000,-6.000000,19.000000,60.000000,45.000000
1295104.890722,-3.000000,0.000000,9.000000,-3.000000,2.000000,-11.000000,-20.000000,-5.000000
1295104.891089,-4.000000,-19.000000,-7.000000,-13.000000,-10.000000,-29.000000,-20.000000,-4.000000
1295104.891098,-4.000000,-4.000000,-5.000000,7.000000,9.000000,7.000000,-4.000000,-6.000000
1295104.891614,-9.000000,-10.000000,-5.000000,19.000000,16.000000,-9.000000,7.000000,-13.000000
1295104.891633,-2.000000,-6.000000,-29.000000,-3.000000,8.000000,-6.000000,-47.000000,-18.000000
1295104.892894,15.000000,7.000000,25.000000,-61.000000,-56.000000,-5.000000,50.000000,38.000000
1295104.892903,-3.000000,19.000000,23.000000,61.000000,65.000000,49.000000,2.000000,0.000000
1295104.893616,7.000000,-10.000000,13.000000,15.000000,29.000000,9.000000,32.000000,7.000000
1295104.893626,-6.000000,-3.000000,-14.000000,-22.000000,-44.000000,-17.000000,-6.000000,-4.000000
1295104.894430,-9.000000,-9.000000,-14.000000,-1.000000,10.000000,-7.000000,-49.000000,-5.000000
1295104.894473,-1.000000,20.000000,33.000000,8.000000,-20.000000,6.000000,34.000000,-8.000000
1295104.897988,-16.000000,-20.000000,-23.000000,-24.000000,-24.000000,-15.000000,-26.000000,-9.000000
1295104.898014,0.000000,3.000000,14.000000,-11.000000,-21.000000,-3.000000,16.000000,6.000000
1295104.913405,-2.000000,-8.000000,-17.000000,-19.000000,8.000000,0.000000,44.000000,0.000000
1295104.913434,1.000000,-5.000000,-13.000000,6.000000,-8.000000,4.000000,2.000000,3.000000
1295104.936246,3.000000,-11.000000,10.000000,-1.000000,5.000000,2.000000,7.000000,3.000000
1295104.936265,-7.000000,-18.000000,-18.000000,-20.000000,-55.000000,-11.000000,-16.000000,-12.000000
1295104.936828,4.000000,2.000000,-1.000000,32.000000,58.000000,-1.000000,-9.000000,-3.000000
1295104.936840,-11.000000,-8.000000,-17.000000,-30.000000,-22.000000,-9.000000,-31.000000,-16.000000
1295104.943174,2.000000,14.000000,23.000000,20.000000,30.000000,30.000000,55.000000,8.000000
1295104.943183,12.000000,10.000000,-10.000000,0.000000,9.000000,6.000000,17.000000,2.000000
1295104.950462,-8.000000,-17.000000,-22.000000,-6.000000,-4.000000,-14.000000,-18.000000,-13.000000
1295104.950471,9.000000,19.000000,54.000000,51.000000,73.000000,26.000000,7.000000,10.000000
1295104.965781,6.000000,-12.000000,-7.000000,-8.000000,-12.000000,0.000000,5.000000,5.000000
1295104.965809,-13.000000,-8.000000,-37.000000,-13.000000,-9.000000,-6.000000,-26.000000,-22.000000
1295104.973018,-12.000000,-20.000000,-14.000000,-11.000000,-13.000000,-9.000000,17.000000,9.000000
1295104.973028,2.000000,7.000000,9.000000,-1.000000,-6.000000,-10.000000,-54.000000,-9.000000
1295105.003233,12.000000,17.000000,15.000000,-33.000000,-75.000000,28.000000,49.000000,9.000000
1295105.003248,1.000000,2.000000,-11.000000,15.000000,13.000000,8.000000,-16.000000,-13.000000
1295105.025716,6.000000,-7.000000,-2.000000,12.000000,33.000000,5.000000,63.000000,32.000000
1295105.025734,-13.000000,-13.000000,-7.000000,8.000000,-11.000000,-32.000000,-37.000000,-12.000000
1295105.048560,-5.000000,-12.000000,-17.000000,-11.000000,-11.000000,-15.000000,-11.000000,-4.000000
1295105.048589,4.000000,9.000000,0.000000,-53.000000,-33.000000,6.000000,22.000000,2.000000
1295105.056162,4.000000,-3.000000,-9.000000,-41.000000,-69.000000,-9.000000,9.000000,12.000000
1295105.056191,-4.000000,0.000000,-2.000000,12.000000,41.000000,7.000000,-7.000000,-9.000000
1295105.085923,-11.000000,-18.000000,-22.000000,8.000000,39.000000,-4.000000,-12.000000,0.000000
1295105.085936,9.000000,8.000000,15.000000,12.000000,15.000000,4.000000,-16.000000,6.000000
1295105.093245,-7.000000,-5.000000,-10.000000,-19.000000,-20.000000,-10.000000,15.000000,-4.000000
1295105.093254,6.000000,5.000000,3.000000,20.000000,34.000000,13.000000,-9.000000,15.000000
1295105.101061,-11.000000,-10.000000,-4.000000,8.000000,23.000000,-11.000000,-17.000000,-6.000000
1295105.101077,-4.000000,-28.000000,-32.000000,-2.000000,14.000000,-4.000000,-51.000000,-18.000000
1295105.101671,-14.000000,-14.000000,0.000000,2.000000,4.000000,-10.000000,-7.000000,-7.000000
1295105.101693,-11.000000,-10.000000,-31.000000,-6.000000,9.000000,-9.000000,-37.000000,-12.000000
1295105.102202,-3.000000,4.000000,16.000000,8.000000,5.000000,-7.000000,-8.000000,-3.000000
1295105.102210,-12.000000,-21.000000,-18.000000,-3.000000,1.000000,-24.000000,27.000000,-7.000000
1295105.168292,0.000000,1.000000,2.000000,-9.000000,16.000000,2.000000,-13.000000,-2.000000
1295105.168310,-3.000000,-4.000000,0.000000,-3.000000,0.000000,6.000000,28.000000,0.000000
1295105.168652,0.000000,-1.000000,-8.000000,-18.000000,-15.000000,-10.000000,-7.000000,-5.000000
1295105.168660,8.000000,15.000000,7.000000,2.000000,-21.000000,-18.000000,5.000000,5.000000
1295105.169217,-4.000000,7.000000,8.000000,25.000000,15.000000,-3.000000,-23.000000,-5.000000
1295105.169227,-5.000000,0.000000,-3.000000,19.000000,9.000000,6.000000,0.000000,4.000000
1295105.170841,-8.000000,-1.000000,-1.000000,5.000000,12.000000,-2.000000,-2.000000,0.000000
1295105.170851,-6.000000,-7.000000,0.000000,-6.000000,5.000000,6.000000,-8.000000,-10.000000
1295105.171473,-12.000000,-37.000000,-74.000000,-20.000000,-13.000000,-24.000000,-20.000000,-5.000000
1295105.171501,13.000000,28.000000,42.000000,6.000000,-3.000000,10.000000,27.000000,11.000000
1295105.190859,19.000000,53.000000,53.000000,-20.000000,-47.000000,-12.000000,-12.000000,4.000000
1295105.190871,-6.000000,-1.000000,-5.000000,-32.000000,-30.000000,-3.000000,-20.000000,-7.000000
1295105.213146,-3.000000,-10.000000,-1.000000,35.000000,69.000000,23.000000,35.000000,0.000000
1295105.213165,2.000000,-2.000000,0.000000,-30.000000,-69.000000,-34.000000,-2.000000,10.000000
1295105.214108,20.000000,24.000000,11.000000,-12.000000,-37.000000,-20.000000,14.000000,2.000000
1295105.214117,-12.000000,-15.000000,-31.000000,-31.000000,-28.000000,-2.000000,-45.000000,-19.000000
1295105.214869,-3.000000,-6.000000,-6.000000,0.000000,16.000000,13.000000,43.000000,17.000000
1295105.214883,-6.000000,-5.000000,-10.000000,-3.000000,-1.000000,-5.000000,-37.000000,-11.000000
1295105.220726,-6.000000,-13.000000,-1.000000,-28.000000,-43.000000,-5.000000,13.000000,-8.000000
1295105.220738,15.000000,13.000000,-3.000000,42.000000,51.000000,15.000000,26.000000,17.000000
1295105.228520,-10.000000,1.000000,15.000000,-18.000000,-22.000000,-7.000000,-28.000000,-21.000000
1295105.228533,0.000000,-12.000000,-13.000000,15.000000,24.000000,23.000000,35.000000,19.000000
1295105.250623,5.000000,21.000000,9.000000,1.000000,44.000000,0.000000,4.000000,7.000000
1295105.250645,2.000000,4.000000,13.000000,1.000000,-1.000000,-1.000000,-1.000000,0.000000
1295105.265640,-8.000000,-7.000000,-8.000000,-9.000000,-9.000000,-21.000000,-29.000000,-8.000000
1295105.265650,-5.000000,-12.000000,1.000000,22.000000,26.000000,-3.000000,-6.000000,-11.000000
1295105.288457,7.000000,-4.000000,-10.000000,-15.000000,-51.000000,-5.000000,37.000000,16.000000
1295105.288487,7.000000,9.000000,1.000000,13.000000,26.000000,14.000000,-29.000000,1.000000
1295105.289106,-12.000000,4.000000,26.000000,15.000000,-55.000000,-13.000000,-19.000000,-9.000000
1295105.289117,3.000000,0.000000,-5.000000,3.000000,12.000000,9.000000,43.000000,12.000000
1295105.289953,5.000000,-1.000000,-3.000000,4.000000,-29.000000,-26.000000,19.000000,8.000000
1295105.289961,3.000000,6.000000,-19.000000,0.000000,34.000000,4.000000,6.000000,-5.000000
1295105.290643,-15.000000,-11.000000,6.000000,32.000000,75.000000,0.000000,-61.000000,-26.000000
1295105.290651,-12.000000,-21.000000,-14.000000,-28.000000,-38.000000,-27.000000,-12.000000,-2.000000
1295105.318072,10.000000,-2.000000,-1.000000,0.000000,-11.000000,14.000000,32.000000,15.000000
1295105.318083,-6.000000,-14.000000,-2.000000,15.000000,-1.000000,-13.000000,-32.000000,-6.000000
1295105.318460,3.000000,19.000000,10.000000,-19.000000,-16.000000,-12.000000,4.000000,-8.000000
1295105.318468,4.000000,14.000000,-1.000000,7.000000,15.000000,7.000000,-31.000000,-1.000000
1295105.326613,-17.000000,-14.000000,-10.000000,-10.000000,-4.000000,-14.000000,-35.000000,-14.000000
1295105.326640,-1.000000,-15.000000,-8.000000,4.000000,0.000000,-14.000000,14.000000,-6.000000
1295105.334106,-4.000000,-13.000000,-11.000000,-7.000000,-12.000000,0.000000,3.000000,-5.000000
1295105.334132,0.000000,2.000000,9.000000,18.000000,12.000000,10.000000,14.000000,5.000000
1295105.340914,-13.000000,-9.000000,-30.000000,-45.000000,-31.000000,-28.000000,-24.000000,-15.000000
1295105.340933,5.000000,11.000000,13.000000,26.000000,-6.000000,5.000000,4.000000,6.000000
1295105.371158,-2.000000,17.000000,21.000000,11.000000,-7.000000,16.000000,15.000000,5.000000
1295105.371197,-1.000000,-19.000000,-3.000000,-22.000000,-65.000000,-17.000000,-48.000000,-1.000000
1295105.408231,-13.000000,2.000000,8.000000,-39.000000,-20.000000,7.000000,45.000000,-2.000000
1295105.408247,-2.000000,18.000000,-2.000000,-1.000000,-8.000000,-8.000000,7.000000,-8.000000
1295105.445812,17.000000,9.000000,13.000000,8.000000,-12.000000,0.000000,10.000000,13.000000
1295105.445834,1.000000,-11.000000,-12.000000,5.000000,-1.000000,-1.000000,25.000000,20.000000
1295105.453180,-2.000000,-2.000000,1.000000,-6.000000,-10.000000,-4.000000,-13.000000,4.000000
1295105.453194,-6.000000,-3.000000,-5.000000,-15.000000,-28.000000,-11.000000,17.000000,-8.000000
1295105.491307,-9.000000,3.000000,-13.000000,7.000000,26.000000,3.000000,-44.000000,-14.000000
1295105.491337,-3.000000,-13.000000,-8.000000,-24.000000,-73.000000,-28.000000,39.000000,-5.000000
1295105.492081,10.000000,18.000000,20.000000,17.000000,-8.000000,8.000000,16.000000,12.000000
1295105.492097,-3.000000,-10.000000,-20.000000,-38.000000,-64.000000,-14.000000,-14.000000,-9.000000
1295105.493801,-10.000000,-20.000000,-9.000000,-12.000000,-18.000000,-30.000000,-5.000000,-1.000000
1295105.493828,6.000000,6.000000,8.000000,32.000000,30.000000,36.000000,-15.000000,1.000000
1295105.498081,0.000000,-3.000000,-21.000000,-4.000000,16.000000,4.000000,-10.000000,6.000000
1295105.498108,-13.000000,-20.000000,-11.000000,-46.000000,-19.000000,-17.000000,-25.000000,-14.000000
1295105.521363,11.000000,11.000000,0.000000,-14.000000,-46.000000,0.000000,-6.000000,-12.000000
1295105.521372,6.000000,4.000000,10.000000,16.000000,12.000000,-4.000000,1.000000,8.000000
1295105.522056,3.000000,-3.000000,0.000000,-9.000000,-62.000000,13.000000,1.000000,3.000000
1295105.522065,-5.000000,-10.000000,8.000000,20.000000,33.000000,6.000000,28.000000,0.000000
1295105.566103,-15.000000,-17.000000,-50.000000,-9.000000,-10.000000,-31.000000,4.000000,-3.000000
1295105.566112,6.000000,16.000000,44.000000,-20.000000,-21.000000,-11.000000,-14.000000,-9.000000
1295105.566828,1.000000,-20.000000,-13.000000,1.000000,-5.000000,-6.000000,13.000000,15.000000
1295105.566836,3.000000,-3.000000,-16.000000,-13.000000,2.000000,7.000000,54.000000,8.000000
1295105.568164,-4.000000,3.000000,7.000000,-10.000000,-5.000000,-3.000000,-5.000000,0.000000
1295105.568190,1.000000,10.000000,16.000000,27.000000,37.000000,-2.000000,-55.000000,-15.000000
1295105.569030,-8.000000,-9.000000,-1.000000,11.000000,-30.000000,-2.000000,39.000000,-6.000000
1295105.569057,16.000000,14.000000,3.000000,-16.000000,-21.000000,2.000000,18.000000,9.000000
1295105.603532,3.000000,3.000000,10.000000,-1.000000,-11.000000,-24.000000,-19.000000,6.000000
1295105.603543,-6.000000,-12.000000,2.000000,12.000000,-7.000000,-10.000000,-8.000000,4.000000
1295105.611033,0.000000,-6.000000,-2.000000,-18.000000,-29.000000,-1.000000,17.000000,2.000000
1295105.611045,0.000000,8.000000,10.000000,-19.000000,-12.000000,-9.000000,-10.000000,-3.000000
1295105.640659,4.000000,21.000000,10.000000,9.000000,-13.000000,1.000000,-4.000000,0.000000
1295105.640672,1.000000,-6.000000,-6.000000,3.000000,45.000000,-8.000000,4.000000,3.000000
1295105.641061,9.000000,25.000000,47.000000,69.000000,21.000000,18.000000,-3.000000,8.000000
1295105.641070,-1.000000,-7.000000,-11.000000,-17.000000,-16.000000,-2.000000,36.000000,-1.000000
1295105.642341,1.000000,-3.000000,-3.000000,5.000000,-20.000000,-8.000000,11.000000,1.000000
1295105.642357,2.000000,-5.000000,-11.000000,9.000000,42.000000,14.000000,-5.000000,13.000000
1295105.642994,2.000000,-4.000000,-6.000000,1.000000,-23.000000,-3.000000,-3.000000,-2.000000
1295105.643022,2.000000,10.000000,4.000000,-11.000000,-28.000000,-2.000000,2.000000,0.000000
1295105.644427,-8.000000,-13.000000,-22.000000,-13.000000,-22.000000,-23.000000,28.000000,2.000000
1295105.644435,7.000000,13.000000,21.000000,13.000000,13.000000,8.000000,4.000000,8.000000
1295105.655879,-4.000000,9.000000,0.000000,-39.000000,-41.000000,19.000000,23.000000,-1.000000
1295105.655907,11.000000,15.000000,8.000000,10.000000,33.000000,8.000000,36.000000,13.000000
1295105.685651,-6.000000,-13.000000,-17.000000,0.000000,1.000000,-10.000000,-43.000000,-18.000000
1295105.685667,-5.000000,-2.000000,-5.000000,0.000000,-3.000000,1.000000,15.000000,8.000000
1295105.686628,-20.000000,-21.000000,-20.000000,-6.000000,10.000000,-6.000000,-33.000000,-21.000000
1295105.686637,13.000000,6.000000,23.000000,-39.000000,-73.000000,1.000000,38.000000,19.000000
1295105.687604,3.000000,4.000000,1.000000,-23.000000,-18.000000,-4.000000,-10.000000,3.000000
1295105.687613,-1.000000,9.000000,8.000000,50.000000,57.000000,14.000000,6.000000,-5.000000
1295105.716554,1.000000,-18.000000,-6.000000,39.000000,-5.000000,-23.000000,0.000000,-1.000000
1295105.716571,4.000000,33.000000,22.000000,-15.000000,-2.000000,2.000000,-9.000000,-4.000000
1295105.723216,-7.000000,-5.000000,-8.000000,-7.000000,-9.000000,-3.000000,4.000000,-3.000000
1295105.723231,-7.000000,-1.000000,-2.000000,-3.000000,23.000000,-9.000000,-27.000000,-5.000000
1295105.753577,-7.000000,-18.000000,-32.000000,-33.000000,-21.000000,-13.000000,-3.000000,-20.000000
1295105.753607,16.000000,26.000000,15.000000,20.000000,46.000000,25.000000,49.000000,32.000000
1295105.768117,6.000000,13.000000,29.000000,1.000000,-18.000000,2.000000,0.000000,8.000000
1295105.768143,-19.000000,-24.000000,-19.000000,-12.000000,-14.000000,-12.000000,-48.000000,-20.000000
1295105.769225,12.000000,-18.000000,-8.000000,18.000000,2.000000,-13.000000,-24.000000,-15.000000
1295105.769240,-15.000000,-4.000000,-2.000000,-21.000000,-33.000000,-5.000000,-14.000000,-17.000000
1295105.769841,0.000000,-28.000000,-24.000000,-1.000000,5.000000,-1.000000,7.000000,22.000000
1295105.769854,24.000000,41.000000,60.000000,30.000000,17.000000,12.000000,1.000000,0.000000
1295105.771651,-2.000000,17.000000,15.000000,-3.000000,-6.000000,-4.000000,-7.000000,-9.000000
1295105.771663,1.000000,-16.000000,-12.000000,-1.000000,21.000000,7.000000,-16.000000,-2.000000
1295105.783800,-1.000000,-3.000000,2.000000,20.000000,24.000000,7.000000,-12.000000,0.000000
1295105.783835,-11.000000,-8.000000,-3.000000,0.000000,-1.000000,-12.000000,-31.000000,-15.000000
1295105.798805,-9.000000,-10.000000,-10.000000,-10.000000,-17.000000,-18.000000,-49.000000,-20.000000
1295105.798817,15.000000,4.000000,12.000000,19.000000,22.000000,25.000000,9.000000,18.000000
1295105.799549,-19.000000,-12.000000,2.000000,6.000000,-25.000000,-12.000000,-21.000000,-14.000000
1295105.799559,-9.000000,-9.000000,-16.000000,-21.000000,0.000000,-23.000000,-37.000000,-6.000000
1295105.858318,23.000000,42.000000,35.000000,11.000000,-21.000000,13.000000,15.000000,6.000000
1295105.858338,10.000000,9.000000,13.000000,7.000000,-1.000000,6.000000,12.000000,9.000000
1295105.873193,-13.000000,-11.000000,-12.000000,0.000000,6.000000,-16.000000,-26.000000,-10.000000
1295105.873217,-17.000000,-33.000000,-11.000000,-13.000000,-16.000000,-29.000000,-33.000000,-11.000000
1295105.888207,2.000000,15.000000,27.000000,-54.000000,-64.000000,8.000000,-1.000000,-9.000000
1295105.888217,12.000000,9.000000,-3.000000,6.000000,53.000000,31.000000,26.000000,3.000000
1295105.888583,-5.000000,-2.000000,0.000000,31.000000,38.000000,-6.000000,-14.000000,1.000000
1295105.888591,-3.000000,-4.000000,-9.000000,-30.000000,-22.000000,-6.000000,0.000000,-4.000000
1295105.890921,18.000000,25.000000,15.000000,16.000000,15.000000,1.000000,10.000000,0.000000
1295105.890935,-8.000000,-7.000000,0.000000,-11.000000,-16.000000,-1.000000,6.000000,-4.000000
1295105.918250,-2.000000,-4.000000,1.000000,5.000000,-6.000000,4.000000,-16.000000,-4.000000
1295105.918261,1.000000,-6.000000,-7.000000,-4.000000,-1.000000,-10.000000,-18.000000,-2.000000
1295105.919399,-2.000000,1.000000,-7.000000,-7.000000,-12.000000,-12.000000,-26.000000,-18.000000
1295105.919408,-6.000000,-1.000000,3.000000,7.000000,-4.000000,13.000000,31.000000,7.000000
1295105.925611,-8.000000,-15.000000,-12.000000,-42.000000,-14.000000,-15.000000,-10.000000,-6.000000
1295105.925634,4.000000,6.000000,4.000000,12.000000,26.000000,5.000000,2.000000,0.000000
1295105.963171,5.000000,29.000000,18.000000,46.000000,47.000000,15.000000,8.000000,9.000000
1295105.963181,-3.000000,0.000000,15.000000,-12.000000,-6.000000,22.000000,-36.000000,-9.000000
1295105.986047,3.000000,9.000000,-1.000000,6.000000,8.000000,-21.000000,18.000000,1.000000
1295105.986064,-20.000000,-8.000000,-8.000000,-15.000000,-20.000000,-1.000000,11.000000,-15.000000
1295106.008149,7.000000,-22.000000,-20.000000,0.000000,-7.000000,5.000000,4.000000,12.000000
1295106.008160,13.000000,40.000000,31.000000,8.000000,-4.000000,4.000000,8.000000,7.000000
1295106.023436,-5.000000,-4.000000,13.000000,-18.000000,-5.000000,-8.000000,-41.000000,-10.000000
1295106.023464,-11.000000,-10.000000,-11.000000,1.000000,-29.000000,-5.000000,9.000000,-5.000000
1295106.045813,12.000000,18.000000,14.000000,13.000000,3.000000,-19.000000,-8.000000,3.000000
1295106.045824,-12.000000,-11.000000,-9.000000,14.000000,43.000000,27.000000,23.000000,0.000000
1295106.053099,-16.000000,-9.000000,-9.000000,-35.000000,-16.000000,-16.000000,-25.000000,-20.000000
1295106.053168,7.000000,6.000000,20.000000,52.000000,37.000000,7.000000,1.000000,6.000000
1295106.076030,-10.000000,-14.000000,-22.000000,-7.000000,1.000000,-15.000000,-24.000000,-5.000000
1295106.076042,0.000000,-21.000000,-10.000000,-9.000000,-13.000000,3.000000,-15.000000,-5.000000
1295106.083304,1.000000,10.000000,9.000000,-12.000000,3.000000,15.000000,70.000000,16.000000
1295106.083316,-3.000000,-3.000000,-1.000000,2.000000,12.000000,3.000000,-20.000000,-13.000000
1295106.120858,-9.000000,-10.000000,-3.000000,8.000000,-17.000000,-11.000000,-23.000000,-9.000000
1295106.120869,-2.000000,9.000000,-8.000000,-13.000000,0.000000,-10.000000,-14.000000,6.000000
1295106.158093,14.000000,17.000000,22.000000,1.000000,-23.000000,-3.000000,40.000000,23.000000
1295106.158104,-22.000000,-15.000000,-26.000000,-19.000000,7.000000,4.000000,-41.000000,-18.000000
1295106.159711,-11.000000,-3.000000,-13.000000,4.000000,17.000000,-1.000000,10.000000,4.000000
1295106.159719,-9.000000,-33.000000,-22.000000,-23.000000,-21.000000,-23.000000,11.000000,4.000000
1295106.160353,18.000000,19.000000,34.000000,13.000000,29.000000,35.000000,30.000000,14.000000
1295106.160361,-5.000000,-1.000000,-11.000000,-9.000000,9.000000,-5.000000,-13.000000,-5.000000
1295106.165530,-3.000000,-8.000000,-13.000000,-2.000000,-1.000000,5.000000,-2.000000,-8.000000
1295106.165540,-8.000000,12.000000,17.000000,6.000000,10.000000,2.000000,17.000000,-3.000000
1295106.195698,3.000000,-10.000000,-13.000000,-15.000000,8.000000,-9.000000,-7.000000,0.000000
1295106.195735,13.000000,-2.000000,-9.000000,-6.000000,-46.000000,-8.000000,5.000000,14.000000
1295106.210751,2.000000,13.000000,3.000000,-16.000000,-29.000000,-9.000000,6.000000,1.000000
1295106.210763,-12.000000,-11.000000,-6.000000,18.000000,47.000000,3.000000,-32.000000,-14.000000
1295106.241098,-7.000000,-18.000000,1.000000,40.000000,10.000000,15.000000,28.000000,2.000000
1295106.241108,0.000000,9.000000,23.000000,2.000000,-25.000000,9.000000,-12.000000,0.000000
1295106.241715,11.000000,-13.000000,-21.000000,26.000000,34.000000,30.000000,74.000000,25.000000
1295106.241731,-1.000000,-7.000000,-8.000000,-33.000000,-40.000000,-16.000000,-34.000000,-13.000000
1295106.242908,0.000000,9.000000,-5.000000,-2.000000,-21.000000,-13.000000,-6.000000,-12.000000
1295106.242917,-9.000000,-12.000000,-19.000000,8.000000,3.000000,-11.000000,-37.000000,-8.000000
1295106.243602,5.000000,9.000000,34.000000,20.000000,56.000000,8.000000,33.000000,5.000000
1295106.243610,14.000000,21.000000,42.000000,-3.000000,-41.000000,-10.000000,18.000000,12.000000
1295106.264137,-6.000000,-1.000000,18.000000,50.000000,47.000000,18.000000,16.000000,2.000000
1295106.264165,14.000000,9.000000,10.000000,-23.000000,-2.000000,-16.000000,-14.000000,7.000000
1295106.264720,3.000000,19.000000,8.000000,-6.000000,-29.000000,3.000000,-2.000000,6.000000
1295106.264746,7.000000,28.000000,13.000000,6.000000,32.000000,3.000000,-16.000000,0.000000
1295106.285529,-14.000000,-28.000000,-18.000000,-7.000000,-25.000000,-35.000000,-26.000000,-12.000000
1295106.285552,14.000000,23.000000,29.000000,12.000000,58.000000,26.000000,16.000000,21.000000
1295106.286397,1.000000,4.000000,-14.000000,6.000000,7.000000,8.000000,0.000000,1.000000
1295106.286409,2.000000,-8.000000,-11.000000,-14.000000,-16.000000,-8.000000,22.000000,2.000000
1295106.323182,-17.000000,-8.000000,0.000000,13.000000,21.000000,2.000000,-18.000000,-16.000000
1295106.323192,26.000000,4.000000,-7.000000,-12.000000,-5.000000,11.000000,17.000000,28.000000
1295106.330659,1.000000,-1.000000,9.000000,-2.000000,-24.000000,-15.000000,3.000000,-5.000000
1295106.330668,-8.000000,-15.000000,0.000000,7.000000,15.000000,0.000000,-24.000000,-4.000000
1295106.361066,4.000000,-7.000000,0.000000,-3.000000,7.000000,2.000000,8.000000,-7.000000
1295106.361099,4.000000,42.000000,7.000000,8.000000,-12.000000,30.000000,16.000000,-5.000000
1295106.383286,2.000000,-14.000000,-15.000000,-27.000000,-29.000000,-33.000000,-13.000000,4.000000
1295106.383300,9.000000,12.000000,15.000000,15.000000,52.000000,20.000000,36.000000,6.000000
1295106.391252,-14.000000,-1.000000,-22.000000,1.000000,27.000000,-14.000000,-57.000000,-15.000000
1295106.391266,-4.000000,-13.000000,-12.000000,-13.000000,-29.000000,9.000000,60.000000,17.000000
1295106.391783,-4.000000,4.000000,12.000000,-6.000000,19.000000,-3.000000,-6.000000,3.000000
1295106.391791,-6.000000,-12.000000,-5.000000,-10.000000,-21.000000,-5.000000,-20.000000,-11.000000
1295106.393637,0.000000,-6.000000,-7.000000,-1.000000,-22.000000,-21.000000,71.000000,-5.000000
1295106.393658,3.000000,-2.000000,15.000000,-8.000000,-18.000000,-17.000000,-17.000000,-4.000000
1295106.435712,-2.000000,13.000000,32.000000,-11.000000,-16.000000,2.000000,-17.000000,-7.000000
1295106.435732,-1.000000,-12.000000,-13.000000,-13.000000,-16.000000,-2.000000,20.000000,1.000000
1295106.443550,-7.000000,-16.000000,-9.000000,15.000000,20.000000,-8.000000,-11.000000,4.000000
1295106.443560,19.000000,30.000000,30.000000,19.000000,-10.000000,24.000000,-5.000000,13.000000
1295106.444140,-12.000000,-11.000000,-27.000000,-27.000000,-31.000000,-15.000000,6.000000,-6.000000
1295106.444149,-9.000000,0.000000,4.000000,3.000000,28.000000,11.000000,-23.000000,-10.000000
1295106.445480,8.000000,11.000000,5.000000,24.000000,-8.000000,16.000000,33.000000,6.000000
1295106.445499,2.000000,8.000000,10.000000,25.000000,-5.000000,1.000000,22.000000,7.000000
1295106.446316,-7.000000,-10.000000,-9.000000,-28.000000,-19.000000,-15.000000,-21.000000,-8.000000
1295106.446335,-4.000000,-8.000000,2.000000,-7.000000,-37.000000,-11.000000,4.000000,-12.000000
1295106.473575,-1.000000,-6.000000,-2.000000,-21.000000,-15.000000,-26.000000,28.000000,-2.000000
1295106.473604,-5.000000,-9.000000,0.000000,10.000000,35.000000,20.000000,19.000000,7.000000
1295106.480522,6.000000,-6.000000,4.000000,15.000000,6.000000,4.000000,5.000000,-3.000000
1295106.480531,-13.000000,-13.000000,-17.000000,4.000000,-1.000000,-12.000000,-5.000000,-9.000000
1295106.503704,6.000000,-10.000000,4.000000,-4.000000,-6.000000,-12.000000,16.000000,11.000000
1295106.503737,4.000000,4.000000,5.000000,-13.000000,-60.000000,2.000000,5.000000,1.000000
1295106.518362,-3.000000,-4.000000,-18.000000,-5.000000,-44.000000,-22.000000,14.000000,6.000000
1295106.518390,-9.000000,-3.000000,-15.000000,-12.000000,-5.000000,-28.000000,-39.000000,-8.000000
1295106.600955,-9.000000,-1.000000,4.000000,-2.000000,24.000000,8.000000,-7.000000,-17.000000
1295106.600968,11.000000,12.000000,-2.000000,6.000000,-13.000000,8.000000,47.000000,7.000000
1295106.601372,-5.000000,-9.000000,-10.000000,-35.000000,-71.000000,-10.000000,-2.000000,3.000000
1295106.601383,-9.000000,-16.000000,-8.000000,21.000000,76.000000,2.000000,-22.000000,-13.000000
1295106.602370,1.000000,11.000000,28.000000,-28.000000,-31.000000,-1.000000,-24.000000,0.000000
1295106.602380,6.000000,5.000000,-6.000000,17.000000,14.000000,3.000000,22.000000,7.000000
1295106.603080,-9.000000,-20.000000,-9.000000,-18.000000,-26.000000,-26.000000,-21.000000,-10.000000
1295106.603091,-4.000000,-4.000000,-13.000000,-15.000000,26.000000,8.000000,7.000000,9.000000
1295106.603944,2.000000,-9.000000,-17.000000,-29.000000,-19.000000,-12.000000,16.000000,18.000000
1295106.603961,-3.000000,1.000000,10.000000,4.000000,23.000000,5.000000,-16.000000,-1.000000
1295106.604567,9.000000,8.000000,35.000000,20.000000,25.000000,-8.000000,4.000000,10.000000
1295106.604576,1.000000,5.000000,-4.000000,-17.000000,-33.000000,-6.000000,0.000000,-10.000000
1295106.615933,-12.000000,-12.000000,-16.000000,-12.000000,-16.000000,-25.000000,-12.000000,-1.000000
1295106.615954,7.000000,23.000000,-2.000000,15.000000,6.000000,12.000000,6.000000,-5.000000
1295106.630500,-8.000000,-29.000000,-26.000000,-6.000000,14.000000,10.000000,-7.000000,-9.000000
1295106.630511,2.000000,3.000000,1.000000,2.000000,-21.000000,-4.000000,-23.000000,-5.000000
1295106.631940,1.000000,0.000000,-6.000000,-5.000000,-10.000000,2.000000,-1.000000,4.000000
1295106.631948,-3.000000,-8.000000,3.000000,-12.000000,-16.000000,5.000000,15.000000,-10.000000
1295106.653411,-2.000000,-5.000000,1.000000,12.000000,12.000000,17.000000,31.000000,1.000000
1295106.653427,4.000000,3.000000,-8.000000,26.000000,21.000000,1.000000,1.000000,9.000000
1295106.690601,-9.000000,7.000000,1.000000,-14.000000,-16.000000,-2.000000,-28.000000,-17.000000
1295106.690611,-2.000000,-7.000000,-9.000000,8.000000,7.000000,-7.000000,11.000000,7.000000
1295106.713563,9.000000,-2.000000,8.000000,0.000000,16.000000,0.000000,39.000000,16.000000
1295106.713592,-4.000000,-3.000000,-7.000000,-2.000000,3.000000,12.000000,7.000000,5.000000
1295106.728345,0.000000,1.000000,-1.000000,19.000000,16.000000,10.000000,18.000000,7.000000
1295106.728366,-10.000000,-4.000000,-2.000000,-2.000000,13.000000,-8.000000,-20.000000,-22.000000
1295106.750692,-2.000000,-3.000000,-4.000000,9.000000,7.000000,-4.000000,16.000000,-11.000000
1295106.750721,-1.000000,6.000000,6.000000,-12.000000,-3.000000,15.000000,-7.000000,-6.000000
1295106.758866,15.000000,6.000000,3.000000,-9.000000,-3.000000,6.000000,-18.000000,11.000000
1295106.758878,2.000000,16.000000,-7.000000,-3.000000,4.000000,20.000000,-6.000000,1.000000
1295106.780705,11.000000,10.000000,4.000000,-3.000000,-4.000000,-3.000000,36.000000,21.000000
1295106.780715,-12.000000,-22.000000,-26.000000,26.000000,26.000000,11.000000,-31.000000,-21.000000
1295106.795728,-3.000000,11.000000,9.000000,-20.000000,-4.000000,-10.000000,0.000000,-6.000000
1295106.795738,3.000000,3.000000,11.000000,30.000000,-1.000000,20.000000,-1.000000,3.000000
1295106.818273,-3.000000,-14.000000,4.000000,21.000000,8.000000,-3.000000,-23.000000,-7.000000
1295106.818282,-2.000000,7.000000,11.000000,-20.000000,-77.000000,-5.000000,17.000000,12.000000
1295106.834113,-9.000000,-13.000000,0.000000,-10.000000,-20.000000,-17.000000,-39.000000,-19.000000
1295106.834140,1.000000,2.000000,2.000000,-3.000000,15.000000,10.000000,-7.000000,-7.000000
1295106.834551,-1.000000,-3.000000,-14.000000,11.000000,-1.000000,11.000000,13.000000,6.000000
1295106.834578,1.000000,3.000000,13.000000,7.000000,-8.000000,-12.000000,-26.000000,0.000000
1295106.835567,-4.000000,-20.000000,-16.000000,-5.000000,-15.000000,-11.000000,-13.000000,-3.000000
1295106.835574,6.000000,22.000000,9.000000,-8.000000,-13.000000,-2.000000,-21.000000,-7.000000
1295106.836347,-12.000000,-16.000000,-3.000000,-38.000000,-28.000000,-27.000000,-48.000000,-18.000000
1295106.836378,-3.000000,-4.000000,-9.000000,45.000000,57.000000,40.000000,17.000000,-6.000000
1295106.878316,5.000000,-5.000000,9.000000,7.000000,17.000000,-13.000000,-28.000000,1.000000
1295106.878337,-10.000000,-20.000000,-37.000000,-15.000000,-27.000000,-16.000000,25.000000,-3.000000
1295106.893128,8.000000,16.000000,32.000000,34.000000,54.000000,24.000000,5.000000,5.000000
1295106.893152,-11.000000,-29.000000,-20.000000,7.000000,7.000000,-15.000000,-19.000000,-9.000000
1295106.908265,-4.000000,1.000000,1.000000,-48.000000,-64.000000,-9.000000,6.000000,0.000000
1295106.908275,-5.000000,-4.000000,-6.000000,8.000000,22.000000,-6.000000,-29.000000,-5.000000
1295106.930708,-11.000000,-46.000000,-30.000000,-13.000000,-26.000000,-13.000000,5.000000,4.000000
1295106.930718,15.000000,40.000000,58.000000,7.000000,37.000000,22.000000,47.000000,14.000000
1295106.938452,10.000000,23.000000,9.000000,50.000000,48.000000,28.000000,3.000000,13.000000
1295106.938481,-6.000000,16.000000,10.000000,-8.000000,-2.000000,-20.000000,-46.000000,-17.000000
1295106.953479,-13.000000,-8.000000,-8.000000,-15.000000,-31.000000,-4.000000,-16.000000,-16.000000
1295106.953533,2.000000,-5.000000,12.000000,-11.000000,-23.000000,-11.000000,24.000000,8.000000
1295106.954232,-13.000000,-5.000000,-7.000000,6.000000,9.000000,-26.000000,-37.000000,-14.000000
1295106.954240,-15.000000,-10.000000,-4.000000,-32.000000,-23.000000,-5.000000,-7.000000,-22.000000
1295106.954865,9.000000,4.000000,-13.000000,16.000000,44.000000,19.000000,-6.000000,6.000000
1295106.954872,6.000000,17.000000,27.000000,-6.000000,-57.000000,10.000000,5.000000,4.000000
1295106.955450,-3.000000,17.000000,26.000000,-31.000000,-18.000000,-8.000000,-3.000000,-9.000000
1295106.955457,-6.000000,-12.000000,-16.000000,3.000000,25.000000,12.000000,9.000000,-6.000000
1295106.955946,-5.000000,-23.000000,-13.000000,9.000000,8.000000,-1.000000,12.000000,1.000000
1295106.955972,-3.000000,20.000000,-5.000000,1.000000,13.000000,3.000000,-5.000000,-10.000000
1295106.956964,-5.000000,-24.000000,-10.000000,-26.000000,-23.000000,-4.000000,6.000000,4.000000
1295106.956972,-14.000000,-12.000000,-1.000000,19.000000,22.000000,9.000000,19.000000,-4.000000
1295106.975857,15.000000,3.000000,8.000000,-3.000000,-29.000000,-6.000000,-31.000000,11.000000
1295106.975874,0.000000,8.000000,4.000000,-7.000000,13.000000,0.000000,-16.000000,-6.000000
1295106.991061,-5.000000,-16.000000,-7.000000,9.000000,18.000000,14.000000,-20.000000,1.000000
1295106.991076,10.000000,1.000000,-6.000000,21.000000,-17.000000,-12.000000,-25.000000,-7.000000
1295106.991697,-8.000000,13.000000,10.000000,-5.000000,-1.000000,-13.000000,-4.000000,3.000000
1295106.991712,-6.000000,-15.000000,-1.000000,13.000000,11.000000,-7.000000,-33.000000,-13.000000
1295106.997990,-2.000000,-4.000000,-1.000000,-27.000000,-6.000000,18.000000,20.000000,8.000000
1295106.997999,15.000000,32.000000,22.000000,32.000000,40.000000,8.000000,35.000000,17.000000
1295107.006071,-8.000000,-9.000000,-6.000000,0.000000,15.000000,-2.000000,-16.000000,-20.000000
1295107.006099,10.000000,-11.000000,-1.000000,14.000000,12.000000,1.000000,26.000000,17.000000
1295107.035541,-7.000000,-13.000000,-19.000000,-26.000000,-55.000000,-27.000000,-29.000000,-8.000000
1295107.035552,-8.000000,-4.000000,1.000000,-4.000000,9.000000,1.000000,16.000000,5.000000
1295107.043193,6.000000,-4.000000,-31.000000,6.000000,22.000000,21.000000,-10.000000,3.000000
1295107.043208,17.000000,6.000000,6.000000,-25.000000,-10.000000,-3.000000,32.000000,14.000000
1295107.073148,-7.000000,-3.000000,7.000000,2.000000,39.000000,8.000000,-4.000000,10.000000
1295107.073172,12.000000,16.000000,6.000000,-17.000000,-43.000000,-7.000000,-7.000000,2.000000
1295107.073593,-20.000000,-19.000000,-13.000000,-2.000000,-2.000000,-21.000000,-34.000000,-16.000000
1295107.073614,-5.000000,-16.000000,-26.000000,2.000000,-3.000000,-1.000000,-23.000000,2.000000
1295107.074897,7.000000,15.000000,27.000000,-33.000000,-62.000000,-1.000000,49.000000,22.000000
1295107.074915,3.000000,8.000000,-6.000000,17.000000,49.000000,24.000000,48.000000,9.000000
1295107.075486,12.000000,5.000000,-14.000000,0.000000,-4.000000,9.000000,2.000000,8.000000
1295107.075494,-8.000000,-8.000000,-5.000000,4.000000,20.000000,-18.000000,-22.000000,-7.000000
1295107.076907,-6.000000,-13.000000,20.000000,7.000000,13.000000,-1.000000,3.000000,2.000000
1295107.076930,1.000000,14.000000,-4.000000,23.000000,45.000000,28.000000,-36.000000,-16.000000
1295107.095561,14.000000,13.000000,1.000000,-4.000000,19.000000,21.000000,40.000000,26.000000
1295107.095572,-5.000000,-23.000000,-6.000000,-39.000000,-20.000000,-3.000000,-17.000000,0.000000
1295107.110839,-12.000000,10.000000,16.000000,1.000000,-3.000000,-7.000000,-5.000000,-16.000000
1295107.110857,18.000000,1.000000,-5.000000,10.000000,-17.000000,-20.000000,-7.000000,4.000000
1295107.111152,2.000000,-13.000000,-27.000000,-19.000000,-54.000000,3.000000,-2.000000,8.000000
1295107.111175,0.000000,19.000000,34.000000,-9.000000,28.000000,-5.000000,-9.000000,-3.000000
1295107.117967,-4.000000,0.000000,-6.000000,-7.000000,19.000000,5.000000,26.000000,-19.000000
1295107.117976,-6.000000,-19.000000,-26.000000,-14.000000,-26.000000,-17.000000,8.000000,0.000000
1295107.156010,-2.000000,-7.000000,-3.000000,-4.000000,15.000000,23.000000,30.000000,5.000000
1295107.156044,4.000000,1.000000,-13.000000,1.000000,-5.000000,-6.000000,-3.000000,-2.000000
1295107.185877,-11.000000,-13.000000,-29.000000,-10.000000,-3.000000,-24.000000,-36.000000,-8.000000
1295107.185887,-1.000000,10.000000,-6.000000,14.000000,-4.000000,7.000000,3.000000,-6.000000
1295107.186363,-3.000000,-9.000000,8.000000,-55.000000,-60.000000,-24.000000,-5.000000,-13.000000
1295107.186410,5.000000,32.000000,18.000000,13.000000,42.000000,13.000000,-3.000000,1.000000
1295107.187790,-1.000000,1.000000,1.000000,22.000000,78.000000,20.000000,-11.000000,0.000000
1295107.188273,-14.000000,-14.000000,-3.000000,4.000000,5.000000,-9.000000,-17.000000,-9.000000
1295107.190495,-7.000000,-10.000000,-20.000000,22.000000,34.000000,10.000000,17.000000,-8.000000
1295107.190523,3.000000,12.000000,30.000000,3.000000,-10.000000,2.000000,-4.000000,3.000000
1295107.190638,-8.000000,-7.000000,-5.000000,-1.000000,12.000000,-4.000000,-14.000000,-2.000000
1295107.190659,1.000000,-5.000000,0.000000,-6.000000,5.000000,-4.000000,-35.000000,-3.000000
1295107.193899,16.000000,35.000000,20.000000,4.000000,-33.000000,-12.000000,-7.000000,10.000000
1295107.193909,3.000000,1.000000,7.000000,22.000000,28.000000,22.000000,16.000000,5.000000
1295107.208180,-5.000000,16.000000,22.000000,2.000000,4.000000,-17.000000,-25.000000,-14.000000
1295107.208194,-7.000000,-4.000000,-8.000000,44.000000,90.000000,37.000000,44.000000,-1.000000
1295107.231007,-9.000000,-10.000000,-11.000000,-22.000000,-22.000000,-26.000000,-50.000000,-9.000000
1295107.231042,1.000000,27.000000,27.000000,13.000000,-15.000000,-5.000000,17.000000,-8.000000
1295107.231582,-5.000000,-15.000000,-18.000000,0.000000,-20.000000,-10.000000,-27.000000,6.000000
1295107.231589,17.000000,7.000000,-1.000000,7.000000,27.000000,12.000000,32.000000,21.000000
1295107.245845,2.000000,12.000000,20.000000,21.000000,28.000000,28.000000,-1.000000,-5.000000
1295107.245866,-12.000000,-17.000000,-15.000000,-35.000000,-18.000000,-9.000000,-31.000000,-3.000000
1295107.260843,9.000000,22.000000,23.000000,9.000000,11.000000,-12.000000,-3.000000,-4.000000
1295107.260870,-11.000000,3.000000,-15.000000,-9.000000,-23.000000,-18.000000,-14.000000,-11.000000
1295107.275902,-10.000000,12.000000,-16.000000,10.000000,36.000000,-3.000000,-14.000000,-12.000000
1295107.275912,6.000000,-4.000000,-9.000000,-13.000000,-10.000000,-9.000000,3.000000,3.000000
1295107.283398,1.000000,6.000000,6.000000,4.000000,10.000000,5.000000,34.000000,16.000000
1295107.283426,-11.000000,-11.000000,-14.000000,-2.000000,2.000000,8.000000,20.000000,-10.000000
1295107.306133,14.000000,20.000000,24.000000,6.000000,-7.000000,-1.000000,-7.000000,3.000000
1295107.306163,-7.000000,-2.000000,1.000000,-14.000000,-31.000000,-9.000000,-3.000000,0.000000
1295107.306678,-5.000000,-1.000000,-9.000000,-8.000000,9.000000,7.000000,-3.000000,1.000000
1295107.306687,-1.000000,7.000000,7.000000,57.000000,71.000000,15.000000,-42.000000,-17.000000
1295107.308355,22.000000,23.000000,43.000000,-14.000000,-18.000000,9.000000,88.000000,28.000000
1295107.308373,-8.000000,4.000000,-10.000000,3.000000,-7.000000,-7.000000,-7.000000,-1.000000
1295107.313118,0.000000,-13.000000,-17.000000,-2.000000,21.000000,6.000000,-1.000000,-8.000000
1295107.313129,-4.000000,-13.000000,-8.000000,-11.000000,-10.000000,-28.000000,26.000000,0.000000
1295107.350616,-4.000000,-10.000000,-14.000000,-35.000000,-60.000000,-25.000000,-22.000000,-1.000000
1295107.350627,15.000000,47.000000,34.000000,36.000000,42.000000,25.000000,55.000000,17.000000
1295107.388311,-8.000000,-3.000000,-3.000000,-8.000000,-20.000000,-24.000000,-12.000000,-4.000000
1295107.388327,2.000000,-20.000000,-14.000000,-6.000000,-12.000000,-11.000000,-32.000000,-6.000000
1295107.389280,-3.000000,-5.000000,-3.000000,2.000000,0.000000,19.000000,76.000000,25.000000
1295107.389297,-2.000000,-8.000000,3.000000,-12.000000,-28.000000,-16.000000,-15.000000,-3.000000
1295107.389758,-15.000000,-8.000000,-3.000000,2.000000,-13.000000,-19.000000,-46.000000,-16.000000
1295107.389766,9.000000,1.000000,-4.000000,13.000000,39.000000,20.000000,39.000000,12.000000
1295107.391295,-3.000000,1.000000,-15.000000,-30.000000,-19.000000,-3.000000,-2.000000,-1.000000
1295107.391315,-6.000000,12.000000,35.000000,12.000000,-24.000000,-16.000000,-42.000000,-14.000000
1295107.395555,-8.000000,-21.000000,-20.000000,-14.000000,-11.000000,-14.000000,14.000000,-6.000000
1295107.395569,-3.000000,11.000000,6.000000,-26.000000,-41.000000,22.000000,15.000000,2.000000
1295107.433432,8.000000,5.000000,2.000000,24.000000,56.000000,9.000000,18.000000,0.000000
1295107.433444,-7.000000,-1.000000,-22.000000,1.000000,3.000000,-5.000000,-18.000000,-10.000000
1295107.434301,14.000000,12.000000,13.000000,-5.000000,-3.000000,6.000000,16.000000,15.000000
1295107.434312,-1.000000,9.000000,4.000000,-1.000000,-11.000000,-3.000000,-31.000000,-5.000000
1295107.434807,-9.000000,-17.000000,-32.000000,1.000000,21.000000,-2.000000,58.000000,-2.000000
1295107.434816,8.000000,5.000000,28.000000,-36.000000,-21.000000,22.000000,-38.000000,-7.000000
1295107.436724,-5.000000,8.000000,8.000000,-4.000000,-4.000000,6.000000,-9.000000,-1.000000
1295107.436736,-9.000000,-10.000000,-14.000000,-12.000000,-18.000000,-20.000000,-36.000000,-9.000000
1295107.448751,-10.000000,4.000000,-1.000000,-31.000000,-3.000000,-12.000000,-32.000000,-15.000000
1295107.448761,7.000000,20.000000,-4.000000,27.000000,19.000000,5.000000,17.000000,2.000000
1295107.463662,2.000000,-5.000000,1.000000,-16.000000,-8.000000,-7.000000,-36.000000,-5.000000
1295107.463678,5.000000,-1.000000,-20.000000,-10.000000,15.000000,2.000000,21.000000,12.000000
1295107.464469,-1.000000,17.000000,8.000000,13.000000,9.000000,11.000000,14.000000,-2.000000
1295107.464476,-8.000000,-13.000000,7.000000,-4.000000,3.000000,-5.000000,-8.000000,-2.000000
1295107.485908,-4.000000,-4.000000,-1.000000,-2.000000,5.000000,-2.000000,-28.000000,-7.000000
1295107.485922,-1.000000,-11.000000,-24.000000,1.000000,-15.000000,-25.000000,13.000000,-5.000000
1295107.493329,-5.000000,-2.000000,0.000000,-20.000000,0.000000,1.000000,-19.000000,-10.000000
1295107.493347,1.000000,-11.000000,-22.000000,8.000000,30.000000,-1.000000,1.000000,-13.000000
1295107.508302,-4.000000,-10.000000,-3.000000,-16.000000,-54.000000,-6.000000,-1.000000,3.000000
1295107.508312,11.000000,13.000000,2.000000,-19.000000,-48.000000,13.000000,22.000000,10.000000
1295107.545752,-8.000000,-7.000000,-10.000000,-11.000000,-18.000000,-10.000000,6.000000,-7.000000
1295107.545797,14.000000,-12.000000,7.000000,45.000000,82.000000,15.000000,13.000000,20.000000
1295107.546914,5.000000,1.000000,20.000000,-4.000000,-50.000000,-6.000000,-4.000000,1.000000
1295107.546934,-15.000000,-4.000000,-30.000000,-43.000000,-15.000000,-2.000000,-23.000000,-12.000000
1295107.547431,12.000000,38.000000,35.000000,3.000000,-9.000000,-16.000000,4.000000,-5.000000
1295107.547439,-2.000000,-6.000000,-2.000000,-18.000000,-1.000000,16.000000,16.000000,5.000000
1295107.548660,-2.000000,-29.000000,-35.000000,-1.000000,12.000000,-8.000000,-11.000000,-1.000000
1295107.548705,-3.000000,15.000000,28.000000,8.000000,7.000000,-9.000000,25.000000,-4.000000
1295107.549440,-6.000000,-14.000000,-19.000000,-11.000000,-11.000000,-9.000000,-4.000000,1.000000
1295107.549448,1.000000,14.000000,18.000000,-16.000000,-2.000000,7.000000,32.000000,-6.000000
1295107.553758,2.000000,-5.000000,-6.000000,-24.000000,-47.000000,-18.000000,20.000000,7.000000
1295107.553767,0.000000,-23.000000,-21.000000,33.000000,74.000000,8.000000,-9.000000,-4.000000
1295107.583395,-4.000000,8.000000,9.000000,-17.000000,-22.000000,-39.000000,-49.000000,-14.000000
1295107.583425,4.000000,-8.000000,-6.000000,-11.000000,-6.000000,11.000000,-16.000000,-3.000000
1295107.584418,4.000000,-15.000000,3.000000,-4.000000,-22.000000,8.000000,15.000000,9.000000
1295107.584446,11.000000,-20.000000,-20.000000,8.000000,33.000000,4.000000,-7.000000,6.000000
1295107.585368,-11.000000,-9.000000,0.000000,17.000000,-10.000000,-8.000000,23.000000,-2.000000
1295107.585400,-1.000000,6.000000,-1.000000,-20.000000,-32.000000,-9.000000,-5.000000,-1.000000
1295107.598319,-12.000000,-13.000000,-12.000000,-16.000000,11.000000,-29.000000,-108.000000,-28.000000
1295107.598349,-19.000000,-25.000000,-22.000000,-23.000000,-5.000000,4.000000,62.000000,-15.000000
1295107.613395,28.000000,62.000000,62.000000,41.000000,43.000000,20.000000,21.000000,28.000000
1295107.613406,-4.000000,-15.000000,-19.000000,22.000000,47.000000,4.000000,-6.000000,-3.000000
1295107.666027,-11.000000,6.000000,15.000000,-16.000000,-30.000000,-35.000000,-41.000000,-9.000000
1295107.666052,5.000000,0.000000,-16.000000,-7.000000,5.000000,-13.000000,26.000000,10.000000
1295107.673527,0.000000,-8.000000,10.000000,18.000000,16.000000,-6.000000,-31.000000,-8.000000
1295107.673538,-4.000000,-13.000000,-11.000000,6.000000,8.000000,-5.000000,10.000000,-4.000000
1295107.688740,15.000000,15.000000,22.000000,1.000000,8.000000,5.000000,66.000000,27.000000
1295107.688749,11.000000,18.000000,20.000000,6.000000,-43.000000,0.000000,-17.000000,9.000000
1295107.711006,-10.000000,-12.000000,-8.000000,25.000000,60.000000,21.000000,15.000000,-3.000000
1295107.711178,-22.000000,-9.000000,-24.000000,-25.000000,3.000000,-39.000000,-63.000000,-34.000000
1295107.711812,6.000000,16.000000,21.000000,4.000000,-72.000000,19.000000,58.000000,18.000000
1295107.711840,6.000000,16.000000,0.000000,9.000000,13.000000,-4.000000,2.000000,9.000000
1295107.712473,-5.000000,-11.000000,1.000000,37.000000,39.000000,0.000000,-14.000000,-5.000000
1295107.712500,14.000000,4.000000,8.000000,-33.000000,16.000000,8.000000,33.000000,15.000000
1295107.713893,0.000000,0.000000,2.000000,19.000000,51.000000,15.000000,12.000000,-8.000000
1295107.713911,4.000000,-1.000000,-4.000000,-30.000000,-12.000000,-12.000000,-4.000000,9.000000
1295107.714702,-8.000000,1.000000,10.000000,-16.000000,-15.000000,3.000000,-31.000000,-11.000000
1295107.714719,21.000000,2.000000,-4.000000,17.000000,32.000000,13.000000,42.000000,26.000000
1295107.718560,-4.000000,1.000000,5.000000,-9.000000,-11.000000,11.000000,22.000000,2.000000
1295107.718600,6.000000,9.000000,6.000000,18.000000,4.000000,9.000000,21.000000,6.000000
1295107.740690,-7.000000,-2.000000,-7.000000,-11.000000,0.000000,-4.000000,-12.000000,-6.000000
1295107.740701,-3.000000,6.000000,18.000000,-8.000000,-28.000000,-7.000000,-12.000000,-9.000000
1295107.763298,3.000000,7.000000,-1.000000,-5.000000,-6.000000,1.000000,-26.000000,-3.000000
1295107.763315,-1.000000,-8.000000,-6.000000,5.000000,2.000000,5.000000,13.000000,7.000000
1295107.785801,4.000000,4.000000,9.000000,-30.000000,-43.000000,-11.000000,23.000000,-2.000000
1295107.785814,4.000000,8.000000,19.000000,6.000000,19.000000,21.000000,4.000000,2.000000
1295107.786861,2.000000,-4.000000,11.000000,30.000000,10.000000,0.000000,-8.000000,1.000000
1295107.786873,0.000000,-11.000000,-12.000000,-17.000000,-33.000000,0.000000,-14.000000,-4.000000
1295107.787338,-8.000000,-3.000000,-13.000000,6.000000,9.000000,8.000000,-55.000000,-18.000000
1295107.787348,17.000000,10.000000,15.000000,7.000000,-18.000000,21.000000,111.000000,19.000000
1295107.788718,-7.000000,-17.000000,-20.000000,-8.000000,15.000000,-3.000000,-10.000000,6.000000
1295107.788728,-17.000000,-28.000000,-28.000000,0.000000,12.000000,-15.000000,-30.000000,-11.000000
1295107.789555,5.000000,37.000000,24.000000,-9.000000,-21.000000,-13.000000,24.000000,-4.000000
1295107.789565,21.000000,-1.000000,16.000000,26.000000,55.000000,29.000000,-8.000000,18.000000
1295107.823090,-1.000000,5.000000,3.000000,-7.000000,-9.000000,-6.000000,22.000000,-3.000000
1295107.823123,-10.000000,-9.000000,-30.000000,2.000000,12.000000,-7.000000,-13.000000,-8.000000
1295107.823608,-2.000000,-4.000000,0.000000,-18.000000,-24.000000,4.000000,-7.000000,-10.000000
1295107.823617,-6.000000,-13.000000,5.000000,4.000000,0.000000,-10.000000,5.000000,5.000000
1295107.825018,-13.000000,-8.000000,-14.000000,-3.000000,-1.000000,-34.000000,-49.000000,-15.000000
1295107.825028,11.000000,16.000000,9.000000,-12.000000,-30.000000,27.000000,57.000000,17.000000
1295107.830649,16.000000,-3.000000,12.000000,0.000000,20.000000,14.000000,22.000000,20.000000
1295107.830658,-3.000000,1.000000,0.000000,-1.000000,-30.000000,-9.000000,-21.000000,-5.000000
1295107.838389,-9.000000,-9.000000,-36.000000,-12.000000,0.000000,-7.000000,-22.000000,-14.000000
1295107.838401,-10.000000,-29.000000,-16.000000,2.000000,12.000000,-10.000000,-52.000000,-5.000000
1295107.860745,-11.000000,-1.000000,2.000000,-13.000000,-20.000000,-2.000000,-36.000000,-25.000000
1295107.860755,17.000000,7.000000,3.000000,15.000000,29.000000,8.000000,27.000000,25.000000
1295107.890887,-6.000000,-4.000000,8.000000,11.000000,16.000000,11.000000,-2.000000,-5.000000
1295107.890906,-1.000000,7.000000,7.000000,5.000000,-22.000000,-14.000000,-6.000000,-6.000000
1295107.943294,-5.000000,-2.000000,-15.000000,-10.000000,-9.000000,-24.000000,-2.000000,-4.000000
1295107.943340,-12.000000,-27.000000,-23.000000,8.000000,21.000000,-34.000000,-51.000000,6.000000
1295107.944353,25.000000,21.000000,22.000000,-46.000000,-128.000000,32.000000,120.000000,9.000000
1295107.944377,5.000000,-3.000000,-6.000000,24.000000,36.000000,7.000000,-19.000000,3.000000
1295107.944914,-6.000000,-2.000000,-1.000000,8.000000,4.000000,-19.000000,-35.000000,-11.000000
1295107.945013,-17.000000,-21.000000,-24.000000,-18.000000,9.000000,-29.000000,-28.000000,-17.000000
1295107.946206,-5.000000,-14.000000,1.000000,-6.000000,-1.000000,-9.000000,-7.000000,-1.000000
1295107.946216,13.000000,9.000000,0.000000,16.000000,-12.000000,21.000000,15.000000,1.000000
1295107.947208,-5.000000,-1.000000,-5.000000,-14.000000,27.000000,6.000000,20.000000,9.000000
1295107.947224,4.000000,-9.000000,3.000000,41.000000,63.000000,5.000000,1.000000,-3.000000
1295107.950529,16.000000,7.000000,-10.000000,-9.000000,-3.000000,33.000000,116.000000,30.000000
1295107.950543,-5.000000,0.000000,7.000000,-29.000000,-15.000000,-6.000000,-3.000000,-1.000000
1295107.995660,4.000000,-1.000000,-12.000000,-17.000000,-14.000000,-13.000000,-12.000000,4.000000
1295107.995675,-10.000000,-4.000000,17.000000,36.000000,0.000000,-21.000000,-59.000000,-12.000000
1295108.003228,-14.000000,-18.000000,-27.000000,-13.000000,2.000000,-11.000000,-9.000000,-19.000000
1295108.003239,5.000000,28.000000,23.000000,1.000000,-26.000000,6.000000,8.000000,-10.000000
1295108.025844,4.000000,-5.000000,18.000000,-8.000000,-23.000000,-5.000000,3.000000,11.000000
1295108.025856,5.000000,14.000000,2.000000,30.000000,55.000000,18.000000,-12.000000,-1.000000
1295108.040855,-14.000000,-22.000000,-32.000000,-32.000000,-15.000000,-13.000000,-15.000000,-10.000000
1295108.040867,15.000000,13.000000,41.000000,16.000000,10.000000,14.000000,23.000000,20.000000
1295108.093719,-1.000000,-15.000000,0.000000,-14.000000,4.000000,-11.000000,-11.000000,-7.000000
1295108.093748,-11.000000,-6.000000,-6.000000,-23.000000,-22.000000,-11.000000,-15.000000,-3.000000
1295108.108311,14.000000,12.000000,1.000000,14.000000,7.000000,19.000000,49.000000,23.000000
1295108.108327,-4.000000,-8.000000,-13.000000,13.000000,34.000000,6.000000,-12.000000,-9.000000
1295108.138497,12.000000,1.000000,-10.000000,-6.000000,-41.000000,7.000000,-10.000000,6.000000
1295108.138532,8.000000,8.000000,13.000000,14.000000,11.000000,4.000000,25.000000,18.000000
1295108.138954,-8.000000,-13.000000,-3.000000,-38.000000,-70.000000,-15.000000,-37.000000,-8.000000
1295108.138983,7.000000,14.000000,30.000000,23.000000,40.000000,33.000000,52.000000,5.000000
1295108.140273,20.000000,20.000000,22.000000,29.000000,-9.000000,49.000000,78.000000,33.000000
1295108.140298,9.000000,-5.000000,-9.000000,29.000000,28.000000,23.000000,63.000000,21.000000
1295108.140812,-3.000000,0.000000,-9.000000,-28.000000,-29.000000,-19.000000,-28.000000,-5.000000
1295108.140840,-17.000000,-23.000000,-26.000000,-26.000000,-17.000000,-16.000000,-42.000000,-13.000000
1295108.141804,5.000000,6.000000,30.000000,8.000000,0.000000,4.000000,17.000000,5.000000
1295108.141814,-6.000000,-19.000000,-13.000000,-6.000000,26.000000,5.000000,-37.000000,-2.000000
1295108.145895,-3.000000,-4.000000,0.000000,9.000000,2.000000,0.000000,-3.000000,-5.000000
1295108.145919,-12.000000,-8.000000,-7.000000,-19.000000,-26.000000,-23.000000,-40.000000,-12.000000
1295108.183104,7.000000,8.000000,10.000000,19.000000,22.000000,17.000000,38.000000,11.000000
1295108.183114,8.000000,-14.000000,-10.000000,1.000000,3.000000,16.000000,8.000000,1.000000
1295108.183503,-15.000000,-12.000000,-4.000000,10.000000,5.000000,-17.000000,-10.000000,-13.000000
1295108.183511,11.000000,6.000000,7.000000,-4.000000,12.000000,-6.000000,8.000000,10.000000
1295108.184937,-13.000000,-3.000000,-7.000000,-16.000000,-8.000000,-1.000000,-36.000000,-24.000000
1295108.184946,15.000000,16.000000,1.000000,-16.000000,-22.000000,6.000000,28.000000,32.000000
1295108.205926,14.000000,9.000000,5.000000,32.000000,61.000000,38.000000,35.000000,46.000000
1295108.205943,-12.000000,-6.000000,7.000000,2.000000,2.000000,-10.000000,-15.000000,-19.000000
1295108.228280,1.000000,-6.000000,-12.000000,-1.000000,13.000000,-9.000000,-37.000000,5.000000
1295108.228289,-15.000000,-11.000000,-4.000000,-56.000000,-83.000000,-28.000000,-24.000000,-12.000000
1295108.235696,16.000000,-4.000000,6.000000,22.000000,-30.000000,29.000000,9.000000,17.000000
1295108.235706,1.000000,12.000000,-6.000000,2.000000,21.000000,1.000000,4.000000,2.000000
1295108.265706,-14.000000,-9.000000,6.000000,-7.000000,-13.000000,-28.000000,-49.000000,-20.000000
1295108.265716,-18.000000,1.000000,-21.000000,-5.000000,12.000000,8.000000,23.000000,-18.000000
1295108.273481,29.000000,9.000000,22.000000,18.000000,19.000000,38.000000,78.000000,45.000000
1295108.273540,4.000000,9.000000,24.000000,8.000000,-25.000000,3.000000,12.000000,3.000000
1295108.274488,-12.000000,-18.000000,-30.000000,-6.000000,9.000000,1.000000,-22.000000,-14.000000
1295108.274518,-9.000000,-12.000000,-27.000000,4.000000,6.000000,-20.000000,-38.000000,-17.000000
1295108.274995,-19.000000,-19.000000,-11.000000,-9.000000,3.000000,-17.000000,-46.000000,-6.000000
1295108.275022,15.000000,11.000000,12.000000,-76.000000,-82.000000,14.000000,42.000000,9.000000
1295108.276688,4.000000,9.000000,1.000000,25.000000,62.000000,16.000000,11.000000,2.000000
1295108.276715,-9.000000,-11.000000,-10.000000,-5.000000,5.000000,-17.000000,-19.000000,-10.000000
1295108.280972,24.000000,48.000000,36.000000,12.000000,-2.000000,11.000000,34.000000,17.000000
1295108.281000,13.000000,7.000000,2.000000,13.000000,29.000000,15.000000,44.000000,14.000000
1295108.295758,-13.000000,-5.000000,-10.000000,-1.000000,-1.000000,-9.000000,-23.000000,-16.000000
1295108.295787,19.000000,4.000000,5.000000,-15.000000,-14.000000,-8.000000,15.000000,25.000000
1295108.297005,-20.000000,-17.000000,-22.000000,2.000000,11.000000,16.000000,-52.000000,-23.000000
1295108.297014,7.000000,-9.000000,-5.000000,-41.000000,-79.000000,-13.000000,38.000000,5.000000
1295108.318284,1.000000,-1.000000,6.000000,20.000000,11.000000,12.000000,30.000000,3.000000
1295108.318298,-10.000000,-6.000000,-14.000000,-8.000000,2.000000,-8.000000,-17.000000,-11.000000
1295108.341133,-11.000000,-9.000000,-14.000000,13.000000,0.000000,-11.000000,-25.000000,-7.000000
1295108.341149,-3.000000,-3.000000,0.000000,-3.000000,15.000000,-8.000000,-30.000000,1.000000
1295108.355663,-8.000000,-2.000000,-14.000000,-9.000000,-27.000000,15.000000,35.000000,-3.000000
1295108.355674,12.000000,25.000000,22.000000,15.000000,19.000000,13.000000,11.000000,4.000000
1295108.386378,10.000000,10.000000,15.000000,3.000000,-24.000000,-5.000000,3.000000,14.000000
1295108.386470,-3.000000,-9.000000,-17.000000,9.000000,50.000000,-4.000000,-3.000000,-4.000000
1295108.386804,-10.000000,-15.000000,-11.000000,-11.000000,-19.000000,4.000000,-12.000000,-7.000000
1295108.386811,1.000000,13.000000,9.000000,-13.000000,-21.000000,-11.000000,-15.000000,-7.000000
1295108.387374,0.000000,-25.000000,-21.000000,-11.000000,6.000000,-5.000000,-3.000000,-2.000000
1295108.387385,-17.000000,-28.000000,-8.000000,2.000000,7.000000,-11.000000,-56.000000,-20.000000
1295108.388115,5.000000,25.000000,-10.000000,-41.000000,0.000000,13.000000,55.000000,3.000000
1295108.388123,39.000000,7.000000,5.000000,31.000000,7.000000,23.000000,83.000000,58.000000
1295108.415552,-16.000000,-32.000000,-20.000000,-2.000000,-23.000000,-19.000000,-44.000000,-12.000000
1295108.415563,16.000000,17.000000,9.000000,-12.000000,-8.000000,7.000000,28.000000,11.000000
1295108.416591,5.000000,4.000000,15.000000,8.000000,-7.000000,1.000000,8.000000,3.000000
1295108.416599,1.000000,-7.000000,-18.000000,-4.000000,-5.000000,-7.000000,-8.000000,0.000000
1295108.417406,-9.000000,-6.000000,-8.000000,1.000000,0.000000,-12.000000,-27.000000,-8.000000
1295108.417414,-28.000000,-37.000000,-28.000000,-37.000000,-12.000000,-65.000000,-52.000000,-38.000000
1295108.460928,26.000000,51.000000,25.000000,-4.000000,-97.000000,30.000000,82.000000,40.000000
1295108.460960,12.000000,14.000000,24.000000,23.000000,18.000000,-5.000000,-1.000000,4.000000
1295108.483313,-6.000000,-14.000000,-15.000000,2.000000,11.000000,-9.000000,-20.000000,-16.000000
1295108.483325,-10.000000,-25.000000,-20.000000,-2.000000,7.000000,-14.000000,-29.000000,-14.000000
1295108.498639,-8.000000,10.000000,7.000000,-10.000000,-25.000000,2.000000,-19.000000,-6.000000
1295108.498656,-8.000000,-15.000000,-10.000000,8.000000,17.000000,9.000000,34.000000,-2.000000
1295108.499197,5.000000,11.000000,7.000000,-1.000000,-13.000000,-13.000000,-11.000000,1.000000
1295108.499205,-3.000000,-4.000000,3.000000,2.000000,9.000000,-14.000000,68.000000,9.000000
1295108.500421,-12.000000,-14.000000,-12.000000,32.000000,22.000000,19.000000,11.000000,-5.000000
1295108.500430,11.000000,12.000000,13.000000,-31.000000,-12.000000,15.000000,58.000000,23.000000
1295108.502094,3.000000,11.000000,-12.000000,9.000000,10.000000,3.000000,-2.000000,4.000000
1295108.502111,3.000000,32.000000,41.000000,8.000000,-20.000000,-37.000000,-60.000000,-13.000000
1295108.521400,-23.000000,-15.000000,-16.000000,-15.000000,28.000000,-5.000000,-45.000000,-37.000000
1295108.521411,27.000000,9.000000,29.000000,7.000000,-11.000000,9.000000,75.000000,39.000000
1295108.543279,2.000000,-5.000000,-20.000000,20.000000,37.000000,3.000000,-4.000000,3.000000
1295108.543303,-5.000000,-2.000000,0.000000,-10.000000,6.000000,1.000000,-13.000000,-8.000000
1295108.544224,-12.000000,-15.000000,-23.000000,22.000000,11.000000,-19.000000,-28.000000,-10.000000
1295108.544242,-1.000000,-4.000000,-14.000000,-9.000000,3.000000,-16.000000,-23.000000,-3.000000
1295108.545048,3.000000,3.000000,14.000000,-1.000000,24.000000,23.000000,28.000000,12.000000
1295108.545056,7.000000,-11.000000,-5.000000,-12.000000,-13.000000,9.000000,29.000000,7.000000
1295108.558289,3.000000,16.000000,11.000000,18.000000,-1.000000,-2.000000,-9.000000,-1.000000
1295108.558299,-6.000000,-9.000000,-15.000000,-11.000000,-11.000000,-16.000000,-24.000000,-7.000000
1295108.573486,-12.000000,-3.000000,-6.000000,-2.000000,-21.000000,-14.000000,-36.000000,-17.000000
1295108.573498,9.000000,3.000000,6.000000,-14.000000,-14.000000,10.000000,25.000000,15.000000
1295108.581496,13.000000,12.000000,-6.000000,-13.000000,0.000000,5.000000,28.000000,18.000000
1295108.581506,1.000000,17.000000,42.000000,68.000000,57.000000,-10.000000,-33.000000,-3.000000
1295108.582070,-1.000000,10.000000,-6.000000,-19.000000,-11.000000,-3.000000,-59.000000,-37.000000
1295108.582108,-4.000000,-9.000000,-9.000000,-46.000000,-24.000000,4.000000,44.000000,17.000000
1295108.603345,11.000000,11.000000,26.000000,19.000000,32.000000,14.000000,19.000000,14.000000
1295108.603355,-10.000000,-23.000000,-20.000000,-15.000000,-18.000000,-18.000000,-20.000000,-10.000000
1295108.618386,-15.000000,-13.000000,-16.000000,7.000000,12.000000,-21.000000,-35.000000,-13.000000
1295108.618399,4.000000,-2.000000,-14.000000,-13.000000,5.000000,5.000000,-22.000000,-1.000000
1295108.648338,20.000000,5.000000,7.000000,-7.000000,10.000000,22.000000,58.000000,23.000000
1295108.648362,-1.000000,-1.000000,6.000000,-8.000000,0.000000,-7.000000,-3.000000,-1.000000
1295108.655615,-3.000000,-3.000000,-3.000000,-1.000000,7.000000,-13.000000,-12.000000,-6.000000
1295108.655624,-19.000000,-29.000000,-30.000000,-3.000000,0.000000,-7.000000,-24.000000,-18.000000
1295108.670795,4.000000,-18.000000,-13.000000,-2.000000,-13.000000,-6.000000,-19.000000,4.000000
1295108.670883,1.000000,-4.000000,-7.000000,-12.000000,-17.000000,18.000000,61.000000,-3.000000
1295108.671179,17.000000,16.000000,16.000000,3.000000,-2.000000,17.000000,35.000000,28.000000
1295108.671188,-5.000000,-9.000000,-12.000000,-3.000000,-45.000000,-12.000000,-12.000000,-7.000000
1295108.672490,-7.000000,-4.000000,-3.000000,-25.000000,-38.000000,-20.000000,-16.000000,-10.000000
1295108.672500,-18.000000,-34.000000,-26.000000,29.000000,68.000000,-13.000000,-42.000000,-16.000000
1295108.673989,-10.000000,-17.000000,-16.000000,-54.000000,-53.000000,-20.000000,-14.000000,-9.000000
1295108.674003,-7.000000,-1.000000,2.000000,16.000000,50.000000,13.000000,-7.000000,-7.000000
1295108.693299,-15.000000,-11.000000,-7.000000,12.000000,21.000000,-23.000000,-44.000000,-19.000000
1295108.693349,-7.000000,-19.000000,-27.000000,-34.000000,-53.000000,-14.000000,-28.000000,-4.000000
1295108.694465,31.000000,19.000000,19.000000,24.000000,51.000000,37.000000,80.000000,40.000000
1295108.694482,4.000000,13.000000,14.000000,-3.000000,-1.000000,-8.000000,-6.000000,-3.000000
1295108.700588,-7.000000,-11.000000,-8.000000,-20.000000,-14.000000,-7.000000,-15.000000,-10.000000
1295108.700611,-14.000000,-16.000000,-18.000000,-6.000000,-17.000000,-28.000000,-25.000000,-17.000000
1295108.709037,-11.000000,3.000000,21.000000,9.000000,47.000000,18.000000,-3.000000,-1.000000
1295108.709048,3.000000,-7.000000,2.000000,-16.000000,-18.000000,5.000000,53.000000,15.000000
1295108.730707,5.000000,-6.000000,4.000000,9.000000,6.000000,12.000000,0.000000,1.000000
1295108.730725,-5.000000,-20.000000,-14.000000,-7.000000,-8.000000,-16.000000,-39.000000,-11.000000
1295108.738065,-13.000000,-16.000000,-8.000000,-11.000000,-13.000000,-31.000000,-53.000000,-23.000000
1295108.738076,12.000000,11.000000,13.000000,31.000000,56.000000,74.000000,106.000000,15.000000
1295108.738802,20.000000,6.000000,8.000000,-10.000000,-26.000000,-7.000000,8.000000,24.000000
1295108.738818,2.000000,-8.000000,1.000000,22.000000,37.000000,11.000000,-5.000000,-2.000000
1295108.775723,-9.000000,-3.000000,-3.000000,-6.000000,-4.000000,-18.000000,-29.000000,-11.000000
1295108.775741,-14.000000,-15.000000,-14.000000,-1.000000,11.000000,-12.000000,-27.000000,-7.000000
1295108.783349,-15.000000,-24.000000,-1.000000,-39.000000,-84.000000,11.000000,24.000000,-5.000000
1295108.783366,17.000000,3.000000,-7.000000,16.000000,38.000000,24.000000,64.000000,29.000000
1295108.820862,-3.000000,9.000000,33.000000,9.000000,5.000000,-15.000000,-17.000000,-5.000000
1295108.820874,-14.000000,-33.000000,-16.000000,0.000000,-11.000000,-13.000000,-24.000000,-18.000000
1295108.828195,-19.000000,33.000000,2.000000,-23.000000,-4.000000,-51.000000,-64.000000,-31.000000
1295108.828212,18.000000,7.000000,5.000000,-1.000000,-31.000000,16.000000,77.000000,30.000000
1295108.836127,-4.000000,-27.000000,-24.000000,-3.000000,17.000000,-13.000000,-30.000000,-9.000000
1295108.836145,-2.000000,-6.000000,-5.000000,0.000000,2.000000,-3.000000,-14.000000,-8.000000
1295108.850954,-1.000000,-1.000000,0.000000,-3.000000,-10.000000,-4.000000,-6.000000,0.000000
1295108.850965,-5.000000,19.000000,0.000000,-10.000000,-9.000000,-10.000000,-27.000000,-10.000000
1295108.852056,10.000000,-5.000000,25.000000,13.000000,11.000000,21.000000,41.000000,18.000000
1295108.852072,-1.000000,-11.000000,-18.000000,-7.000000,-9.000000,0.000000,0.000000,6.000000
1295108.852513,12.000000,5.000000,5.000000,13.000000,42.000000,5.000000,22.000000,21.000000
1295108.852523,-8.000000,-14.000000,-8.000000,-30.000000,-25.000000,-9.000000,-26.000000,-11.000000
1295108.858287,-6.000000,2.000000,5.000000,23.000000,8.000000,-14.000000,-26.000000,-10.000000
1295108.858299,-22.000000,-14.000000,-2.000000,23.000000,44.000000,-16.000000,-23.000000,-22.000000
1295108.880699,8.000000,-8.000000,-2.000000,-33.000000,-41.000000,-23.000000,2.000000,0.000000
1295108.880709,18.000000,39.000000,32.000000,21.000000,14.000000,21.000000,44.000000,20.000000
1295108.910713,7.000000,-7.000000,-15.000000,-30.000000,8.000000,0.000000,0.000000,3.000000
1295108.910723,-5.000000,-4.000000,13.000000,17.000000,9.000000,-11.000000,-7.000000,-6.000000
1295108.925793,-12.000000,-22.000000,-21.000000,-4.000000,-1.000000,-10.000000,-16.000000,-11.000000
1295108.925802,-5.000000,4.000000,-7.000000,7.000000,21.000000,-2.000000,-56.000000,-23.000000
1295108.941063,16.000000,15.000000,1.000000,-58.000000,-81.000000,-6.000000,65.000000,29.000000
1295108.941075,3.000000,-4.000000,-1.000000,12.000000,45.000000,4.000000,38.000000,22.000000
1295108.948315,-8.000000,-7.000000,-4.000000,-26.000000,-13.000000,-11.000000,-15.000000,-6.000000
1295108.948327,-2.000000,-6.000000,-9.000000,-7.000000,-68.000000,-20.000000,-13.000000,-7.000000
1295108.971044,2.000000,4.000000,-3.000000,-19.000000,-41.000000,9.000000,18.000000,6.000000
1295108.971058,5.000000,17.000000,12.000000,-7.000000,10.000000,-5.000000,-9.000000,-2.000000
1295108.972378,-14.000000,-10.000000,2.000000,1.000000,42.000000,3.000000,-49.000000,-27.000000
1295108.972393,11.000000,-8.000000,-3.000000,-42.000000,-58.000000,25.000000,69.000000,34.000000
1295108.973705,-13.000000,-21.000000,-21.000000,-8.000000,-4.000000,-16.000000,-49.000000,-11.000000
1295108.973720,-4.000000,-4.000000,10.000000,29.000000,-22.000000,-20.000000,2.000000,-8.000000
1295108.978315,-5.000000,-9.000000,-5.000000,-12.000000,12.000000,7.000000,1.000000,0.000000
1295108.978324,-8.000000,-7.000000,-3.000000,1.000000,-13.000000,-8.000000,-14.000000,-11.000000
1295109.016049,0.000000,3.000000,6.000000,-3.000000,-18.000000,-3.000000,25.000000,-2.000000
1295109.016059,-13.000000,-6.000000,-9.000000,-10.000000,33.000000,4.000000,-42.000000,-12.000000
1295109.038485,17.000000,28.000000,18.000000,4.000000,-20.000000,28.000000,55.000000,14.000000
1295109.038498,5.000000,-17.000000,-6.000000,-20.000000,-35.000000,-7.000000,1.000000,2.000000
1295109.060665,-2.000000,-14.000000,-22.000000,-7.000000,18.000000,4.000000,-12.000000,1.000000
1295109.060713,-10.000000,4.000000,11.000000,22.000000,-13.000000,-26.000000,-53.000000,-15.000000
1295109.098318,-9.000000,-15.000000,-23.000000,2.000000,4.000000,-3.000000,4.000000,-19.000000
1295109.098336,22.000000,25.000000,49.000000,9.000000,15.000000,20.000000,10.000000,23.000000
1295109.113117,5.000000,3.000000,-9.000000,12.000000,48.000000,6.000000,-6.000000,-3.000000
1295109.113127,-8.000000,-10.000000,-11.000000,-10.000000,-3.000000,-6.000000,-14.000000,-9.000000
1295109.128485,-17.000000,-13.000000,-10.000000,-18.000000,-20.000000,-35.000000,-21.000000,-14.000000
1295109.128498,-17.000000,-34.000000,-6.000000,27.000000,-7.000000,10.000000,-89.000000,-35.000000
1295109.135837,28.000000,34.000000,18.000000,2.000000,-37.000000,43.000000,121.000000,47.000000
1295109.135850,10.000000,4.000000,1.000000,1.000000,11.000000,9.000000,22.000000,27.000000
1295109.158118,15.000000,8.000000,2.000000,41.000000,60.000000,11.000000,3.000000,6.000000
1295109.158134,-2.000000,7.000000,-2.000000,-9.000000,0.000000,-8.000000,-4.000000,-4.000000
1295109.173501,0.000000,3.000000,21.000000,-7.000000,-15.000000,-16.000000,-21.000000,-9.000000
1295109.173514,-15.000000,-3.000000,-13.000000,2.000000,17.000000,-16.000000,-44.000000,-14.000000
1295109.188219,-2.000000,0.000000,-6.000000,13.000000,28.000000,2.000000,10.000000,-10.000000
1295109.188238,6.000000,3.000000,36.000000,-21.000000,-96.000000,11.000000,42.000000,12.000000
1295109.210678,-5.000000,-4.000000,17.000000,-5.000000,-53.000000,-24.000000,-4.000000,-3.000000
1295109.210698,-12.000000,-1.000000,10.000000,-37.000000,-51.000000,-5.000000,-42.000000,-20.000000
1295109.211227,-4.000000,-18.000000,-13.000000,8.000000,21.000000,0.000000,-13.000000,-8.000000
1295109.211247,-5.000000,15.000000,-5.000000,-22.000000,-43.000000,-9.000000,-25.000000,-11.000000
1295109.212244,2.000000,5.000000,6.000000,25.000000,20.000000,5.000000,38.000000,10.000000
1295109.212266,-6.000000,-5.000000,13.000000,4.000000,17.000000,7.000000,-16.000000,-16.000000
1295109.213270,-14.000000,-20.000000,-18.000000,-20.000000,-13.000000,-18.000000,-1.000000,-12.000000
1295109.213284,-5.000000,-13.000000,-11.000000,-7.000000,-6.000000,3.000000,-3.000000,-3.000000
1295109.218629,-2.000000,1.000000,-4.000000,20.000000,61.000000,3.000000,2.000000,-15.000000
1295109.218636,-6.000000,-15.000000,-1.000000,-20.000000,-32.000000,-41.000000,-22.000000,-8.000000
1295109.219281,-4.000000,-9.000000,-17.000000,-15.000000,-31.000000,-14.000000,-69.000000,-18.000000
1295109.219301,30.000000,34.000000,20.000000,-6.000000,-40.000000,52.000000,127.000000,74.000000
1295109.248283,-3.000000,-6.000000,25.000000,33.000000,15.000000,-5.000000,-9.000000,-2.000000
1295109.248293,-14.000000,-17.000000,-29.000000,-13.000000,0.000000,-21.000000,-27.000000,-16.000000
1295109.255561,-28.000000,-23.000000,-17.000000,-17.000000,-22.000000,-25.000000,-41.000000,-25.000000
1295109.255571,11.000000,9.000000,-6.000000,-4.000000,13.000000,3.000000,2.000000,6.000000
1295109.271009,2.000000,32.000000,16.000000,-13.000000,-13.000000,19.000000,12.000000,1.000000
1295109.271019,1.000000,-1.000000,12.000000,3.000000,10.000000,-4.000000,-14.000000,0.000000
1295109.330662,-8.000000,-33.000000,-15.000000,-5.000000,-9.000000,-20.000000,-44.000000,-4.000000
1295109.330672,3.000000,33.000000,-20.000000,11.000000,5.000000,5.000000,25.000000,1.000000
1295109.354165,-4.000000,-1.000000,2.000000,6.000000,9.000000,13.000000,46.000000,-9.000000
1295109.354185,10.000000,-1.000000,-7.000000,-17.000000,-8.000000,5.000000,5.000000,16.000000
1295109.376021,-4.000000,-3.000000,5.000000,10.000000,36.000000,8.000000,-24.000000,-2.000000
1295109.376051,-3.000000,-7.000000,-22.000000,11.000000,35.000000,10.000000,24.000000,5.000000
1295109.390833,-3.000000,-9.000000,-3.000000,-14.000000,-19.000000,-17.000000,-7.000000,7.000000
1295109.390861,-4.000000,-4.000000,-4.000000,12.000000,23.000000,-2.000000,8.000000,-11.000000
1295109.405855,1.000000,16.000000,18.000000,19.000000,13.000000,-17.000000,-25.000000,-1.000000
1295109.405865,-9.000000,-20.000000,-15.000000,4.000000,14.000000,2.000000,14.000000,-5.000000
1295109.450873,5.000000,17.000000,12.000000,15.000000,2.000000,11.000000,-77.000000,-3.000000
1295109.450887,-5.000000,-23.000000,-13.000000,6.000000,20.000000,9.000000,70.000000,-4.000000
1295109.451509,10.000000,-11.000000,-5.000000,2.000000,7.000000,-5.000000,-11.000000,3.000000
1295109.451517,-8.000000,-5.000000,-11.000000,-7.000000,-9.000000,0.000000,15.000000,-4.000000
1295109.452362,5.000000,7.000000,-4.000000,4.000000,-40.000000,14.000000,-27.000000,-16.000000
1295109.452370,11.000000,22.000000,69.000000,-32.000000,-76.000000,0.000000,52.000000,25.000000
1295109.453019,-3.000000,-3.000000,-5.000000,-14.000000,-3.000000,-10.000000,-29.000000,-7.000000
1295109.453026,2.000000,-8.000000,-14.000000,-1.000000,22.000000,13.000000,-9.000000,2.000000
1295109.453648,-13.000000,-2.000000,-13.000000,2.000000,-5.000000,-28.000000,-24.000000,-18.000000
1295109.453655,-4.000000,-12.000000,19.000000,-16.000000,-77.000000,-11.000000,1.000000,-11.000000
1295109.454505,-3.000000,-11.000000,-17.000000,-16.000000,9.000000,-9.000000,-23.000000,-3.000000
1295109.454513,2.000000,-5.000000,1.000000,26.000000,-20.000000,10.000000,16.000000,3.000000
1295109.465767,3.000000,-6.000000,-4.000000,-7.000000,1.000000,17.000000,6.000000,4.000000
1295109.465777,-2.000000,0.000000,-4.000000,8.000000,13.000000,0.000000,-10.000000,-10.000000
1295109.488257,-13.000000,-12.000000,-10.000000,-4.000000,-16.000000,-25.000000,-52.000000,-23.000000
