# participant_id: P1
# gesture: medium
# trial_number: 1
# stream_name: Myo_EMG
# stream_type: emg
# timestamp: 20260420_130229
# samples: 4572
# duration_sec: 30.330
# nominal_sample_rate: 200.0
# effective_sample_rate: 150.71
#
timestamp,emg_1,emg_2,emg_3,emg_4,emg_5,emg_6,emg_7,emg_8
1294841.386001,-2.000000,7.000000,8.000000,9.000000,22.000000,-15.000000,-47.000000,-20.000000
1294841.386014,9.000000,1.000000,-1.000000,1.000000,-10.000000,25.000000,-40.000000,12.000000
1294841.386332,-1.000000,12.000000,-2.000000,-2.000000,1.000000,-1.000000,-8.000000,1.000000
1294841.386353,-4.000000,-1.000000,-1.000000,5.000000,2.000000,1.000000,13.000000,1.000000
1294841.387719,-5.000000,0.000000,0.000000,-2.000000,-4.000000,-6.000000,-16.000000,-13.000000
1294841.387727,-6.000000,-4.000000,-2.000000,14.000000,17.000000,6.000000,10.000000,-1.000000
1294841.423110,0.000000,2.000000,5.000000,0.000000,-6.000000,7.000000,-11.000000,-5.000000
1294841.423120,1.000000,-5.000000,-3.000000,12.000000,9.000000,0.000000,-2.000000,-4.000000
1294841.437760,11.000000,7.000000,-4.000000,-12.000000,0.000000,1.000000,3.000000,9.000000
1294841.437773,-4.000000,-7.000000,-4.000000,-4.000000,-5.000000,12.000000,3.000000,-6.000000
1294841.460649,10.000000,10.000000,18.000000,31.000000,41.000000,10.000000,12.000000,5.000000
1294841.460672,-3.000000,-9.000000,-11.000000,-38.000000,-43.000000,-4.000000,78.000000,5.000000
1294841.468080,6.000000,-3.000000,-8.000000,-1.000000,-6.000000,8.000000,-27.000000,10.000000
1294841.468106,-4.000000,3.000000,6.000000,9.000000,12.000000,3.000000,-12.000000,-5.000000
1294841.490558,-1.000000,-5.000000,-10.000000,-12.000000,-9.000000,14.000000,53.000000,-16.000000
1294841.490569,-3.000000,-26.000000,-12.000000,-15.000000,-20.000000,-1.000000,1.000000,5.000000
1294841.491111,8.000000,17.000000,13.000000,35.000000,55.000000,6.000000,-16.000000,0.000000
1294841.491120,-8.000000,-17.000000,-15.000000,-12.000000,-14.000000,-15.000000,-21.000000,-8.000000
1294841.505903,-12.000000,-11.000000,-6.000000,-4.000000,-16.000000,-11.000000,-6.000000,-7.000000
1294841.505916,4.000000,-7.000000,12.000000,1.000000,-4.000000,-10.000000,-16.000000,0.000000
1294841.506983,8.000000,-3.000000,2.000000,-13.000000,-1.000000,-13.000000,-19.000000,5.000000
1294841.506993,-11.000000,-18.000000,-3.000000,19.000000,13.000000,-4.000000,-23.000000,-7.000000
1294841.508425,-4.000000,10.000000,-8.000000,-5.000000,14.000000,16.000000,25.000000,-16.000000
1294841.508435,10.000000,-11.000000,4.000000,12.000000,-19.000000,-1.000000,15.000000,15.000000
1294841.509207,-3.000000,-10.000000,-5.000000,-12.000000,-17.000000,7.000000,-25.000000,-1.000000
1294841.509215,-9.000000,-15.000000,-8.000000,-6.000000,-5.000000,-12.000000,4.000000,-6.000000
1294841.550606,8.000000,13.000000,7.000000,39.000000,60.000000,11.000000,14.000000,8.000000
1294841.550617,-4.000000,-29.000000,-14.000000,-7.000000,-19.000000,0.000000,-51.000000,-17.000000
1294841.565460,-8.000000,2.000000,14.000000,-11.000000,-25.000000,-5.000000,2.000000,-5.000000
1294841.565479,-8.000000,13.000000,34.000000,2.000000,17.000000,5.000000,12.000000,-10.000000
1294841.595586,10.000000,-14.000000,-5.000000,-11.000000,-21.000000,-1.000000,-11.000000,5.000000
1294841.595597,4.000000,0.000000,-3.000000,-1.000000,7.000000,7.000000,22.000000,5.000000
1294841.617853,-16.000000,-8.000000,-19.000000,-14.000000,-21.000000,-35.000000,-32.000000,-12.000000
1294841.617865,15.000000,-1.000000,10.000000,-16.000000,-40.000000,11.000000,16.000000,3.000000
1294841.655366,8.000000,21.000000,6.000000,27.000000,22.000000,21.000000,46.000000,16.000000
1294841.655376,-9.000000,-7.000000,-13.000000,-14.000000,11.000000,-15.000000,-39.000000,-12.000000
1294841.685534,2.000000,12.000000,6.000000,10.000000,10.000000,-9.000000,8.000000,6.000000
1294841.685543,-8.000000,4.000000,-10.000000,-35.000000,-31.000000,-31.000000,-39.000000,-16.000000
1294841.715171,3.000000,33.000000,4.000000,-5.000000,-36.000000,-2.000000,-18.000000,4.000000
1294841.715181,3.000000,1.000000,18.000000,-12.000000,-18.000000,-1.000000,-14.000000,6.000000
1294841.737941,1.000000,-13.000000,0.000000,-20.000000,-42.000000,17.000000,0.000000,0.000000
1294841.737951,1.000000,-5.000000,-3.000000,6.000000,29.000000,-11.000000,8.000000,-3.000000
1294841.745212,2.000000,-13.000000,-8.000000,-11.000000,-17.000000,-21.000000,-15.000000,5.000000
1294841.745234,0.000000,-15.000000,-1.000000,-16.000000,-28.000000,-23.000000,-26.000000,-11.000000
1294841.782985,10.000000,52.000000,16.000000,6.000000,-14.000000,4.000000,-15.000000,12.000000
1294841.782998,2.000000,14.000000,-11.000000,-19.000000,-36.000000,-3.000000,-4.000000,-15.000000
1294841.820598,-1.000000,10.000000,15.000000,-24.000000,-48.000000,-6.000000,13.000000,1.000000
1294841.820626,11.000000,11.000000,4.000000,2.000000,11.000000,-2.000000,9.000000,17.000000
1294841.866118,-6.000000,-10.000000,-7.000000,26.000000,32.000000,10.000000,32.000000,-8.000000
1294841.866127,2.000000,27.000000,7.000000,-1.000000,3.000000,-18.000000,-21.000000,-6.000000
1294841.867079,1.000000,19.000000,3.000000,23.000000,60.000000,7.000000,17.000000,-2.000000
1294841.867086,1.000000,7.000000,2.000000,9.000000,17.000000,9.000000,5.000000,-4.000000
1294841.867772,-9.000000,-3.000000,-15.000000,-12.000000,-5.000000,-14.000000,-6.000000,-10.000000
1294841.867782,13.000000,13.000000,3.000000,4.000000,-1.000000,1.000000,-10.000000,7.000000
1294841.869179,11.000000,3.000000,-9.000000,5.000000,-4.000000,4.000000,44.000000,39.000000
1294841.869188,9.000000,-4.000000,5.000000,-32.000000,-38.000000,1.000000,28.000000,27.000000
1294841.880518,3.000000,1.000000,-7.000000,-3.000000,-2.000000,-2.000000,88.000000,13.000000
1294841.880531,-17.000000,-10.000000,0.000000,0.000000,7.000000,5.000000,-41.000000,-24.000000
1294841.895286,17.000000,11.000000,10.000000,38.000000,26.000000,30.000000,86.000000,35.000000
1294841.895297,-1.000000,-17.000000,-17.000000,-4.000000,-1.000000,-5.000000,-10.000000,-10.000000
1294841.933163,-16.000000,1.000000,2.000000,-11.000000,-16.000000,-25.000000,-56.000000,-27.000000
1294841.933187,18.000000,17.000000,16.000000,13.000000,16.000000,45.000000,56.000000,16.000000
1294841.940439,-2.000000,-6.000000,-1.000000,-1.000000,23.000000,8.000000,39.000000,11.000000
1294841.940450,-12.000000,1.000000,-5.000000,-13.000000,-18.000000,-20.000000,-22.000000,-14.000000
1294841.978705,-16.000000,-17.000000,-16.000000,-29.000000,-3.000000,0.000000,-29.000000,-19.000000
1294841.978750,13.000000,19.000000,31.000000,32.000000,-13.000000,-3.000000,16.000000,23.000000
1294841.979209,0.000000,-3.000000,-13.000000,-6.000000,0.000000,-1.000000,19.000000,-1.000000
1294841.979216,-10.000000,-2.000000,8.000000,5.000000,-7.000000,-13.000000,-48.000000,-5.000000
1294841.980197,15.000000,-5.000000,10.000000,-7.000000,10.000000,15.000000,13.000000,-1.000000
1294841.980205,5.000000,17.000000,7.000000,21.000000,10.000000,20.000000,26.000000,18.000000
1294841.981130,-10.000000,-12.000000,-3.000000,14.000000,38.000000,-7.000000,6.000000,3.000000
1294841.981172,-21.000000,-16.000000,-13.000000,-14.000000,-35.000000,-17.000000,-47.000000,-29.000000
1294841.981850,0.000000,2.000000,0.000000,9.000000,1.000000,-3.000000,49.000000,9.000000
1294841.981881,-15.000000,-15.000000,-6.000000,18.000000,52.000000,-9.000000,-26.000000,-20.000000
1294841.985425,-4.000000,-19.000000,-12.000000,-2.000000,-5.000000,-4.000000,-35.000000,-10.000000
1294841.985436,-7.000000,19.000000,9.000000,-15.000000,-6.000000,-6.000000,-11.000000,-15.000000
1294842.015661,18.000000,12.000000,3.000000,47.000000,69.000000,34.000000,66.000000,28.000000
1294842.015690,-2.000000,-22.000000,-13.000000,-7.000000,9.000000,-7.000000,-63.000000,-13.000000
1294842.023055,2.000000,-4.000000,4.000000,-10.000000,-4.000000,-1.000000,21.000000,8.000000
1294842.023065,10.000000,13.000000,0.000000,-1.000000,-16.000000,-4.000000,-6.000000,6.000000
1294842.045616,-4.000000,-1.000000,-3.000000,5.000000,17.000000,7.000000,12.000000,-4.000000
1294842.045631,-4.000000,-5.000000,1.000000,20.000000,21.000000,0.000000,36.000000,9.000000
1294842.060540,3.000000,8.000000,-2.000000,-7.000000,-11.000000,-10.000000,-1.000000,-5.000000
1294842.060550,-3.000000,1.000000,1.000000,-26.000000,-12.000000,21.000000,-13.000000,-17.000000
1294842.083212,-4.000000,3.000000,9.000000,37.000000,64.000000,27.000000,34.000000,12.000000
1294842.083221,1.000000,-4.000000,-3.000000,-26.000000,-46.000000,-35.000000,3.000000,-2.000000
1294842.083823,2.000000,27.000000,6.000000,12.000000,-31.000000,16.000000,33.000000,10.000000
1294842.083833,-12.000000,-25.000000,-12.000000,-7.000000,0.000000,-9.000000,3.000000,-6.000000
1294842.085258,1.000000,-6.000000,1.000000,-7.000000,-1.000000,-7.000000,-29.000000,-15.000000
1294842.085272,-6.000000,-5.000000,-22.000000,5.000000,4.000000,4.000000,15.000000,-3.000000
1294842.098061,8.000000,31.000000,27.000000,-4.000000,-28.000000,-32.000000,-8.000000,10.000000
1294842.098075,-1.000000,-18.000000,-10.000000,14.000000,20.000000,5.000000,-8.000000,-2.000000
1294842.098450,1.000000,-1.000000,2.000000,17.000000,19.000000,-24.000000,-41.000000,-15.000000
1294842.098460,-4.000000,-4.000000,-5.000000,9.000000,36.000000,8.000000,25.000000,-6.000000
1294842.099703,12.000000,-6.000000,-13.000000,-22.000000,-22.000000,14.000000,53.000000,28.000000
1294842.099712,8.000000,-13.000000,5.000000,5.000000,26.000000,-2.000000,-6.000000,7.000000
1294842.105623,-12.000000,-11.000000,-14.000000,-19.000000,-11.000000,-8.000000,1.000000,-6.000000
1294842.105636,-6.000000,4.000000,-7.000000,-8.000000,-11.000000,-1.000000,24.000000,4.000000
1294842.127784,18.000000,62.000000,54.000000,28.000000,28.000000,-4.000000,-20.000000,-1.000000
1294842.127802,-7.000000,-15.000000,-7.000000,-19.000000,-39.000000,-17.000000,75.000000,4.000000
1294842.143239,-14.000000,-3.000000,-8.000000,-3.000000,-4.000000,-8.000000,-60.000000,-21.000000
1294842.143250,-3.000000,-7.000000,-3.000000,-6.000000,-7.000000,7.000000,50.000000,-5.000000
1294842.172802,4.000000,-26.000000,-15.000000,-22.000000,-16.000000,-7.000000,-31.000000,3.000000
1294842.172813,16.000000,24.000000,17.000000,35.000000,62.000000,20.000000,35.000000,20.000000
1294842.173108,0.000000,-5.000000,-6.000000,5.000000,-16.000000,5.000000,-7.000000,2.000000
1294842.173116,-15.000000,-15.000000,-4.000000,1.000000,9.000000,-4.000000,-35.000000,-25.000000
1294842.174644,16.000000,6.000000,-2.000000,-28.000000,-22.000000,-11.000000,0.000000,19.000000
1294842.174662,-2.000000,23.000000,12.000000,51.000000,32.000000,26.000000,34.000000,-5.000000
1294842.175263,-6.000000,-24.000000,-22.000000,4.000000,11.000000,-2.000000,-10.000000,-13.000000
1294842.175281,-2.000000,-13.000000,8.000000,-54.000000,-84.000000,-9.000000,-7.000000,-2.000000
1294842.180362,14.000000,33.000000,6.000000,11.000000,26.000000,2.000000,18.000000,16.000000
1294842.180373,-13.000000,-11.000000,-11.000000,-3.000000,-13.000000,-5.000000,-5.000000,-4.000000
1294842.218087,-6.000000,-16.000000,-6.000000,-5.000000,-2.000000,-13.000000,-17.000000,-8.000000
1294842.218241,-12.000000,-11.000000,-14.000000,-5.000000,-5.000000,-13.000000,-48.000000,-10.000000
1294842.218757,-10.000000,5.000000,-1.000000,-23.000000,-27.000000,12.000000,-4.000000,-14.000000
1294842.218766,15.000000,0.000000,16.000000,34.000000,44.000000,23.000000,19.000000,17.000000
1294842.219392,0.000000,10.000000,-14.000000,-11.000000,-16.000000,-1.000000,2.000000,1.000000
1294842.219400,5.000000,7.000000,2.000000,-5.000000,-6.000000,7.000000,-8.000000,5.000000
1294842.220965,-4.000000,-14.000000,-3.000000,-11.000000,-3.000000,-11.000000,-7.000000,1.000000
1294842.221008,-13.000000,-11.000000,-7.000000,-6.000000,-14.000000,3.000000,-20.000000,-20.000000
1294842.255603,0.000000,-10.000000,-4.000000,2.000000,-4.000000,2.000000,15.000000,-2.000000
1294842.255631,15.000000,8.000000,7.000000,13.000000,25.000000,7.000000,-14.000000,13.000000
1294842.270426,-8.000000,-16.000000,-7.000000,3.000000,-5.000000,-2.000000,-18.000000,-6.000000
1294842.270450,-10.000000,1.000000,2.000000,7.000000,24.000000,6.000000,-30.000000,-24.000000
1294842.293068,5.000000,-20.000000,-13.000000,-44.000000,-56.000000,7.000000,-3.000000,4.000000
1294842.293079,8.000000,-1.000000,-5.000000,0.000000,-30.000000,-21.000000,29.000000,14.000000
1294842.307954,-12.000000,-18.000000,-18.000000,-19.000000,-21.000000,-2.000000,-5.000000,-12.000000
1294842.307991,6.000000,3.000000,1.000000,12.000000,12.000000,12.000000,40.000000,18.000000
1294842.308428,0.000000,-4.000000,-3.000000,-11.000000,-29.000000,-9.000000,-3.000000,-2.000000
1294842.308471,-6.000000,3.000000,4.000000,-1.000000,2.000000,-10.000000,-22.000000,-10.000000
1294842.309790,-17.000000,-18.000000,-26.000000,-8.000000,-2.000000,-9.000000,-16.000000,-9.000000
1294842.309805,-5.000000,26.000000,19.000000,-26.000000,-45.000000,-11.000000,-25.000000,-11.000000
1294842.310279,13.000000,8.000000,2.000000,31.000000,52.000000,30.000000,-5.000000,-4.000000
1294842.310287,-4.000000,-13.000000,-2.000000,-2.000000,-7.000000,2.000000,27.000000,18.000000
1294842.311185,6.000000,10.000000,5.000000,14.000000,33.000000,5.000000,-5.000000,0.000000
1294842.311196,-3.000000,-2.000000,-15.000000,-3.000000,3.000000,-8.000000,-19.000000,-11.000000
1294842.337881,-17.000000,-22.000000,-25.000000,-22.000000,-18.000000,-14.000000,-22.000000,-14.000000
1294842.337910,7.000000,8.000000,6.000000,14.000000,-24.000000,16.000000,-6.000000,3.000000
1294842.338297,-5.000000,-6.000000,-8.000000,21.000000,51.000000,12.000000,-4.000000,-11.000000
1294842.338308,4.000000,7.000000,9.000000,5.000000,17.000000,10.000000,3.000000,6.000000
1294842.340239,8.000000,-5.000000,6.000000,-2.000000,14.000000,-6.000000,-20.000000,4.000000
1294842.340248,12.000000,10.000000,2.000000,-7.000000,-60.000000,-3.000000,-31.000000,-12.000000
1294842.360531,0.000000,-6.000000,-9.000000,4.000000,24.000000,-4.000000,30.000000,18.000000
1294842.360541,-7.000000,-5.000000,-6.000000,14.000000,39.000000,8.000000,-45.000000,-16.000000
1294842.383144,-2.000000,-19.000000,-13.000000,-40.000000,-33.000000,-10.000000,15.000000,8.000000
1294842.383159,3.000000,18.000000,18.000000,48.000000,73.000000,18.000000,-18.000000,-12.000000
1294842.398166,1.000000,-3.000000,-2.000000,-7.000000,-8.000000,-1.000000,3.000000,-2.000000
1294842.398179,-9.000000,-8.000000,-10.000000,-10.000000,-15.000000,-16.000000,-28.000000,-19.000000
1294842.420311,-16.000000,-10.000000,-1.000000,-12.000000,-12.000000,-18.000000,-37.000000,-20.000000
1294842.420322,5.000000,28.000000,9.000000,-31.000000,-42.000000,4.000000,20.000000,18.000000
1294842.427675,3.000000,-14.000000,-18.000000,4.000000,1.000000,-1.000000,-9.000000,-4.000000
1294842.427695,0.000000,12.000000,20.000000,7.000000,17.000000,19.000000,33.000000,24.000000
1294842.450624,-4.000000,-8.000000,-11.000000,-10.000000,4.000000,1.000000,-2.000000,0.000000
1294842.450636,-1.000000,-6.000000,2.000000,2.000000,-14.000000,-1.000000,-13.000000,-1.000000
1294842.457891,-9.000000,-19.000000,-21.000000,6.000000,-24.000000,5.000000,21.000000,-8.000000
1294842.457908,14.000000,55.000000,48.000000,31.000000,7.000000,-9.000000,-25.000000,0.000000
1294842.495306,-10.000000,1.000000,2.000000,-42.000000,-41.000000,-9.000000,-28.000000,-6.000000
1294842.495347,15.000000,3.000000,-4.000000,3.000000,15.000000,8.000000,28.000000,18.000000
1294842.496274,-11.000000,-1.000000,-1.000000,10.000000,21.000000,3.000000,17.000000,-8.000000
1294842.496283,11.000000,-1.000000,0.000000,1.000000,19.000000,2.000000,0.000000,11.000000
1294842.497717,2.000000,-1.000000,0.000000,13.000000,31.000000,10.000000,16.000000,15.000000
1294842.497736,9.000000,-1.000000,3.000000,12.000000,-1.000000,6.000000,13.000000,3.000000
1294842.498412,-13.000000,-18.000000,-22.000000,-10.000000,-6.000000,-23.000000,-26.000000,-11.000000
1294842.498423,-24.000000,-2.000000,8.000000,-43.000000,-45.000000,3.000000,-26.000000,-23.000000
1294842.499182,10.000000,-8.000000,-6.000000,24.000000,35.000000,24.000000,47.000000,18.000000
1294842.499235,-10.000000,-16.000000,-20.000000,-12.000000,-6.000000,-2.000000,-4.000000,0.000000
1294842.510259,-6.000000,6.000000,-7.000000,-6.000000,-1.000000,-17.000000,2.000000,-17.000000
1294842.510270,-8.000000,-9.000000,0.000000,-17.000000,-45.000000,3.000000,-15.000000,-17.000000
1294842.533201,11.000000,8.000000,17.000000,31.000000,53.000000,33.000000,40.000000,31.000000
1294842.533233,-2.000000,-10.000000,-10.000000,-6.000000,2.000000,-7.000000,-87.000000,-10.000000
1294842.534150,-11.000000,-23.000000,-19.000000,-19.000000,-30.000000,-14.000000,-15.000000,-9.000000
1294842.534183,5.000000,-9.000000,-11.000000,18.000000,46.000000,11.000000,21.000000,7.000000
1294842.534848,-3.000000,21.000000,41.000000,-11.000000,-10.000000,-10.000000,-14.000000,-4.000000
1294842.534858,4.000000,5.000000,-4.000000,-20.000000,-32.000000,4.000000,-9.000000,-22.000000
1294842.540524,-13.000000,-13.000000,-9.000000,5.000000,9.000000,-11.000000,-33.000000,-11.000000
1294842.540535,-13.000000,-5.000000,-22.000000,-21.000000,-20.000000,-16.000000,6.000000,-8.000000
1294842.547878,6.000000,8.000000,4.000000,-13.000000,-28.000000,10.000000,7.000000,9.000000
1294842.547888,-5.000000,-26.000000,-9.000000,1.000000,16.000000,-9.000000,7.000000,-9.000000
1294842.578163,-10.000000,-16.000000,-5.000000,0.000000,1.000000,-13.000000,-38.000000,-23.000000
1294842.578192,4.000000,23.000000,0.000000,-17.000000,-44.000000,-4.000000,-10.000000,9.000000
1294842.585477,-2.000000,-5.000000,-3.000000,-8.000000,-45.000000,-1.000000,38.000000,-2.000000
1294842.585486,-7.000000,-14.000000,-8.000000,2.000000,2.000000,-14.000000,-40.000000,-1.000000
1294842.615852,-2.000000,0.000000,-6.000000,-17.000000,-41.000000,-7.000000,31.000000,-1.000000
1294842.615874,14.000000,30.000000,28.000000,10.000000,22.000000,8.000000,8.000000,9.000000
1294842.653448,-4.000000,-15.000000,-1.000000,-19.000000,-31.000000,-22.000000,-18.000000,-8.000000
1294842.653483,-13.000000,-1.000000,-13.000000,-20.000000,-56.000000,-8.000000,-25.000000,-17.000000
1294842.654860,2.000000,28.000000,61.000000,20.000000,20.000000,-3.000000,17.000000,2.000000
1294842.655109,19.000000,1.000000,9.000000,16.000000,2.000000,15.000000,-43.000000,-7.000000
1294842.655900,1.000000,-2.000000,-3.000000,20.000000,34.000000,-3.000000,-4.000000,7.000000
1294842.655918,-5.000000,-1.000000,-3.000000,-4.000000,-20.000000,3.000000,-28.000000,-8.000000
1294842.656562,-9.000000,-22.000000,-8.000000,10.000000,21.000000,-2.000000,-6.000000,-6.000000
1294842.656578,1.000000,12.000000,30.000000,3.000000,10.000000,2.000000,-9.000000,-3.000000
1294842.660743,39.000000,38.000000,40.000000,63.000000,97.000000,51.000000,44.000000,43.000000
1294842.660763,-3.000000,-14.000000,-12.000000,-14.000000,-21.000000,-9.000000,20.000000,8.000000
1294842.675343,4.000000,1.000000,11.000000,7.000000,8.000000,-4.000000,-19.000000,-2.000000
1294842.675353,1.000000,-1.000000,13.000000,4.000000,-42.000000,-8.000000,-23.000000,-8.000000
1294842.705518,0.000000,10.000000,-6.000000,9.000000,10.000000,-2.000000,18.000000,7.000000
1294842.705547,13.000000,34.000000,17.000000,-9.000000,-28.000000,-5.000000,-10.000000,10.000000
1294842.728092,1.000000,-10.000000,2.000000,9.000000,21.000000,2.000000,-25.000000,-6.000000
1294842.728103,-2.000000,5.000000,-1.000000,-9.000000,-14.000000,7.000000,17.000000,8.000000
1294842.773347,1.000000,-14.000000,-9.000000,-7.000000,-9.000000,-8.000000,1.000000,3.000000
1294842.773357,-15.000000,-20.000000,-1.000000,-3.000000,-17.000000,-7.000000,-29.000000,-15.000000
1294842.774137,12.000000,35.000000,36.000000,25.000000,17.000000,17.000000,34.000000,11.000000
1294842.774199,7.000000,33.000000,13.000000,-21.000000,-43.000000,-2.000000,9.000000,11.000000
1294842.788465,-1.000000,-32.000000,-12.000000,14.000000,-14.000000,10.000000,-19.000000,-8.000000
1294842.788474,5.000000,-3.000000,-5.000000,-26.000000,-35.000000,-9.000000,19.000000,6.000000
1294842.789036,-7.000000,7.000000,-3.000000,0.000000,4.000000,-1.000000,-33.000000,-13.000000
1294842.789044,-1.000000,-4.000000,4.000000,-1.000000,-7.000000,-8.000000,8.000000,4.000000
1294842.790170,-2.000000,2.000000,-4.000000,-15.000000,-16.000000,-4.000000,0.000000,-6.000000
1294842.790178,-2.000000,-13.000000,-12.000000,-5.000000,-6.000000,-12.000000,4.000000,6.000000
1294842.810350,-10.000000,0.000000,14.000000,6.000000,15.000000,-2.000000,-44.000000,-21.000000
1294842.810361,-8.000000,-10.000000,-8.000000,-5.000000,-31.000000,-8.000000,6.000000,6.000000
1294842.811609,17.000000,24.000000,16.000000,53.000000,65.000000,19.000000,8.000000,11.000000
1294842.811626,4.000000,15.000000,11.000000,-29.000000,-20.000000,-1.000000,26.000000,10.000000
1294842.817791,-5.000000,-4.000000,-5.000000,-6.000000,-13.000000,-16.000000,17.000000,-7.000000
1294842.817804,-5.000000,-6.000000,-3.000000,-4.000000,-3.000000,9.000000,-38.000000,-12.000000
1294842.833088,0.000000,-7.000000,0.000000,-15.000000,-33.000000,-9.000000,37.000000,17.000000
1294842.833098,1.000000,2.000000,4.000000,-5.000000,-4.000000,-5.000000,-9.000000,1.000000
1294842.847978,-12.000000,-7.000000,-20.000000,-7.000000,-9.000000,-20.000000,-25.000000,-15.000000
1294842.847992,-2.000000,11.000000,22.000000,-7.000000,-5.000000,-19.000000,-18.000000,-7.000000
1294842.862883,10.000000,5.000000,10.000000,9.000000,-41.000000,17.000000,62.000000,26.000000
1294842.862893,-8.000000,5.000000,-2.000000,-7.000000,24.000000,6.000000,-1.000000,-6.000000
1294842.892977,5.000000,10.000000,8.000000,40.000000,-7.000000,27.000000,6.000000,9.000000
1294842.892987,7.000000,-1.000000,-7.000000,13.000000,17.000000,-4.000000,-10.000000,-2.000000
1294842.894017,-7.000000,2.000000,2.000000,7.000000,7.000000,-4.000000,53.000000,-4.000000
1294842.894058,-3.000000,-5.000000,1.000000,-40.000000,-57.000000,-6.000000,-6.000000,-5.000000
1294842.894553,-5.000000,-3.000000,4.000000,11.000000,16.000000,-5.000000,-24.000000,-8.000000
1294842.894561,-11.000000,-7.000000,-13.000000,-16.000000,-18.000000,-11.000000,2.000000,-11.000000
1294842.895777,-8.000000,-6.000000,-8.000000,26.000000,64.000000,6.000000,10.000000,-1.000000
1294842.895804,10.000000,9.000000,30.000000,-21.000000,-65.000000,10.000000,-54.000000,-1.000000
1294842.896612,-12.000000,-18.000000,-17.000000,-11.000000,2.000000,-11.000000,60.000000,-5.000000
1294842.896639,24.000000,15.000000,28.000000,0.000000,-13.000000,-1.000000,-12.000000,15.000000
1294842.930525,-1.000000,4.000000,12.000000,-11.000000,-2.000000,1.000000,-28.000000,-9.000000
1294842.930537,-3.000000,-12.000000,-3.000000,38.000000,47.000000,21.000000,22.000000,-2.000000
1294842.938228,-17.000000,-15.000000,-7.000000,-4.000000,-1.000000,-21.000000,-3.000000,-11.000000
1294842.938254,1.000000,8.000000,-2.000000,-14.000000,-38.000000,5.000000,23.000000,0.000000
1294842.983175,14.000000,16.000000,18.000000,25.000000,50.000000,13.000000,9.000000,4.000000
1294842.983197,-7.000000,-12.000000,-8.000000,-3.000000,-20.000000,-15.000000,-19.000000,-11.000000
1294843.005343,-7.000000,-3.000000,-7.000000,-18.000000,-30.000000,-20.000000,-45.000000,-4.000000
1294843.005360,9.000000,8.000000,11.000000,19.000000,18.000000,21.000000,92.000000,22.000000
1294843.027916,-14.000000,-17.000000,-8.000000,32.000000,60.000000,-1.000000,-41.000000,-22.000000
1294843.027928,-18.000000,4.000000,-2.000000,-38.000000,-38.000000,-20.000000,-26.000000,-12.000000
1294843.050574,32.000000,28.000000,9.000000,28.000000,37.000000,31.000000,58.000000,54.000000
1294843.050601,-2.000000,-17.000000,-1.000000,3.000000,-4.000000,-3.000000,10.000000,-8.000000
1294843.095382,-1.000000,6.000000,7.000000,-4.000000,12.000000,5.000000,12.000000,-1.000000
1294843.095393,-13.000000,-11.000000,-19.000000,-4.000000,3.000000,-12.000000,-47.000000,-14.000000
1294843.125817,3.000000,-7.000000,4.000000,17.000000,44.000000,6.000000,38.000000,12.000000
1294843.125827,-12.000000,-7.000000,-6.000000,-13.000000,-40.000000,-18.000000,-15.000000,-10.000000
1294843.126666,-7.000000,-18.000000,-13.000000,-8.000000,-7.000000,7.000000,-8.000000,-14.000000
1294843.126761,5.000000,30.000000,34.000000,7.000000,11.000000,6.000000,7.000000,-18.000000
1294843.127272,10.000000,-2.000000,1.000000,-13.000000,-10.000000,5.000000,29.000000,22.000000
1294843.127280,-10.000000,-3.000000,0.000000,20.000000,30.000000,-20.000000,-31.000000,-13.000000
1294843.127754,7.000000,2.000000,11.000000,11.000000,15.000000,11.000000,51.000000,27.000000
1294843.127766,-9.000000,-21.000000,-8.000000,-13.000000,-20.000000,-14.000000,-19.000000,-14.000000
1294843.128388,0.000000,-2.000000,-6.000000,-6.000000,-22.000000,1.000000,-22.000000,-2.000000
1294843.128397,-4.000000,13.000000,4.000000,-1.000000,13.000000,-8.000000,-39.000000,-8.000000
1294843.132444,17.000000,15.000000,11.000000,-22.000000,-16.000000,10.000000,89.000000,25.000000
1294843.132498,-11.000000,-2.000000,22.000000,15.000000,34.000000,-6.000000,-20.000000,-13.000000
1294843.140461,3.000000,-15.000000,-14.000000,-5.000000,-8.000000,-12.000000,-9.000000,7.000000
1294843.140508,-1.000000,-2.000000,-6.000000,-8.000000,-5.000000,-4.000000,-6.000000,1.000000
1294843.170438,1.000000,6.000000,5.000000,-6.000000,-14.000000,-7.000000,-5.000000,1.000000
1294843.170460,-3.000000,-13.000000,-4.000000,-2.000000,-26.000000,-10.000000,-11.000000,-6.000000
1294843.215422,-5.000000,3.000000,0.000000,0.000000,-3.000000,1.000000,-4.000000,-4.000000
1294843.215434,0.000000,1.000000,7.000000,-5.000000,-12.000000,-12.000000,6.000000,0.000000
1294843.230319,-18.000000,-23.000000,-20.000000,1.000000,51.000000,9.000000,-61.000000,-25.000000
1294843.230337,45.000000,70.000000,31.000000,32.000000,15.000000,37.000000,82.000000,39.000000
1294843.253501,7.000000,-16.000000,-13.000000,3.000000,10.000000,4.000000,37.000000,15.000000
1294843.253511,-5.000000,-17.000000,-2.000000,-13.000000,-22.000000,-6.000000,4.000000,-2.000000
1294843.254009,-9.000000,-1.000000,17.000000,-5.000000,-10.000000,-16.000000,-36.000000,-14.000000
1294843.254017,-9.000000,10.000000,-6.000000,-5.000000,-1.000000,-2.000000,10.000000,-9.000000
1294843.255465,-7.000000,-25.000000,-13.000000,-30.000000,-41.000000,18.000000,-36.000000,-13.000000
1294843.255476,15.000000,31.000000,30.000000,6.000000,-9.000000,11.000000,120.000000,47.000000
1294843.256113,3.000000,9.000000,-5.000000,4.000000,26.000000,-13.000000,-16.000000,8.000000
1294843.256122,-1.000000,-15.000000,-4.000000,-21.000000,-17.000000,5.000000,7.000000,9.000000
1294843.260481,-6.000000,-3.000000,-9.000000,-13.000000,-19.000000,-10.000000,-12.000000,-5.000000
1294843.260493,-9.000000,-7.000000,-7.000000,45.000000,76.000000,18.000000,-19.000000,-4.000000
1294843.282871,2.000000,-4.000000,7.000000,-7.000000,10.000000,19.000000,-13.000000,-10.000000
1294843.282908,7.000000,7.000000,-22.000000,-11.000000,-23.000000,-2.000000,28.000000,6.000000
1294843.284105,13.000000,24.000000,29.000000,28.000000,56.000000,23.000000,62.000000,12.000000
1294843.284114,6.000000,-15.000000,-5.000000,41.000000,71.000000,29.000000,16.000000,12.000000
1294843.290186,-2.000000,-10.000000,-7.000000,1.000000,5.000000,-7.000000,-6.000000,7.000000
1294843.290195,-5.000000,0.000000,-13.000000,-12.000000,-18.000000,-17.000000,-34.000000,-13.000000
1294843.365394,-11.000000,-19.000000,-9.000000,-7.000000,0.000000,0.000000,-1.000000,-5.000000
1294843.365411,-1.000000,11.000000,4.000000,1.000000,4.000000,-6.000000,-9.000000,-3.000000
1294843.365896,-3.000000,1.000000,-4.000000,-5.000000,-6.000000,-8.000000,-11.000000,-8.000000
1294843.365914,-14.000000,-15.000000,-9.000000,15.000000,31.000000,-1.000000,-62.000000,-22.000000
1294843.367768,20.000000,6.000000,6.000000,-3.000000,17.000000,30.000000,23.000000,12.000000
1294843.367802,18.000000,-1.000000,-3.000000,13.000000,1.000000,4.000000,29.000000,18.000000
1294843.368187,-15.000000,-17.000000,-17.000000,-23.000000,-33.000000,-13.000000,-15.000000,-23.000000
1294843.368218,15.000000,-4.000000,13.000000,9.000000,21.000000,6.000000,10.000000,7.000000
1294843.369386,-1.000000,-11.000000,-10.000000,-3.000000,-14.000000,-9.000000,-11.000000,-1.000000
1294843.369399,0.000000,-6.000000,-8.000000,4.000000,4.000000,2.000000,-8.000000,-7.000000
1294843.373016,-10.000000,-11.000000,8.000000,18.000000,35.000000,5.000000,28.000000,10.000000
1294843.373030,4.000000,13.000000,0.000000,-40.000000,-57.000000,-6.000000,-3.000000,-5.000000
1294843.380557,19.000000,37.000000,20.000000,47.000000,51.000000,29.000000,36.000000,8.000000
1294843.380586,5.000000,-9.000000,-12.000000,-19.000000,1.000000,7.000000,1.000000,18.000000
1294843.402985,-8.000000,-12.000000,-12.000000,-28.000000,-26.000000,-3.000000,35.000000,4.000000
1294843.403014,-7.000000,4.000000,3.000000,10.000000,41.000000,6.000000,-11.000000,-6.000000
1294843.417908,1.000000,-8.000000,-4.000000,7.000000,-1.000000,-4.000000,-25.000000,-3.000000
1294843.417966,2.000000,-6.000000,0.000000,17.000000,31.000000,15.000000,8.000000,3.000000
1294843.440350,-5.000000,7.000000,5.000000,-12.000000,-20.000000,-9.000000,-15.000000,-8.000000
1294843.440362,-10.000000,-8.000000,-9.000000,-4.000000,-12.000000,-20.000000,-19.000000,-5.000000
1294843.470632,-7.000000,-26.000000,-5.000000,-10.000000,2.000000,-6.000000,-20.000000,-14.000000
1294843.470704,12.000000,19.000000,1.000000,-3.000000,13.000000,7.000000,34.000000,19.000000
1294843.485315,26.000000,49.000000,47.000000,4.000000,-12.000000,6.000000,3.000000,17.000000
1294843.485326,11.000000,-3.000000,4.000000,20.000000,41.000000,1.000000,-27.000000,7.000000
1294843.486463,-6.000000,-24.000000,-18.000000,22.000000,14.000000,-4.000000,-12.000000,11.000000
1294843.486478,3.000000,8.000000,-2.000000,-11.000000,-36.000000,9.000000,10.000000,15.000000
1294843.487038,1.000000,16.000000,19.000000,37.000000,59.000000,18.000000,26.000000,4.000000
1294843.487047,12.000000,6.000000,12.000000,-21.000000,-17.000000,3.000000,15.000000,7.000000
1294843.488329,-5.000000,-37.000000,-7.000000,0.000000,5.000000,-16.000000,21.000000,-12.000000
1294843.488339,3.000000,0.000000,2.000000,-28.000000,-75.000000,1.000000,13.000000,4.000000
1294843.489145,17.000000,31.000000,19.000000,44.000000,82.000000,36.000000,8.000000,14.000000
1294843.489154,7.000000,-3.000000,-4.000000,-2.000000,-13.000000,6.000000,15.000000,8.000000
1294843.492670,-17.000000,-14.000000,-23.000000,-17.000000,-9.000000,-10.000000,-43.000000,-16.000000
1294843.492679,5.000000,15.000000,13.000000,1.000000,-35.000000,-6.000000,24.000000,11.000000
1294843.507841,-3.000000,-25.000000,-12.000000,-15.000000,-26.000000,23.000000,29.000000,16.000000
1294843.507858,10.000000,36.000000,24.000000,11.000000,12.000000,-10.000000,-28.000000,1.000000
1294843.530593,-16.000000,-1.000000,-13.000000,-19.000000,-12.000000,-12.000000,-9.000000,-19.000000
1294843.530603,6.000000,16.000000,11.000000,-10.000000,-14.000000,8.000000,21.000000,5.000000
1294843.545451,11.000000,-5.000000,1.000000,0.000000,-20.000000,-8.000000,-8.000000,11.000000
1294843.545479,-11.000000,1.000000,-8.000000,10.000000,24.000000,4.000000,-16.000000,-4.000000
1294843.560394,-4.000000,4.000000,-2.000000,6.000000,3.000000,0.000000,39.000000,-1.000000
1294843.560404,17.000000,-2.000000,11.000000,-21.000000,-12.000000,33.000000,32.000000,22.000000
1294843.582910,-4.000000,-9.000000,-9.000000,-5.000000,8.000000,-4.000000,6.000000,5.000000
1294843.582924,-12.000000,-6.000000,-8.000000,-17.000000,-37.000000,-20.000000,-37.000000,-11.000000
1294843.605368,6.000000,3.000000,3.000000,-35.000000,-58.000000,3.000000,-10.000000,1.000000
1294843.605378,-3.000000,4.000000,-5.000000,1.000000,9.000000,-1.000000,30.000000,4.000000
1294843.606363,3.000000,-15.000000,-12.000000,19.000000,20.000000,2.000000,46.000000,11.000000
1294843.606380,8.000000,1.000000,2.000000,15.000000,9.000000,15.000000,-9.000000,18.000000
1294843.607023,-7.000000,-5.000000,-4.000000,14.000000,1.000000,-1.000000,-8.000000,-8.000000
1294843.607051,-11.000000,-13.000000,-20.000000,-24.000000,-26.000000,-14.000000,-6.000000,-8.000000
1294843.608271,-1.000000,-2.000000,-11.000000,-3.000000,-21.000000,-7.000000,12.000000,-5.000000
1294843.608279,-10.000000,-1.000000,-7.000000,2.000000,-8.000000,-9.000000,0.000000,1.000000
1294843.620112,-3.000000,-2.000000,-9.000000,3.000000,17.000000,-19.000000,0.000000,-8.000000
1294843.620139,-1.000000,6.000000,-2.000000,14.000000,20.000000,6.000000,4.000000,8.000000
1294843.643203,5.000000,-5.000000,-4.000000,1.000000,13.000000,6.000000,-19.000000,-5.000000
1294843.643224,-8.000000,-13.000000,-4.000000,-11.000000,-11.000000,-2.000000,7.000000,2.000000
1294843.650801,0.000000,3.000000,4.000000,37.000000,54.000000,6.000000,-6.000000,-2.000000
1294843.650841,-5.000000,1.000000,-5.000000,-26.000000,-19.000000,-14.000000,-14.000000,-16.000000
1294843.680422,-5.000000,-6.000000,-6.000000,-4.000000,-7.000000,-7.000000,-40.000000,-15.000000
1294843.680433,3.000000,28.000000,26.000000,15.000000,14.000000,9.000000,-39.000000,-15.000000
1294843.688146,-1.000000,-19.000000,-13.000000,-17.000000,-15.000000,-5.000000,31.000000,11.000000
1294843.688161,2.000000,2.000000,2.000000,-8.000000,13.000000,13.000000,7.000000,2.000000
1294843.725542,4.000000,21.000000,6.000000,5.000000,-22.000000,5.000000,1.000000,5.000000
1294843.725553,-7.000000,-9.000000,-2.000000,-6.000000,-1.000000,-12.000000,-16.000000,-9.000000
1294843.748029,2.000000,8.000000,10.000000,-6.000000,-5.000000,-3.000000,24.000000,9.000000
1294843.748112,1.000000,6.000000,1.000000,2.000000,-2.000000,9.000000,12.000000,17.000000
1294843.748929,4.000000,-7.000000,2.000000,32.000000,59.000000,16.000000,-21.000000,-9.000000
1294843.748977,-3.000000,-13.000000,0.000000,-9.000000,3.000000,-4.000000,-38.000000,0.000000
1294843.749755,12.000000,13.000000,-6.000000,-5.000000,2.000000,-9.000000,-6.000000,0.000000
1294843.749776,-10.000000,-12.000000,-8.000000,-13.000000,-17.000000,-5.000000,-30.000000,-4.000000
1294843.763002,1.000000,21.000000,9.000000,21.000000,25.000000,24.000000,-2.000000,-3.000000
1294843.763013,7.000000,2.000000,-6.000000,1.000000,9.000000,-5.000000,30.000000,6.000000
1294843.785414,-10.000000,-22.000000,-11.000000,-15.000000,3.000000,-4.000000,-7.000000,5.000000
1294843.785439,4.000000,8.000000,7.000000,18.000000,21.000000,5.000000,71.000000,13.000000
1294843.807855,-10.000000,1.000000,-7.000000,-8.000000,-2.000000,5.000000,-7.000000,-8.000000
1294843.807865,5.000000,-10.000000,-9.000000,9.000000,16.000000,-2.000000,-6.000000,1.000000
1294843.815594,-3.000000,-7.000000,5.000000,2.000000,-2.000000,-11.000000,-19.000000,-13.000000
1294843.815605,-12.000000,2.000000,-9.000000,-34.000000,-28.000000,1.000000,21.000000,0.000000
1294843.845089,1.000000,1.000000,5.000000,1.000000,9.000000,1.000000,27.000000,8.000000
1294843.845099,8.000000,5.000000,17.000000,-4.000000,-9.000000,6.000000,11.000000,2.000000
1294843.845589,0.000000,-5.000000,-13.000000,29.000000,53.000000,16.000000,13.000000,2.000000
1294843.845598,11.000000,10.000000,3.000000,-1.000000,-10.000000,5.000000,23.000000,20.000000
1294843.846385,0.000000,-8.000000,-1.000000,8.000000,-1.000000,1.000000,12.000000,2.000000
1294843.846401,-6.000000,-4.000000,-6.000000,-27.000000,-28.000000,-17.000000,-26.000000,-13.000000
1294843.846989,-14.000000,-6.000000,-18.000000,9.000000,22.000000,0.000000,-29.000000,-15.000000
1294843.846998,2.000000,24.000000,35.000000,2.000000,9.000000,2.000000,7.000000,4.000000
1294843.847516,0.000000,-13.000000,2.000000,8.000000,27.000000,18.000000,-17.000000,-13.000000
1294843.847524,-3.000000,6.000000,-6.000000,4.000000,-32.000000,-8.000000,9.000000,5.000000
1294843.848519,-4.000000,4.000000,12.000000,-38.000000,-27.000000,-10.000000,-16.000000,-1.000000
1294843.848528,-2.000000,-12.000000,-8.000000,10.000000,18.000000,-11.000000,-10.000000,-8.000000
1294843.875994,-4.000000,-11.000000,-5.000000,-27.000000,-23.000000,-5.000000,-6.000000,-2.000000
1294843.876028,-11.000000,-13.000000,-15.000000,-11.000000,-3.000000,4.000000,27.000000,-9.000000
1294843.920684,18.000000,15.000000,1.000000,-25.000000,-45.000000,3.000000,30.000000,18.000000
1294843.920706,9.000000,7.000000,23.000000,17.000000,0.000000,13.000000,-3.000000,1.000000
1294843.927674,-2.000000,-10.000000,3.000000,-17.000000,-26.000000,-6.000000,-33.000000,1.000000
1294843.927683,4.000000,0.000000,-6.000000,3.000000,12.000000,5.000000,32.000000,5.000000
1294843.958243,0.000000,17.000000,10.000000,-3.000000,-9.000000,-7.000000,-20.000000,-6.000000
1294843.958275,-5.000000,-13.000000,-3.000000,-4.000000,-9.000000,-4.000000,-7.000000,-5.000000
1294843.958748,-3.000000,-6.000000,0.000000,-4.000000,10.000000,-5.000000,-11.000000,2.000000
1294843.958755,-4.000000,-4.000000,-10.000000,-21.000000,-80.000000,-20.000000,-25.000000,-7.000000
1294843.959309,2.000000,1.000000,0.000000,-26.000000,-48.000000,5.000000,56.000000,19.000000
1294843.959322,2.000000,0.000000,6.000000,17.000000,30.000000,12.000000,-14.000000,-16.000000
1294843.960179,-5.000000,-16.000000,-9.000000,-7.000000,-1.000000,-7.000000,-13.000000,0.000000
1294843.960187,-5.000000,-8.000000,6.000000,1.000000,1.000000,-1.000000,-7.000000,-7.000000
1294843.960734,-5.000000,0.000000,-7.000000,-6.000000,-6.000000,-4.000000,-3.000000,-5.000000
1294843.960742,-7.000000,-6.000000,-8.000000,13.000000,26.000000,2.000000,-4.000000,1.000000
1294843.965744,12.000000,8.000000,0.000000,20.000000,59.000000,30.000000,81.000000,40.000000
1294843.965759,-9.000000,-23.000000,-10.000000,-18.000000,-6.000000,-7.000000,-12.000000,-10.000000
1294843.973547,-8.000000,10.000000,2.000000,4.000000,6.000000,0.000000,-19.000000,-14.000000
1294843.973563,-12.000000,-13.000000,-12.000000,-6.000000,-5.000000,-15.000000,-25.000000,-9.000000
1294844.003192,-5.000000,-2.000000,0.000000,-2.000000,-7.000000,-12.000000,-16.000000,-8.000000
1294844.003221,-2.000000,-15.000000,-5.000000,-3.000000,-13.000000,1.000000,-8.000000,-5.000000
1294844.040257,-8.000000,3.000000,3.000000,13.000000,28.000000,8.000000,-7.000000,-6.000000
1294844.040281,-4.000000,-21.000000,-20.000000,-4.000000,-9.000000,-8.000000,3.000000,-3.000000
1294844.048065,0.000000,-3.000000,7.000000,-16.000000,-14.000000,-3.000000,-7.000000,-5.000000
1294844.048078,-3.000000,3.000000,11.000000,13.000000,30.000000,18.000000,0.000000,3.000000
1294844.048978,-15.000000,-10.000000,0.000000,4.000000,17.000000,-13.000000,-18.000000,-23.000000
1294844.048993,25.000000,7.000000,-8.000000,17.000000,35.000000,22.000000,45.000000,35.000000
1294844.049849,3.000000,2.000000,8.000000,-37.000000,-28.000000,15.000000,29.000000,-7.000000
1294844.049860,-4.000000,-19.000000,-32.000000,-3.000000,-11.000000,-12.000000,-20.000000,-16.000000
1294844.051504,-8.000000,-5.000000,-6.000000,-5.000000,-11.000000,-4.000000,-12.000000,-5.000000
1294844.051517,-6.000000,-2.000000,-7.000000,-11.000000,-10.000000,-7.000000,-9.000000,-6.000000
1294844.086012,-4.000000,-18.000000,-4.000000,8.000000,24.000000,0.000000,5.000000,-4.000000
1294844.086021,6.000000,5.000000,11.000000,-7.000000,-48.000000,-4.000000,5.000000,0.000000
1294844.086647,-5.000000,-10.000000,-15.000000,-9.000000,15.000000,-12.000000,-16.000000,-13.000000
1294844.086668,2.000000,7.000000,12.000000,30.000000,59.000000,5.000000,7.000000,-11.000000
1294844.087717,-2.000000,-12.000000,-5.000000,2.000000,20.000000,-18.000000,-27.000000,2.000000
1294844.087726,8.000000,23.000000,13.000000,-1.000000,5.000000,25.000000,58.000000,1.000000
1294844.088598,9.000000,-13.000000,-15.000000,-13.000000,-23.000000,5.000000,14.000000,23.000000
1294844.088606,0.000000,-12.000000,-3.000000,4.000000,6.000000,-4.000000,10.000000,17.000000
1294844.093578,-14.000000,-9.000000,-15.000000,-2.000000,-32.000000,-15.000000,-29.000000,-11.000000
1294844.093587,-9.000000,-4.000000,-8.000000,-17.000000,-18.000000,-8.000000,-17.000000,-10.000000
1294844.115486,-3.000000,-15.000000,-4.000000,-1.000000,-2.000000,-8.000000,-8.000000,-3.000000
1294844.115507,-9.000000,-14.000000,-7.000000,-1.000000,8.000000,-12.000000,-19.000000,-15.000000
1294844.153165,9.000000,27.000000,16.000000,-5.000000,-28.000000,-1.000000,-9.000000,10.000000
1294844.153193,-9.000000,-12.000000,-4.000000,4.000000,-4.000000,-14.000000,11.000000,-3.000000
1294844.182997,4.000000,-3.000000,-13.000000,34.000000,73.000000,-11.000000,-46.000000,6.000000
1294844.183010,14.000000,21.000000,5.000000,-5.000000,0.000000,22.000000,28.000000,4.000000
1294844.205618,23.000000,2.000000,3.000000,24.000000,13.000000,20.000000,23.000000,23.000000
1294844.205699,-8.000000,-16.000000,-7.000000,5.000000,6.000000,-6.000000,9.000000,8.000000
1294844.206002,-1.000000,-2.000000,-3.000000,-21.000000,-60.000000,-14.000000,-12.000000,-5.000000
1294844.206011,-8.000000,-12.000000,-13.000000,-1.000000,0.000000,-13.000000,-23.000000,-5.000000
1294844.206967,-7.000000,-18.000000,-9.000000,-19.000000,-19.000000,-11.000000,-12.000000,-10.000000
1294844.206989,-5.000000,-7.000000,-9.000000,3.000000,0.000000,-15.000000,-25.000000,-3.000000
1294844.207510,-2.000000,9.000000,23.000000,7.000000,-31.000000,22.000000,-6.000000,6.000000
1294844.207519,-1.000000,10.000000,-1.000000,16.000000,43.000000,3.000000,7.000000,-16.000000
1294844.213377,-5.000000,-4.000000,3.000000,9.000000,22.000000,2.000000,-14.000000,-4.000000
1294844.213387,-3.000000,-10.000000,-11.000000,-10.000000,-43.000000,-13.000000,12.000000,6.000000
1294844.235697,18.000000,16.000000,17.000000,27.000000,37.000000,21.000000,34.000000,10.000000
1294844.235707,-9.000000,-11.000000,-21.000000,-18.000000,-30.000000,-18.000000,-44.000000,-10.000000
1294844.250422,-6.000000,1.000000,2.000000,-17.000000,6.000000,0.000000,1.000000,-16.000000
1294844.250451,-10.000000,-14.000000,0.000000,-32.000000,-62.000000,-2.000000,-6.000000,-10.000000
1294844.265533,2.000000,9.000000,-4.000000,2.000000,-9.000000,-18.000000,21.000000,7.000000
1294844.265549,-9.000000,-14.000000,-7.000000,-9.000000,-8.000000,-19.000000,-17.000000,0.000000
1294844.266344,3.000000,-3.000000,4.000000,-11.000000,-6.000000,-7.000000,-1.000000,-8.000000
1294844.266354,-6.000000,0.000000,4.000000,-9.000000,-24.000000,20.000000,28.000000,2.000000
1294844.280463,1.000000,-12.000000,-11.000000,-9.000000,-30.000000,-5.000000,13.000000,0.000000
1294844.280491,-6.000000,-16.000000,-4.000000,1.000000,27.000000,-11.000000,-27.000000,-15.000000
1294844.317765,-4.000000,-8.000000,-22.000000,-16.000000,-19.000000,1.000000,96.000000,14.000000
1294844.317776,6.000000,29.000000,26.000000,6.000000,12.000000,14.000000,-20.000000,-14.000000
1294844.318297,-1.000000,-10.000000,-9.000000,20.000000,56.000000,9.000000,5.000000,9.000000
1294844.318325,-12.000000,-11.000000,-8.000000,0.000000,-13.000000,-3.000000,6.000000,-11.000000
1294844.319371,-8.000000,1.000000,-3.000000,-2.000000,12.000000,-6.000000,-34.000000,-4.000000
1294844.319398,4.000000,7.000000,7.000000,-23.000000,-75.000000,9.000000,15.000000,-1.000000
1294844.319991,-2.000000,4.000000,0.000000,-4.000000,-23.000000,-13.000000,-8.000000,-2.000000
1294844.320018,-2.000000,2.000000,-15.000000,1.000000,21.000000,-4.000000,21.000000,3.000000
1294844.325116,-6.000000,0.000000,-10.000000,-16.000000,0.000000,-1.000000,-26.000000,-4.000000
1294844.325124,-2.000000,17.000000,22.000000,5.000000,-11.000000,-10.000000,32.000000,6.000000
1294844.340983,7.000000,3.000000,3.000000,-4.000000,5.000000,0.000000,-16.000000,8.000000
1294844.340992,11.000000,3.000000,4.000000,12.000000,14.000000,10.000000,-4.000000,6.000000
1294844.362757,-9.000000,-2.000000,-4.000000,-14.000000,-9.000000,-11.000000,-11.000000,-5.000000
1294844.362767,1.000000,15.000000,6.000000,5.000000,-14.000000,4.000000,-29.000000,-7.000000
1294844.392903,4.000000,-18.000000,-14.000000,6.000000,1.000000,6.000000,-7.000000,3.000000
1294844.392928,-5.000000,5.000000,-3.000000,-2.000000,5.000000,-16.000000,24.000000,-13.000000
1294844.400444,5.000000,9.000000,-7.000000,4.000000,-7.000000,4.000000,45.000000,30.000000
1294844.400462,-11.000000,-13.000000,2.000000,-12.000000,6.000000,-13.000000,-33.000000,-11.000000
1294844.430399,12.000000,7.000000,19.000000,1.000000,10.000000,12.000000,-32.000000,-11.000000
1294844.430412,-5.000000,-6.000000,-6.000000,-1.000000,-1.000000,-3.000000,36.000000,7.000000
1294844.437877,4.000000,0.000000,0.000000,3.000000,27.000000,1.000000,8.000000,11.000000
1294844.437900,-5.000000,-10.000000,-9.000000,-7.000000,-8.000000,-6.000000,-6.000000,-4.000000
1294844.475711,-15.000000,-2.000000,3.000000,9.000000,20.000000,2.000000,-19.000000,-15.000000
1294844.475746,-6.000000,-4.000000,-7.000000,2.000000,11.000000,-5.000000,-19.000000,-14.000000
1294844.483569,1.000000,-6.000000,14.000000,0.000000,-20.000000,-10.000000,-20.000000,-9.000000
1294844.483598,-5.000000,4.000000,7.000000,-1.000000,-27.000000,3.000000,-4.000000,1.000000
1294844.490377,1.000000,16.000000,23.000000,20.000000,36.000000,4.000000,13.000000,3.000000
1294844.490394,-8.000000,9.000000,-3.000000,-5.000000,-11.000000,-14.000000,2.000000,-9.000000
1294844.528105,-12.000000,-21.000000,-22.000000,-22.000000,-16.000000,-15.000000,-54.000000,-26.000000
1294844.528154,10.000000,4.000000,-5.000000,4.000000,-4.000000,2.000000,22.000000,5.000000
1294844.558006,-3.000000,1.000000,-9.000000,-15.000000,-22.000000,-10.000000,-20.000000,-5.000000
1294844.558066,-10.000000,-16.000000,-1.000000,-17.000000,-4.000000,-2.000000,-9.000000,-10.000000
1294844.558763,-6.000000,-13.000000,-2.000000,3.000000,7.000000,-7.000000,-22.000000,-4.000000
1294844.558888,3.000000,10.000000,5.000000,-7.000000,-27.000000,21.000000,33.000000,6.000000
1294844.559567,8.000000,-5.000000,-7.000000,-4.000000,-14.000000,-12.000000,15.000000,28.000000
1294844.559596,0.000000,13.000000,-5.000000,16.000000,53.000000,19.000000,-21.000000,-12.000000
1294844.560238,0.000000,16.000000,1.000000,-15.000000,-56.000000,0.000000,15.000000,-5.000000
1294844.560264,-4.000000,-1.000000,-10.000000,7.000000,28.000000,-3.000000,9.000000,-2.000000
1294844.562138,-3.000000,5.000000,-11.000000,5.000000,-11.000000,-4.000000,-12.000000,-3.000000
1294844.562167,-1.000000,-7.000000,-3.000000,-11.000000,-26.000000,-4.000000,-14.000000,-3.000000
1294844.580224,1.000000,9.000000,9.000000,-34.000000,-57.000000,5.000000,1.000000,-18.000000
1294844.580258,-10.000000,-24.000000,-16.000000,9.000000,10.000000,28.000000,36.000000,6.000000
1294844.581682,19.000000,28.000000,24.000000,-4.000000,-13.000000,-1.000000,12.000000,15.000000
1294844.581692,2.000000,8.000000,1.000000,12.000000,26.000000,0.000000,-4.000000,3.000000
1294844.595300,-6.000000,-7.000000,3.000000,9.000000,-14.000000,-3.000000,-20.000000,-14.000000
1294844.595323,0.000000,-4.000000,-8.000000,-10.000000,-16.000000,-10.000000,-27.000000,-14.000000
1294844.640513,-7.000000,1.000000,7.000000,3.000000,2.000000,-4.000000,-6.000000,-15.000000
1294844.640523,-1.000000,4.000000,0.000000,-11.000000,-3.000000,-4.000000,-1.000000,-1.000000
1294844.648143,-8.000000,-15.000000,-11.000000,14.000000,22.000000,-13.000000,-15.000000,-5.000000
1294844.648156,8.000000,7.000000,21.000000,-8.000000,-19.000000,-16.000000,-35.000000,-1.000000
1294844.670824,8.000000,15.000000,3.000000,14.000000,64.000000,24.000000,51.000000,14.000000
1294844.670846,12.000000,-10.000000,3.000000,-27.000000,-66.000000,4.000000,7.000000,7.000000
1294844.671389,0.000000,-4.000000,-6.000000,0.000000,19.000000,-2.000000,4.000000,-8.000000
1294844.671411,-4.000000,15.000000,0.000000,-29.000000,-33.000000,-14.000000,11.000000,3.000000
1294844.672688,-2.000000,-15.000000,-2.000000,27.000000,49.000000,-2.000000,-21.000000,-2.000000
1294844.672696,-4.000000,-12.000000,-9.000000,0.000000,11.000000,-11.000000,-21.000000,-16.000000
1294844.674140,-6.000000,8.000000,5.000000,12.000000,-23.000000,-4.000000,-50.000000,-8.000000
1294844.674148,11.000000,-20.000000,-1.000000,-2.000000,5.000000,15.000000,32.000000,8.000000
1294844.678510,-4.000000,-9.000000,-12.000000,-18.000000,-10.000000,-14.000000,-3.000000,-3.000000
1294844.678532,-10.000000,-4.000000,-9.000000,-2.000000,13.000000,1.000000,-28.000000,-22.000000
1294844.716172,-7.000000,-6.000000,-5.000000,-10.000000,-11.000000,-7.000000,-10.000000,-9.000000
1294844.716189,-2.000000,-8.000000,-4.000000,-2.000000,-17.000000,-9.000000,-11.000000,0.000000
1294844.737725,-13.000000,-4.000000,-7.000000,-8.000000,10.000000,-1.000000,-23.000000,-20.000000
1294844.737741,14.000000,37.000000,6.000000,7.000000,-19.000000,-1.000000,-3.000000,20.000000
1294844.752887,-7.000000,-13.000000,-1.000000,-14.000000,-19.000000,-11.000000,23.000000,3.000000
1294844.752897,5.000000,5.000000,-2.000000,14.000000,28.000000,18.000000,-7.000000,10.000000
1294844.767843,-1.000000,-1.000000,-3.000000,12.000000,13.000000,13.000000,0.000000,16.000000
1294844.767860,6.000000,-12.000000,-14.000000,-43.000000,-46.000000,-2.000000,19.000000,2.000000
1294844.768206,6.000000,16.000000,7.000000,2.000000,-16.000000,-6.000000,1.000000,-4.000000
1294844.768223,-2.000000,7.000000,-1.000000,-5.000000,-15.000000,-9.000000,-18.000000,-12.000000
1294844.768724,4.000000,-13.000000,-11.000000,-15.000000,-5.000000,-22.000000,8.000000,20.000000
1294844.768732,-10.000000,4.000000,-8.000000,-9.000000,-22.000000,-7.000000,-25.000000,-15.000000
1294844.769362,-4.000000,-4.000000,1.000000,-8.000000,-59.000000,10.000000,34.000000,-5.000000
1294844.769370,9.000000,37.000000,19.000000,8.000000,21.000000,-5.000000,-2.000000,7.000000
1294844.771074,7.000000,2.000000,-2.000000,-14.000000,-21.000000,0.000000,19.000000,6.000000
1294844.771083,-8.000000,-23.000000,-14.000000,-16.000000,-41.000000,-26.000000,-54.000000,-16.000000
1294844.790886,-12.000000,10.000000,5.000000,-21.000000,-20.000000,-3.000000,19.000000,-11.000000
1294844.790895,1.000000,-16.000000,1.000000,19.000000,56.000000,-3.000000,-24.000000,1.000000
1294844.791634,0.000000,-6.000000,-5.000000,-15.000000,-3.000000,-6.000000,-1.000000,-8.000000
1294844.791641,-8.000000,-4.000000,5.000000,4.000000,-1.000000,-6.000000,-16.000000,-10.000000
1294844.798510,-6.000000,18.000000,-11.000000,-4.000000,24.000000,7.000000,19.000000,2.000000
1294844.798521,11.000000,26.000000,31.000000,8.000000,-1.000000,6.000000,-8.000000,-8.000000
1294844.805382,5.000000,10.000000,7.000000,34.000000,16.000000,13.000000,13.000000,6.000000
1294844.805393,-5.000000,-4.000000,-15.000000,-15.000000,9.000000,-8.000000,-17.000000,-6.000000
1294844.872801,5.000000,19.000000,18.000000,23.000000,23.000000,2.000000,-3.000000,-6.000000
1294844.872811,-3.000000,-13.000000,-2.000000,-12.000000,-26.000000,-6.000000,2.000000,-2.000000
1294844.880633,-9.000000,-5.000000,-8.000000,-4.000000,-13.000000,6.000000,27.000000,-3.000000
1294844.880645,15.000000,18.000000,2.000000,-2.000000,-21.000000,4.000000,31.000000,19.000000
1294844.917949,2.000000,-20.000000,1.000000,8.000000,-13.000000,-7.000000,-40.000000,-5.000000
1294844.917965,-5.000000,-10.000000,-4.000000,5.000000,2.000000,-6.000000,-27.000000,-12.000000
1294844.925280,-1.000000,16.000000,1.000000,16.000000,41.000000,13.000000,8.000000,6.000000
1294844.925303,-10.000000,-16.000000,-15.000000,-2.000000,2.000000,-6.000000,-1.000000,-8.000000
1294844.948216,12.000000,10.000000,13.000000,-1.000000,20.000000,9.000000,2.000000,-2.000000
1294844.948246,-1.000000,5.000000,-6.000000,-5.000000,-12.000000,-11.000000,-15.000000,6.000000
1294844.955512,-7.000000,-15.000000,2.000000,7.000000,11.000000,-8.000000,-18.000000,-13.000000
1294844.955523,-2.000000,-3.000000,7.000000,-22.000000,-23.000000,5.000000,-5.000000,7.000000
1294844.985576,-17.000000,-22.000000,-10.000000,-9.000000,8.000000,-5.000000,-11.000000,-7.000000
1294844.985587,7.000000,33.000000,-9.000000,-5.000000,13.000000,6.000000,-5.000000,-10.000000
1294845.023154,0.000000,9.000000,-8.000000,-15.000000,-2.000000,-1.000000,5.000000,-7.000000
1294845.023167,-4.000000,-13.000000,-10.000000,4.000000,-11.000000,-19.000000,5.000000,-14.000000
1294845.037824,12.000000,-11.000000,-10.000000,-7.000000,0.000000,-24.000000,-28.000000,6.000000
1294845.037836,-18.000000,-7.000000,-4.000000,-10.000000,-5.000000,-6.000000,-21.000000,-12.000000
1294845.038283,5.000000,-13.000000,-28.000000,-22.000000,-14.000000,4.000000,6.000000,2.000000
1294845.038293,6.000000,38.000000,13.000000,24.000000,57.000000,28.000000,40.000000,6.000000
1294845.039091,1.000000,-19.000000,-13.000000,-2.000000,-4.000000,-5.000000,-13.000000,-4.000000
1294845.039101,-19.000000,-17.000000,-15.000000,-12.000000,-3.000000,-11.000000,-13.000000,-12.000000
1294845.045366,-15.000000,-18.000000,-2.000000,-10.000000,-14.000000,-7.000000,-30.000000,-19.000000
1294845.045386,-5.000000,9.000000,-2.000000,0.000000,19.000000,4.000000,-13.000000,19.000000
1294845.075578,-5.000000,-24.000000,-1.000000,0.000000,-29.000000,-14.000000,-33.000000,-3.000000
1294845.075589,-6.000000,-7.000000,-13.000000,-13.000000,28.000000,10.000000,10.000000,-4.000000
1294845.083026,3.000000,23.000000,10.000000,-8.000000,-24.000000,-1.000000,-10.000000,3.000000
1294845.083036,-1.000000,-8.000000,-1.000000,-4.000000,2.000000,-1.000000,19.000000,18.000000
1294845.113173,-20.000000,-29.000000,-15.000000,-5.000000,-8.000000,-14.000000,-46.000000,-26.000000
1294845.113186,19.000000,20.000000,3.000000,-6.000000,-23.000000,15.000000,69.000000,27.000000
1294845.150309,6.000000,8.000000,-7.000000,0.000000,-2.000000,-1.000000,21.000000,3.000000
1294845.150326,-18.000000,-23.000000,-16.000000,37.000000,96.000000,13.000000,-25.000000,-20.000000
1294845.151304,5.000000,-16.000000,-8.000000,-10.000000,-28.000000,-1.000000,12.000000,5.000000
1294845.151312,-5.000000,-7.000000,4.000000,1.000000,2.000000,-6.000000,-9.000000,-3.000000
1294845.152610,-7.000000,5.000000,18.000000,-10.000000,-27.000000,-8.000000,-34.000000,-11.000000
1294845.152619,4.000000,-2.000000,0.000000,7.000000,14.000000,5.000000,11.000000,-1.000000
1294845.157662,-4.000000,-21.000000,-13.000000,7.000000,15.000000,-6.000000,-13.000000,-9.000000
1294845.157689,-5.000000,22.000000,7.000000,-19.000000,-21.000000,-17.000000,35.000000,-7.000000
1294845.195405,5.000000,1.000000,-4.000000,10.000000,16.000000,0.000000,-7.000000,7.000000
1294845.195428,1.000000,-15.000000,-8.000000,-3.000000,0.000000,0.000000,-11.000000,1.000000
1294845.225448,-11.000000,-14.000000,-14.000000,8.000000,-27.000000,-34.000000,-28.000000,-16.000000
1294845.225459,3.000000,35.000000,43.000000,26.000000,32.000000,17.000000,10.000000,6.000000
1294845.233029,1.000000,-4.000000,-9.000000,-14.000000,-6.000000,-5.000000,-28.000000,-15.000000
1294845.233055,2.000000,-10.000000,-4.000000,-2.000000,-24.000000,-3.000000,32.000000,11.000000
1294845.270236,-9.000000,-3.000000,-9.000000,13.000000,60.000000,29.000000,-16.000000,-7.000000
1294845.270247,-6.000000,2.000000,0.000000,-24.000000,-30.000000,-1.000000,24.000000,-2.000000
1294845.270743,-9.000000,-17.000000,-7.000000,-14.000000,-35.000000,-13.000000,37.000000,2.000000
1294845.270751,-10.000000,12.000000,-2.000000,-3.000000,15.000000,7.000000,-26.000000,-21.000000
1294845.271977,2.000000,6.000000,9.000000,25.000000,20.000000,13.000000,-1.000000,-7.000000
1294845.271985,-6.000000,-18.000000,-14.000000,12.000000,18.000000,-5.000000,-15.000000,-13.000000
1294845.272733,-1.000000,-24.000000,-7.000000,-10.000000,-5.000000,-11.000000,-12.000000,-2.000000
1294845.272761,-9.000000,-4.000000,-7.000000,-4.000000,-8.000000,-13.000000,-29.000000,-15.000000
1294845.274245,-8.000000,-1.000000,-9.000000,-6.000000,-4.000000,-5.000000,-14.000000,-13.000000
1294845.274311,-18.000000,-13.000000,-8.000000,4.000000,0.000000,-17.000000,-8.000000,-15.000000
1294845.285293,-3.000000,-10.000000,-6.000000,0.000000,-13.000000,-7.000000,-27.000000,-10.000000
1294845.285304,-13.000000,-6.000000,-10.000000,-15.000000,-6.000000,-12.000000,-17.000000,-11.000000
1294845.285827,-4.000000,-14.000000,-3.000000,15.000000,67.000000,8.000000,15.000000,-12.000000
1294845.285835,-1.000000,2.000000,-2.000000,-2.000000,-9.000000,2.000000,10.000000,9.000000
1294845.308051,22.000000,52.000000,28.000000,-18.000000,-59.000000,9.000000,52.000000,31.000000
1294845.308061,-9.000000,-21.000000,-14.000000,-6.000000,3.000000,-14.000000,-25.000000,-10.000000
1294845.315501,-11.000000,0.000000,-5.000000,-1.000000,19.000000,-18.000000,-14.000000,-15.000000
1294845.315511,0.000000,-1.000000,12.000000,-19.000000,-47.000000,2.000000,-6.000000,-3.000000
1294845.353045,-6.000000,7.000000,-3.000000,5.000000,9.000000,15.000000,32.000000,0.000000
1294845.353055,11.000000,-11.000000,-1.000000,-20.000000,10.000000,8.000000,10.000000,5.000000
1294845.361120,0.000000,0.000000,-13.000000,1.000000,-16.000000,-15.000000,-1.000000,-3.000000
1294845.361131,-5.000000,3.000000,5.000000,-1.000000,36.000000,6.000000,-9.000000,1.000000
1294845.361547,-2.000000,-1.000000,-5.000000,1.000000,15.000000,-6.000000,-6.000000,0.000000
1294845.361556,-1.000000,-16.000000,-16.000000,-4.000000,-30.000000,0.000000,-36.000000,-3.000000
1294845.362010,-7.000000,37.000000,18.000000,-5.000000,17.000000,4.000000,-39.000000,-31.000000
1294845.362018,9.000000,-4.000000,4.000000,-10.000000,-30.000000,-3.000000,16.000000,5.000000
1294845.363520,-5.000000,1.000000,3.000000,15.000000,-8.000000,3.000000,-11.000000,-5.000000
1294845.363529,2.000000,-5.000000,4.000000,20.000000,41.000000,23.000000,4.000000,-4.000000
1294845.375370,15.000000,36.000000,4.000000,-27.000000,-73.000000,14.000000,35.000000,11.000000
1294845.375430,-1.000000,-12.000000,-2.000000,-10.000000,-8.000000,1.000000,33.000000,18.000000
1294845.390138,-7.000000,-3.000000,-8.000000,-6.000000,-4.000000,-8.000000,-39.000000,-19.000000
1294845.390171,-10.000000,2.000000,-7.000000,-17.000000,-28.000000,-15.000000,20.000000,-7.000000
1294845.390659,10.000000,10.000000,5.000000,16.000000,54.000000,22.000000,17.000000,11.000000
1294845.390667,2.000000,17.000000,25.000000,-3.000000,9.000000,7.000000,10.000000,8.000000
1294845.420363,-9.000000,-1.000000,-9.000000,-15.000000,-23.000000,2.000000,41.000000,9.000000
1294845.420390,1.000000,-9.000000,-8.000000,25.000000,30.000000,24.000000,-3.000000,-2.000000
1294845.427905,-11.000000,-9.000000,0.000000,3.000000,-18.000000,-2.000000,12.000000,-13.000000
1294845.427925,32.000000,9.000000,-8.000000,-8.000000,-1.000000,-4.000000,31.000000,15.000000
1294845.472965,-7.000000,-5.000000,-3.000000,0.000000,0.000000,-2.000000,-7.000000,-7.000000
1294845.472989,-4.000000,-6.000000,-3.000000,-6.000000,-5.000000,5.000000,-24.000000,-14.000000
1294845.480232,-8.000000,-8.000000,-14.000000,10.000000,46.000000,16.000000,30.000000,3.000000
1294845.480244,-5.000000,21.000000,8.000000,-8.000000,-27.000000,-13.000000,-14.000000,-8.000000
1294845.502860,10.000000,-5.000000,-1.000000,15.000000,27.000000,8.000000,1.000000,10.000000
1294845.502871,-15.000000,-14.000000,1.000000,15.000000,-12.000000,-1.000000,-26.000000,-20.000000
1294845.510477,2.000000,35.000000,21.000000,-7.000000,18.000000,-13.000000,-36.000000,-6.000000
1294845.510510,1.000000,-16.000000,-16.000000,27.000000,44.000000,39.000000,84.000000,15.000000
1294845.540364,-7.000000,-16.000000,5.000000,-16.000000,-14.000000,-29.000000,-14.000000,-22.000000
1294845.540374,-2.000000,24.000000,8.000000,27.000000,37.000000,25.000000,40.000000,13.000000
1294845.548112,2.000000,-7.000000,-4.000000,5.000000,3.000000,-1.000000,12.000000,6.000000
1294845.548145,-6.000000,-6.000000,-2.000000,22.000000,25.000000,6.000000,11.000000,-1.000000
1294845.578255,-1.000000,13.000000,12.000000,-2.000000,2.000000,4.000000,5.000000,0.000000
1294845.578275,-4.000000,3.000000,-6.000000,-1.000000,-7.000000,6.000000,11.000000,1.000000
1294845.585598,-18.000000,-38.000000,-20.000000,5.000000,19.000000,-12.000000,-22.000000,-14.000000
1294845.585630,10.000000,12.000000,12.000000,-3.000000,-30.000000,-5.000000,-61.000000,-10.000000
1294845.600568,-11.000000,-19.000000,-6.000000,18.000000,36.000000,-9.000000,-32.000000,-17.000000
1294845.600597,0.000000,-1.000000,-7.000000,-2.000000,-6.000000,2.000000,0.000000,1.000000
1294845.630388,-13.000000,-32.000000,-12.000000,3.000000,5.000000,-10.000000,-3.000000,-11.000000
1294845.630405,10.000000,27.000000,18.000000,5.000000,11.000000,2.000000,21.000000,8.000000
1294845.637865,3.000000,4.000000,-2.000000,8.000000,1.000000,3.000000,-5.000000,4.000000
1294845.637874,6.000000,15.000000,7.000000,6.000000,-9.000000,9.000000,-35.000000,6.000000
1294845.638825,-7.000000,-3.000000,-8.000000,-32.000000,-24.000000,-19.000000,-32.000000,1.000000
1294845.638834,5.000000,-10.000000,-10.000000,-16.000000,-13.000000,13.000000,-35.000000,13.000000
1294845.639520,-3.000000,19.000000,13.000000,5.000000,3.000000,-8.000000,-12.000000,-14.000000
1294845.639528,15.000000,5.000000,-4.000000,-11.000000,-41.000000,1.000000,5.000000,16.000000
1294845.640124,2.000000,9.000000,11.000000,-29.000000,-44.000000,4.000000,4.000000,3.000000
1294845.640133,4.000000,-8.000000,-10.000000,4.000000,15.000000,23.000000,47.000000,13.000000
1294845.641019,5.000000,19.000000,21.000000,-8.000000,3.000000,-19.000000,9.000000,11.000000
1294845.641028,-9.000000,-1.000000,-16.000000,-4.000000,1.000000,-3.000000,-43.000000,-17.000000
1294845.645270,15.000000,13.000000,21.000000,24.000000,24.000000,23.000000,44.000000,4.000000
1294845.645305,-17.000000,-25.000000,-12.000000,4.000000,3.000000,0.000000,-15.000000,-12.000000
1294845.706652,4.000000,6.000000,2.000000,-6.000000,11.000000,14.000000,-8.000000,4.000000
1294845.706668,-8.000000,9.000000,3.000000,-23.000000,-13.000000,-10.000000,-31.000000,-20.000000
1294845.707354,10.000000,-3.000000,-3.000000,-32.000000,-58.000000,-19.000000,7.000000,0.000000
1294845.707380,6.000000,-5.000000,2.000000,32.000000,54.000000,5.000000,-12.000000,17.000000
1294845.708242,-18.000000,-4.000000,-9.000000,-11.000000,-6.000000,-23.000000,-69.000000,-37.000000
1294845.708261,14.000000,14.000000,20.000000,33.000000,29.000000,16.000000,24.000000,23.000000
1294845.708457,-6.000000,-17.000000,-15.000000,-14.000000,-32.000000,-13.000000,-20.000000,-13.000000
1294845.708465,3.000000,-3.000000,5.000000,24.000000,59.000000,18.000000,18.000000,-3.000000
1294845.750481,6.000000,2.000000,0.000000,-2.000000,-16.000000,-7.000000,11.000000,20.000000
1294845.750504,-9.000000,-12.000000,-5.000000,11.000000,24.000000,-16.000000,-10.000000,-1.000000
1294845.751700,17.000000,-7.000000,-13.000000,-7.000000,8.000000,4.000000,-5.000000,14.000000
1294845.751713,-19.000000,-9.000000,2.000000,27.000000,33.000000,6.000000,-14.000000,-17.000000
1294845.752050,13.000000,16.000000,3.000000,26.000000,46.000000,0.000000,-23.000000,16.000000
1294845.752058,-5.000000,-10.000000,-12.000000,-10.000000,-19.000000,-11.000000,14.000000,-5.000000
1294845.753633,5.000000,0.000000,5.000000,13.000000,-42.000000,1.000000,11.000000,10.000000
1294845.753662,-12.000000,-10.000000,2.000000,9.000000,8.000000,8.000000,-25.000000,-17.000000
1294845.754441,-7.000000,-4.000000,-9.000000,3.000000,-3.000000,-5.000000,-29.000000,-17.000000
1294845.754469,-1.000000,-19.000000,-13.000000,-27.000000,-17.000000,-5.000000,-11.000000,-2.000000
1294845.757934,14.000000,3.000000,9.000000,13.000000,0.000000,12.000000,14.000000,20.000000
1294845.757951,-1.000000,-11.000000,-10.000000,10.000000,-8.000000,3.000000,-9.000000,7.000000
1294845.765288,6.000000,17.000000,8.000000,-11.000000,2.000000,-2.000000,-23.000000,-11.000000
1294845.765299,-16.000000,-33.000000,-17.000000,-2.000000,30.000000,-6.000000,-33.000000,-10.000000
1294845.788228,-7.000000,21.000000,-6.000000,14.000000,33.000000,18.000000,2.000000,-6.000000
1294845.788247,34.000000,27.000000,40.000000,20.000000,-18.000000,16.000000,99.000000,36.000000
1294845.825341,-4.000000,-24.000000,-8.000000,3.000000,8.000000,-1.000000,-24.000000,-5.000000
1294845.825370,-8.000000,-7.000000,5.000000,-15.000000,-71.000000,-30.000000,-21.000000,-9.000000
1294845.826393,10.000000,25.000000,12.000000,52.000000,80.000000,42.000000,20.000000,2.000000
1294845.826401,-6.000000,-27.000000,-6.000000,-15.000000,-15.000000,-28.000000,-16.000000,-4.000000
1294845.827014,2.000000,-9.000000,-1.000000,33.000000,64.000000,11.000000,-11.000000,-5.000000
1294845.827022,-9.000000,7.000000,-14.000000,-11.000000,-16.000000,-13.000000,-16.000000,-17.000000
1294845.828357,10.000000,9.000000,13.000000,-13.000000,-39.000000,4.000000,62.000000,32.000000
1294845.828364,-4.000000,-3.000000,-6.000000,2.000000,5.000000,8.000000,-23.000000,-8.000000
1294845.829101,6.000000,7.000000,0.000000,5.000000,15.000000,10.000000,47.000000,32.000000
1294845.829108,-4.000000,-5.000000,-4.000000,-16.000000,-11.000000,-13.000000,-31.000000,-6.000000
1294845.862873,-3.000000,-5.000000,3.000000,13.000000,9.000000,-4.000000,-20.000000,0.000000
1294845.862883,-15.000000,-9.000000,-9.000000,-3.000000,13.000000,-7.000000,-36.000000,-17.000000
1294845.863315,9.000000,-5.000000,-5.000000,-2.000000,16.000000,17.000000,19.000000,20.000000
1294845.863345,-8.000000,-20.000000,-9.000000,-2.000000,-4.000000,-11.000000,-26.000000,-19.000000
1294845.865227,-2.000000,-4.000000,-5.000000,-30.000000,-57.000000,-12.000000,-21.000000,5.000000
1294845.865256,-1.000000,24.000000,9.000000,24.000000,29.000000,14.000000,29.000000,1.000000
1294845.870206,6.000000,-20.000000,-17.000000,6.000000,-9.000000,-27.000000,-13.000000,5.000000
1294845.870233,-4.000000,15.000000,10.000000,0.000000,19.000000,-4.000000,-6.000000,-10.000000
1294845.877893,-9.000000,-6.000000,-19.000000,-6.000000,3.000000,-5.000000,-23.000000,-12.000000
1294845.877921,-6.000000,-1.000000,1.000000,12.000000,10.000000,8.000000,-23.000000,-16.000000
1294845.900453,3.000000,-3.000000,11.000000,-1.000000,-30.000000,3.000000,35.000000,21.000000
1294845.900475,4.000000,-12.000000,-12.000000,-9.000000,-21.000000,-18.000000,6.000000,2.000000
1294845.915344,3.000000,52.000000,35.000000,26.000000,52.000000,36.000000,-13.000000,-4.000000
1294845.915354,0.000000,-13.000000,2.000000,23.000000,36.000000,8.000000,-10.000000,-1.000000
1294845.945340,-5.000000,-14.000000,-11.000000,-2.000000,6.000000,-3.000000,1.000000,-8.000000
1294845.945350,-8.000000,-6.000000,-14.000000,-12.000000,-24.000000,-6.000000,-34.000000,-1.000000
1294845.983250,12.000000,3.000000,3.000000,19.000000,34.000000,16.000000,77.000000,23.000000
1294845.983272,6.000000,7.000000,3.000000,-14.000000,-11.000000,1.000000,-13.000000,6.000000
1294845.984127,3.000000,9.000000,-5.000000,15.000000,17.000000,8.000000,18.000000,9.000000
1294845.984182,-7.000000,-9.000000,-9.000000,-8.000000,8.000000,11.000000,18.000000,-4.000000
1294845.985206,-9.000000,-26.000000,-11.000000,18.000000,38.000000,1.000000,-19.000000,-14.000000
1294845.985232,-2.000000,21.000000,10.000000,20.000000,-6.000000,12.000000,8.000000,-4.000000
1294845.985874,5.000000,10.000000,-11.000000,0.000000,-14.000000,7.000000,20.000000,13.000000
1294845.985884,0.000000,-28.000000,-1.000000,-3.000000,-12.000000,-21.000000,-30.000000,-10.000000
1294845.986820,-3.000000,-29.000000,-11.000000,-4.000000,22.000000,21.000000,-28.000000,-1.000000
1294845.986858,6.000000,12.000000,7.000000,10.000000,-9.000000,22.000000,84.000000,8.000000
1294845.990477,-3.000000,-8.000000,-11.000000,-27.000000,-21.000000,-15.000000,0.000000,-3.000000
1294845.990488,2.000000,4.000000,-8.000000,18.000000,33.000000,12.000000,18.000000,4.000000
1294846.027874,-5.000000,12.000000,6.000000,-10.000000,-6.000000,-12.000000,-68.000000,-9.000000
1294846.027885,-6.000000,-14.000000,-6.000000,-5.000000,-10.000000,16.000000,36.000000,1.000000
1294846.035553,8.000000,-12.000000,-7.000000,-1.000000,5.000000,-2.000000,6.000000,2.000000
1294846.035570,-6.000000,9.000000,-2.000000,-8.000000,2.000000,-5.000000,-26.000000,-14.000000
1294846.057885,9.000000,1.000000,-3.000000,23.000000,12.000000,1.000000,11.000000,13.000000
1294846.057904,-7.000000,-11.000000,0.000000,-5.000000,3.000000,-8.000000,-21.000000,-11.000000
1294846.065387,-2.000000,12.000000,-7.000000,-17.000000,17.000000,25.000000,7.000000,-4.000000
1294846.065397,0.000000,2.000000,4.000000,1.000000,-10.000000,-20.000000,2.000000,-1.000000
1294846.066465,6.000000,-17.000000,-15.000000,4.000000,-6.000000,-13.000000,44.000000,34.000000
1294846.066494,1.000000,34.000000,14.000000,-1.000000,-32.000000,-7.000000,-6.000000,2.000000
1294846.067192,-9.000000,-5.000000,-3.000000,7.000000,11.000000,-8.000000,-23.000000,-15.000000
1294846.067219,-9.000000,-32.000000,-24.000000,-6.000000,-15.000000,0.000000,-16.000000,-16.000000
1294846.080369,-3.000000,10.000000,-13.000000,-15.000000,0.000000,-24.000000,-32.000000,-19.000000
1294846.080387,-8.000000,-10.000000,1.000000,4.000000,-7.000000,2.000000,-13.000000,-6.000000
1294846.102842,2.000000,6.000000,-2.000000,-4.000000,-10.000000,1.000000,3.000000,0.000000
1294846.102873,7.000000,1.000000,23.000000,23.000000,22.000000,-11.000000,-1.000000,11.000000
1294846.103386,-6.000000,-12.000000,-10.000000,3.000000,13.000000,-11.000000,-34.000000,-8.000000
1294846.103413,11.000000,23.000000,15.000000,-18.000000,-3.000000,9.000000,8.000000,13.000000
1294846.104828,-6.000000,-3.000000,6.000000,8.000000,12.000000,-2.000000,24.000000,11.000000
1294846.104855,-4.000000,-22.000000,-7.000000,22.000000,62.000000,15.000000,13.000000,-1.000000
1294846.125533,-10.000000,-15.000000,-18.000000,-28.000000,-27.000000,-22.000000,-48.000000,-14.000000
1294846.125543,1.000000,13.000000,5.000000,21.000000,39.000000,16.000000,46.000000,7.000000
1294846.155275,-4.000000,-23.000000,-16.000000,-10.000000,-10.000000,-19.000000,-4.000000,-5.000000
1294846.155302,3.000000,15.000000,3.000000,13.000000,23.000000,2.000000,-7.000000,7.000000
1294846.163117,5.000000,-4.000000,2.000000,-14.000000,-58.000000,-3.000000,-1.000000,1.000000
1294846.163136,9.000000,39.000000,8.000000,6.000000,13.000000,6.000000,-4.000000,4.000000
1294846.185290,2.000000,3.000000,16.000000,-23.000000,-7.000000,3.000000,-23.000000,2.000000
1294846.185327,-3.000000,1.000000,-11.000000,0.000000,0.000000,-10.000000,-5.000000,-3.000000
1294846.185844,-4.000000,-16.000000,-11.000000,-2.000000,15.000000,-1.000000,-10.000000,-4.000000
1294846.185857,-7.000000,-18.000000,-9.000000,-12.000000,-7.000000,-9.000000,0.000000,0.000000
1294846.186952,23.000000,22.000000,23.000000,31.000000,15.000000,22.000000,-1.000000,4.000000
1294846.186961,4.000000,7.000000,-3.000000,-6.000000,-13.000000,-7.000000,8.000000,-1.000000
1294846.188017,-5.000000,-10.000000,13.000000,1.000000,9.000000,-1.000000,6.000000,10.000000
1294846.188029,-8.000000,-1.000000,-7.000000,-8.000000,-34.000000,-11.000000,-22.000000,-11.000000
1294846.222980,14.000000,-5.000000,10.000000,0.000000,15.000000,-9.000000,-16.000000,7.000000
1294846.223017,-4.000000,10.000000,-1.000000,-14.000000,-17.000000,-1.000000,-18.000000,-10.000000
1294846.267995,-17.000000,-28.000000,-29.000000,-3.000000,2.000000,-26.000000,3.000000,-15.000000
1294846.268047,31.000000,23.000000,43.000000,22.000000,29.000000,21.000000,72.000000,39.000000
1294846.268456,4.000000,2.000000,-18.000000,-13.000000,-60.000000,-24.000000,3.000000,5.000000
1294846.268489,-11.000000,3.000000,-10.000000,4.000000,19.000000,-13.000000,23.000000,-8.000000
1294846.269661,9.000000,-19.000000,-1.000000,-20.000000,-33.000000,-1.000000,10.000000,8.000000
1294846.269682,-6.000000,-5.000000,-6.000000,3.000000,18.000000,6.000000,-18.000000,-15.000000
1294846.270349,-7.000000,7.000000,-1.000000,6.000000,13.000000,4.000000,0.000000,-7.000000
1294846.270357,-12.000000,-13.000000,-12.000000,-15.000000,5.000000,-10.000000,-10.000000,-8.000000
1294846.271159,-7.000000,-7.000000,-4.000000,-2.000000,-18.000000,-3.000000,22.000000,-5.000000
1294846.271202,12.000000,17.000000,17.000000,25.000000,31.000000,33.000000,45.000000,11.000000
1294846.306118,17.000000,33.000000,16.000000,23.000000,39.000000,12.000000,1.000000,7.000000
1294846.306149,-7.000000,-11.000000,-8.000000,-16.000000,-4.000000,4.000000,18.000000,-14.000000
1294846.306707,4.000000,4.000000,7.000000,-2.000000,4.000000,11.000000,18.000000,14.000000
1294846.306716,-14.000000,-22.000000,-10.000000,22.000000,12.000000,-4.000000,-16.000000,-9.000000
1294846.308018,-4.000000,11.000000,-7.000000,-10.000000,-18.000000,-27.000000,-47.000000,-12.000000
1294846.308028,-11.000000,-12.000000,-9.000000,-17.000000,13.000000,6.000000,27.000000,-10.000000
1294846.312606,20.000000,17.000000,8.000000,4.000000,-17.000000,1.000000,-16.000000,3.000000
1294846.312633,-17.000000,-16.000000,-18.000000,-14.000000,-11.000000,-19.000000,-9.000000,-27.000000
1294846.335704,-14.000000,-14.000000,-16.000000,-3.000000,-8.000000,-6.000000,-2.000000,-8.000000
1294846.335737,-5.000000,-11.000000,-1.000000,5.000000,-12.000000,-10.000000,-16.000000,2.000000
1294846.336290,-6.000000,1.000000,-9.000000,-20.000000,4.000000,5.000000,42.000000,1.000000
1294846.336320,-4.000000,-13.000000,-9.000000,2.000000,-4.000000,-13.000000,0.000000,0.000000
1294846.343097,3.000000,7.000000,20.000000,25.000000,-14.000000,11.000000,-7.000000,0.000000
1294846.343107,-3.000000,5.000000,-2.000000,-26.000000,-31.000000,-9.000000,-23.000000,-5.000000
1294846.410447,-18.000000,-14.000000,-11.000000,-9.000000,-9.000000,-11.000000,0.000000,-20.000000
1294846.410463,0.000000,-18.000000,-7.000000,4.000000,-13.000000,-3.000000,-38.000000,-4.000000
1294846.425299,17.000000,13.000000,7.000000,9.000000,26.000000,20.000000,43.000000,14.000000
1294846.425308,-5.000000,0.000000,-5.000000,-1.000000,-18.000000,-2.000000,-14.000000,-2.000000
1294846.433095,1.000000,-10.000000,-3.000000,3.000000,6.000000,0.000000,-14.000000,-7.000000
1294846.433105,-10.000000,-6.000000,-12.000000,-17.000000,-17.000000,-32.000000,-27.000000,-8.000000
1294846.455753,-2.000000,2.000000,3.000000,10.000000,-12.000000,14.000000,4.000000,1.000000
1294846.455764,17.000000,21.000000,32.000000,19.000000,18.000000,26.000000,42.000000,24.000000
1294846.456342,13.000000,-3.000000,-5.000000,11.000000,-16.000000,-14.000000,-14.000000,6.000000
1294846.456351,-8.000000,1.000000,-1.000000,-4.000000,27.000000,0.000000,-16.000000,-4.000000
1294846.456890,-5.000000,-5.000000,-20.000000,-20.000000,-5.000000,-10.000000,-51.000000,-23.000000
1294846.456899,10.000000,15.000000,11.000000,8.000000,7.000000,22.000000,42.000000,20.000000
1294846.458331,-5.000000,-17.000000,-6.000000,-4.000000,-6.000000,-27.000000,-7.000000,-2.000000
1294846.458349,3.000000,4.000000,-10.000000,-9.000000,0.000000,5.000000,-10.000000,-6.000000
1294846.459029,5.000000,-6.000000,-7.000000,-7.000000,-1.000000,-6.000000,-14.000000,9.000000
1294846.459037,-3.000000,20.000000,30.000000,21.000000,-2.000000,18.000000,11.000000,5.000000
1294846.462586,-9.000000,-6.000000,-8.000000,5.000000,17.000000,-9.000000,-7.000000,-9.000000
1294846.462624,-11.000000,-3.000000,-11.000000,-24.000000,-35.000000,-29.000000,3.000000,-13.000000
1294846.470839,4.000000,-5.000000,7.000000,17.000000,64.000000,22.000000,-17.000000,3.000000
1294846.470868,-9.000000,-8.000000,-11.000000,-12.000000,-42.000000,-6.000000,-23.000000,-1.000000
1294846.478103,-7.000000,5.000000,6.000000,-21.000000,-20.000000,1.000000,31.000000,-8.000000
1294846.478114,-9.000000,-23.000000,-6.000000,11.000000,-1.000000,-15.000000,-31.000000,-10.000000
1294846.500359,-8.000000,-5.000000,-21.000000,7.000000,39.000000,-20.000000,-16.000000,1.000000
1294846.500377,16.000000,24.000000,11.000000,-13.000000,-24.000000,9.000000,20.000000,10.000000
1294846.538021,0.000000,9.000000,-4.000000,5.000000,14.000000,-3.000000,8.000000,6.000000
1294846.538038,-2.000000,-17.000000,1.000000,18.000000,13.000000,2.000000,-2.000000,-23.000000
1294846.560268,-7.000000,9.000000,0.000000,-46.000000,-47.000000,-13.000000,-17.000000,-4.000000
1294846.560279,4.000000,19.000000,10.000000,-2.000000,9.000000,-6.000000,16.000000,-2.000000
1294846.561253,-4.000000,-21.000000,-8.000000,-3.000000,1.000000,-2.000000,16.000000,8.000000
1294846.561274,-1.000000,12.000000,8.000000,-7.000000,-21.000000,-16.000000,-9.000000,-6.000000
1294846.561851,-5.000000,0.000000,9.000000,10.000000,18.000000,23.000000,-8.000000,-5.000000
1294846.561872,7.000000,-8.000000,-3.000000,-3.000000,-10.000000,-12.000000,3.000000,4.000000
1294846.582821,12.000000,13.000000,7.000000,9.000000,10.000000,12.000000,37.000000,14.000000
1294846.582850,-10.000000,2.000000,-8.000000,-18.000000,-28.000000,-1.000000,-9.000000,-8.000000
1294846.583254,12.000000,18.000000,12.000000,-17.000000,14.000000,18.000000,36.000000,13.000000
1294846.583265,-2.000000,-4.000000,-6.000000,-2.000000,-8.000000,-19.000000,-1.000000,-7.000000
1294846.583917,-17.000000,-40.000000,-22.000000,6.000000,-7.000000,-8.000000,-80.000000,-23.000000
1294846.583926,31.000000,62.000000,51.000000,21.000000,26.000000,14.000000,0.000000,7.000000
1294846.585535,5.000000,0.000000,-8.000000,4.000000,7.000000,-3.000000,30.000000,19.000000
1294846.585543,-12.000000,-20.000000,-8.000000,-26.000000,-29.000000,-11.000000,-17.000000,-9.000000
1294846.590352,-5.000000,-5.000000,-10.000000,3.000000,4.000000,-12.000000,-38.000000,-4.000000
1294846.590361,0.000000,-12.000000,-5.000000,6.000000,13.000000,18.000000,-1.000000,-9.000000
1294846.597837,11.000000,10.000000,4.000000,-3.000000,-5.000000,-11.000000,17.000000,15.000000
1294846.597854,-2.000000,-10.000000,2.000000,-6.000000,-16.000000,-5.000000,-6.000000,2.000000
1294846.612827,-4.000000,8.000000,-3.000000,3.000000,14.000000,-1.000000,-8.000000,-4.000000
1294846.612836,-16.000000,-12.000000,-10.000000,15.000000,32.000000,-1.000000,-16.000000,-16.000000
1294846.635478,1.000000,-9.000000,-6.000000,-21.000000,-66.000000,-9.000000,-9.000000,-5.000000
1294846.635502,23.000000,36.000000,38.000000,15.000000,15.000000,20.000000,32.000000,14.000000
1294846.650236,-5.000000,-5.000000,-10.000000,-9.000000,-10.000000,-2.000000,20.000000,-5.000000
1294846.650246,-17.000000,-22.000000,-8.000000,-1.000000,-6.000000,-18.000000,-15.000000,-9.000000
1294846.695482,2.000000,-9.000000,0.000000,10.000000,3.000000,-3.000000,-31.000000,2.000000
1294846.695518,-11.000000,11.000000,-24.000000,-20.000000,-12.000000,-15.000000,-41.000000,-31.000000
1294846.702847,3.000000,6.000000,25.000000,-7.000000,-40.000000,10.000000,57.000000,4.000000
1294846.702859,7.000000,-3.000000,4.000000,18.000000,17.000000,22.000000,-20.000000,9.000000
1294846.733211,-22.000000,-22.000000,-30.000000,-17.000000,-16.000000,-24.000000,-32.000000,-19.000000
1294846.733226,19.000000,50.000000,28.000000,-20.000000,-11.000000,6.000000,19.000000,12.000000
1294846.740399,9.000000,-15.000000,-6.000000,19.000000,0.000000,8.000000,15.000000,8.000000
1294846.740409,-12.000000,-13.000000,-13.000000,-10.000000,-22.000000,-20.000000,-14.000000,-11.000000
1294846.778148,-5.000000,-1.000000,-10.000000,0.000000,20.000000,-2.000000,-17.000000,-13.000000
1294846.778161,-2.000000,-7.000000,0.000000,-10.000000,-13.000000,-13.000000,-8.000000,7.000000
1294846.815749,-14.000000,-7.000000,-17.000000,-7.000000,0.000000,-22.000000,-29.000000,-16.000000
1294846.815772,-7.000000,1.000000,5.000000,1.000000,-10.000000,-11.000000,-18.000000,-9.000000
1294846.816247,10.000000,14.000000,15.000000,-26.000000,-21.000000,-5.000000,8.000000,-3.000000
1294846.816259,3.000000,-1.000000,-7.000000,16.000000,3.000000,6.000000,-3.000000,16.000000
1294846.816729,-6.000000,4.000000,2.000000,-4.000000,-19.000000,-8.000000,11.000000,-9.000000
1294846.816736,-15.000000,-38.000000,-26.000000,-24.000000,-17.000000,-21.000000,-31.000000,-7.000000
1294846.817105,-15.000000,-15.000000,-10.000000,-7.000000,8.000000,-3.000000,0.000000,-4.000000
1294846.817117,-8.000000,-20.000000,-9.000000,2.000000,-9.000000,-9.000000,-25.000000,-17.000000
1294846.818295,4.000000,-21.000000,-10.000000,-3.000000,-5.000000,-5.000000,13.000000,5.000000
1294846.818303,-8.000000,-8.000000,2.000000,16.000000,-7.000000,-1.000000,3.000000,-9.000000
1294846.819083,-5.000000,-3.000000,1.000000,-20.000000,-31.000000,5.000000,7.000000,8.000000
1294846.819091,9.000000,6.000000,9.000000,0.000000,2.000000,-8.000000,-14.000000,-1.000000
1294846.822668,-3.000000,4.000000,9.000000,18.000000,37.000000,37.000000,-38.000000,-15.000000
1294846.822676,3.000000,7.000000,1.000000,25.000000,42.000000,19.000000,28.000000,10.000000
1294846.837925,1.000000,10.000000,7.000000,-13.000000,-26.000000,-16.000000,1.000000,-15.000000
1294846.837936,5.000000,-13.000000,7.000000,11.000000,-14.000000,-9.000000,-42.000000,1.000000
1294846.868169,-8.000000,-7.000000,-7.000000,10.000000,21.000000,20.000000,6.000000,-18.000000
1294846.868179,7.000000,8.000000,6.000000,-8.000000,-14.000000,-7.000000,38.000000,14.000000
1294846.875403,-8.000000,-1.000000,-4.000000,-15.000000,-31.000000,-7.000000,-15.000000,-15.000000
1294846.875431,-14.000000,-20.000000,-10.000000,16.000000,42.000000,2.000000,-103.000000,-47.000000
1294846.897945,18.000000,21.000000,5.000000,22.000000,21.000000,10.000000,11.000000,31.000000
1294846.897978,7.000000,12.000000,0.000000,-12.000000,-22.000000,2.000000,22.000000,2.000000
1294846.913140,-9.000000,-26.000000,-7.000000,-16.000000,10.000000,6.000000,-8.000000,-9.000000
1294846.913151,-2.000000,11.000000,16.000000,0.000000,-22.000000,0.000000,-8.000000,-2.000000
1294846.935963,8.000000,2.000000,-4.000000,19.000000,18.000000,-13.000000,-18.000000,5.000000
1294846.935986,-6.000000,-18.000000,-4.000000,4.000000,-9.000000,7.000000,-7.000000,10.000000
1294846.950844,-1.000000,8.000000,2.000000,-15.000000,-3.000000,16.000000,-29.000000,-5.000000
1294846.950886,6.000000,16.000000,20.000000,14.000000,-7.000000,11.000000,37.000000,9.000000
1294846.973063,-8.000000,-3.000000,-4.000000,-5.000000,-2.000000,-7.000000,-2.000000,-11.000000
1294846.973078,-3.000000,-29.000000,-27.000000,-1.000000,12.000000,-7.000000,-14.000000,-4.000000
1294846.980905,2.000000,24.000000,4.000000,-40.000000,-57.000000,11.000000,-2.000000,-1.000000
1294846.980920,15.000000,-6.000000,-14.000000,5.000000,7.000000,-1.000000,20.000000,12.000000
1294846.987939,-7.000000,-12.000000,12.000000,9.000000,20.000000,8.000000,5.000000,7.000000
1294846.987967,-7.000000,-7.000000,-10.000000,-17.000000,-20.000000,-11.000000,42.000000,-5.000000
1294846.995263,4.000000,-6.000000,3.000000,5.000000,-16.000000,12.000000,18.000000,15.000000
1294846.995272,-6.000000,0.000000,-8.000000,1.000000,17.000000,1.000000,-47.000000,-11.000000
1294847.010312,5.000000,-7.000000,6.000000,7.000000,7.000000,0.000000,5.000000,-3.000000
1294847.010322,6.000000,15.000000,1.000000,-6.000000,8.000000,4.000000,23.000000,9.000000
1294847.017944,5.000000,22.000000,8.000000,22.000000,32.000000,12.000000,-1.000000,3.000000
1294847.017964,-7.000000,-15.000000,-4.000000,-1.000000,4.000000,-16.000000,-10.000000,-6.000000
1294847.025282,2.000000,1.000000,-6.000000,6.000000,-20.000000,-12.000000,-13.000000,8.000000
1294847.025291,-4.000000,-9.000000,0.000000,-5.000000,8.000000,3.000000,20.000000,10.000000
1294847.040570,-5.000000,-5.000000,2.000000,-6.000000,-23.000000,-4.000000,-20.000000,2.000000
1294847.040598,-1.000000,15.000000,3.000000,25.000000,50.000000,7.000000,-19.000000,-4.000000
1294847.056304,-15.000000,-24.000000,-8.000000,-25.000000,-12.000000,-8.000000,-25.000000,-16.000000
1294847.056332,6.000000,17.000000,6.000000,10.000000,0.000000,9.000000,61.000000,14.000000
1294847.056733,-1.000000,1.000000,3.000000,36.000000,9.000000,6.000000,1.000000,-5.000000
1294847.056754,5.000000,13.000000,3.000000,-29.000000,-37.000000,-2.000000,41.000000,21.000000
1294847.057693,-1.000000,3.000000,7.000000,33.000000,40.000000,12.000000,-23.000000,-4.000000
1294847.057700,-5.000000,-19.000000,-3.000000,-16.000000,-1.000000,-1.000000,22.000000,-7.000000
1294847.058562,-1.000000,19.000000,11.000000,8.000000,13.000000,4.000000,6.000000,-2.000000
1294847.058589,-9.000000,1.000000,-7.000000,-10.000000,-25.000000,-18.000000,-30.000000,-15.000000
1294847.100511,1.000000,-5.000000,-3.000000,5.000000,28.000000,-5.000000,11.000000,-3.000000
1294847.100531,-6.000000,-3.000000,-6.000000,-8.000000,-14.000000,2.000000,-16.000000,-8.000000
1294847.138191,1.000000,-4.000000,2.000000,-5.000000,-9.000000,8.000000,19.000000,-2.000000
1294847.138221,-1.000000,2.000000,1.000000,31.000000,57.000000,6.000000,-13.000000,4.000000
1294847.145595,-4.000000,18.000000,6.000000,7.000000,6.000000,4.000000,-5.000000,-3.000000
1294847.145625,4.000000,-2.000000,-9.000000,0.000000,13.000000,0.000000,73.000000,19.000000
1294847.146783,0.000000,-13.000000,-2.000000,-20.000000,-14.000000,-6.000000,-10.000000,2.000000
1294847.146816,-2.000000,7.000000,0.000000,7.000000,17.000000,12.000000,11.000000,-3.000000
1294847.147719,-4.000000,-15.000000,-11.000000,0.000000,15.000000,-6.000000,-10.000000,-3.000000
1294847.147747,-9.000000,-5.000000,-7.000000,-4.000000,-8.000000,-9.000000,-15.000000,-10.000000
1294847.148575,-6.000000,-14.000000,-7.000000,-14.000000,-26.000000,-30.000000,-17.000000,-8.000000
1294847.148583,-16.000000,-7.000000,-1.000000,7.000000,-2.000000,18.000000,-5.000000,-17.000000
1294847.168405,-9.000000,-18.000000,-3.000000,2.000000,4.000000,-7.000000,-30.000000,-12.000000
1294847.168428,1.000000,-10.000000,15.000000,-10.000000,1.000000,-12.000000,-14.000000,3.000000
1294847.169090,1.000000,7.000000,-4.000000,-9.000000,-4.000000,9.000000,-20.000000,-5.000000
1294847.169098,-8.000000,-7.000000,-8.000000,-12.000000,-24.000000,-13.000000,10.000000,-8.000000
1294847.190560,-8.000000,-11.000000,2.000000,-10.000000,7.000000,-2.000000,20.000000,1.000000
1294847.190571,12.000000,4.000000,1.000000,24.000000,24.000000,9.000000,-12.000000,5.000000
1294847.198141,-4.000000,7.000000,-8.000000,-6.000000,-22.000000,7.000000,37.000000,-1.000000
1294847.198171,-1.000000,-16.000000,3.000000,-1.000000,-2.000000,-15.000000,-10.000000,14.000000
1294847.212798,-7.000000,-20.000000,-22.000000,0.000000,7.000000,-6.000000,12.000000,-4.000000
1294847.212809,11.000000,14.000000,18.000000,-24.000000,-63.000000,-2.000000,15.000000,16.000000
1294847.228138,5.000000,-7.000000,-16.000000,26.000000,28.000000,6.000000,-3.000000,2.000000
1294847.228151,-11.000000,-3.000000,9.000000,1.000000,1.000000,-8.000000,-20.000000,-15.000000
1294847.257655,8.000000,12.000000,-7.000000,-3.000000,-4.000000,-1.000000,-25.000000,10.000000
1294847.257665,-5.000000,-15.000000,-14.000000,-9.000000,-3.000000,-4.000000,7.000000,-7.000000
1294847.265169,2.000000,13.000000,26.000000,24.000000,57.000000,5.000000,14.000000,2.000000
1294847.265179,-4.000000,-18.000000,-13.000000,-17.000000,-14.000000,1.000000,0.000000,-12.000000
1294847.287834,12.000000,-5.000000,-7.000000,12.000000,15.000000,15.000000,-13.000000,11.000000
1294847.287846,-1.000000,-2.000000,7.000000,5.000000,6.000000,-5.000000,-34.000000,-4.000000
1294847.288235,4.000000,5.000000,4.000000,19.000000,49.000000,29.000000,16.000000,6.000000
1294847.288246,1.000000,3.000000,5.000000,-33.000000,-93.000000,-12.000000,-1.000000,11.000000
1294847.289541,13.000000,15.000000,5.000000,-26.000000,-16.000000,-4.000000,5.000000,10.000000
1294847.289551,-9.000000,-26.000000,-18.000000,-8.000000,-41.000000,-16.000000,-10.000000,-12.000000
1294847.291198,-3.000000,-3.000000,-7.000000,-11.000000,-28.000000,-11.000000,-15.000000,-4.000000
1294847.291209,-3.000000,-13.000000,-7.000000,0.000000,-14.000000,-16.000000,7.000000,8.000000
1294847.296127,1.000000,4.000000,10.000000,15.000000,52.000000,15.000000,17.000000,2.000000
1294847.296138,12.000000,28.000000,3.000000,-6.000000,-51.000000,-8.000000,-22.000000,1.000000
1294847.302755,-7.000000,-11.000000,-10.000000,1.000000,11.000000,-4.000000,7.000000,-8.000000
1294847.302774,13.000000,-14.000000,-9.000000,-8.000000,-15.000000,3.000000,33.000000,13.000000
1294847.355300,-1.000000,15.000000,5.000000,11.000000,35.000000,13.000000,-45.000000,-17.000000
1294847.355311,-8.000000,-17.000000,-15.000000,-6.000000,-10.000000,-2.000000,66.000000,18.000000
1294847.377904,-10.000000,-1.000000,14.000000,-17.000000,6.000000,-6.000000,-17.000000,-11.000000
1294847.377916,5.000000,31.000000,5.000000,-6.000000,-42.000000,-10.000000,-73.000000,-6.000000
1294847.378994,-3.000000,-10.000000,-4.000000,-1.000000,-8.000000,-28.000000,-9.000000,-4.000000
1294847.379003,2.000000,-12.000000,-1.000000,8.000000,14.000000,-2.000000,11.000000,10.000000
1294847.379608,7.000000,25.000000,14.000000,28.000000,28.000000,32.000000,16.000000,8.000000
1294847.379621,-17.000000,-19.000000,-26.000000,-25.000000,-41.000000,-19.000000,-41.000000,-16.000000
1294847.380879,0.000000,-4.000000,11.000000,21.000000,39.000000,11.000000,-5.000000,0.000000
1294847.380887,4.000000,1.000000,-3.000000,5.000000,7.000000,7.000000,29.000000,1.000000
1294847.415359,1.000000,4.000000,-4.000000,-15.000000,-18.000000,4.000000,17.000000,4.000000
1294847.415371,-9.000000,-10.000000,-2.000000,-6.000000,-19.000000,-1.000000,2.000000,-7.000000
1294847.416451,-4.000000,-7.000000,-9.000000,-4.000000,-4.000000,-14.000000,-5.000000,-8.000000
1294847.416465,-1.000000,4.000000,-4.000000,-9.000000,4.000000,8.000000,35.000000,5.000000
1294847.417016,8.000000,-2.000000,13.000000,14.000000,11.000000,27.000000,28.000000,8.000000
1294847.417026,-3.000000,-5.000000,-5.000000,5.000000,-30.000000,-32.000000,-12.000000,-1.000000
1294847.418658,-8.000000,4.000000,-6.000000,-28.000000,-4.000000,10.000000,-10.000000,-9.000000
1294847.418668,1.000000,1.000000,0.000000,20.000000,46.000000,13.000000,66.000000,15.000000
1294847.422794,-4.000000,-15.000000,-6.000000,-21.000000,-52.000000,-11.000000,3.000000,4.000000
1294847.422804,5.000000,4.000000,0.000000,6.000000,-4.000000,-3.000000,2.000000,-1.000000
1294847.452857,-5.000000,0.000000,-1.000000,-32.000000,-63.000000,-24.000000,-6.000000,-7.000000
1294847.452868,-4.000000,-7.000000,-3.000000,13.000000,34.000000,8.000000,-8.000000,-6.000000
1294847.468169,-6.000000,0.000000,-3.000000,-8.000000,-14.000000,-9.000000,-15.000000,-15.000000
1294847.468182,11.000000,17.000000,-3.000000,18.000000,11.000000,13.000000,19.000000,22.000000
1294847.490501,-14.000000,-18.000000,-1.000000,-18.000000,-30.000000,-13.000000,-27.000000,-22.000000
1294847.490513,3.000000,-11.000000,-7.000000,3.000000,-9.000000,2.000000,10.000000,22.000000
1294847.505446,24.000000,30.000000,7.000000,0.000000,-13.000000,0.000000,33.000000,11.000000
1294847.505461,3.000000,-5.000000,-5.000000,-11.000000,-33.000000,15.000000,-8.000000,8.000000
1294847.528102,-4.000000,-12.000000,-6.000000,-5.000000,2.000000,0.000000,72.000000,6.000000
1294847.528159,-1.000000,11.000000,11.000000,4.000000,25.000000,7.000000,-13.000000,-7.000000
1294847.535252,-21.000000,-47.000000,-24.000000,-12.000000,-13.000000,-8.000000,-33.000000,-17.000000
1294847.535270,12.000000,24.000000,17.000000,-13.000000,-36.000000,-12.000000,-23.000000,-8.000000
1294847.565411,12.000000,20.000000,3.000000,34.000000,34.000000,20.000000,8.000000,9.000000
1294847.565429,4.000000,-8.000000,-17.000000,1.000000,3.000000,-4.000000,-16.000000,12.000000
1294847.566401,10.000000,-7.000000,-10.000000,-8.000000,-6.000000,-6.000000,33.000000,15.000000
1294847.566409,3.000000,13.000000,4.000000,-9.000000,-12.000000,-9.000000,-10.000000,0.000000
1294847.567638,3.000000,-5.000000,-5.000000,10.000000,0.000000,11.000000,42.000000,3.000000
1294847.567646,10.000000,17.000000,2.000000,4.000000,-3.000000,-4.000000,-8.000000,-7.000000
1294847.569226,-1.000000,11.000000,8.000000,-18.000000,-53.000000,8.000000,19.000000,7.000000
1294847.569234,2.000000,14.000000,1.000000,7.000000,19.000000,-14.000000,54.000000,0.000000
1294847.573519,3.000000,-9.000000,-5.000000,-9.000000,-24.000000,-8.000000,-37.000000,-4.000000
1294847.573529,-11.000000,3.000000,-7.000000,-16.000000,-13.000000,-8.000000,-10.000000,-14.000000
1294847.580432,-1.000000,-2.000000,-8.000000,-4.000000,-24.000000,-11.000000,-25.000000,-6.000000
1294847.580443,-8.000000,-8.000000,-2.000000,-28.000000,-26.000000,-3.000000,13.000000,-4.000000
1294847.610725,19.000000,21.000000,9.000000,45.000000,27.000000,25.000000,45.000000,25.000000
1294847.610756,-6.000000,-17.000000,-11.000000,-20.000000,-23.000000,-27.000000,-40.000000,-11.000000
1294847.611184,-5.000000,-17.000000,-5.000000,-2.000000,8.000000,-2.000000,-6.000000,0.000000
1294847.611211,0.000000,7.000000,-18.000000,-11.000000,-4.000000,6.000000,30.000000,11.000000
1294847.612297,22.000000,39.000000,58.000000,18.000000,2.000000,5.000000,38.000000,18.000000
1294847.612305,4.000000,-6.000000,-12.000000,-4.000000,-2.000000,2.000000,0.000000,4.000000
1294847.647803,-6.000000,-17.000000,-16.000000,-8.000000,-3.000000,-10.000000,-7.000000,2.000000
1294847.647813,-6.000000,3.000000,-13.000000,12.000000,-10.000000,-5.000000,-6.000000,-16.000000
1294847.648817,-1.000000,0.000000,6.000000,-13.000000,-4.000000,7.000000,-4.000000,4.000000
1294847.648825,-10.000000,-13.000000,-3.000000,11.000000,5.000000,4.000000,-32.000000,-21.000000
1294847.649750,-17.000000,-17.000000,-19.000000,-8.000000,4.000000,-26.000000,-23.000000,-23.000000
1294847.649758,2.000000,8.000000,-9.000000,-10.000000,2.000000,-13.000000,34.000000,15.000000
1294847.655947,14.000000,11.000000,27.000000,22.000000,11.000000,37.000000,40.000000,20.000000
1294847.655956,-1.000000,-8.000000,-13.000000,-8.000000,-15.000000,-11.000000,-21.000000,-11.000000
1294847.663486,2.000000,7.000000,-3.000000,-11.000000,-14.000000,-5.000000,15.000000,-5.000000
1294847.663572,-11.000000,-31.000000,-13.000000,-23.000000,-18.000000,-25.000000,-53.000000,-9.000000
1294847.700383,5.000000,37.000000,31.000000,45.000000,81.000000,37.000000,25.000000,0.000000
1294847.700393,12.000000,4.000000,9.000000,15.000000,26.000000,20.000000,34.000000,22.000000
1294847.723232,0.000000,-7.000000,-7.000000,-18.000000,-19.000000,-21.000000,-13.000000,-3.000000
1294847.723252,-4.000000,-11.000000,-3.000000,-45.000000,-64.000000,-18.000000,-36.000000,-11.000000
1294847.730836,9.000000,8.000000,7.000000,0.000000,-37.000000,2.000000,44.000000,12.000000
1294847.730864,-24.000000,-20.000000,-16.000000,8.000000,23.000000,-16.000000,-32.000000,-22.000000
1294847.731707,2.000000,-15.000000,-6.000000,-43.000000,-88.000000,-15.000000,8.000000,-9.000000
1294847.731727,36.000000,32.000000,18.000000,60.000000,71.000000,33.000000,50.000000,42.000000
1294847.732980,-3.000000,3.000000,0.000000,-1.000000,22.000000,-2.000000,-14.000000,-8.000000
1294847.732995,-13.000000,-16.000000,-8.000000,-7.000000,-24.000000,-23.000000,-35.000000,-17.000000
1294847.733786,-12.000000,-13.000000,-8.000000,-17.000000,-28.000000,-18.000000,-34.000000,-15.000000
1294847.733803,-6.000000,1.000000,7.000000,20.000000,53.000000,29.000000,40.000000,1.000000
1294847.767877,11.000000,-2.000000,5.000000,6.000000,-5.000000,-8.000000,8.000000,16.000000
1294847.767887,-12.000000,-16.000000,-17.000000,-13.000000,4.000000,2.000000,-22.000000,-6.000000
1294847.768778,10.000000,4.000000,31.000000,38.000000,41.000000,13.000000,10.000000,9.000000
1294847.768787,-3.000000,-19.000000,-13.000000,-3.000000,4.000000,-3.000000,13.000000,-1.000000
1294847.769841,-4.000000,6.000000,7.000000,19.000000,40.000000,5.000000,-19.000000,-8.000000
1294847.769849,4.000000,8.000000,7.000000,17.000000,19.000000,20.000000,0.000000,6.000000
1294847.813285,-19.000000,-15.000000,-20.000000,-5.000000,12.000000,-15.000000,-19.000000,-15.000000
1294847.813401,3.000000,6.000000,15.000000,-4.000000,-21.000000,-22.000000,-37.000000,-10.000000
1294847.813570,-10.000000,7.000000,-11.000000,-1.000000,21.000000,22.000000,22.000000,-15.000000
1294847.813578,5.000000,-13.000000,3.000000,16.000000,20.000000,27.000000,-21.000000,2.000000
1294847.814380,4.000000,1.000000,-11.000000,-11.000000,-32.000000,-8.000000,0.000000,-2.000000
1294847.814388,-18.000000,-15.000000,-5.000000,30.000000,42.000000,-2.000000,-64.000000,-41.000000
1294847.815493,-2.000000,-5.000000,-1.000000,-22.000000,5.000000,-1.000000,-47.000000,-18.000000
1294847.815502,24.000000,28.000000,4.000000,34.000000,3.000000,31.000000,78.000000,49.000000
1294847.827781,5.000000,11.000000,30.000000,1.000000,-7.000000,-14.000000,0.000000,8.000000
1294847.827798,1.000000,5.000000,-11.000000,-6.000000,34.000000,22.000000,21.000000,0.000000
1294847.857949,1.000000,6.000000,12.000000,17.000000,38.000000,24.000000,-18.000000,-3.000000
1294847.857981,15.000000,0.000000,-1.000000,-2.000000,-7.000000,1.000000,21.000000,33.000000
1294847.872820,-1.000000,9.000000,3.000000,-4.000000,-6.000000,-7.000000,35.000000,-6.000000
1294847.872844,2.000000,-12.000000,-12.000000,-10.000000,-12.000000,-11.000000,-79.000000,-19.000000
1294847.888035,-7.000000,-20.000000,1.000000,-31.000000,-30.000000,-2.000000,-23.000000,-16.000000
1294847.888047,1.000000,4.000000,-9.000000,3.000000,26.000000,6.000000,27.000000,16.000000
1294847.888550,-5.000000,-7.000000,-3.000000,-6.000000,-12.000000,-7.000000,-42.000000,-6.000000
1294847.888559,-5.000000,-6.000000,3.000000,3.000000,-5.000000,-22.000000,-47.000000,-8.000000
1294847.889543,-1.000000,-7.000000,9.000000,-45.000000,-33.000000,2.000000,54.000000,-1.000000
1294847.889551,1.000000,-2.000000,-9.000000,-6.000000,0.000000,-13.000000,-30.000000,10.000000
1294847.890333,-10.000000,-1.000000,3.000000,24.000000,27.000000,20.000000,28.000000,4.000000
1294847.890341,0.000000,-6.000000,-6.000000,-9.000000,-24.000000,-37.000000,-63.000000,-15.000000
1294847.925698,-1.000000,14.000000,0.000000,-11.000000,8.000000,38.000000,35.000000,3.000000
1294847.925727,20.000000,22.000000,14.000000,26.000000,31.000000,10.000000,47.000000,25.000000
1294847.933105,2.000000,-29.000000,-13.000000,-5.000000,8.000000,-17.000000,-32.000000,-10.000000
1294847.933116,-2.000000,-3.000000,-7.000000,-11.000000,3.000000,4.000000,-6.000000,10.000000
1294847.970313,0.000000,11.000000,16.000000,0.000000,13.000000,0.000000,-5.000000,-8.000000
1294847.970337,0.000000,4.000000,6.000000,9.000000,-17.000000,5.000000,-2.000000,-1.000000
1294847.978166,-4.000000,-4.000000,-5.000000,-3.000000,-6.000000,-7.000000,2.000000,-4.000000
1294847.978179,-8.000000,9.000000,-1.000000,-11.000000,11.000000,-3.000000,-4.000000,-8.000000
1294848.000194,3.000000,8.000000,-1.000000,26.000000,-5.000000,7.000000,-2.000000,2.000000
1294848.000215,1.000000,3.000000,6.000000,-13.000000,-10.000000,9.000000,8.000000,6.000000
1294848.000702,-4.000000,6.000000,4.000000,-9.000000,10.000000,1.000000,9.000000,-4.000000
1294848.000713,-1.000000,-7.000000,-3.000000,-12.000000,-30.000000,-17.000000,6.000000,-1.000000
1294848.001940,-9.000000,2.000000,9.000000,0.000000,24.000000,8.000000,-21.000000,-13.000000
1294848.001955,-2.000000,2.000000,10.000000,-10.000000,-15.000000,-8.000000,-1.000000,-3.000000
1294848.002513,-7.000000,-7.000000,0.000000,2.000000,6.000000,6.000000,-11.000000,-3.000000
1294848.002521,-6.000000,-16.000000,-6.000000,-7.000000,-8.000000,-11.000000,1.000000,-5.000000
1294848.004367,-2.000000,0.000000,-7.000000,-3.000000,-3.000000,-6.000000,-12.000000,-3.000000
1294848.004380,-2.000000,1.000000,5.000000,-15.000000,-25.000000,-10.000000,-13.000000,-13.000000
1294848.007858,-7.000000,-10.000000,-8.000000,1.000000,11.000000,16.000000,1.000000,4.000000
1294848.007869,7.000000,-5.000000,5.000000,-20.000000,-45.000000,-26.000000,22.000000,11.000000
1294848.060474,1.000000,7.000000,-1.000000,24.000000,35.000000,1.000000,-23.000000,-8.000000
1294848.060490,-6.000000,-11.000000,-7.000000,10.000000,27.000000,-4.000000,-1.000000,-12.000000
1294848.075534,-6.000000,-6.000000,-3.000000,-16.000000,-18.000000,-21.000000,-84.000000,-12.000000
1294848.075545,-14.000000,-3.000000,-3.000000,-19.000000,-2.000000,-4.000000,12.000000,-23.000000
1294848.090265,8.000000,-11.000000,-3.000000,2.000000,-35.000000,6.000000,39.000000,15.000000
1294848.090287,10.000000,-2.000000,10.000000,1.000000,-10.000000,9.000000,8.000000,12.000000
1294848.097948,-5.000000,-6.000000,-8.000000,-10.000000,-1.000000,-10.000000,-23.000000,-8.000000
1294848.097958,5.000000,0.000000,2.000000,11.000000,19.000000,-1.000000,-10.000000,-2.000000
1294848.098809,-1.000000,4.000000,-2.000000,5.000000,26.000000,2.000000,6.000000,-3.000000
1294848.098829,8.000000,2.000000,16.000000,8.000000,8.000000,-3.000000,18.000000,16.000000
1294848.100988,14.000000,14.000000,12.000000,30.000000,72.000000,23.000000,-2.000000,7.000000
1294848.100997,0.000000,-3.000000,-4.000000,-8.000000,-12.000000,-10.000000,-8.000000,-7.000000
1294848.105183,-7.000000,-15.000000,-12.000000,4.000000,17.000000,-5.000000,-7.000000,-7.000000
1294848.105191,-10.000000,3.000000,2.000000,-27.000000,-32.000000,2.000000,-15.000000,-7.000000
1294848.128176,18.000000,26.000000,5.000000,-9.000000,-2.000000,9.000000,0.000000,17.000000
1294848.128206,9.000000,0.000000,10.000000,15.000000,28.000000,18.000000,55.000000,18.000000
1294848.135308,-3.000000,-9.000000,-11.000000,0.000000,-10.000000,-11.000000,-4.000000,-3.000000
1294848.135332,-10.000000,-8.000000,-27.000000,-15.000000,-8.000000,-6.000000,-16.000000,-11.000000
1294848.165659,14.000000,11.000000,21.000000,-15.000000,-31.000000,3.000000,69.000000,21.000000
1294848.165671,-11.000000,-26.000000,-25.000000,2.000000,10.000000,-6.000000,-28.000000,-13.000000
1294848.187822,-13.000000,8.000000,6.000000,-11.000000,-7.000000,-8.000000,-21.000000,-28.000000
1294848.187832,11.000000,6.000000,0.000000,-12.000000,-23.000000,5.000000,-24.000000,13.000000
1294848.203510,5.000000,-4.000000,4.000000,12.000000,32.000000,31.000000,45.000000,26.000000
1294848.203521,2.000000,5.000000,5.000000,4.000000,-20.000000,-1.000000,40.000000,10.000000
1294848.203990,-16.000000,-14.000000,-21.000000,-21.000000,-15.000000,6.000000,-13.000000,-12.000000
1294848.204003,4.000000,-17.000000,-1.000000,6.000000,17.000000,-3.000000,-6.000000,0.000000
1294848.205320,-4.000000,11.000000,2.000000,0.000000,1.000000,1.000000,8.000000,-10.000000
1294848.205335,-3.000000,4.000000,-2.000000,-12.000000,-44.000000,-11.000000,-8.000000,-7.000000
1294848.205860,-9.000000,-9.000000,4.000000,21.000000,31.000000,6.000000,-11.000000,3.000000
1294848.205870,0.000000,6.000000,8.000000,0.000000,-13.000000,-19.000000,-15.000000,-13.000000
1294848.206654,-6.000000,-34.000000,-12.000000,-1.000000,-7.000000,-30.000000,-23.000000,-15.000000
1294848.206664,-16.000000,-13.000000,-18.000000,-8.000000,0.000000,-7.000000,-14.000000,-9.000000
1294848.225829,-4.000000,6.000000,5.000000,-19.000000,-13.000000,-15.000000,-37.000000,-15.000000
1294848.225840,5.000000,-8.000000,7.000000,6.000000,1.000000,28.000000,-20.000000,7.000000
1294848.247937,-1.000000,-3.000000,-5.000000,-13.000000,-11.000000,4.000000,42.000000,4.000000
1294848.247961,-16.000000,-30.000000,-27.000000,-5.000000,9.000000,-7.000000,16.000000,6.000000
1294848.278030,10.000000,24.000000,31.000000,27.000000,21.000000,-16.000000,-19.000000,-10.000000
1294848.278041,8.000000,-2.000000,3.000000,-2.000000,21.000000,34.000000,17.000000,16.000000
1294848.285336,-3.000000,8.000000,-4.000000,5.000000,6.000000,-3.000000,-11.000000,-4.000000
1294848.285358,-9.000000,1.000000,3.000000,-7.000000,-26.000000,-18.000000,-28.000000,-13.000000
1294848.322675,3.000000,0.000000,2.000000,9.000000,18.000000,8.000000,21.000000,2.000000
1294848.322685,3.000000,-3.000000,-8.000000,11.000000,21.000000,4.000000,-14.000000,8.000000
1294848.323107,0.000000,10.000000,10.000000,-7.000000,-17.000000,-15.000000,13.000000,-6.000000
1294848.323119,12.000000,-6.000000,0.000000,11.000000,-8.000000,11.000000,11.000000,16.000000
1294848.324390,23.000000,33.000000,35.000000,30.000000,31.000000,30.000000,16.000000,22.000000
1294848.324399,-1.000000,-6.000000,1.000000,5.000000,16.000000,-6.000000,-8.000000,-5.000000
1294848.325798,16.000000,4.000000,10.000000,19.000000,71.000000,33.000000,13.000000,11.000000
1294848.325816,-3.000000,12.000000,-6.000000,4.000000,-8.000000,-3.000000,14.000000,-1.000000
1294848.338321,-7.000000,-13.000000,-10.000000,-17.000000,-22.000000,-5.000000,2.000000,-9.000000
1294848.338330,4.000000,-5.000000,4.000000,29.000000,39.000000,16.000000,-9.000000,24.000000
1294848.360938,15.000000,30.000000,2.000000,-13.000000,-34.000000,-1.000000,25.000000,0.000000
1294848.360967,8.000000,1.000000,-1.000000,14.000000,-17.000000,4.000000,-1.000000,16.000000
1294848.361871,-9.000000,-17.000000,-6.000000,0.000000,-9.000000,-23.000000,-20.000000,-8.000000
1294848.361881,-4.000000,-4.000000,-2.000000,-9.000000,-14.000000,-9.000000,-13.000000,-12.000000
1294848.368664,1.000000,6.000000,-3.000000,1.000000,4.000000,1.000000,-8.000000,-2.000000
1294848.368696,0.000000,-15.000000,-3.000000,-15.000000,-2.000000,-7.000000,-27.000000,-5.000000
1294848.376309,1.000000,-17.000000,-19.000000,-6.000000,-46.000000,1.000000,9.000000,0.000000
1294848.376328,13.000000,30.000000,34.000000,4.000000,19.000000,-4.000000,30.000000,21.000000
1294848.398211,-8.000000,-20.000000,-3.000000,5.000000,25.000000,2.000000,-23.000000,-11.000000
1294848.398225,0.000000,11.000000,1.000000,-21.000000,-60.000000,2.000000,12.000000,3.000000
1294848.413100,-13.000000,-18.000000,-21.000000,-18.000000,-33.000000,-22.000000,-28.000000,-12.000000
1294848.413115,2.000000,8.000000,17.000000,12.000000,-10.000000,6.000000,-9.000000,-13.000000
1294848.420485,8.000000,-1.000000,4.000000,34.000000,55.000000,35.000000,62.000000,20.000000
1294848.420496,-1.000000,-2.000000,-3.000000,7.000000,18.000000,-7.000000,-17.000000,3.000000
1294848.443033,-5.000000,1.000000,2.000000,3.000000,-24.000000,-7.000000,-5.000000,-6.000000
1294848.443046,-3.000000,-10.000000,-2.000000,7.000000,31.000000,-4.000000,-20.000000,1.000000
1294848.457803,-4.000000,-4.000000,-1.000000,-15.000000,-30.000000,-7.000000,-2.000000,6.000000
1294848.457862,-2.000000,6.000000,2.000000,6.000000,12.000000,0.000000,-43.000000,-12.000000
1294848.465747,-10.000000,-5.000000,-8.000000,-10.000000,-2.000000,-10.000000,-25.000000,-18.000000
1294848.465756,22.000000,6.000000,3.000000,15.000000,8.000000,1.000000,24.000000,28.000000
1294848.466365,4.000000,8.000000,-9.000000,2.000000,-1.000000,3.000000,-9.000000,1.000000
1294848.466393,-16.000000,-29.000000,-8.000000,3.000000,9.000000,6.000000,25.000000,1.000000
1294848.467574,15.000000,28.000000,34.000000,9.000000,-14.000000,0.000000,-8.000000,10.000000
1294848.467584,-11.000000,-9.000000,-7.000000,-11.000000,4.000000,-2.000000,-56.000000,-21.000000
1294848.468568,5.000000,17.000000,5.000000,44.000000,54.000000,28.000000,55.000000,-1.000000
1294848.468587,-3.000000,-7.000000,7.000000,13.000000,5.000000,8.000000,-14.000000,-1.000000
1294848.480779,-9.000000,-12.000000,-4.000000,-10.000000,3.000000,-11.000000,-11.000000,-17.000000
1294848.480788,5.000000,3.000000,0.000000,4.000000,2.000000,4.000000,-11.000000,-2.000000
1294848.488286,-3.000000,-4.000000,2.000000,-18.000000,-51.000000,5.000000,5.000000,0.000000
1294848.488314,1.000000,-5.000000,-5.000000,10.000000,28.000000,9.000000,6.000000,5.000000
1294848.496344,-3.000000,16.000000,8.000000,-7.000000,-25.000000,0.000000,3.000000,-9.000000
1294848.496374,-14.000000,-14.000000,-16.000000,-3.000000,5.000000,0.000000,-33.000000,-11.000000
1294848.525350,-10.000000,-9.000000,-7.000000,3.000000,28.000000,4.000000,-6.000000,-5.000000
1294848.525360,-5.000000,6.000000,-11.000000,-21.000000,-17.000000,-10.000000,-13.000000,3.000000
1294848.540558,16.000000,38.000000,32.000000,12.000000,-19.000000,4.000000,3.000000,0.000000
1294848.540569,4.000000,-16.000000,-11.000000,-6.000000,-6.000000,-1.000000,16.000000,12.000000
1294848.555271,-9.000000,-5.000000,-3.000000,-2.000000,8.000000,-1.000000,-12.000000,-10.000000
1294848.555295,-19.000000,-11.000000,-5.000000,-17.000000,-29.000000,-21.000000,27.000000,-14.000000
1294848.577705,24.000000,46.000000,21.000000,26.000000,64.000000,31.000000,41.000000,23.000000
1294848.577716,-3.000000,-19.000000,-16.000000,5.000000,6.000000,-2.000000,7.000000,7.000000
1294848.585292,-9.000000,-6.000000,-8.000000,-14.000000,-25.000000,-19.000000,-27.000000,-16.000000
1294848.585302,-2.000000,6.000000,13.000000,-7.000000,1.000000,0.000000,-14.000000,-19.000000
1294848.601057,-5.000000,-4.000000,-5.000000,-10.000000,-19.000000,-8.000000,3.000000,-1.000000
1294848.601072,-2.000000,10.000000,9.000000,-6.000000,36.000000,7.000000,-37.000000,-17.000000
1294848.601448,-2.000000,-12.000000,-1.000000,-8.000000,-26.000000,-2.000000,-7.000000,-1.000000
1294848.601456,-3.000000,-14.000000,-7.000000,8.000000,7.000000,4.000000,-12.000000,-2.000000
1294848.602855,-6.000000,-18.000000,-9.000000,-2.000000,-6.000000,-17.000000,-29.000000,-11.000000
1294848.602881,7.000000,13.000000,18.000000,52.000000,106.000000,44.000000,-6.000000,4.000000
1294848.604325,4.000000,17.000000,-8.000000,1.000000,-22.000000,11.000000,65.000000,25.000000
1294848.604351,19.000000,23.000000,18.000000,-15.000000,-43.000000,-18.000000,-28.000000,10.000000
1294848.638065,-1.000000,-1.000000,5.000000,21.000000,8.000000,-5.000000,34.000000,0.000000
1294848.638076,-9.000000,-8.000000,-6.000000,-17.000000,3.000000,5.000000,-31.000000,-18.000000
1294848.652860,11.000000,8.000000,4.000000,-8.000000,-5.000000,-7.000000,8.000000,23.000000
1294848.652870,0.000000,-14.000000,-3.000000,11.000000,26.000000,1.000000,-1.000000,-7.000000
1294848.675550,-2.000000,1.000000,-1.000000,3.000000,12.000000,16.000000,-8.000000,-9.000000
1294848.675561,-6.000000,9.000000,11.000000,4.000000,8.000000,9.000000,-42.000000,-12.000000
1294848.690421,2.000000,-17.000000,4.000000,-5.000000,-10.000000,-16.000000,-6.000000,5.000000
1294848.690432,3.000000,-3.000000,1.000000,27.000000,30.000000,8.000000,-29.000000,-5.000000
1294848.705493,-10.000000,13.000000,14.000000,5.000000,-2.000000,-1.000000,-13.000000,-8.000000
1294848.705526,4.000000,-22.000000,-9.000000,-10.000000,-6.000000,-21.000000,-4.000000,-6.000000
1294848.720656,2.000000,-4.000000,13.000000,6.000000,4.000000,12.000000,7.000000,2.000000
1294848.720666,-3.000000,2.000000,-18.000000,-10.000000,12.000000,-21.000000,28.000000,-14.000000
1294848.722679,-13.000000,0.000000,-3.000000,-7.000000,-14.000000,12.000000,20.000000,-1.000000
1294848.722693,-10.000000,-21.000000,-10.000000,14.000000,26.000000,-1.000000,-44.000000,-20.000000
1294848.723334,3.000000,21.000000,0.000000,-26.000000,2.000000,9.000000,47.000000,6.000000
1294848.723348,6.000000,-7.000000,-13.000000,-4.000000,-10.000000,-6.000000,-14.000000,5.000000
1294848.757859,-2.000000,-13.000000,5.000000,-10.000000,-92.000000,17.000000,19.000000,6.000000
1294848.757888,5.000000,26.000000,-3.000000,-29.000000,-32.000000,-11.000000,-6.000000,3.000000
1294848.780483,-11.000000,-18.000000,-5.000000,1.000000,19.000000,3.000000,11.000000,-17.000000
1294848.780498,-3.000000,-5.000000,4.000000,9.000000,5.000000,-13.000000,-12.000000,-2.000000
1294848.803021,-5.000000,-5.000000,-7.000000,-19.000000,-30.000000,-12.000000,7.000000,4.000000
1294848.803039,21.000000,17.000000,17.000000,16.000000,15.000000,30.000000,57.000000,29.000000
1294848.833150,-14.000000,-44.000000,-35.000000,-1.000000,4.000000,-13.000000,-29.000000,-17.000000
1294848.833162,-1.000000,8.000000,3.000000,-44.000000,-70.000000,-10.000000,2.000000,-2.000000
1294848.840909,-5.000000,-3.000000,3.000000,31.000000,62.000000,14.000000,-3.000000,2.000000
1294848.840923,7.000000,3.000000,-4.000000,8.000000,24.000000,6.000000,5.000000,19.000000
1294848.893100,-6.000000,-23.000000,-12.000000,-3.000000,-20.000000,-14.000000,-14.000000,-3.000000
1294848.893161,-9.000000,-9.000000,1.000000,-12.000000,0.000000,-4.000000,-14.000000,-19.000000
1294848.915421,4.000000,12.000000,-2.000000,-6.000000,1.000000,5.000000,6.000000,7.000000
1294848.915448,-4.000000,-8.000000,5.000000,-2.000000,-18.000000,7.000000,-20.000000,-3.000000
1294848.922752,-5.000000,7.000000,2.000000,-6.000000,6.000000,-10.000000,-41.000000,-13.000000
1294848.922760,10.000000,-3.000000,2.000000,22.000000,20.000000,20.000000,84.000000,7.000000
1294848.952802,3.000000,13.000000,-8.000000,4.000000,-2.000000,-4.000000,-5.000000,6.000000
1294848.952822,-12.000000,-7.000000,0.000000,-11.000000,16.000000,3.000000,-20.000000,-15.000000
1294848.953287,-3.000000,1.000000,-5.000000,9.000000,8.000000,6.000000,47.000000,4.000000
1294848.953296,9.000000,-1.000000,0.000000,3.000000,-26.000000,-8.000000,5.000000,1.000000
1294848.953814,6.000000,-8.000000,12.000000,2.000000,21.000000,25.000000,71.000000,6.000000
1294848.953822,6.000000,-14.000000,-1.000000,5.000000,10.000000,0.000000,-20.000000,-2.000000
1294848.954339,0.000000,1.000000,7.000000,19.000000,12.000000,2.000000,-1.000000,14.000000
1294848.954348,4.000000,29.000000,6.000000,-13.000000,-15.000000,0.000000,-13.000000,-10.000000
1294848.956637,-3.000000,0.000000,0.000000,-1.000000,-5.000000,-6.000000,-41.000000,-11.000000
1294848.956654,-6.000000,-24.000000,-16.000000,-23.000000,-34.000000,-6.000000,27.000000,9.000000
1294848.960163,-4.000000,7.000000,0.000000,12.000000,38.000000,-6.000000,-24.000000,-14.000000
1294848.960173,16.000000,16.000000,11.000000,-18.000000,-25.000000,2.000000,14.000000,7.000000
1294848.968144,-14.000000,-11.000000,-8.000000,32.000000,79.000000,17.000000,-11.000000,-15.000000
1294848.968176,17.000000,17.000000,17.000000,-10.000000,-17.000000,11.000000,28.000000,12.000000
1294848.982964,-8.000000,-6.000000,-22.000000,-8.000000,-14.000000,-10.000000,23.000000,12.000000
1294848.982993,-7.000000,-9.000000,-7.000000,-11.000000,1.000000,0.000000,-25.000000,-7.000000
1294848.997718,-12.000000,-13.000000,2.000000,21.000000,39.000000,-3.000000,-3.000000,-8.000000
1294848.997727,4.000000,-12.000000,-4.000000,-8.000000,-34.000000,-7.000000,-2.000000,8.000000
1294849.042839,-6.000000,2.000000,-2.000000,-15.000000,-49.000000,-14.000000,-8.000000,-6.000000
1294849.042849,9.000000,17.000000,31.000000,63.000000,84.000000,26.000000,38.000000,21.000000
1294849.050112,-1.000000,-9.000000,-19.000000,-5.000000,0.000000,-9.000000,39.000000,1.000000
1294849.050122,-9.000000,-4.000000,-6.000000,-23.000000,-37.000000,-22.000000,-45.000000,-15.000000
1294849.058304,0.000000,4.000000,-1.000000,1.000000,35.000000,44.000000,69.000000,11.000000
1294849.058314,2.000000,6.000000,7.000000,13.000000,10.000000,-4.000000,-11.000000,-7.000000
1294849.065565,-11.000000,-15.000000,-21.000000,-11.000000,-11.000000,-22.000000,-28.000000,-7.000000
1294849.065579,-15.000000,-11.000000,-7.000000,-6.000000,0.000000,-2.000000,-8.000000,-26.000000
1294849.080791,-11.000000,-8.000000,-11.000000,6.000000,44.000000,-8.000000,1.000000,-12.000000
1294849.080806,-6.000000,-1.000000,2.000000,-17.000000,-14.000000,-9.000000,-36.000000,-5.000000
1294849.081326,7.000000,-1.000000,-6.000000,8.000000,0.000000,9.000000,76.000000,9.000000
1294849.081334,1.000000,23.000000,21.000000,19.000000,39.000000,24.000000,39.000000,-2.000000
1294849.081883,-6.000000,-13.000000,2.000000,-3.000000,-8.000000,-15.000000,-29.000000,-13.000000
1294849.081892,-1.000000,-12.000000,-5.000000,-5.000000,-9.000000,-22.000000,-4.000000,-2.000000
1294849.083524,-6.000000,1.000000,-3.000000,9.000000,-24.000000,-6.000000,-28.000000,-6.000000
1294849.083545,-1.000000,3.000000,-3.000000,-14.000000,-18.000000,-1.000000,19.000000,-1.000000
1294849.087494,2.000000,-6.000000,2.000000,-1.000000,7.000000,-5.000000,14.000000,10.000000
1294849.087504,-7.000000,-9.000000,4.000000,-3.000000,1.000000,-13.000000,-11.000000,-9.000000
1294849.095375,-14.000000,-11.000000,-16.000000,-12.000000,5.000000,-9.000000,-38.000000,-18.000000
1294849.095392,-6.000000,2.000000,3.000000,-21.000000,-45.000000,12.000000,28.000000,-7.000000
1294849.110619,4.000000,1.000000,1.000000,12.000000,21.000000,5.000000,10.000000,13.000000
1294849.110632,5.000000,15.000000,21.000000,4.000000,36.000000,8.000000,0.000000,3.000000
1294849.147834,-2.000000,0.000000,-3.000000,-7.000000,-34.000000,-11.000000,14.000000,5.000000
1294849.147843,-7.000000,-17.000000,-8.000000,-15.000000,-22.000000,-21.000000,19.000000,7.000000
1294849.170475,-7.000000,0.000000,1.000000,-2.000000,-20.000000,12.000000,-3.000000,-3.000000
1294849.170493,-1.000000,3.000000,-3.000000,-9.000000,-18.000000,-17.000000,-24.000000,-3.000000
1294849.192727,-20.000000,-23.000000,-21.000000,8.000000,22.000000,-17.000000,-12.000000,-20.000000
1294849.192737,9.000000,34.000000,37.000000,-22.000000,-8.000000,-6.000000,-42.000000,3.000000
1294849.193141,4.000000,14.000000,5.000000,-5.000000,26.000000,9.000000,-16.000000,-3.000000
1294849.193148,5.000000,-9.000000,-7.000000,1.000000,2.000000,-19.000000,30.000000,9.000000
1294849.194584,-6.000000,-16.000000,-13.000000,-12.000000,-8.000000,-14.000000,-22.000000,-16.000000
1294849.194597,-6.000000,5.000000,-10.000000,-13.000000,-17.000000,-10.000000,15.000000,1.000000
1294849.195413,-2.000000,-1.000000,-5.000000,1.000000,7.000000,-3.000000,3.000000,8.000000
1294849.195422,0.000000,-4.000000,-7.000000,-14.000000,-11.000000,8.000000,26.000000,-11.000000
1294849.195785,-10.000000,-22.000000,-7.000000,-4.000000,-17.000000,-19.000000,-17.000000,-7.000000
1294849.195792,1.000000,10.000000,0.000000,21.000000,32.000000,15.000000,-3.000000,-9.000000
1294849.200100,-1.000000,10.000000,6.000000,-6.000000,-15.000000,-2.000000,6.000000,-7.000000
1294849.200108,-4.000000,-15.000000,-9.000000,-9.000000,-7.000000,-7.000000,10.000000,0.000000
1294849.208009,-11.000000,-8.000000,-5.000000,-10.000000,-8.000000,-12.000000,-8.000000,-11.000000
1294849.208021,3.000000,17.000000,7.000000,18.000000,23.000000,29.000000,21.000000,5.000000
1294849.230504,-8.000000,-12.000000,5.000000,10.000000,17.000000,-10.000000,-39.000000,-20.000000
1294849.230515,12.000000,11.000000,-1.000000,-17.000000,-11.000000,18.000000,62.000000,29.000000
1294849.237797,10.000000,13.000000,-2.000000,7.000000,-3.000000,-5.000000,-16.000000,5.000000
1294849.237819,-10.000000,4.000000,0.000000,6.000000,7.000000,-2.000000,-3.000000,-11.000000
1294849.267799,1.000000,-12.000000,2.000000,2.000000,-17.000000,-5.000000,0.000000,0.000000
1294849.267820,-6.000000,-6.000000,-6.000000,-9.000000,-5.000000,9.000000,-8.000000,-4.000000
1294849.275455,-1.000000,-6.000000,-1.000000,6.000000,21.000000,19.000000,7.000000,8.000000
1294849.275476,11.000000,0.000000,-3.000000,1.000000,-13.000000,-11.000000,-5.000000,1.000000
1294849.305377,-5.000000,-10.000000,-25.000000,-8.000000,-10.000000,-11.000000,-37.000000,-12.000000
1294849.305406,-9.000000,5.000000,3.000000,-6.000000,-1.000000,-9.000000,-14.000000,-10.000000
1294849.312860,-6.000000,-8.000000,-8.000000,-2.000000,3.000000,5.000000,8.000000,-1.000000
1294849.312951,5.000000,-6.000000,-5.000000,13.000000,8.000000,0.000000,8.000000,-1.000000
1294849.313793,-3.000000,1.000000,-10.000000,-13.000000,-4.000000,-6.000000,-12.000000,10.000000
1294849.313820,1.000000,10.000000,13.000000,8.000000,-1.000000,-5.000000,28.000000,6.000000
1294849.314481,-10.000000,-14.000000,-9.000000,-8.000000,-2.000000,-1.000000,-35.000000,-11.000000
1294849.314497,-7.000000,6.000000,-3.000000,-5.000000,9.000000,1.000000,41.000000,11.000000
1294849.315181,-3.000000,-22.000000,-17.000000,-22.000000,-7.000000,-6.000000,-21.000000,-3.000000
1294849.315202,0.000000,-10.000000,-4.000000,-11.000000,-23.000000,4.000000,59.000000,0.000000
1294849.315805,10.000000,9.000000,1.000000,3.000000,27.000000,-4.000000,28.000000,18.000000
1294849.315823,1.000000,-4.000000,-4.000000,-9.000000,-8.000000,1.000000,-18.000000,-5.000000
1294849.320220,-11.000000,-16.000000,-15.000000,-17.000000,-12.000000,-12.000000,-28.000000,-14.000000
1294849.320231,-1.000000,-17.000000,-8.000000,-24.000000,-79.000000,5.000000,11.000000,-4.000000
1294849.335583,4.000000,15.000000,22.000000,30.000000,23.000000,24.000000,-4.000000,-4.000000
1294849.335593,15.000000,37.000000,8.000000,-5.000000,-15.000000,0.000000,15.000000,17.000000
1294849.365471,-3.000000,-7.000000,21.000000,0.000000,0.000000,1.000000,-4.000000,7.000000
1294849.365489,0.000000,23.000000,-8.000000,0.000000,9.000000,-13.000000,14.000000,-2.000000
1294849.388085,-10.000000,-4.000000,-3.000000,-11.000000,-33.000000,-9.000000,-30.000000,0.000000
1294849.388096,-2.000000,-13.000000,-3.000000,-4.000000,3.000000,16.000000,59.000000,8.000000
1294849.410503,3.000000,-2.000000,9.000000,-3.000000,-3.000000,-6.000000,-13.000000,-3.000000
1294849.410551,-7.000000,1.000000,-5.000000,12.000000,13.000000,-9.000000,-24.000000,-11.000000
1294849.418045,-8.000000,-2.000000,-8.000000,-33.000000,-48.000000,-11.000000,-5.000000,-10.000000
1294849.418063,1.000000,-23.000000,-10.000000,8.000000,28.000000,4.000000,-36.000000,-3.000000
1294849.447908,-3.000000,5.000000,-2.000000,-2.000000,3.000000,1.000000,21.000000,5.000000
1294849.447925,12.000000,4.000000,-4.000000,35.000000,63.000000,9.000000,-18.000000,-4.000000
