# participant_id: P1
# gesture: hard
# trial_number: 2
# stream_name: Myo_EMG
# stream_type: emg
# timestamp: 20260420_130753
# samples: 4628
# duration_sec: 30.615
# nominal_sample_rate: 200.0
# effective_sample_rate: 151.14
#
timestamp,emg_1,emg_2,emg_3,emg_4,emg_5,emg_6,emg_7,emg_8
1295165.303691,-24.000000,-128.000000,-104.000000,-128.000000,-128.000000,32.000000,-101.000000,-128.000000
1295165.303742,25.000000,-40.000000,-8.000000,-2.000000,7.000000,29.000000,-7.000000,-74.000000
1295165.304789,-7.000000,85.000000,38.000000,29.000000,42.000000,-23.000000,-128.000000,-21.000000
1295165.304815,-79.000000,-90.000000,-93.000000,-32.000000,76.000000,10.000000,35.000000,-27.000000
1295165.311221,76.000000,88.000000,39.000000,12.000000,127.000000,50.000000,127.000000,48.000000
1295165.311250,-25.000000,-20.000000,-21.000000,-7.000000,36.000000,-32.000000,-128.000000,-27.000000
1295165.348640,39.000000,78.000000,-14.000000,-78.000000,-128.000000,45.000000,95.000000,95.000000
1295165.348669,-29.000000,-83.000000,-43.000000,-11.000000,21.000000,-29.000000,-28.000000,-6.000000
1295165.385802,-32.000000,-21.000000,-70.000000,-19.000000,20.000000,-39.000000,-61.000000,-51.000000
1295165.385813,-19.000000,20.000000,-19.000000,-7.000000,-18.000000,-31.000000,-31.000000,-23.000000
1295165.386773,-11.000000,-7.000000,16.000000,8.000000,17.000000,43.000000,96.000000,-94.000000
1295165.386789,40.000000,48.000000,35.000000,1.000000,-16.000000,49.000000,10.000000,-1.000000
1295165.387476,-4.000000,3.000000,-12.000000,-23.000000,-36.000000,0.000000,-7.000000,18.000000
1295165.387496,11.000000,72.000000,54.000000,-21.000000,-126.000000,-77.000000,-128.000000,-43.000000
1295165.388720,15.000000,-28.000000,-46.000000,-20.000000,13.000000,84.000000,127.000000,-2.000000
1295165.388730,68.000000,109.000000,37.000000,-87.000000,-128.000000,-79.000000,-86.000000,5.000000
1295165.389562,51.000000,-5.000000,49.000000,97.000000,50.000000,118.000000,64.000000,93.000000
1295165.389571,-66.000000,-125.000000,-84.000000,-63.000000,-38.000000,-19.000000,-128.000000,-21.000000
1295165.431039,26.000000,111.000000,127.000000,66.000000,127.000000,52.000000,127.000000,-18.000000
1295165.431050,32.000000,70.000000,-15.000000,-2.000000,-39.000000,-27.000000,-128.000000,-41.000000
1295165.438390,10.000000,101.000000,36.000000,9.000000,25.000000,1.000000,67.000000,20.000000
1295165.438426,-55.000000,-62.000000,-40.000000,-41.000000,-16.000000,-9.000000,-128.000000,-106.000000
1295165.491087,-41.000000,-78.000000,-66.000000,-46.000000,-19.000000,125.000000,127.000000,-25.000000
1295165.491100,-16.000000,-28.000000,5.000000,0.000000,-11.000000,-12.000000,-10.000000,-24.000000
1295165.505826,-3.000000,-6.000000,-6.000000,33.000000,64.000000,10.000000,-20.000000,1.000000
1295165.505838,-20.000000,-7.000000,-21.000000,-89.000000,-128.000000,-128.000000,-111.000000,38.000000
1295165.506971,-26.000000,-46.000000,-72.000000,26.000000,40.000000,-15.000000,32.000000,-12.000000
1295165.506992,124.000000,105.000000,60.000000,-101.000000,-128.000000,50.000000,127.000000,88.000000
1295165.507607,-26.000000,-52.000000,-59.000000,75.000000,127.000000,-44.000000,-42.000000,-44.000000
1295165.507620,37.000000,127.000000,82.000000,-1.000000,-118.000000,-21.000000,-85.000000,-3.000000
1295165.508878,-12.000000,-110.000000,-112.000000,-27.000000,-8.000000,-15.000000,-10.000000,10.000000
1295165.508888,22.000000,-32.000000,28.000000,12.000000,-6.000000,29.000000,6.000000,127.000000
1295165.521374,119.000000,48.000000,30.000000,94.000000,127.000000,127.000000,127.000000,62.000000
1295165.521397,-27.000000,-53.000000,-3.000000,44.000000,83.000000,-23.000000,-42.000000,-24.000000
1295165.528352,-21.000000,-37.000000,-32.000000,19.000000,4.000000,-86.000000,1.000000,-27.000000
1295165.528374,-67.000000,-96.000000,-67.000000,-106.000000,-128.000000,-128.000000,-128.000000,-91.000000
1295165.543338,1.000000,13.000000,41.000000,127.000000,127.000000,80.000000,-34.000000,18.000000
1295165.543349,-14.000000,-23.000000,-29.000000,-15.000000,-79.000000,-9.000000,-12.000000,-128.000000
1295165.550891,-12.000000,-30.000000,-12.000000,2.000000,-35.000000,36.000000,56.000000,-15.000000
1295165.550904,78.000000,48.000000,-25.000000,-12.000000,3.000000,-30.000000,54.000000,65.000000
1295165.580799,-17.000000,-60.000000,-61.000000,-27.000000,-22.000000,-7.000000,127.000000,83.000000
1295165.580811,-19.000000,56.000000,27.000000,15.000000,10.000000,-12.000000,-128.000000,-80.000000
1295165.588498,16.000000,-62.000000,6.000000,30.000000,29.000000,127.000000,103.000000,40.000000
1295165.588527,-20.000000,20.000000,13.000000,15.000000,57.000000,99.000000,-42.000000,-15.000000
1295165.610881,-68.000000,-70.000000,-17.000000,-31.000000,-10.000000,-12.000000,-60.000000,-45.000000
1295165.610910,-16.000000,-21.000000,-36.000000,-36.000000,-24.000000,0.000000,-45.000000,3.000000
1295165.663924,-25.000000,13.000000,-16.000000,-15.000000,-26.000000,-101.000000,-128.000000,-58.000000
1295165.663974,-41.000000,-72.000000,-117.000000,-60.000000,33.000000,14.000000,60.000000,-83.000000
1295165.686057,18.000000,-41.000000,29.000000,56.000000,91.000000,53.000000,65.000000,69.000000
1295165.686068,-27.000000,-10.000000,-48.000000,-29.000000,-28.000000,-6.000000,-7.000000,15.000000
1295165.709004,27.000000,17.000000,14.000000,-47.000000,36.000000,-2.000000,-22.000000,-4.000000
1295165.709040,13.000000,-3.000000,7.000000,82.000000,65.000000,-1.000000,-2.000000,29.000000
1295165.723483,-73.000000,-101.000000,-110.000000,-37.000000,87.000000,116.000000,-36.000000,-43.000000
1295165.723493,127.000000,127.000000,127.000000,84.000000,22.000000,85.000000,127.000000,102.000000
1295165.738403,46.000000,-9.000000,-17.000000,-18.000000,-23.000000,-35.000000,-105.000000,23.000000
1295165.738432,-43.000000,-58.000000,-50.000000,-18.000000,-28.000000,-61.000000,-101.000000,-97.000000
1295165.760857,-7.000000,-11.000000,38.000000,87.000000,48.000000,83.000000,51.000000,43.000000
1295165.760878,-26.000000,-12.000000,16.000000,-18.000000,-25.000000,-59.000000,-18.000000,-17.000000
1295165.775907,-21.000000,40.000000,12.000000,-26.000000,-44.000000,-34.000000,-83.000000,42.000000
1295165.775917,-10.000000,-77.000000,-16.000000,-25.000000,25.000000,2.000000,-78.000000,-32.000000
1295165.783081,20.000000,28.000000,-1.000000,-24.000000,-81.000000,121.000000,127.000000,51.000000
1295165.783092,5.000000,-20.000000,-31.000000,8.000000,34.000000,-4.000000,9.000000,4.000000
1295165.784330,64.000000,27.000000,0.000000,28.000000,49.000000,97.000000,127.000000,72.000000
1295165.784341,-59.000000,-128.000000,-99.000000,-27.000000,29.000000,-41.000000,-16.000000,20.000000
1295165.785836,-15.000000,-7.000000,-2.000000,10.000000,24.000000,1.000000,-76.000000,-64.000000
1295165.785848,-70.000000,-34.000000,-34.000000,-27.000000,-27.000000,24.000000,-24.000000,-82.000000
1295165.805837,-37.000000,-50.000000,-28.000000,-13.000000,1.000000,-21.000000,-109.000000,-49.000000
1295165.805861,0.000000,30.000000,5.000000,-5.000000,16.000000,-19.000000,127.000000,14.000000
1295165.821381,-58.000000,-36.000000,26.000000,54.000000,120.000000,71.000000,4.000000,0.000000
1295165.821397,-2.000000,-99.000000,-80.000000,-7.000000,-45.000000,-84.000000,-16.000000,-34.000000
1295165.821959,42.000000,-56.000000,12.000000,43.000000,32.000000,81.000000,78.000000,52.000000
1295165.821974,-63.000000,-90.000000,-56.000000,39.000000,61.000000,-25.000000,-51.000000,-19.000000
1295165.823272,-61.000000,-10.000000,-35.000000,6.000000,43.000000,1.000000,-128.000000,-128.000000
1295165.823299,127.000000,127.000000,43.000000,-54.000000,-104.000000,75.000000,127.000000,127.000000
1295165.828180,0.000000,-41.000000,-80.000000,41.000000,82.000000,-41.000000,-72.000000,8.000000
1295165.828189,-55.000000,-24.000000,58.000000,44.000000,11.000000,15.000000,-73.000000,-34.000000
1295165.836629,-11.000000,53.000000,11.000000,-19.000000,-98.000000,-87.000000,-96.000000,-75.000000
1295165.836638,-16.000000,-55.000000,-2.000000,1.000000,37.000000,-3.000000,-2.000000,-41.000000
1295165.858183,32.000000,-9.000000,-44.000000,20.000000,36.000000,7.000000,127.000000,127.000000
1295165.858198,59.000000,68.000000,108.000000,-76.000000,-128.000000,15.000000,127.000000,-79.000000
1295165.859512,39.000000,35.000000,16.000000,-12.000000,-3.000000,112.000000,81.000000,52.000000
1295165.859525,-51.000000,-102.000000,-54.000000,-36.000000,-39.000000,-128.000000,-128.000000,-111.000000
1295165.873269,32.000000,33.000000,12.000000,-26.000000,-106.000000,2.000000,127.000000,30.000000
1295165.873280,-50.000000,-48.000000,-38.000000,-19.000000,39.000000,-14.000000,-27.000000,-9.000000
1295165.888457,0.000000,-17.000000,-51.000000,47.000000,127.000000,37.000000,-28.000000,-30.000000
1295165.888469,-52.000000,-35.000000,-30.000000,-24.000000,-36.000000,-12.000000,-30.000000,-128.000000
1295165.903329,20.000000,50.000000,46.000000,-99.000000,-93.000000,-59.000000,-109.000000,-6.000000
1295165.903339,51.000000,32.000000,37.000000,-12.000000,-52.000000,83.000000,104.000000,22.000000
1295165.940904,1.000000,-48.000000,-58.000000,42.000000,57.000000,-4.000000,-14.000000,3.000000
1295165.940924,-57.000000,-26.000000,-13.000000,-6.000000,8.000000,-102.000000,-128.000000,-77.000000
1295165.948102,23.000000,1.000000,-18.000000,-25.000000,-31.000000,-25.000000,124.000000,29.000000
1295165.948123,-4.000000,-11.000000,-29.000000,-34.000000,-56.000000,-128.000000,-128.000000,36.000000
1295165.949287,42.000000,41.000000,40.000000,56.000000,127.000000,61.000000,127.000000,23.000000
1295165.949302,39.000000,122.000000,60.000000,13.000000,-11.000000,-26.000000,-49.000000,-5.000000
1295165.949949,7.000000,-16.000000,-52.000000,-41.000000,4.000000,20.000000,-98.000000,-35.000000
1295165.949967,47.000000,32.000000,93.000000,44.000000,-76.000000,39.000000,-43.000000,6.000000
1295165.951700,-36.000000,-49.000000,-51.000000,-9.000000,10.000000,-60.000000,-96.000000,-44.000000
1295165.951722,-35.000000,3.000000,2.000000,-73.000000,-128.000000,9.000000,-26.000000,-28.000000
1295165.963880,95.000000,68.000000,-12.000000,72.000000,104.000000,-6.000000,34.000000,56.000000
1295165.963917,49.000000,15.000000,66.000000,-42.000000,-86.000000,89.000000,127.000000,92.000000
1295165.985957,-11.000000,-64.000000,-52.000000,-15.000000,43.000000,30.000000,-26.000000,-8.000000
1295165.985977,-33.000000,-42.000000,-10.000000,50.000000,71.000000,-86.000000,-128.000000,-36.000000
1295165.987178,19.000000,-20.000000,5.000000,-15.000000,-84.000000,27.000000,127.000000,75.000000
1295165.987189,-11.000000,-45.000000,-6.000000,11.000000,52.000000,50.000000,38.000000,56.000000
1295165.993042,-4.000000,-52.000000,-17.000000,21.000000,60.000000,-23.000000,-19.000000,-52.000000
1295165.993051,-46.000000,13.000000,4.000000,-11.000000,-16.000000,-31.000000,-119.000000,-61.000000
1295166.015839,27.000000,-47.000000,-49.000000,23.000000,40.000000,54.000000,127.000000,5.000000
1295166.015849,-86.000000,-58.000000,-51.000000,-76.000000,-64.000000,-128.000000,-128.000000,-128.000000
1295166.023444,127.000000,106.000000,60.000000,44.000000,-81.000000,110.000000,127.000000,127.000000
1295166.023454,49.000000,99.000000,127.000000,-50.000000,-104.000000,30.000000,5.000000,16.000000
1295166.053406,-35.000000,-29.000000,-32.000000,-8.000000,-2.000000,-65.000000,-16.000000,21.000000
1295166.053421,1.000000,50.000000,50.000000,9.000000,52.000000,20.000000,-14.000000,2.000000
1295166.060710,-45.000000,111.000000,120.000000,110.000000,127.000000,-44.000000,-55.000000,-35.000000
1295166.060721,38.000000,2.000000,-3.000000,-128.000000,-128.000000,71.000000,97.000000,-6.000000
1295166.076232,31.000000,70.000000,7.000000,43.000000,117.000000,-71.000000,7.000000,84.000000
1295166.076243,108.000000,127.000000,127.000000,-29.000000,-39.000000,-30.000000,89.000000,53.000000
1295166.090780,-3.000000,-14.000000,16.000000,15.000000,42.000000,-10.000000,-17.000000,-34.000000
1295166.090803,-69.000000,-70.000000,-41.000000,-28.000000,-20.000000,-51.000000,127.000000,17.000000
1295166.098727,-42.000000,-43.000000,-45.000000,-7.000000,4.000000,15.000000,-95.000000,-128.000000
1295166.098736,2.000000,93.000000,31.000000,-1.000000,-11.000000,14.000000,27.000000,-26.000000
1295166.099261,-34.000000,-2.000000,8.000000,-38.000000,-45.000000,-64.000000,-53.000000,-21.000000
1295166.099269,-58.000000,-55.000000,-24.000000,6.000000,34.000000,50.000000,-94.000000,-123.000000
1295166.099943,22.000000,53.000000,9.000000,47.000000,28.000000,-20.000000,127.000000,44.000000
1295166.099952,-42.000000,-3.000000,-25.000000,-26.000000,-60.000000,-22.000000,13.000000,3.000000
1295166.100489,-23.000000,-115.000000,-43.000000,0.000000,33.000000,-51.000000,-45.000000,-31.000000
1295166.100497,39.000000,127.000000,127.000000,127.000000,127.000000,40.000000,-115.000000,-106.000000
1295166.102197,-9.000000,41.000000,78.000000,73.000000,-128.000000,54.000000,79.000000,8.000000
1295166.102213,37.000000,-3.000000,16.000000,24.000000,26.000000,-8.000000,31.000000,44.000000
1295166.113126,-27.000000,-64.000000,-76.000000,-40.000000,31.000000,-16.000000,-83.000000,-42.000000
1295166.113135,-23.000000,-108.000000,-92.000000,-63.000000,-47.000000,-60.000000,-81.000000,-38.000000
1295166.135909,-4.000000,-15.000000,1.000000,-17.000000,8.000000,13.000000,70.000000,22.000000
1295166.135919,-48.000000,14.000000,13.000000,26.000000,57.000000,-92.000000,-128.000000,-105.000000
1295166.143273,18.000000,-7.000000,-20.000000,-40.000000,-111.000000,-15.000000,127.000000,17.000000
1295166.143283,-11.000000,-29.000000,-26.000000,-12.000000,-15.000000,8.000000,5.000000,18.000000
1295166.166074,-82.000000,-67.000000,-37.000000,-35.000000,-34.000000,-45.000000,-58.000000,-1.000000
1295166.166085,60.000000,68.000000,-13.000000,-10.000000,-25.000000,114.000000,127.000000,48.000000
1295166.195899,-9.000000,-4.000000,6.000000,18.000000,36.000000,127.000000,127.000000,-14.000000
1295166.195911,-60.000000,-128.000000,-126.000000,-22.000000,-51.000000,-5.000000,-54.000000,-6.000000
1295166.219077,21.000000,11.000000,10.000000,19.000000,-40.000000,5.000000,-88.000000,-10.000000
1295166.219096,-7.000000,-41.000000,-59.000000,-86.000000,-96.000000,-11.000000,-12.000000,-31.000000
1295166.225896,15.000000,-23.000000,-26.000000,55.000000,97.000000,18.000000,-112.000000,71.000000
1295166.225907,-19.000000,-31.000000,-27.000000,6.000000,37.000000,27.000000,-80.000000,-55.000000
1295166.270902,-79.000000,-69.000000,-77.000000,-128.000000,-128.000000,19.000000,-102.000000,-86.000000
1295166.270912,9.000000,41.000000,32.000000,101.000000,127.000000,75.000000,103.000000,35.000000
1295166.278393,-3.000000,-4.000000,28.000000,-2.000000,-7.000000,-43.000000,37.000000,36.000000
1295166.278416,-115.000000,-48.000000,-27.000000,-38.000000,-42.000000,3.000000,-128.000000,-128.000000
1295166.293312,-18.000000,-34.000000,-30.000000,-14.000000,10.000000,-15.000000,-69.000000,-24.000000
1295166.293335,-1.000000,11.000000,10.000000,20.000000,4.000000,-35.000000,-37.000000,43.000000
1295166.301143,-98.000000,-94.000000,-90.000000,-88.000000,-46.000000,-37.000000,-50.000000,-128.000000
1295166.301155,91.000000,45.000000,30.000000,43.000000,77.000000,75.000000,110.000000,115.000000
1295166.315691,32.000000,84.000000,98.000000,63.000000,85.000000,21.000000,-128.000000,-25.000000
1295166.315709,21.000000,7.000000,17.000000,16.000000,51.000000,75.000000,127.000000,93.000000
1295166.330741,23.000000,-7.000000,12.000000,-31.000000,-26.000000,-64.000000,-102.000000,-56.000000
1295166.330764,-7.000000,49.000000,2.000000,27.000000,44.000000,0.000000,41.000000,27.000000
1295166.331225,-50.000000,-88.000000,-75.000000,-23.000000,-47.000000,-22.000000,-73.000000,-7.000000
1295166.331242,118.000000,102.000000,79.000000,42.000000,25.000000,80.000000,127.000000,100.000000
1295166.331760,-5.000000,-21.000000,-16.000000,-36.000000,-60.000000,-24.000000,-95.000000,-25.000000
1295166.331782,-13.000000,-93.000000,-49.000000,62.000000,71.000000,-50.000000,-95.000000,44.000000
1295166.338436,55.000000,120.000000,39.000000,-51.000000,-128.000000,-27.000000,-64.000000,7.000000
1295166.338465,26.000000,17.000000,10.000000,48.000000,97.000000,88.000000,127.000000,38.000000
1295166.338806,-4.000000,-21.000000,0.000000,16.000000,7.000000,-4.000000,-17.000000,-5.000000
1295166.338834,-47.000000,-16.000000,-6.000000,8.000000,-17.000000,-42.000000,-39.000000,54.000000
1295166.339325,13.000000,46.000000,-5.000000,-29.000000,-83.000000,-19.000000,116.000000,9.000000
1295166.339352,15.000000,-40.000000,-1.000000,-21.000000,27.000000,59.000000,87.000000,71.000000
1295166.339903,-11.000000,17.000000,-19.000000,5.000000,34.000000,-1.000000,-53.000000,-30.000000
1295166.339929,-2.000000,-42.000000,-71.000000,-12.000000,-5.000000,66.000000,26.000000,-128.000000
1295166.340747,-17.000000,-33.000000,-24.000000,13.000000,-20.000000,-55.000000,-119.000000,-37.000000
1295166.340774,61.000000,127.000000,127.000000,-47.000000,-76.000000,27.000000,53.000000,83.000000
1295166.353716,-7.000000,-15.000000,-27.000000,-5.000000,-14.000000,-50.000000,-45.000000,-19.000000
1295166.353729,-17.000000,-13.000000,-6.000000,-6.000000,30.000000,-128.000000,-48.000000,-7.000000
1295166.375742,-40.000000,-50.000000,1.000000,5.000000,21.000000,-3.000000,28.000000,-126.000000
1295166.375762,100.000000,77.000000,7.000000,27.000000,64.000000,27.000000,127.000000,127.000000
1295166.383244,15.000000,18.000000,-45.000000,17.000000,5.000000,-6.000000,-25.000000,-11.000000
1295166.383254,-32.000000,-10.000000,21.000000,-6.000000,-20.000000,-26.000000,-28.000000,-43.000000
1295166.413345,-81.000000,71.000000,59.000000,-13.000000,-35.000000,-79.000000,-128.000000,-125.000000
1295166.413365,92.000000,96.000000,57.000000,11.000000,54.000000,84.000000,127.000000,117.000000
1295166.413723,78.000000,69.000000,36.000000,-6.000000,36.000000,59.000000,-38.000000,-32.000000
1295166.413740,-72.000000,-57.000000,-101.000000,-38.000000,-39.000000,-112.000000,-39.000000,-61.000000
1295166.415062,-22.000000,-10.000000,-5.000000,-6.000000,-9.000000,-37.000000,-54.000000,-34.000000
1295166.415074,-50.000000,-48.000000,-66.000000,-12.000000,48.000000,-67.000000,-111.000000,-20.000000
1295166.415529,35.000000,37.000000,64.000000,-69.000000,-128.000000,-12.000000,127.000000,74.000000
1295166.415537,-31.000000,11.000000,52.000000,117.000000,127.000000,60.000000,-128.000000,-91.000000
1295166.420892,-48.000000,-28.000000,-31.000000,-57.000000,-118.000000,6.000000,-44.000000,-70.000000
1295166.420909,-36.000000,-20.000000,-7.000000,-22.000000,-10.000000,-50.000000,-34.000000,-22.000000
1295166.428356,-2.000000,-22.000000,-47.000000,-15.000000,29.000000,52.000000,25.000000,14.000000
1295166.428386,-76.000000,-68.000000,-28.000000,-28.000000,-48.000000,-38.000000,-128.000000,-120.000000
1295166.458327,58.000000,79.000000,56.000000,35.000000,21.000000,20.000000,32.000000,10.000000
1295166.458344,-62.000000,-78.000000,-33.000000,-19.000000,-3.000000,4.000000,-105.000000,-68.000000
1295166.458692,-16.000000,-33.000000,-62.000000,-21.000000,-13.000000,4.000000,-73.000000,-21.000000
1295166.458700,21.000000,-15.000000,25.000000,48.000000,48.000000,42.000000,71.000000,34.000000
1295166.460189,-29.000000,-29.000000,-24.000000,-12.000000,20.000000,-58.000000,-128.000000,-16.000000
1295166.460198,0.000000,-72.000000,-13.000000,66.000000,68.000000,45.000000,70.000000,31.000000
1295166.473459,-10.000000,21.000000,23.000000,35.000000,-20.000000,-33.000000,14.000000,12.000000
1295166.473469,-39.000000,-101.000000,-87.000000,-39.000000,-38.000000,-128.000000,-128.000000,-33.000000
1295166.503470,34.000000,87.000000,96.000000,25.000000,-35.000000,127.000000,127.000000,89.000000
1295166.503489,34.000000,36.000000,50.000000,31.000000,-54.000000,42.000000,71.000000,29.000000
1295166.518394,-31.000000,-42.000000,-31.000000,14.000000,11.000000,-51.000000,-67.000000,-40.000000
1295166.518404,19.000000,-55.000000,-34.000000,-13.000000,-53.000000,-20.000000,-24.000000,-31.000000
1295166.540991,-29.000000,-47.000000,-52.000000,4.000000,46.000000,-11.000000,-28.000000,-6.000000
1295166.541003,-51.000000,-24.000000,-7.000000,-36.000000,-39.000000,-72.000000,-40.000000,-105.000000
1295166.548449,55.000000,7.000000,20.000000,-1.000000,-10.000000,84.000000,127.000000,56.000000
1295166.548471,14.000000,17.000000,1.000000,34.000000,51.000000,6.000000,48.000000,63.000000
1295166.549306,-34.000000,-3.000000,12.000000,34.000000,24.000000,-23.000000,-60.000000,-29.000000
1295166.549328,-25.000000,7.000000,9.000000,0.000000,77.000000,25.000000,-128.000000,-76.000000
1295166.549881,9.000000,38.000000,24.000000,31.000000,-5.000000,-13.000000,-62.000000,-11.000000
1295166.549903,36.000000,7.000000,-29.000000,-35.000000,-3.000000,28.000000,71.000000,45.000000
1295166.552002,-1.000000,-14.000000,1.000000,-15.000000,-46.000000,9.000000,-28.000000,-10.000000
1295166.552031,-51.000000,-47.000000,-16.000000,39.000000,12.000000,-68.000000,-113.000000,-71.000000
1295166.570718,-77.000000,-95.000000,-85.000000,-88.000000,-47.000000,-74.000000,-43.000000,-128.000000
1295166.570729,52.000000,50.000000,54.000000,53.000000,18.000000,60.000000,57.000000,66.000000
1295166.571139,-12.000000,6.000000,36.000000,17.000000,0.000000,-7.000000,45.000000,-6.000000
1295166.571147,-58.000000,-69.000000,-65.000000,-62.000000,-30.000000,-83.000000,-128.000000,-59.000000
1295166.578170,-17.000000,-61.000000,-47.000000,9.000000,13.000000,-11.000000,127.000000,51.000000
1295166.578179,35.000000,27.000000,30.000000,20.000000,-41.000000,127.000000,100.000000,-24.000000
1295166.593841,53.000000,49.000000,25.000000,10.000000,-42.000000,17.000000,95.000000,68.000000
1295166.593859,13.000000,24.000000,18.000000,-9.000000,-23.000000,-86.000000,-58.000000,43.000000
1295166.615759,-78.000000,-66.000000,-46.000000,25.000000,78.000000,10.000000,-57.000000,-22.000000
1295166.615769,56.000000,72.000000,63.000000,-37.000000,-112.000000,55.000000,127.000000,48.000000
1295166.653544,-6.000000,-79.000000,-42.000000,3.000000,40.000000,1.000000,-18.000000,19.000000
1295166.653555,4.000000,-25.000000,-9.000000,8.000000,39.000000,30.000000,-128.000000,-28.000000
1295166.668111,-17.000000,-59.000000,-48.000000,1.000000,-11.000000,-16.000000,-60.000000,-14.000000
1295166.668138,-36.000000,-47.000000,-97.000000,-72.000000,-43.000000,-73.000000,-128.000000,-14.000000
1295166.668547,65.000000,48.000000,86.000000,49.000000,30.000000,127.000000,127.000000,109.000000
1295166.668556,11.000000,14.000000,-28.000000,-8.000000,-21.000000,-12.000000,-62.000000,8.000000
1295166.669815,-23.000000,26.000000,62.000000,-5.000000,-10.000000,-59.000000,-128.000000,-56.000000
1295166.669837,-16.000000,-23.000000,-32.000000,-34.000000,-22.000000,-28.000000,118.000000,27.000000
1295166.670445,31.000000,24.000000,-5.000000,-25.000000,-78.000000,31.000000,110.000000,56.000000
1295166.670466,5.000000,-10.000000,1.000000,-16.000000,-24.000000,-6.000000,-3.000000,-6.000000
1295166.671331,25.000000,32.000000,59.000000,14.000000,-49.000000,22.000000,-94.000000,16.000000
1295166.671353,-8.000000,-9.000000,-29.000000,-6.000000,2.000000,-51.000000,-65.000000,-21.000000
1295166.691282,-28.000000,-27.000000,0.000000,0.000000,16.000000,-21.000000,-72.000000,-43.000000
1295166.691295,-26.000000,2.000000,9.000000,8.000000,40.000000,-39.000000,-30.000000,-8.000000
1295166.691846,-31.000000,-28.000000,-5.000000,-27.000000,-81.000000,4.000000,55.000000,-6.000000
1295166.691866,56.000000,60.000000,24.000000,9.000000,8.000000,31.000000,79.000000,28.000000
1295166.698164,-32.000000,-2.000000,-57.000000,-19.000000,9.000000,-6.000000,-52.000000,-37.000000
1295166.698173,51.000000,112.000000,40.000000,8.000000,-10.000000,-67.000000,-128.000000,-3.000000
1295166.735860,20.000000,4.000000,-32.000000,5.000000,-32.000000,11.000000,127.000000,-8.000000
1295166.735870,-49.000000,98.000000,92.000000,-29.000000,-76.000000,-80.000000,-93.000000,-23.000000
1295166.773983,28.000000,66.000000,9.000000,20.000000,17.000000,2.000000,-1.000000,-3.000000
1295166.774001,-12.000000,-8.000000,2.000000,48.000000,61.000000,-29.000000,-30.000000,-3.000000
1295166.774477,16.000000,28.000000,8.000000,-13.000000,-31.000000,-2.000000,109.000000,65.000000
1295166.774492,-43.000000,-56.000000,-61.000000,-64.000000,-50.000000,-41.000000,-14.000000,-15.000000
1295166.775736,-26.000000,-10.000000,-3.000000,-19.000000,49.000000,8.000000,1.000000,7.000000
1295166.775747,102.000000,74.000000,26.000000,68.000000,46.000000,31.000000,61.000000,107.000000
1295166.776375,13.000000,2.000000,7.000000,-35.000000,-31.000000,7.000000,-40.000000,-6.000000
1295166.776386,-42.000000,-39.000000,-30.000000,-41.000000,-76.000000,-66.000000,-46.000000,-59.000000
1295166.777200,10.000000,21.000000,34.000000,49.000000,124.000000,12.000000,-48.000000,23.000000
1295166.777210,-8.000000,-21.000000,-38.000000,-67.000000,-104.000000,-70.000000,88.000000,-19.000000
1295166.780878,-39.000000,-47.000000,-56.000000,-60.000000,-33.000000,-73.000000,-53.000000,-22.000000
1295166.780898,-26.000000,-3.000000,-41.000000,-6.000000,-14.000000,-122.000000,-128.000000,-2.000000
1295166.818575,-49.000000,-88.000000,-62.000000,-34.000000,-11.000000,-50.000000,21.000000,-43.000000
1295166.818605,125.000000,62.000000,125.000000,100.000000,-36.000000,127.000000,125.000000,94.000000
1295166.819471,-30.000000,-19.000000,-34.000000,-21.000000,-33.000000,-55.000000,-12.000000,-15.000000
1295166.819504,-75.000000,-82.000000,-51.000000,-42.000000,-25.000000,-42.000000,-92.000000,-63.000000
1295166.820122,-59.000000,-128.000000,-128.000000,-128.000000,-94.000000,-106.000000,-128.000000,-86.000000
1295166.820148,66.000000,0.000000,28.000000,127.000000,127.000000,102.000000,92.000000,97.000000
1295166.826110,-14.000000,-49.000000,-29.000000,-18.000000,-24.000000,-44.000000,-96.000000,-16.000000
1295166.826120,-51.000000,-10.000000,-20.000000,4.000000,23.000000,75.000000,26.000000,15.000000
1295166.833395,39.000000,14.000000,22.000000,-22.000000,-82.000000,81.000000,127.000000,91.000000
1295166.833408,-4.000000,6.000000,-9.000000,-7.000000,-44.000000,-42.000000,-6.000000,-2.000000
1295166.855761,13.000000,-9.000000,8.000000,11.000000,29.000000,-3.000000,21.000000,15.000000
1295166.855773,1.000000,18.000000,20.000000,86.000000,80.000000,-7.000000,-124.000000,-21.000000
1295166.870894,-45.000000,-53.000000,-69.000000,-95.000000,-128.000000,-45.000000,-72.000000,-47.000000
1295166.870906,35.000000,38.000000,0.000000,39.000000,7.000000,15.000000,-63.000000,-17.000000
1295166.893369,-3.000000,-39.000000,4.000000,-46.000000,-64.000000,-41.000000,109.000000,-16.000000
1295166.893380,56.000000,85.000000,31.000000,93.000000,127.000000,89.000000,48.000000,37.000000
1295166.938216,-13.000000,-7.000000,13.000000,-4.000000,10.000000,-26.000000,-13.000000,-16.000000
1295166.938235,-32.000000,-31.000000,-41.000000,-40.000000,-74.000000,-114.000000,-128.000000,-62.000000
1295166.939253,6.000000,-23.000000,-48.000000,-36.000000,-28.000000,-25.000000,127.000000,102.000000
1295166.939262,53.000000,1.000000,15.000000,44.000000,80.000000,127.000000,127.000000,78.000000
1295166.939873,-46.000000,-80.000000,-46.000000,-40.000000,-64.000000,-48.000000,-58.000000,-32.000000
1295166.939881,-12.000000,26.000000,-31.000000,-8.000000,0.000000,41.000000,-61.000000,28.000000
1295166.941264,50.000000,35.000000,33.000000,0.000000,-1.000000,45.000000,39.000000,-12.000000
1295166.941313,-38.000000,-128.000000,-95.000000,-42.000000,-34.000000,-22.000000,-21.000000,-3.000000
1295166.942131,83.000000,24.000000,27.000000,127.000000,127.000000,113.000000,-1.000000,0.000000
1295166.942146,-2.000000,-10.000000,37.000000,-29.000000,-26.000000,11.000000,-47.000000,36.000000
1295166.945676,82.000000,113.000000,84.000000,-78.000000,-38.000000,9.000000,-128.000000,-14.000000
1295166.945685,-38.000000,-11.000000,14.000000,33.000000,51.000000,39.000000,77.000000,29.000000
1295166.968550,2.000000,-33.000000,-25.000000,-5.000000,-20.000000,-38.000000,-21.000000,7.000000
1295166.968570,-59.000000,-67.000000,-19.000000,-6.000000,-16.000000,-66.000000,11.000000,-94.000000
1295166.983317,37.000000,-6.000000,-16.000000,13.000000,31.000000,54.000000,11.000000,-16.000000
1295166.983336,17.000000,34.000000,26.000000,-78.000000,-128.000000,-24.000000,-57.000000,37.000000
1295166.998383,-7.000000,-15.000000,13.000000,36.000000,57.000000,-3.000000,-128.000000,9.000000
1295166.998392,-18.000000,-7.000000,-18.000000,5.000000,25.000000,18.000000,71.000000,-18.000000
1295167.014339,-27.000000,16.000000,-45.000000,-43.000000,-21.000000,-16.000000,68.000000,-4.000000
1295167.014358,-113.000000,-128.000000,-69.000000,-50.000000,-21.000000,-128.000000,-128.000000,-52.000000
1295167.014789,116.000000,127.000000,108.000000,54.000000,50.000000,127.000000,127.000000,127.000000
1295167.014816,27.000000,-10.000000,-10.000000,-18.000000,-49.000000,-14.000000,-25.000000,-34.000000
1295167.015925,6.000000,-31.000000,-26.000000,38.000000,18.000000,12.000000,-81.000000,-4.000000
1295167.015939,-28.000000,-60.000000,-25.000000,-51.000000,-65.000000,-70.000000,-22.000000,-24.000000
1295167.016517,-41.000000,-52.000000,-60.000000,-67.000000,-128.000000,-128.000000,-96.000000,-39.000000
1295167.016528,17.000000,-5.000000,5.000000,28.000000,127.000000,75.000000,127.000000,36.000000
1295167.035870,-9.000000,-29.000000,-16.000000,36.000000,78.000000,-6.000000,-10.000000,-42.000000
1295167.035887,4.000000,-62.000000,-61.000000,-7.000000,-32.000000,-13.000000,30.000000,19.000000
1295167.050851,-4.000000,22.000000,46.000000,-51.000000,-40.000000,-5.000000,-40.000000,-2.000000
1295167.050864,10.000000,-8.000000,27.000000,-11.000000,-35.000000,-4.000000,-29.000000,12.000000
1295167.051861,-8.000000,-60.000000,15.000000,55.000000,71.000000,127.000000,37.000000,-8.000000
1295167.051870,-14.000000,-46.000000,-26.000000,-1.000000,-6.000000,38.000000,33.000000,-4.000000
1295167.052438,-52.000000,-19.000000,20.000000,6.000000,13.000000,29.000000,-128.000000,-128.000000
1295167.052448,-45.000000,-52.000000,-28.000000,48.000000,114.000000,-73.000000,30.000000,10.000000
1295167.096160,65.000000,86.000000,127.000000,-75.000000,-128.000000,74.000000,127.000000,80.000000
1295167.096170,47.000000,94.000000,24.000000,6.000000,13.000000,5.000000,-37.000000,-7.000000
1295167.110822,-58.000000,-47.000000,-36.000000,-7.000000,46.000000,-35.000000,-128.000000,-57.000000
1295167.110832,-37.000000,-34.000000,-5.000000,-11.000000,10.000000,-43.000000,-46.000000,-43.000000
1295167.125708,59.000000,32.000000,7.000000,23.000000,-13.000000,40.000000,108.000000,49.000000
1295167.125717,5.000000,-3.000000,-8.000000,-20.000000,-59.000000,-6.000000,-19.000000,28.000000
1295167.126817,-45.000000,-62.000000,-36.000000,62.000000,127.000000,-41.000000,-84.000000,-42.000000
1295167.126837,95.000000,117.000000,127.000000,29.000000,-128.000000,127.000000,17.000000,79.000000
1295167.127490,0.000000,-12.000000,-53.000000,8.000000,9.000000,-9.000000,-75.000000,6.000000
1295167.127507,-15.000000,-36.000000,-23.000000,11.000000,-8.000000,-3.000000,127.000000,75.000000
1295167.128909,-55.000000,-30.000000,5.000000,-24.000000,-80.000000,-10.000000,28.000000,-27.000000
1295167.128917,89.000000,33.000000,22.000000,35.000000,24.000000,15.000000,43.000000,27.000000
1295167.133946,-110.000000,-112.000000,-52.000000,-23.000000,-34.000000,-36.000000,3.000000,-4.000000
1295167.133957,22.000000,93.000000,49.000000,22.000000,50.000000,-28.000000,-128.000000,-128.000000
1295167.163258,11.000000,-24.000000,24.000000,49.000000,-6.000000,62.000000,-8.000000,63.000000
1295167.163269,23.000000,56.000000,57.000000,0.000000,20.000000,-38.000000,-96.000000,-23.000000
1295167.208536,-25.000000,-35.000000,-47.000000,30.000000,55.000000,23.000000,-85.000000,20.000000
1295167.208552,88.000000,127.000000,69.000000,21.000000,53.000000,23.000000,58.000000,78.000000
1295167.215846,13.000000,-6.000000,10.000000,46.000000,31.000000,53.000000,127.000000,42.000000
1295167.215869,-95.000000,-117.000000,-111.000000,-82.000000,-84.000000,-128.000000,-26.000000,-37.000000
1295167.246347,83.000000,103.000000,43.000000,29.000000,69.000000,76.000000,14.000000,23.000000
1295167.246387,38.000000,45.000000,30.000000,55.000000,-18.000000,-6.000000,-1.000000,52.000000
1295167.253297,-56.000000,-17.000000,-22.000000,-4.000000,-33.000000,-68.000000,-128.000000,-88.000000
1295167.253307,40.000000,72.000000,85.000000,45.000000,119.000000,73.000000,110.000000,52.000000
1295167.268093,28.000000,-29.000000,-5.000000,-1.000000,-24.000000,-24.000000,-5.000000,39.000000
1295167.268103,-10.000000,-14.000000,-7.000000,-36.000000,-85.000000,-80.000000,-58.000000,-38.000000
1295167.291202,-29.000000,-7.000000,6.000000,8.000000,16.000000,-17.000000,-17.000000,-9.000000
1295167.291222,-36.000000,-23.000000,-52.000000,-4.000000,-7.000000,-89.000000,70.000000,35.000000
1295167.292196,-36.000000,29.000000,79.000000,21.000000,-1.000000,-27.000000,-35.000000,-39.000000
1295167.292206,-7.000000,-13.000000,9.000000,15.000000,38.000000,-63.000000,-61.000000,-11.000000
1295167.292611,-23.000000,-55.000000,-37.000000,-9.000000,14.000000,-15.000000,-42.000000,-18.000000
1295167.292641,-14.000000,-40.000000,-27.000000,-12.000000,-35.000000,-36.000000,-54.000000,-3.000000
1295167.293762,-55.000000,-66.000000,-21.000000,11.000000,9.000000,-93.000000,-108.000000,-20.000000
1295167.293790,127.000000,126.000000,22.000000,-104.000000,-128.000000,56.000000,127.000000,124.000000
1295167.294994,9.000000,-8.000000,-9.000000,20.000000,22.000000,-14.000000,-70.000000,38.000000
1295167.295002,-33.000000,-21.000000,-34.000000,-6.000000,5.000000,-47.000000,-106.000000,-69.000000
1295167.328401,87.000000,98.000000,105.000000,2.000000,-38.000000,97.000000,127.000000,-96.000000
1295167.328411,19.000000,36.000000,61.000000,73.000000,20.000000,51.000000,-15.000000,63.000000
1295167.373587,-33.000000,-37.000000,-29.000000,-25.000000,-27.000000,-14.000000,-44.000000,-36.000000
1295167.373619,80.000000,127.000000,64.000000,54.000000,67.000000,48.000000,14.000000,26.000000
1295167.374191,-31.000000,-108.000000,-69.000000,-52.000000,-38.000000,-66.000000,-113.000000,-14.000000
1295167.374217,19.000000,-5.000000,17.000000,17.000000,-10.000000,116.000000,-50.000000,-3.000000
1295167.375044,-16.000000,-9.000000,-63.000000,-7.000000,38.000000,59.000000,-11.000000,7.000000
1295167.375055,-4.000000,-10.000000,53.000000,18.000000,3.000000,20.000000,17.000000,27.000000
1295167.375677,-38.000000,-32.000000,-74.000000,-22.000000,9.000000,-35.000000,-128.000000,-14.000000
1295167.375684,23.000000,-38.000000,-22.000000,23.000000,2.000000,50.000000,110.000000,4.000000
1295167.377179,3.000000,-15.000000,10.000000,24.000000,13.000000,39.000000,122.000000,21.000000
1295167.377186,18.000000,26.000000,28.000000,-28.000000,-37.000000,-97.000000,-58.000000,-43.000000
1295167.380742,41.000000,51.000000,0.000000,27.000000,46.000000,40.000000,127.000000,54.000000
1295167.380774,-35.000000,-40.000000,7.000000,-57.000000,-40.000000,-74.000000,-44.000000,-28.000000
1295167.403843,9.000000,51.000000,67.000000,25.000000,-128.000000,19.000000,24.000000,-17.000000
1295167.403861,-7.000000,-7.000000,-4.000000,-11.000000,1.000000,-18.000000,-5.000000,9.000000
1295167.404643,-40.000000,-30.000000,-20.000000,23.000000,79.000000,-53.000000,-128.000000,-62.000000
1295167.404665,-11.000000,-32.000000,-26.000000,-38.000000,-46.000000,-34.000000,45.000000,4.000000
1295167.411495,-30.000000,-56.000000,-28.000000,-9.000000,-20.000000,-2.000000,-64.000000,-65.000000
1295167.411505,80.000000,-11.000000,-1.000000,11.000000,16.000000,6.000000,31.000000,46.000000
1295167.433545,-104.000000,-116.000000,-59.000000,-11.000000,-3.000000,-63.000000,-29.000000,-36.000000
1295167.433560,127.000000,127.000000,108.000000,57.000000,11.000000,47.000000,127.000000,127.000000
1295167.448382,-20.000000,-103.000000,-65.000000,-48.000000,-51.000000,-29.000000,73.000000,48.000000
1295167.448406,5.000000,67.000000,21.000000,7.000000,-3.000000,13.000000,-64.000000,-1.000000
1295167.463499,-5.000000,-22.000000,-6.000000,13.000000,-55.000000,-22.000000,-33.000000,14.000000
1295167.463512,-22.000000,-46.000000,-47.000000,1.000000,4.000000,-35.000000,-33.000000,-55.000000
1295167.485878,-60.000000,-23.000000,-65.000000,-83.000000,-59.000000,-128.000000,-128.000000,-83.000000
1295167.485889,72.000000,43.000000,81.000000,0.000000,-78.000000,53.000000,24.000000,1.000000
1295167.493577,-2.000000,3.000000,-4.000000,24.000000,-10.000000,-58.000000,28.000000,1.000000
1295167.493586,-18.000000,-27.000000,-11.000000,-7.000000,3.000000,-31.000000,-39.000000,-30.000000
1295167.523548,-15.000000,-2.000000,-15.000000,8.000000,43.000000,-14.000000,-116.000000,-41.000000
1295167.523598,11.000000,-15.000000,-25.000000,-20.000000,-103.000000,-30.000000,-87.000000,-27.000000
1295167.530808,-6.000000,31.000000,40.000000,-40.000000,-113.000000,16.000000,127.000000,61.000000
1295167.530818,81.000000,69.000000,91.000000,16.000000,-13.000000,46.000000,126.000000,39.000000
1295167.553456,-13.000000,-3.000000,30.000000,49.000000,90.000000,-5.000000,-12.000000,-6.000000
1295167.553484,-36.000000,-70.000000,-72.000000,-6.000000,-1.000000,-128.000000,-128.000000,-48.000000
1295167.553869,23.000000,-33.000000,-10.000000,-128.000000,-96.000000,66.000000,127.000000,29.000000
1295167.553877,46.000000,30.000000,32.000000,36.000000,49.000000,22.000000,50.000000,56.000000
1295167.568695,-8.000000,-36.000000,-44.000000,-23.000000,-22.000000,-70.000000,-107.000000,-7.000000
1295167.568703,-79.000000,-72.000000,-45.000000,-38.000000,-73.000000,-24.000000,-49.000000,-43.000000
1295167.569372,42.000000,11.000000,-25.000000,27.000000,-12.000000,28.000000,-13.000000,20.000000
1295167.569382,-55.000000,-54.000000,-28.000000,5.000000,-14.000000,-43.000000,0.000000,-17.000000
1295167.570674,8.000000,4.000000,-41.000000,-48.000000,-12.000000,-33.000000,-34.000000,-5.000000
1295167.570683,25.000000,10.000000,25.000000,38.000000,-76.000000,12.000000,114.000000,39.000000
1295167.571791,27.000000,66.000000,7.000000,27.000000,31.000000,-1.000000,-54.000000,-1.000000
1295167.571813,43.000000,6.000000,-5.000000,15.000000,33.000000,43.000000,127.000000,71.000000
1295167.606127,-67.000000,-58.000000,-31.000000,-64.000000,-77.000000,-92.000000,-68.000000,-38.000000
1295167.606159,16.000000,-34.000000,-68.000000,22.000000,48.000000,14.000000,-31.000000,-26.000000
1295167.606640,95.000000,127.000000,104.000000,19.000000,-20.000000,77.000000,127.000000,114.000000
1295167.606666,-59.000000,-67.000000,-56.000000,-22.000000,-21.000000,-52.000000,-76.000000,-21.000000
1295167.607513,-19.000000,58.000000,85.000000,-41.000000,-88.000000,-52.000000,1.000000,-21.000000
1295167.607539,20.000000,43.000000,22.000000,-1.000000,-128.000000,61.000000,32.000000,35.000000
1295167.608406,-12.000000,-14.000000,-21.000000,37.000000,37.000000,-18.000000,-32.000000,-21.000000
1295167.608432,-33.000000,-60.000000,-57.000000,-63.000000,-68.000000,-128.000000,-36.000000,-56.000000
1295167.614018,-18.000000,-5.000000,-43.000000,26.000000,-99.000000,85.000000,-13.000000,-105.000000
1295167.614046,33.000000,20.000000,66.000000,21.000000,-73.000000,38.000000,65.000000,43.000000
1295167.650956,-5.000000,-52.000000,9.000000,1.000000,-9.000000,-71.000000,-88.000000,-13.000000
1295167.650968,-89.000000,-70.000000,-86.000000,-54.000000,-16.000000,-115.000000,-113.000000,-102.000000
1295167.680886,-107.000000,-23.000000,-29.000000,-55.000000,-50.000000,-2.000000,-128.000000,-128.000000
1295167.680910,92.000000,127.000000,19.000000,-30.000000,0.000000,30.000000,72.000000,14.000000
1295167.688346,-68.000000,-107.000000,-102.000000,-30.000000,-15.000000,-32.000000,-22.000000,-26.000000
1295167.688357,5.000000,51.000000,13.000000,-33.000000,-60.000000,-73.000000,-124.000000,-68.000000
1295167.725994,-55.000000,-82.000000,-89.000000,-86.000000,-54.000000,-16.000000,-13.000000,-32.000000
1295167.726018,84.000000,107.000000,127.000000,58.000000,-2.000000,78.000000,127.000000,95.000000
1295167.756174,-25.000000,-29.000000,-36.000000,-1.000000,6.000000,10.000000,-75.000000,-43.000000
1295167.756229,19.000000,49.000000,39.000000,4.000000,104.000000,22.000000,-32.000000,42.000000
1295167.763973,34.000000,17.000000,23.000000,18.000000,-52.000000,106.000000,56.000000,49.000000
1295167.763983,-29.000000,-19.000000,-9.000000,-1.000000,15.000000,-27.000000,-32.000000,-24.000000
1295167.771209,81.000000,59.000000,71.000000,102.000000,21.000000,69.000000,77.000000,39.000000
1295167.771228,-93.000000,-106.000000,-123.000000,-46.000000,-29.000000,-102.000000,-24.000000,-7.000000
1295167.800868,57.000000,118.000000,95.000000,112.000000,127.000000,127.000000,127.000000,117.000000
1295167.800878,-17.000000,-41.000000,-40.000000,-11.000000,-7.000000,-29.000000,-59.000000,-32.000000
1295167.816376,-11.000000,-17.000000,-14.000000,-17.000000,-9.000000,-24.000000,-36.000000,24.000000
1295167.816448,-22.000000,-36.000000,-40.000000,4.000000,22.000000,20.000000,-37.000000,-43.000000
1295167.845936,-4.000000,-11.000000,11.000000,-6.000000,-49.000000,-22.000000,19.000000,3.000000
1295167.845948,33.000000,20.000000,-19.000000,14.000000,9.000000,43.000000,86.000000,115.000000
1295167.847056,-24.000000,-22.000000,-15.000000,-23.000000,-3.000000,-18.000000,-71.000000,-55.000000
1295167.847076,28.000000,22.000000,-15.000000,17.000000,31.000000,9.000000,82.000000,44.000000
1295167.847493,-35.000000,-50.000000,-25.000000,10.000000,-3.000000,-94.000000,-69.000000,-38.000000
1295167.847514,25.000000,31.000000,36.000000,-48.000000,-111.000000,-27.000000,9.000000,82.000000
1295167.848881,64.000000,34.000000,15.000000,87.000000,127.000000,127.000000,127.000000,76.000000
1295167.848921,18.000000,17.000000,52.000000,-32.000000,-128.000000,-30.000000,-13.000000,28.000000
1295167.891008,-9.000000,0.000000,8.000000,-11.000000,22.000000,22.000000,7.000000,18.000000
1295167.891019,-38.000000,-54.000000,-7.000000,-9.000000,-13.000000,-51.000000,-64.000000,-28.000000
1295167.928368,-3.000000,-62.000000,-66.000000,-52.000000,-27.000000,-17.000000,-12.000000,-35.000000
1295167.928388,33.000000,104.000000,55.000000,31.000000,7.000000,15.000000,28.000000,21.000000
1295167.958608,-46.000000,-62.000000,-41.000000,-17.000000,21.000000,10.000000,-101.000000,-55.000000
1295167.958639,11.000000,109.000000,44.000000,-5.000000,-7.000000,-17.000000,-1.000000,-9.000000
1295167.959214,-16.000000,23.000000,13.000000,3.000000,24.000000,-20.000000,-67.000000,-35.000000
1295167.959223,43.000000,14.000000,37.000000,67.000000,75.000000,11.000000,88.000000,43.000000
1295167.959910,-78.000000,-47.000000,-25.000000,-29.000000,51.000000,-75.000000,-128.000000,-103.000000
1295167.959918,-5.000000,-20.000000,-19.000000,-15.000000,-10.000000,66.000000,127.000000,15.000000
1295167.961922,-23.000000,-4.000000,42.000000,23.000000,36.000000,8.000000,3.000000,14.000000
1295167.961933,76.000000,127.000000,44.000000,-14.000000,-80.000000,38.000000,46.000000,45.000000
1295167.965887,-89.000000,-93.000000,-83.000000,-18.000000,22.000000,-128.000000,-128.000000,-128.000000
1295167.965897,24.000000,24.000000,-3.000000,40.000000,93.000000,86.000000,127.000000,85.000000
1295168.003588,-14.000000,-73.000000,-26.000000,-28.000000,-117.000000,-78.000000,-55.000000,31.000000
1295168.003617,-25.000000,-57.000000,-60.000000,-87.000000,-126.000000,-73.000000,-128.000000,-69.000000
1295168.018675,59.000000,127.000000,88.000000,87.000000,90.000000,127.000000,94.000000,31.000000
1295168.018708,-64.000000,-83.000000,-43.000000,-10.000000,36.000000,-128.000000,-79.000000,-28.000000
1295168.040900,-36.000000,-31.000000,-22.000000,-29.000000,-15.000000,-56.000000,-128.000000,-80.000000
1295168.040924,-19.000000,-70.000000,-48.000000,15.000000,2.000000,-54.000000,-128.000000,34.000000
1295168.048232,-53.000000,-116.000000,-63.000000,-52.000000,-125.000000,-35.000000,114.000000,-17.000000
1295168.048242,57.000000,108.000000,127.000000,2.000000,-11.000000,7.000000,64.000000,-7.000000
1295168.078329,-93.000000,-128.000000,-100.000000,-11.000000,30.000000,-105.000000,-128.000000,-73.000000
1295168.078353,52.000000,-69.000000,-41.000000,-36.000000,-69.000000,-50.000000,127.000000,37.000000
1295168.078748,53.000000,76.000000,47.000000,118.000000,63.000000,89.000000,105.000000,73.000000
1295168.078769,-66.000000,-103.000000,-70.000000,-5.000000,13.000000,-69.000000,-98.000000,-43.000000
1295168.079985,-51.000000,-44.000000,-22.000000,22.000000,10.000000,-66.000000,-102.000000,-67.000000
1295168.080004,-19.000000,11.000000,50.000000,32.000000,69.000000,69.000000,127.000000,-29.000000
1295168.081285,87.000000,73.000000,16.000000,1.000000,-1.000000,23.000000,87.000000,75.000000
1295168.081308,-3.000000,-42.000000,-17.000000,-19.000000,-35.000000,-68.000000,-5.000000,5.000000
1295168.085823,-4.000000,7.000000,-23.000000,-76.000000,-103.000000,43.000000,21.000000,-71.000000
1295168.085833,20.000000,-23.000000,19.000000,79.000000,127.000000,-53.000000,42.000000,42.000000
1295168.094076,-34.000000,1.000000,33.000000,-93.000000,-49.000000,-53.000000,-70.000000,-16.000000
1295168.094085,-27.000000,28.000000,-2.000000,-2.000000,-15.000000,4.000000,34.000000,-19.000000
1295168.115954,-82.000000,-42.000000,35.000000,-73.000000,-60.000000,-83.000000,-128.000000,-101.000000
1295168.115964,29.000000,-46.000000,-128.000000,-26.000000,46.000000,52.000000,-88.000000,-29.000000
1295168.146128,83.000000,125.000000,120.000000,29.000000,59.000000,127.000000,127.000000,127.000000
1295168.146139,-18.000000,-28.000000,-26.000000,15.000000,23.000000,-8.000000,-63.000000,0.000000
1295168.161055,-33.000000,-34.000000,-51.000000,-6.000000,32.000000,13.000000,-100.000000,-27.000000
1295168.161076,-35.000000,-28.000000,-50.000000,-21.000000,14.000000,15.000000,-78.000000,-67.000000
1295168.183458,-10.000000,2.000000,65.000000,12.000000,18.000000,-38.000000,6.000000,-11.000000
1295168.183471,-9.000000,-7.000000,7.000000,20.000000,59.000000,72.000000,8.000000,-20.000000
1295168.206210,42.000000,80.000000,21.000000,9.000000,-4.000000,-20.000000,6.000000,27.000000
1295168.206277,-31.000000,-17.000000,10.000000,33.000000,78.000000,36.000000,-128.000000,-35.000000
1295168.207182,-24.000000,-99.000000,-31.000000,-45.000000,-36.000000,-48.000000,-128.000000,-37.000000
1295168.207191,127.000000,23.000000,51.000000,67.000000,43.000000,127.000000,127.000000,127.000000
1295168.207807,19.000000,-25.000000,10.000000,37.000000,3.000000,17.000000,-39.000000,12.000000
1295168.207832,-33.000000,-36.000000,-19.000000,-45.000000,-14.000000,-23.000000,-86.000000,-33.000000
1295168.208836,16.000000,-3.000000,49.000000,85.000000,127.000000,32.000000,17.000000,11.000000
1295168.208853,26.000000,10.000000,-29.000000,-20.000000,16.000000,-19.000000,-3.000000,3.000000
1295168.209552,-75.000000,-87.000000,-44.000000,24.000000,35.000000,-31.000000,-15.000000,-89.000000
1295168.209560,-4.000000,23.000000,25.000000,-2.000000,-107.000000,-21.000000,-101.000000,13.000000
1295168.213776,-31.000000,-56.000000,-46.000000,2.000000,23.000000,6.000000,-21.000000,-8.000000
1295168.213785,-21.000000,6.000000,-10.000000,-31.000000,-15.000000,-25.000000,-58.000000,5.000000
1295168.235745,-22.000000,-44.000000,-8.000000,8.000000,-1.000000,-54.000000,0.000000,-6.000000
1295168.235754,-128.000000,-128.000000,-42.000000,-18.000000,-5.000000,-128.000000,-128.000000,-86.000000
1295168.237115,127.000000,127.000000,127.000000,82.000000,85.000000,90.000000,127.000000,121.000000
1295168.237124,86.000000,102.000000,82.000000,52.000000,34.000000,57.000000,65.000000,81.000000
1295168.281263,-19.000000,-43.000000,-1.000000,44.000000,22.000000,3.000000,-42.000000,5.000000
1295168.281276,-29.000000,-49.000000,-17.000000,-7.000000,15.000000,2.000000,-76.000000,-27.000000
1295168.318352,-29.000000,8.000000,0.000000,-42.000000,-80.000000,-74.000000,-97.000000,-12.000000
1295168.318364,23.000000,10.000000,7.000000,34.000000,59.000000,25.000000,39.000000,8.000000
1295168.318653,-38.000000,-23.000000,-29.000000,-9.000000,57.000000,7.000000,-62.000000,-42.000000
1295168.318661,70.000000,117.000000,34.000000,-8.000000,45.000000,22.000000,35.000000,88.000000
1295168.320043,39.000000,-32.000000,-56.000000,1.000000,-83.000000,-41.000000,-61.000000,-40.000000
1295168.320059,12.000000,-14.000000,-20.000000,11.000000,20.000000,96.000000,127.000000,40.000000
1295168.320608,13.000000,37.000000,22.000000,40.000000,44.000000,15.000000,-128.000000,18.000000
1295168.320626,-28.000000,-56.000000,-60.000000,15.000000,10.000000,-124.000000,43.000000,56.000000
1295168.321281,15.000000,46.000000,10.000000,13.000000,-7.000000,-19.000000,-63.000000,-11.000000
1295168.321296,-69.000000,-111.000000,-55.000000,37.000000,78.000000,-17.000000,-128.000000,-34.000000
1295168.325695,-33.000000,-79.000000,-86.000000,-10.000000,21.000000,-32.000000,-48.000000,-14.000000
1295168.325704,-29.000000,-16.000000,-27.000000,-7.000000,0.000000,-31.000000,-66.000000,-28.000000
1295168.334041,21.000000,127.000000,76.000000,30.000000,73.000000,82.000000,56.000000,8.000000
1295168.334051,-14.000000,-41.000000,-48.000000,-37.000000,-13.000000,-27.000000,-33.000000,-15.000000
1295168.355824,-78.000000,-46.000000,-3.000000,-15.000000,-26.000000,-13.000000,-128.000000,-61.000000
1295168.355842,63.000000,107.000000,66.000000,127.000000,127.000000,112.000000,94.000000,47.000000
1295168.370714,15.000000,1.000000,-23.000000,-29.000000,-37.000000,-50.000000,3.000000,0.000000
1295168.370724,-9.000000,25.000000,-4.000000,61.000000,98.000000,-33.000000,-47.000000,-62.000000
1295168.401013,-65.000000,-77.000000,-3.000000,-11.000000,-40.000000,-37.000000,-15.000000,-1.000000
1295168.401024,54.000000,-3.000000,3.000000,9.000000,-3.000000,18.000000,-52.000000,36.000000
1295168.438776,2.000000,-9.000000,-25.000000,-2.000000,-11.000000,-22.000000,-16.000000,-59.000000
1295168.438792,-8.000000,42.000000,21.000000,-30.000000,-63.000000,-78.000000,34.000000,24.000000
1295168.439481,-62.000000,-47.000000,-18.000000,10.000000,28.000000,82.000000,22.000000,-97.000000
1295168.439502,85.000000,114.000000,19.000000,26.000000,42.000000,68.000000,-97.000000,78.000000
1295168.440665,56.000000,38.000000,35.000000,40.000000,50.000000,92.000000,127.000000,127.000000
1295168.440675,-11.000000,-64.000000,-34.000000,19.000000,20.000000,28.000000,-17.000000,4.000000
1295168.441338,0.000000,-1.000000,-31.000000,-18.000000,-13.000000,-28.000000,-22.000000,-3.000000
1295168.441349,-2.000000,49.000000,60.000000,41.000000,51.000000,-22.000000,-56.000000,-21.000000
1295168.442334,18.000000,-26.000000,-31.000000,-42.000000,-64.000000,-23.000000,13.000000,19.000000
1295168.442358,37.000000,98.000000,35.000000,-3.000000,-31.000000,-16.000000,24.000000,49.000000
1295168.445819,44.000000,93.000000,123.000000,47.000000,45.000000,83.000000,56.000000,81.000000
1295168.445835,6.000000,-46.000000,-32.000000,-21.000000,-31.000000,-4.000000,-65.000000,63.000000
1295168.490901,-17.000000,46.000000,4.000000,-17.000000,-7.000000,-82.000000,-128.000000,-49.000000
1295168.490943,20.000000,21.000000,15.000000,36.000000,-9.000000,16.000000,93.000000,7.000000
1295168.498220,24.000000,-19.000000,27.000000,10.000000,-14.000000,-26.000000,86.000000,76.000000
1295168.498230,-28.000000,-33.000000,-60.000000,-38.000000,-58.000000,-45.000000,-128.000000,-128.000000
1295168.551021,-23.000000,-27.000000,5.000000,11.000000,26.000000,-19.000000,-26.000000,-50.000000
1295168.551039,-51.000000,-85.000000,-54.000000,-24.000000,-56.000000,-29.000000,-25.000000,3.000000
1295168.558302,16.000000,-28.000000,7.000000,-84.000000,-111.000000,46.000000,68.000000,17.000000
1295168.558313,13.000000,45.000000,49.000000,13.000000,39.000000,6.000000,62.000000,27.000000
1295168.573789,-41.000000,-83.000000,-63.000000,-1.000000,3.000000,-33.000000,-128.000000,-62.000000
1295168.573808,-38.000000,-28.000000,-17.000000,-51.000000,-23.000000,-5.000000,-77.000000,-57.000000
1295168.596115,43.000000,56.000000,86.000000,8.000000,38.000000,30.000000,-12.000000,-14.000000
1295168.596139,20.000000,43.000000,49.000000,26.000000,-30.000000,-41.000000,-32.000000,-10.000000
1295168.603299,47.000000,79.000000,127.000000,27.000000,-27.000000,67.000000,108.000000,49.000000
1295168.603328,14.000000,4.000000,-14.000000,7.000000,-17.000000,-11.000000,-80.000000,-38.000000
1295168.611021,0.000000,-23.000000,-63.000000,-2.000000,16.000000,80.000000,127.000000,75.000000
1295168.611032,-33.000000,-79.000000,-6.000000,-48.000000,-32.000000,-17.000000,-18.000000,-14.000000
1295168.633425,102.000000,127.000000,127.000000,47.000000,-42.000000,127.000000,114.000000,72.000000
1295168.633435,3.000000,-3.000000,-47.000000,25.000000,21.000000,2.000000,-35.000000,-30.000000
1295168.640882,114.000000,56.000000,1.000000,-96.000000,1.000000,41.000000,127.000000,127.000000
1295168.640895,89.000000,127.000000,93.000000,73.000000,103.000000,41.000000,105.000000,75.000000
1295168.678304,-41.000000,-67.000000,-71.000000,-29.000000,-33.000000,-44.000000,-96.000000,-32.000000
1295168.678326,-73.000000,-23.000000,10.000000,-22.000000,-24.000000,-94.000000,3.000000,-33.000000
1295168.679306,-2.000000,22.000000,24.000000,-3.000000,-31.000000,-32.000000,9.000000,18.000000
1295168.679367,-103.000000,-120.000000,-98.000000,-61.000000,-44.000000,-57.000000,-128.000000,-52.000000
1295168.679916,81.000000,127.000000,115.000000,19.000000,-6.000000,99.000000,127.000000,73.000000
1295168.679937,52.000000,76.000000,34.000000,1.000000,-26.000000,15.000000,23.000000,30.000000
1295168.680695,-51.000000,-30.000000,21.000000,14.000000,12.000000,50.000000,27.000000,12.000000
1295168.680743,50.000000,75.000000,33.000000,32.000000,67.000000,49.000000,31.000000,11.000000
1295168.682232,-1.000000,-15.000000,-11.000000,-12.000000,-16.000000,-13.000000,-10.000000,18.000000
1295168.682240,-43.000000,0.000000,-19.000000,-18.000000,21.000000,6.000000,127.000000,42.000000
1295168.700746,-33.000000,10.000000,54.000000,-10.000000,-19.000000,-34.000000,-115.000000,-50.000000
1295168.700756,-26.000000,-36.000000,-32.000000,-35.000000,-17.000000,-50.000000,-87.000000,-36.000000
1295168.708453,-65.000000,-56.000000,-75.000000,-12.000000,6.000000,-44.000000,-23.000000,-25.000000
1295168.708464,43.000000,127.000000,67.000000,-89.000000,-128.000000,20.000000,34.000000,43.000000
1295168.716037,-45.000000,-18.000000,-24.000000,-15.000000,26.000000,-42.000000,-42.000000,-14.000000
1295168.716051,30.000000,-23.000000,-68.000000,4.000000,1.000000,-17.000000,-27.000000,51.000000
1295168.760890,58.000000,107.000000,81.000000,99.000000,84.000000,127.000000,116.000000,59.000000
1295168.760903,-68.000000,-49.000000,-114.000000,-20.000000,14.000000,-68.000000,-128.000000,-98.000000
1295168.768538,-4.000000,-27.000000,-13.000000,-42.000000,-55.000000,7.000000,19.000000,-11.000000
1295168.768557,-19.000000,-11.000000,-67.000000,-112.000000,-128.000000,-89.000000,55.000000,29.000000
1295168.790716,-35.000000,127.000000,33.000000,34.000000,118.000000,16.000000,-128.000000,-128.000000
1295168.790739,32.000000,23.000000,7.000000,10.000000,39.000000,1.000000,-11.000000,21.000000
1295168.798504,28.000000,29.000000,33.000000,54.000000,51.000000,87.000000,127.000000,125.000000
1295168.798514,-19.000000,-38.000000,-44.000000,-39.000000,-61.000000,-36.000000,-112.000000,-23.000000
1295168.828273,-21.000000,-29.000000,-31.000000,-18.000000,-29.000000,-61.000000,127.000000,60.000000
1295168.828283,-31.000000,-55.000000,-14.000000,12.000000,5.000000,-17.000000,-128.000000,-47.000000
1295168.836038,-15.000000,-26.000000,9.000000,-24.000000,-128.000000,-28.000000,0.000000,22.000000
1295168.836046,35.000000,55.000000,81.000000,66.000000,79.000000,27.000000,5.000000,21.000000
1295168.836634,19.000000,-40.000000,-26.000000,-21.000000,-7.000000,-29.000000,-3.000000,-3.000000
1295168.836642,-72.000000,-15.000000,-10.000000,56.000000,115.000000,11.000000,-43.000000,-55.000000
1295168.837262,91.000000,9.000000,28.000000,-52.000000,-128.000000,93.000000,127.000000,127.000000
1295168.837270,-41.000000,-21.000000,7.000000,3.000000,30.000000,-26.000000,-35.000000,10.000000
1295168.838033,77.000000,83.000000,6.000000,28.000000,57.000000,36.000000,-128.000000,-60.000000
1295168.838060,-68.000000,-78.000000,-75.000000,-33.000000,10.000000,13.000000,-128.000000,-40.000000
1295168.838803,39.000000,87.000000,122.000000,19.000000,-43.000000,-14.000000,127.000000,47.000000
1295168.838829,-20.000000,-63.000000,18.000000,-3.000000,-29.000000,-61.000000,-37.000000,-18.000000
1295168.873476,-8.000000,11.000000,-17.000000,-36.000000,-80.000000,-2.000000,-66.000000,-16.000000
1295168.873493,8.000000,28.000000,8.000000,-3.000000,-19.000000,-6.000000,-104.000000,5.000000
1295168.874375,-55.000000,-52.000000,-47.000000,-57.000000,-83.000000,-34.000000,-62.000000,-69.000000
1295168.874396,14.000000,29.000000,62.000000,58.000000,25.000000,69.000000,40.000000,42.000000
1295168.874886,47.000000,100.000000,42.000000,59.000000,62.000000,10.000000,54.000000,29.000000
1295168.874908,-45.000000,-72.000000,-71.000000,-103.000000,-68.000000,5.000000,-13.000000,-32.000000
1295168.880771,-2.000000,62.000000,44.000000,-2.000000,-4.000000,41.000000,96.000000,41.000000
1295168.880780,37.000000,22.000000,18.000000,43.000000,51.000000,20.000000,31.000000,41.000000
1295168.888373,-62.000000,-49.000000,-27.000000,-38.000000,-42.000000,-104.000000,-128.000000,-99.000000
1295168.888383,-12.000000,-5.000000,-14.000000,16.000000,77.000000,37.000000,127.000000,36.000000
1295168.910943,46.000000,38.000000,11.000000,-12.000000,-45.000000,40.000000,41.000000,39.000000
1295168.910956,-8.000000,-7.000000,-7.000000,11.000000,22.000000,20.000000,-51.000000,-1.000000
1295168.911390,-36.000000,-59.000000,-11.000000,-17.000000,-22.000000,-70.000000,-20.000000,-27.000000
1295168.911409,76.000000,69.000000,-3.000000,10.000000,29.000000,-10.000000,-40.000000,53.000000
1295168.918524,5.000000,22.000000,-13.000000,-48.000000,-42.000000,-3.000000,17.000000,28.000000
1295168.918534,-36.000000,54.000000,34.000000,8.000000,41.000000,18.000000,-128.000000,-78.000000
1295168.925723,-9.000000,-9.000000,31.000000,-19.000000,-5.000000,-6.000000,3.000000,37.000000
1295168.925733,-14.000000,-20.000000,-44.000000,8.000000,55.000000,-60.000000,-53.000000,-31.000000
1295168.978660,-15.000000,-33.000000,-41.000000,-86.000000,-100.000000,-19.000000,-20.000000,-63.000000
1295168.978689,-19.000000,-102.000000,-46.000000,54.000000,95.000000,-25.000000,93.000000,-23.000000
1295168.993493,-6.000000,40.000000,42.000000,-8.000000,16.000000,26.000000,-65.000000,-10.000000
1295168.993522,4.000000,-9.000000,-13.000000,52.000000,-5.000000,67.000000,23.000000,40.000000
1295169.038371,6.000000,-33.000000,7.000000,10.000000,4.000000,-6.000000,-25.000000,-3.000000
1295169.038400,-89.000000,-65.000000,-35.000000,-37.000000,-36.000000,-75.000000,81.000000,31.000000
1295169.038850,119.000000,109.000000,29.000000,89.000000,127.000000,60.000000,118.000000,39.000000
1295169.038881,-6.000000,-106.000000,-47.000000,-20.000000,-55.000000,-61.000000,-21.000000,19.000000
1295169.040183,-14.000000,9.000000,66.000000,-3.000000,-23.000000,-18.000000,-57.000000,-15.000000
1295169.040215,-60.000000,-74.000000,-105.000000,-39.000000,-5.000000,-54.000000,-37.000000,-47.000000
1295169.041437,48.000000,48.000000,-1.000000,-36.000000,-86.000000,-25.000000,127.000000,91.000000
1295169.041464,-50.000000,-52.000000,-16.000000,-25.000000,-14.000000,-48.000000,-54.000000,29.000000
1295169.045616,26.000000,-40.000000,-19.000000,-33.000000,-82.000000,-128.000000,107.000000,74.000000
1295169.045626,27.000000,69.000000,25.000000,-17.000000,-43.000000,-33.000000,127.000000,48.000000
1295169.068624,-12.000000,-16.000000,-45.000000,-62.000000,-116.000000,-74.000000,-128.000000,53.000000
1295169.068642,13.000000,-11.000000,12.000000,16.000000,49.000000,5.000000,83.000000,47.000000
1295169.076003,76.000000,127.000000,49.000000,15.000000,-1.000000,127.000000,85.000000,58.000000
1295169.076013,-19.000000,-14.000000,10.000000,5.000000,22.000000,-62.000000,-76.000000,-68.000000
1295169.098564,-30.000000,-4.000000,40.000000,13.000000,-32.000000,-33.000000,-128.000000,-44.000000
1295169.098578,86.000000,70.000000,81.000000,63.000000,54.000000,80.000000,-128.000000,-33.000000
1295169.106096,8.000000,-19.000000,-68.000000,-12.000000,-41.000000,-13.000000,-106.000000,16.000000
1295169.106117,-61.000000,-44.000000,20.000000,22.000000,7.000000,-60.000000,-88.000000,-49.000000
1295169.135921,-128.000000,-128.000000,-128.000000,-128.000000,-124.000000,-128.000000,-104.000000,-76.000000
1295169.135932,15.000000,35.000000,76.000000,42.000000,84.000000,-3.000000,-128.000000,-43.000000
1295169.150754,127.000000,81.000000,33.000000,30.000000,12.000000,57.000000,127.000000,127.000000
1295169.150765,17.000000,-17.000000,-24.000000,13.000000,21.000000,51.000000,80.000000,-18.000000
1295169.151899,-18.000000,-21.000000,-35.000000,-2.000000,17.000000,-49.000000,11.000000,-14.000000
1295169.151913,-53.000000,-52.000000,-51.000000,-41.000000,-27.000000,-96.000000,50.000000,-15.000000
1295169.152415,44.000000,31.000000,50.000000,46.000000,52.000000,88.000000,52.000000,-49.000000
1295169.152432,11.000000,44.000000,27.000000,7.000000,-13.000000,-12.000000,4.000000,15.000000
1295169.153661,-34.000000,-3.000000,21.000000,27.000000,38.000000,46.000000,-128.000000,-116.000000
1295169.153670,-11.000000,64.000000,29.000000,-43.000000,-59.000000,-75.000000,-128.000000,-69.000000
1295169.154585,-20.000000,3.000000,-28.000000,-17.000000,10.000000,43.000000,127.000000,3.000000
1295169.154602,2.000000,0.000000,6.000000,26.000000,23.000000,12.000000,-128.000000,5.000000
1295169.158260,-3.000000,1.000000,-8.000000,5.000000,38.000000,-7.000000,56.000000,-36.000000
1295169.158303,-62.000000,-29.000000,-41.000000,-54.000000,-90.000000,-67.000000,-51.000000,-43.000000
1295169.166052,101.000000,81.000000,111.000000,127.000000,127.000000,127.000000,52.000000,69.000000
1295169.166082,20.000000,-25.000000,-15.000000,-31.000000,-61.000000,-24.000000,84.000000,36.000000
1295169.188582,-35.000000,-35.000000,-45.000000,-49.000000,-86.000000,-113.000000,-32.000000,-27.000000
1295169.188611,-29.000000,-42.000000,-43.000000,-22.000000,-5.000000,-35.000000,-78.000000,-33.000000
1295169.195847,-55.000000,-28.000000,-28.000000,-25.000000,11.000000,-43.000000,-14.000000,-43.000000
1295169.195868,28.000000,-2.000000,-1.000000,24.000000,-8.000000,-4.000000,-127.000000,38.000000
1295169.218394,22.000000,89.000000,54.000000,19.000000,26.000000,5.000000,9.000000,25.000000
1295169.218404,-27.000000,-117.000000,-102.000000,-38.000000,-15.000000,-5.000000,-121.000000,-50.000000
1295169.226379,-18.000000,-69.000000,-36.000000,-24.000000,5.000000,-39.000000,22.000000,-9.000000
1295169.226393,-22.000000,-75.000000,-73.000000,-38.000000,-55.000000,4.000000,91.000000,7.000000
1295169.255693,-3.000000,-21.000000,-45.000000,14.000000,37.000000,43.000000,113.000000,50.000000
1295169.255704,-15.000000,46.000000,55.000000,57.000000,49.000000,-9.000000,-37.000000,-22.000000
1295169.271183,12.000000,-17.000000,-13.000000,12.000000,-3.000000,-1.000000,16.000000,2.000000
1295169.271211,1.000000,-32.000000,-23.000000,-10.000000,-64.000000,-8.000000,32.000000,33.000000
1295169.285968,-18.000000,7.000000,-34.000000,-39.000000,-32.000000,-3.000000,26.000000,-8.000000
1295169.285987,32.000000,63.000000,84.000000,-19.000000,-9.000000,13.000000,-89.000000,-89.000000
1295169.315973,2.000000,-3.000000,2.000000,51.000000,29.000000,-28.000000,47.000000,-6.000000
1295169.315982,2.000000,-13.000000,-46.000000,-40.000000,-76.000000,-12.000000,-56.000000,-30.000000
1295169.345943,9.000000,-5.000000,-35.000000,-20.000000,14.000000,2.000000,112.000000,56.000000
1295169.345953,-51.000000,-36.000000,18.000000,1.000000,-5.000000,-35.000000,-50.000000,-12.000000
1295169.353609,8.000000,-19.000000,-45.000000,-34.000000,-62.000000,-15.000000,127.000000,16.000000
1295169.353637,7.000000,-7.000000,-14.000000,13.000000,36.000000,9.000000,-128.000000,-2.000000
1295169.383145,7.000000,-18.000000,-18.000000,-22.000000,-34.000000,14.000000,64.000000,103.000000
1295169.383155,7.000000,-9.000000,-32.000000,-25.000000,-17.000000,-11.000000,-39.000000,4.000000
1295169.406241,-3.000000,46.000000,33.000000,-12.000000,-12.000000,-7.000000,-30.000000,-8.000000
1295169.406270,-59.000000,-43.000000,-39.000000,-2.000000,28.000000,-52.000000,-128.000000,-69.000000
1295169.420882,14.000000,-16.000000,22.000000,-41.000000,-98.000000,2.000000,-121.000000,-59.000000
1295169.420904,-34.000000,-40.000000,-30.000000,54.000000,127.000000,101.000000,-128.000000,10.000000
1295169.428255,-19.000000,-59.000000,-33.000000,-110.000000,-128.000000,58.000000,0.000000,-24.000000
1295169.428277,92.000000,68.000000,91.000000,105.000000,76.000000,28.000000,127.000000,108.000000
1295169.435736,97.000000,76.000000,21.000000,-21.000000,-32.000000,35.000000,127.000000,94.000000
1295169.435745,28.000000,47.000000,64.000000,51.000000,60.000000,70.000000,28.000000,50.000000
1295169.466689,13.000000,99.000000,59.000000,15.000000,11.000000,-60.000000,127.000000,82.000000
1295169.466705,-30.000000,-116.000000,-38.000000,-102.000000,-128.000000,-50.000000,73.000000,-14.000000
1295169.480708,23.000000,56.000000,47.000000,31.000000,49.000000,49.000000,108.000000,24.000000
1295169.480727,-23.000000,-47.000000,-36.000000,-16.000000,3.000000,18.000000,-60.000000,-68.000000
1295169.496042,1.000000,-98.000000,-67.000000,-6.000000,1.000000,-1.000000,-12.000000,11.000000
1295169.496065,-27.000000,-22.000000,-7.000000,-13.000000,-34.000000,-44.000000,-49.000000,14.000000
1295169.511045,-33.000000,-11.000000,-26.000000,-50.000000,-17.000000,-19.000000,-81.000000,-29.000000
1295169.511109,-68.000000,-93.000000,-56.000000,-41.000000,-22.000000,-67.000000,122.000000,8.000000
1295169.511619,11.000000,-21.000000,-39.000000,-23.000000,-56.000000,-36.000000,127.000000,73.000000
1295169.511636,-33.000000,-38.000000,-22.000000,-6.000000,12.000000,-27.000000,-105.000000,-73.000000
1295169.512113,10.000000,-128.000000,-103.000000,-40.000000,-55.000000,50.000000,127.000000,77.000000
1295169.512121,81.000000,27.000000,98.000000,127.000000,117.000000,50.000000,16.000000,29.000000
1295169.513341,-120.000000,-104.000000,-57.000000,-51.000000,-58.000000,-128.000000,-128.000000,-128.000000
1295169.513357,111.000000,127.000000,54.000000,64.000000,83.000000,103.000000,127.000000,127.000000
1295169.533489,23.000000,16.000000,7.000000,4.000000,-41.000000,28.000000,-64.000000,33.000000
1295169.533500,-4.000000,48.000000,52.000000,14.000000,-4.000000,-45.000000,15.000000,-3.000000
1295169.548530,-61.000000,-104.000000,-66.000000,11.000000,37.000000,-22.000000,-60.000000,-52.000000
1295169.548545,44.000000,47.000000,-15.000000,14.000000,39.000000,40.000000,-66.000000,7.000000
1295169.593673,-7.000000,-14.000000,20.000000,-41.000000,-128.000000,16.000000,-128.000000,-58.000000
1295169.593702,-17.000000,-5.000000,-44.000000,31.000000,69.000000,-16.000000,-16.000000,-19.000000
1295169.601006,9.000000,36.000000,24.000000,-43.000000,-73.000000,-17.000000,113.000000,2.000000
1295169.601035,-18.000000,-58.000000,-1.000000,18.000000,36.000000,-50.000000,-122.000000,-71.000000
1295169.602062,-2.000000,-44.000000,-84.000000,-38.000000,-25.000000,-13.000000,28.000000,54.000000
1295169.602089,19.000000,-14.000000,-12.000000,42.000000,-3.000000,51.000000,-37.000000,10.000000
1295169.602583,13.000000,22.000000,2.000000,0.000000,30.000000,39.000000,-15.000000,-1.000000
1295169.602590,-112.000000,-128.000000,-120.000000,-116.000000,-128.000000,-128.000000,-66.000000,-84.000000
1295169.604051,-5.000000,-57.000000,32.000000,16.000000,-3.000000,-32.000000,-128.000000,-70.000000
1295169.604059,40.000000,127.000000,75.000000,6.000000,9.000000,51.000000,127.000000,-21.000000
1295169.623214,-35.000000,-75.000000,-28.000000,-3.000000,-20.000000,-55.000000,-70.000000,-28.000000
1295169.623226,7.000000,-14.000000,13.000000,16.000000,-6.000000,12.000000,79.000000,19.000000
1295169.624584,22.000000,-15.000000,25.000000,23.000000,40.000000,-38.000000,-23.000000,2.000000
1295169.624616,-31.000000,-52.000000,-66.000000,-9.000000,-90.000000,-32.000000,-128.000000,-127.000000
1295169.630584,-18.000000,-22.000000,-15.000000,-23.000000,31.000000,42.000000,69.000000,-8.000000
1295169.630594,13.000000,-36.000000,-33.000000,-1.000000,8.000000,9.000000,39.000000,27.000000
1295169.660977,38.000000,3.000000,1.000000,74.000000,127.000000,31.000000,127.000000,66.000000
1295169.660988,-21.000000,-28.000000,-12.000000,-3.000000,-27.000000,-46.000000,-13.000000,-45.000000
1295169.668298,-32.000000,-46.000000,-12.000000,-10.000000,19.000000,127.000000,-128.000000,65.000000
1295169.668308,55.000000,71.000000,59.000000,27.000000,-14.000000,34.000000,86.000000,34.000000
1295169.705905,17.000000,18.000000,8.000000,15.000000,14.000000,1.000000,-3.000000,12.000000
1295169.705934,-25.000000,2.000000,-8.000000,-4.000000,-19.000000,-33.000000,-53.000000,-34.000000
1295169.713362,-20.000000,12.000000,-3.000000,1.000000,13.000000,-6.000000,-104.000000,-67.000000
1295169.713375,-21.000000,-37.000000,-52.000000,13.000000,19.000000,-27.000000,-13.000000,-2.000000
1295169.743356,35.000000,82.000000,113.000000,4.000000,-99.000000,36.000000,31.000000,30.000000
1295169.743386,2.000000,-33.000000,-55.000000,7.000000,47.000000,-11.000000,-37.000000,2.000000
1295169.743714,-93.000000,-85.000000,-59.000000,-82.000000,-117.000000,-96.000000,-105.000000,-68.000000
1295169.743740,46.000000,25.000000,44.000000,-34.000000,-128.000000,68.000000,74.000000,69.000000
1295169.745232,-77.000000,-65.000000,-52.000000,26.000000,101.000000,-35.000000,14.000000,-29.000000
1295169.745242,124.000000,127.000000,117.000000,0.000000,3.000000,24.000000,52.000000,50.000000
1295169.745953,-67.000000,-53.000000,-13.000000,-18.000000,-13.000000,-67.000000,-128.000000,-28.000000
1295169.745962,-21.000000,-2.000000,-26.000000,-33.000000,19.000000,115.000000,-128.000000,-128.000000
1295169.746290,0.000000,20.000000,15.000000,26.000000,30.000000,6.000000,127.000000,31.000000
1295169.746299,-19.000000,-73.000000,-70.000000,14.000000,28.000000,6.000000,-17.000000,-2.000000
1295169.750611,-18.000000,-12.000000,-53.000000,-22.000000,-9.000000,-70.000000,90.000000,-13.000000
1295169.750621,-102.000000,-99.000000,-118.000000,-128.000000,-128.000000,-88.000000,4.000000,-128.000000
1295169.758366,90.000000,45.000000,71.000000,45.000000,94.000000,127.000000,127.000000,98.000000
1295169.758382,17.000000,10.000000,-21.000000,5.000000,28.000000,-14.000000,-8.000000,8.000000
1295169.773605,31.000000,53.000000,34.000000,-16.000000,-15.000000,-17.000000,46.000000,75.000000
1295169.773616,-72.000000,-62.000000,-30.000000,8.000000,36.000000,-36.000000,-24.000000,7.000000
1295169.788559,-4.000000,12.000000,19.000000,-45.000000,-110.000000,5.000000,-83.000000,-71.000000
1295169.788572,39.000000,45.000000,32.000000,35.000000,18.000000,42.000000,-3.000000,24.000000
1295169.810856,-45.000000,-46.000000,-32.000000,-9.000000,6.000000,-63.000000,-95.000000,-59.000000
1295169.810873,12.000000,33.000000,13.000000,4.000000,16.000000,18.000000,15.000000,22.000000
1295169.826708,19.000000,28.000000,22.000000,13.000000,16.000000,38.000000,0.000000,34.000000
1295169.826736,-42.000000,-49.000000,-23.000000,-5.000000,-13.000000,-15.000000,-19.000000,0.000000
1295169.827408,53.000000,20.000000,1.000000,35.000000,52.000000,74.000000,60.000000,69.000000
1295169.827433,3.000000,21.000000,26.000000,18.000000,21.000000,0.000000,26.000000,-3.000000
1295169.848361,36.000000,46.000000,24.000000,13.000000,13.000000,24.000000,127.000000,114.000000
1295169.848381,-48.000000,-63.000000,-33.000000,-12.000000,-8.000000,-20.000000,-19.000000,-74.000000
1295169.870878,-54.000000,-62.000000,-20.000000,-9.000000,7.000000,-32.000000,-19.000000,-37.000000
1295169.870907,30.000000,52.000000,52.000000,19.000000,-22.000000,36.000000,7.000000,17.000000
1295169.871868,-35.000000,-71.000000,-114.000000,-24.000000,-24.000000,-12.000000,-47.000000,-51.000000
1295169.871894,-2.000000,22.000000,33.000000,18.000000,33.000000,-4.000000,-4.000000,-5.000000
1295169.872676,43.000000,34.000000,2.000000,40.000000,25.000000,10.000000,97.000000,98.000000
1295169.872703,48.000000,-2.000000,-11.000000,-4.000000,-5.000000,19.000000,-100.000000,18.000000
1295169.873836,38.000000,48.000000,66.000000,31.000000,36.000000,91.000000,54.000000,34.000000
1295169.873863,-15.000000,-21.000000,-19.000000,-7.000000,-5.000000,11.000000,-26.000000,-18.000000
1295169.874730,-17.000000,-30.000000,-1.000000,-8.000000,-15.000000,-44.000000,-128.000000,5.000000
1295169.874752,23.000000,-8.000000,28.000000,12.000000,28.000000,66.000000,-23.000000,2.000000
1295169.878249,-6.000000,-43.000000,-58.000000,3.000000,8.000000,-3.000000,54.000000,-7.000000
1295169.878269,24.000000,66.000000,36.000000,44.000000,85.000000,120.000000,-29.000000,0.000000
1295169.900898,2.000000,-44.000000,-22.000000,-6.000000,-3.000000,1.000000,-2.000000,14.000000
1295169.900920,67.000000,26.000000,-16.000000,60.000000,113.000000,23.000000,-14.000000,81.000000
1295169.976252,-44.000000,-19.000000,14.000000,12.000000,14.000000,-7.000000,-128.000000,-128.000000
1295169.976284,-60.000000,-115.000000,-82.000000,-38.000000,-49.000000,-88.000000,-59.000000,-28.000000
1295169.983452,12.000000,63.000000,43.000000,77.000000,87.000000,121.000000,127.000000,62.000000
1295169.983477,12.000000,17.000000,28.000000,-4.000000,-14.000000,-25.000000,-57.000000,5.000000
1295169.984568,-19.000000,92.000000,39.000000,-17.000000,-42.000000,19.000000,-59.000000,-35.000000
1295169.984655,48.000000,21.000000,22.000000,-9.000000,-47.000000,17.000000,111.000000,102.000000
1295169.985252,-22.000000,-17.000000,-17.000000,26.000000,39.000000,-18.000000,127.000000,93.000000
1295169.985269,12.000000,55.000000,-6.000000,-24.000000,-13.000000,-26.000000,-25.000000,-45.000000
1295169.991043,-3.000000,-15.000000,-10.000000,-15.000000,-14.000000,-23.000000,50.000000,-6.000000
1295169.991064,12.000000,10.000000,32.000000,17.000000,9.000000,93.000000,47.000000,43.000000
1295169.991532,-17.000000,-44.000000,-30.000000,-10.000000,-17.000000,-75.000000,-107.000000,-13.000000
1295169.991562,54.000000,41.000000,-16.000000,11.000000,8.000000,4.000000,-39.000000,-25.000000
1295169.991906,-3.000000,-17.000000,26.000000,-38.000000,-95.000000,-31.000000,-26.000000,-14.000000
1295169.991915,-21.000000,4.000000,-8.000000,19.000000,54.000000,51.000000,-32.000000,-27.000000
1295169.998779,-4.000000,32.000000,22.000000,-8.000000,-30.000000,-36.000000,-80.000000,4.000000
1295169.998798,-25.000000,-14.000000,-25.000000,43.000000,69.000000,37.000000,80.000000,-25.000000
1295170.020870,2.000000,-5.000000,41.000000,17.000000,58.000000,18.000000,7.000000,4.000000
1295170.020881,-13.000000,16.000000,-51.000000,-17.000000,-41.000000,-15.000000,-20.000000,-4.000000
1295170.022027,-29.000000,-37.000000,-50.000000,1.000000,26.000000,-54.000000,-44.000000,-31.000000
1295170.022037,28.000000,8.000000,39.000000,-29.000000,-15.000000,23.000000,41.000000,4.000000
1295170.028486,36.000000,33.000000,6.000000,19.000000,26.000000,-58.000000,127.000000,60.000000
1295170.028496,-1.000000,-48.000000,-39.000000,5.000000,7.000000,0.000000,-28.000000,12.000000
1295170.050912,34.000000,127.000000,101.000000,34.000000,60.000000,78.000000,122.000000,31.000000
1295170.050925,28.000000,-6.000000,9.000000,33.000000,22.000000,20.000000,60.000000,25.000000
1295170.065967,-62.000000,-35.000000,-1.000000,-68.000000,-83.000000,-50.000000,-26.000000,-32.000000
1295170.065979,-2.000000,-45.000000,-27.000000,-34.000000,-50.000000,-36.000000,-93.000000,-68.000000
1295170.103393,31.000000,38.000000,52.000000,30.000000,-8.000000,-22.000000,-40.000000,71.000000
1295170.103415,4.000000,8.000000,34.000000,54.000000,65.000000,58.000000,108.000000,-12.000000
1295170.111021,-20.000000,-30.000000,1.000000,22.000000,67.000000,-12.000000,-20.000000,-3.000000
1295170.111032,-37.000000,-27.000000,-60.000000,-72.000000,-62.000000,-56.000000,-69.000000,-76.000000
1295170.126336,33.000000,87.000000,57.000000,58.000000,82.000000,54.000000,57.000000,86.000000
1295170.126358,-39.000000,-42.000000,-55.000000,-8.000000,26.000000,6.000000,-128.000000,-55.000000
1295170.127002,31.000000,-14.000000,19.000000,7.000000,17.000000,-26.000000,79.000000,38.000000
1295170.127024,-54.000000,-15.000000,-25.000000,44.000000,-4.000000,12.000000,38.000000,-49.000000
1295170.148671,-7.000000,-4.000000,20.000000,53.000000,29.000000,-46.000000,-128.000000,-85.000000
1295170.148681,35.000000,40.000000,54.000000,-69.000000,-128.000000,60.000000,127.000000,47.000000
1295170.149253,24.000000,63.000000,46.000000,11.000000,18.000000,40.000000,23.000000,-23.000000
1295170.149261,-17.000000,-36.000000,-35.000000,-20.000000,16.000000,44.000000,-32.000000,-10.000000
1295170.149792,35.000000,27.000000,23.000000,-5.000000,13.000000,11.000000,127.000000,41.000000
1295170.149800,-81.000000,-46.000000,-94.000000,-52.000000,-79.000000,-73.000000,-128.000000,-52.000000
1295170.151089,76.000000,60.000000,94.000000,118.000000,30.000000,-25.000000,127.000000,84.000000
1295170.151097,57.000000,50.000000,-19.000000,-1.000000,16.000000,16.000000,127.000000,9.000000
1295170.152023,-7.000000,-5.000000,2.000000,-33.000000,-87.000000,-7.000000,-61.000000,-28.000000
1295170.152031,-23.000000,-60.000000,-54.000000,-2.000000,30.000000,18.000000,127.000000,78.000000
1295170.164191,27.000000,53.000000,39.000000,21.000000,8.000000,-23.000000,-1.000000,-38.000000
1295170.164203,-62.000000,-43.000000,-76.000000,4.000000,14.000000,24.000000,-57.000000,-32.000000
1295170.178682,10.000000,45.000000,19.000000,15.000000,11.000000,1.000000,-46.000000,-8.000000
1295170.178691,-22.000000,8.000000,1.000000,5.000000,27.000000,-25.000000,-128.000000,-23.000000
1295170.179478,-32.000000,-22.000000,-32.000000,41.000000,84.000000,27.000000,-78.000000,-92.000000
1295170.179487,14.000000,39.000000,17.000000,-10.000000,-21.000000,59.000000,2.000000,-50.000000
1295170.223370,38.000000,-31.000000,34.000000,10.000000,5.000000,-30.000000,1.000000,-34.000000
1295170.223381,-69.000000,-42.000000,-5.000000,-3.000000,-9.000000,-28.000000,-106.000000,-40.000000
1295170.238521,53.000000,44.000000,-2.000000,-14.000000,2.000000,-1.000000,30.000000,95.000000
1295170.238551,-39.000000,-26.000000,-48.000000,-9.000000,3.000000,-57.000000,-67.000000,-128.000000
1295170.261030,98.000000,127.000000,127.000000,23.000000,33.000000,88.000000,127.000000,95.000000
1295170.261058,-28.000000,-27.000000,-31.000000,11.000000,31.000000,-16.000000,-94.000000,-17.000000
1295170.268941,-30.000000,-24.000000,-44.000000,-10.000000,-22.000000,-56.000000,-29.000000,-26.000000
1295170.268990,2.000000,25.000000,34.000000,-46.000000,-46.000000,-25.000000,78.000000,41.000000
1295170.298539,-27.000000,8.000000,-8.000000,5.000000,-14.000000,-51.000000,127.000000,-34.000000
1295170.298550,76.000000,39.000000,25.000000,-58.000000,-79.000000,69.000000,118.000000,-17.000000
1295170.306299,15.000000,-13.000000,-25.000000,-6.000000,13.000000,48.000000,127.000000,-4.000000
1295170.306323,-6.000000,-43.000000,-25.000000,1.000000,16.000000,-22.000000,-57.000000,24.000000
1295170.307458,-50.000000,-65.000000,-27.000000,-20.000000,-25.000000,-21.000000,-44.000000,-6.000000
1295170.307474,5.000000,34.000000,56.000000,21.000000,27.000000,-57.000000,4.000000,7.000000
1295170.308356,-22.000000,-61.000000,-52.000000,-81.000000,-28.000000,22.000000,-48.000000,-31.000000
1295170.308377,117.000000,105.000000,75.000000,46.000000,11.000000,80.000000,127.000000,99.000000
1295170.314715,19.000000,47.000000,66.000000,115.000000,107.000000,59.000000,114.000000,41.000000
1295170.314728,10.000000,-27.000000,-7.000000,-18.000000,1.000000,42.000000,-36.000000,21.000000
1295170.336084,-24.000000,-47.000000,-60.000000,5.000000,73.000000,15.000000,127.000000,15.000000
1295170.336094,-12.000000,-13.000000,23.000000,1.000000,-4.000000,1.000000,-101.000000,-49.000000
1295170.380837,11.000000,-41.000000,20.000000,2.000000,-28.000000,46.000000,72.000000,58.000000
1295170.380848,-16.000000,37.000000,7.000000,-27.000000,-44.000000,-34.000000,-30.000000,-80.000000
1295170.388593,16.000000,40.000000,-20.000000,-23.000000,-30.000000,-6.000000,-97.000000,-35.000000
1295170.388621,-26.000000,-14.000000,0.000000,-12.000000,-33.000000,-50.000000,-1.000000,23.000000
1295170.426333,6.000000,-30.000000,-41.000000,-12.000000,5.000000,63.000000,-35.000000,-69.000000
1295170.426349,24.000000,-15.000000,-3.000000,-2.000000,6.000000,11.000000,9.000000,52.000000
1295170.426856,-24.000000,-51.000000,-41.000000,-26.000000,-14.000000,-52.000000,-21.000000,-66.000000
1295170.426865,101.000000,107.000000,40.000000,114.000000,84.000000,114.000000,127.000000,66.000000
1295170.428087,-1.000000,0.000000,-14.000000,-18.000000,54.000000,4.000000,-17.000000,0.000000
1295170.428110,-50.000000,-55.000000,-25.000000,-57.000000,-66.000000,-78.000000,-70.000000,-50.000000
1295170.429701,4.000000,-29.000000,-15.000000,19.000000,8.000000,-15.000000,-39.000000,-55.000000
1295170.429710,-86.000000,-33.000000,3.000000,-30.000000,-25.000000,-128.000000,-128.000000,13.000000
1295170.433779,-19.000000,42.000000,41.000000,-9.000000,27.000000,-11.000000,8.000000,-20.000000
1295170.433801,59.000000,45.000000,20.000000,30.000000,-10.000000,12.000000,38.000000,42.000000
1295170.440681,0.000000,15.000000,-3.000000,-36.000000,-86.000000,-9.000000,-23.000000,1.000000
1295170.440689,-16.000000,-10.000000,-20.000000,-4.000000,-28.000000,-41.000000,-48.000000,-18.000000
1295170.493507,-106.000000,-101.000000,-122.000000,-67.000000,20.000000,-40.000000,-128.000000,-90.000000
1295170.493529,116.000000,73.000000,50.000000,127.000000,66.000000,127.000000,127.000000,67.000000
1295170.500860,-18.000000,-13.000000,19.000000,-8.000000,-4.000000,4.000000,-17.000000,17.000000
1295170.500870,-100.000000,-68.000000,-51.000000,-29.000000,7.000000,-31.000000,-5.000000,-87.000000
1295170.531582,94.000000,127.000000,29.000000,9.000000,105.000000,49.000000,127.000000,80.000000
1295170.531610,78.000000,55.000000,50.000000,14.000000,-46.000000,45.000000,113.000000,111.000000
1295170.538377,-24.000000,-33.000000,-37.000000,-20.000000,-9.000000,-14.000000,-11.000000,-20.000000
1295170.538406,-1.000000,2.000000,-2.000000,12.000000,28.000000,-38.000000,-128.000000,-20.000000
1295170.539370,-96.000000,-93.000000,-28.000000,-30.000000,-7.000000,-128.000000,-128.000000,-28.000000
1295170.539397,127.000000,127.000000,72.000000,45.000000,31.000000,127.000000,127.000000,67.000000
1295170.540829,-8.000000,-16.000000,-47.000000,-113.000000,-128.000000,-91.000000,-15.000000,-6.000000
1295170.540856,115.000000,127.000000,87.000000,44.000000,84.000000,22.000000,20.000000,58.000000
1295170.541541,-18.000000,-57.000000,-73.000000,6.000000,30.000000,57.000000,119.000000,-5.000000
1295170.541557,-14.000000,121.000000,89.000000,5.000000,-3.000000,-1.000000,-128.000000,-52.000000
1295170.554334,16.000000,-17.000000,-57.000000,-17.000000,-43.000000,-41.000000,127.000000,37.000000
1295170.554357,-49.000000,-42.000000,-5.000000,-26.000000,-20.000000,-17.000000,90.000000,-30.000000
1295170.576117,13.000000,-3.000000,24.000000,19.000000,-3.000000,-3.000000,33.000000,49.000000
1295170.576146,29.000000,26.000000,-39.000000,-1.000000,19.000000,99.000000,49.000000,-16.000000
1295170.590882,-54.000000,-25.000000,-11.000000,-30.000000,-13.000000,-14.000000,-83.000000,-21.000000
1295170.590893,22.000000,8.000000,20.000000,10.000000,-5.000000,-3.000000,17.000000,-25.000000
1295170.605772,0.000000,23.000000,8.000000,5.000000,49.000000,-64.000000,-39.000000,33.000000
1295170.605781,-53.000000,-17.000000,-36.000000,-21.000000,-75.000000,-15.000000,-128.000000,-128.000000
1295170.636581,21.000000,19.000000,45.000000,9.000000,-57.000000,22.000000,46.000000,12.000000
1295170.636620,-12.000000,-4.000000,-8.000000,-42.000000,-95.000000,-28.000000,-42.000000,-25.000000
1295170.643195,35.000000,32.000000,8.000000,-22.000000,-26.000000,-64.000000,127.000000,38.000000
1295170.643211,-61.000000,-58.000000,-58.000000,-36.000000,-3.000000,-81.000000,-128.000000,-87.000000
1295170.644304,77.000000,54.000000,62.000000,127.000000,127.000000,127.000000,127.000000,97.000000
1295170.644313,-68.000000,-48.000000,-34.000000,-28.000000,-11.000000,-21.000000,-67.000000,-18.000000
1295170.644850,-14.000000,-53.000000,-27.000000,-13.000000,1.000000,-8.000000,-120.000000,9.000000
1295170.644859,109.000000,71.000000,37.000000,-16.000000,-64.000000,67.000000,127.000000,95.000000
1295170.658747,-14.000000,-30.000000,-27.000000,-18.000000,-10.000000,-10.000000,23.000000,14.000000
1295170.658761,-52.000000,-72.000000,-58.000000,-21.000000,-8.000000,-28.000000,-40.000000,-36.000000
1295170.660114,3.000000,0.000000,6.000000,-19.000000,-83.000000,-22.000000,86.000000,93.000000
1295170.660123,67.000000,54.000000,45.000000,26.000000,47.000000,29.000000,-46.000000,-50.000000
1295170.666143,10.000000,-48.000000,-35.000000,1.000000,15.000000,-36.000000,25.000000,2.000000
1295170.666156,36.000000,61.000000,4.000000,-31.000000,-85.000000,46.000000,-12.000000,24.000000
1295170.681146,-64.000000,-73.000000,-69.000000,-3.000000,38.000000,-55.000000,65.000000,-30.000000
1295170.681162,-11.000000,-55.000000,-22.000000,-66.000000,-52.000000,1.000000,-97.000000,-40.000000
1295170.688294,32.000000,66.000000,32.000000,66.000000,108.000000,57.000000,26.000000,124.000000
1295170.688304,-44.000000,-55.000000,-44.000000,-40.000000,-25.000000,-42.000000,-97.000000,2.000000
1295170.710833,-50.000000,-15.000000,5.000000,11.000000,-7.000000,-8.000000,15.000000,-69.000000
1295170.710861,42.000000,-3.000000,32.000000,1.000000,6.000000,2.000000,-14.000000,-7.000000
1295170.718564,-40.000000,-31.000000,-13.000000,11.000000,54.000000,85.000000,-128.000000,-111.000000
1295170.718575,17.000000,-1.000000,23.000000,3.000000,-22.000000,-34.000000,3.000000,55.000000
1295170.778280,-40.000000,-11.000000,-25.000000,-30.000000,-39.000000,-26.000000,-126.000000,-16.000000
1295170.778290,-13.000000,-19.000000,-10.000000,4.000000,-6.000000,33.000000,-13.000000,-92.000000
1295170.778604,-22.000000,-39.000000,-41.000000,10.000000,10.000000,-46.000000,-21.000000,8.000000
1295170.778613,-10.000000,-11.000000,-9.000000,23.000000,-17.000000,-71.000000,-25.000000,15.000000
1295170.780076,-57.000000,-49.000000,-44.000000,2.000000,28.000000,-51.000000,-128.000000,-67.000000
1295170.780150,44.000000,69.000000,72.000000,-28.000000,-14.000000,83.000000,127.000000,36.000000
1295170.780903,32.000000,84.000000,10.000000,-21.000000,7.000000,-12.000000,93.000000,41.000000
1295170.780914,-28.000000,-43.000000,-35.000000,-12.000000,29.000000,-39.000000,-4.000000,-2.000000
1295170.782221,106.000000,44.000000,15.000000,-54.000000,-19.000000,67.000000,127.000000,104.000000
1295170.782248,20.000000,-17.000000,-1.000000,28.000000,43.000000,69.000000,-128.000000,-82.000000
1295170.793166,30.000000,27.000000,25.000000,13.000000,16.000000,69.000000,87.000000,6.000000
1295170.793183,4.000000,-13.000000,-14.000000,-1.000000,25.000000,5.000000,69.000000,21.000000
1295170.816393,-3.000000,-5.000000,36.000000,-8.000000,-64.000000,-45.000000,-118.000000,12.000000
1295170.816423,-20.000000,-23.000000,-46.000000,-2.000000,77.000000,-29.000000,3.000000,-82.000000
1295170.823839,7.000000,-11.000000,-12.000000,51.000000,70.000000,27.000000,17.000000,-14.000000
1295170.823860,19.000000,23.000000,15.000000,-19.000000,-86.000000,-16.000000,-2.000000,30.000000
1295170.853658,-14.000000,-34.000000,-29.000000,35.000000,44.000000,26.000000,127.000000,34.000000
1295170.853687,-25.000000,2.000000,-4.000000,-54.000000,-44.000000,-65.000000,-128.000000,-50.000000
1295170.861207,-35.000000,-33.000000,-9.000000,-23.000000,-32.000000,-27.000000,-3.000000,19.000000
1295170.861217,32.000000,68.000000,19.000000,-12.000000,-31.000000,-32.000000,-85.000000,16.000000
1295170.898503,6.000000,11.000000,22.000000,-6.000000,-5.000000,-30.000000,-25.000000,-59.000000
1295170.898529,44.000000,50.000000,48.000000,48.000000,88.000000,83.000000,127.000000,77.000000
1295170.898953,2.000000,-64.000000,-45.000000,-20.000000,-20.000000,0.000000,101.000000,42.000000
1295170.898983,-11.000000,-19.000000,-9.000000,-3.000000,-5.000000,-10.000000,-30.000000,-14.000000
1295170.900097,-54.000000,-91.000000,-66.000000,-24.000000,-4.000000,-51.000000,-34.000000,-41.000000
1295170.900106,-21.000000,112.000000,61.000000,7.000000,-41.000000,-55.000000,-128.000000,-63.000000
1295170.901272,53.000000,75.000000,0.000000,-7.000000,33.000000,26.000000,61.000000,16.000000
1295170.901281,-23.000000,-19.000000,-52.000000,-26.000000,-75.000000,-23.000000,7.000000,-4.000000
1295170.902476,49.000000,28.000000,77.000000,-52.000000,-128.000000,-46.000000,39.000000,100.000000
1295170.902493,-21.000000,-62.000000,-40.000000,-67.000000,-114.000000,-27.000000,-88.000000,-54.000000
1295170.920767,-25.000000,24.000000,0.000000,-22.000000,-45.000000,-17.000000,77.000000,-49.000000
1295170.920778,-45.000000,-66.000000,21.000000,4.000000,6.000000,6.000000,-128.000000,-88.000000
1295170.935835,8.000000,11.000000,-14.000000,-5.000000,-13.000000,-7.000000,23.000000,4.000000
1295170.935845,-24.000000,-1.000000,-33.000000,-13.000000,-5.000000,-74.000000,-128.000000,-45.000000
1295170.943306,-2.000000,3.000000,48.000000,27.000000,44.000000,112.000000,127.000000,57.000000
1295170.943316,100.000000,56.000000,6.000000,23.000000,37.000000,66.000000,-38.000000,56.000000
1295170.980936,-27.000000,-33.000000,-34.000000,9.000000,6.000000,21.000000,-56.000000,-51.000000
1295170.980949,9.000000,27.000000,85.000000,10.000000,-4.000000,-28.000000,-71.000000,35.000000
1295170.988256,-81.000000,-44.000000,9.000000,57.000000,56.000000,-68.000000,127.000000,-32.000000
1295170.988267,112.000000,85.000000,31.000000,-84.000000,-128.000000,24.000000,127.000000,100.000000
1295171.011138,6.000000,-20.000000,-4.000000,36.000000,80.000000,28.000000,17.000000,6.000000
1295171.011155,-32.000000,-26.000000,-1.000000,38.000000,97.000000,10.000000,19.000000,-4.000000
1295171.018358,-46.000000,-32.000000,-34.000000,-29.000000,-37.000000,2.000000,-128.000000,-62.000000
1295171.018376,-1.000000,-33.000000,-40.000000,0.000000,-65.000000,95.000000,127.000000,-37.000000
1295171.019246,54.000000,-17.000000,7.000000,33.000000,26.000000,61.000000,127.000000,86.000000
1295171.019268,-51.000000,-58.000000,-48.000000,-6.000000,-5.000000,-62.000000,-104.000000,-9.000000
1295171.020003,-11.000000,0.000000,-9.000000,-14.000000,-11.000000,-38.000000,-67.000000,-30.000000
1295171.020020,7.000000,-1.000000,-7.000000,-15.000000,-16.000000,-13.000000,45.000000,5.000000
1295171.020842,-3.000000,8.000000,-3.000000,4.000000,-21.000000,-11.000000,3.000000,-52.000000
1295171.020851,-70.000000,-79.000000,-41.000000,18.000000,39.000000,-128.000000,-93.000000,-25.000000
1295171.033091,-23.000000,-13.000000,-13.000000,36.000000,46.000000,25.000000,-19.000000,16.000000
1295171.033104,-38.000000,-43.000000,-10.000000,-3.000000,-11.000000,-42.000000,-13.000000,-19.000000
1295171.056274,-8.000000,-15.000000,-23.000000,-31.000000,-71.000000,-39.000000,-43.000000,-19.000000
1295171.056335,18.000000,-13.000000,23.000000,31.000000,22.000000,39.000000,59.000000,30.000000
1295171.070932,-20.000000,-27.000000,-19.000000,5.000000,4.000000,-8.000000,-70.000000,-70.000000
1295171.070953,10.000000,90.000000,57.000000,-32.000000,-27.000000,-9.000000,55.000000,5.000000
1295171.093481,-2.000000,-12.000000,19.000000,63.000000,127.000000,38.000000,30.000000,0.000000
1295171.093492,-12.000000,-82.000000,-65.000000,-41.000000,-25.000000,-40.000000,-33.000000,-21.000000
1295171.101171,-38.000000,-41.000000,-28.000000,29.000000,53.000000,-23.000000,107.000000,-3.000000
1295171.101191,-4.000000,-6.000000,-8.000000,6.000000,21.000000,54.000000,-128.000000,-53.000000
1295171.108746,-1.000000,-29.000000,-17.000000,-24.000000,-35.000000,-29.000000,27.000000,-25.000000
1295171.108754,5.000000,-5.000000,-10.000000,47.000000,49.000000,24.000000,57.000000,69.000000
1295171.109304,-27.000000,-36.000000,-1.000000,-22.000000,-11.000000,-36.000000,-55.000000,-128.000000
1295171.109322,49.000000,105.000000,32.000000,8.000000,-36.000000,40.000000,88.000000,24.000000
1295171.110667,-22.000000,-14.000000,-26.000000,-8.000000,-28.000000,-43.000000,-114.000000,-47.000000
1295171.110696,-10.000000,-3.000000,58.000000,35.000000,-40.000000,-45.000000,25.000000,6.000000
1295171.130705,45.000000,8.000000,2.000000,95.000000,113.000000,62.000000,127.000000,127.000000
1295171.130731,-27.000000,-32.000000,-52.000000,-13.000000,38.000000,4.000000,40.000000,-21.000000
1295171.131159,-6.000000,-30.000000,22.000000,-6.000000,-90.000000,-13.000000,-127.000000,-26.000000
1295171.131180,-50.000000,-77.000000,-94.000000,-16.000000,-20.000000,-26.000000,-16.000000,-25.000000
1295171.132561,-93.000000,32.000000,52.000000,29.000000,33.000000,23.000000,-128.000000,-61.000000
1295171.132569,127.000000,127.000000,127.000000,-70.000000,-128.000000,127.000000,127.000000,93.000000
1295171.146094,-26.000000,21.000000,-12.000000,26.000000,39.000000,-39.000000,127.000000,29.000000
1295171.146105,-38.000000,-16.000000,-4.000000,-23.000000,-36.000000,-113.000000,-50.000000,72.000000
1295171.175754,22.000000,18.000000,-11.000000,0.000000,-29.000000,19.000000,127.000000,69.000000
1295171.175764,31.000000,20.000000,13.000000,18.000000,33.000000,38.000000,9.000000,94.000000
1295171.198651,26.000000,44.000000,59.000000,-36.000000,-113.000000,-34.000000,58.000000,17.000000
1295171.198679,-128.000000,-103.000000,-34.000000,-5.000000,77.000000,6.000000,-128.000000,-128.000000
1295171.213745,72.000000,56.000000,29.000000,54.000000,84.000000,39.000000,101.000000,15.000000
1295171.213757,-10.000000,-19.000000,-2.000000,45.000000,122.000000,-13.000000,-55.000000,-32.000000
1295171.214485,-14.000000,-32.000000,-40.000000,-14.000000,-74.000000,8.000000,-17.000000,-6.000000
1295171.214496,-28.000000,-34.000000,-25.000000,-15.000000,24.000000,3.000000,-19.000000,-10.000000
1295171.215681,-36.000000,-29.000000,-3.000000,-1.000000,22.000000,-31.000000,-56.000000,-51.000000
1295171.215690,71.000000,31.000000,70.000000,62.000000,-26.000000,77.000000,127.000000,127.000000
1295171.216309,63.000000,-15.000000,-50.000000,18.000000,45.000000,-17.000000,9.000000,-32.000000
1295171.216327,51.000000,33.000000,25.000000,2.000000,-3.000000,7.000000,126.000000,127.000000
1295171.220588,3.000000,-30.000000,-12.000000,-9.000000,-40.000000,4.000000,26.000000,21.000000
1295171.220597,-43.000000,-38.000000,-15.000000,-9.000000,-9.000000,-24.000000,-128.000000,-96.000000
1295171.258515,42.000000,56.000000,-28.000000,-1.000000,-10.000000,4.000000,127.000000,48.000000
1295171.258528,12.000000,16.000000,41.000000,12.000000,12.000000,53.000000,65.000000,3.000000
1295171.258987,-21.000000,-11.000000,9.000000,8.000000,13.000000,-1.000000,-29.000000,-11.000000
1295171.258998,4.000000,24.000000,25.000000,-34.000000,-67.000000,-22.000000,-68.000000,-33.000000
1295171.260520,-1.000000,10.000000,-7.000000,52.000000,106.000000,66.000000,4.000000,13.000000
1295171.260532,-7.000000,-6.000000,-7.000000,7.000000,38.000000,-67.000000,-79.000000,-6.000000
1295171.266028,-8.000000,-4.000000,22.000000,-60.000000,-128.000000,24.000000,127.000000,29.000000
1295171.266078,30.000000,14.000000,21.000000,24.000000,93.000000,-6.000000,2.000000,30.000000
1295171.273946,13.000000,46.000000,6.000000,-15.000000,-31.000000,-3.000000,113.000000,65.000000
1295171.273979,-8.000000,-47.000000,-8.000000,-25.000000,-27.000000,-61.000000,-36.000000,-1.000000
1295171.288292,-19.000000,-61.000000,-39.000000,-35.000000,-50.000000,-128.000000,33.000000,97.000000
1295171.288315,58.000000,37.000000,39.000000,23.000000,28.000000,96.000000,127.000000,102.000000
1295171.325932,-24.000000,-13.000000,-25.000000,-23.000000,-70.000000,-128.000000,-128.000000,-16.000000
1295171.325948,-20.000000,-41.000000,-40.000000,-6.000000,4.000000,70.000000,127.000000,-22.000000
1295171.333631,71.000000,-2.000000,16.000000,36.000000,35.000000,50.000000,-30.000000,28.000000
1295171.333659,26.000000,48.000000,28.000000,3.000000,-26.000000,-48.000000,-71.000000,1.000000
1295171.370799,-17.000000,-20.000000,-35.000000,-16.000000,4.000000,-40.000000,42.000000,26.000000
1295171.370816,-7.000000,7.000000,6.000000,4.000000,12.000000,10.000000,10.000000,-71.000000
1295171.378540,-19.000000,-52.000000,-38.000000,-42.000000,-39.000000,-49.000000,-13.000000,-56.000000
1295171.378557,-8.000000,-77.000000,-83.000000,-14.000000,24.000000,-14.000000,-128.000000,-5.000000
1295171.415761,91.000000,127.000000,80.000000,36.000000,-14.000000,72.000000,124.000000,50.000000
1295171.415771,12.000000,12.000000,25.000000,13.000000,22.000000,-23.000000,23.000000,14.000000
1295171.423293,-39.000000,-66.000000,-30.000000,-6.000000,36.000000,78.000000,-54.000000,-2.000000
1295171.423303,-33.000000,-4.000000,-18.000000,5.000000,-30.000000,16.000000,-98.000000,-108.000000
1295171.438574,23.000000,45.000000,54.000000,100.000000,127.000000,71.000000,54.000000,10.000000
1295171.438584,-23.000000,-6.000000,-2.000000,2.000000,-12.000000,4.000000,-50.000000,52.000000
1295171.453428,6.000000,6.000000,6.000000,5.000000,-15.000000,-28.000000,-11.000000,4.000000
1295171.453438,-41.000000,-77.000000,-69.000000,1.000000,7.000000,-25.000000,-92.000000,-6.000000
1295171.493455,-60.000000,36.000000,34.000000,-56.000000,-125.000000,-25.000000,43.000000,-81.000000
1295171.493969,-38.000000,-27.000000,-13.000000,-14.000000,-47.000000,-45.000000,-128.000000,-64.000000
1295171.494719,26.000000,57.000000,18.000000,18.000000,42.000000,-5.000000,24.000000,-12.000000
1295171.494754,-24.000000,-49.000000,-75.000000,-90.000000,-88.000000,-42.000000,-43.000000,-12.000000
1295171.496939,13.000000,-14.000000,23.000000,31.000000,18.000000,6.000000,44.000000,58.000000
1295171.497006,2.000000,49.000000,34.000000,1.000000,-5.000000,-37.000000,-61.000000,-21.000000
1295171.497414,43.000000,127.000000,48.000000,-4.000000,-10.000000,-28.000000,-56.000000,25.000000
1295171.497457,-4.000000,-13.000000,21.000000,25.000000,17.000000,32.000000,-64.000000,-51.000000
1295171.536123,1.000000,-13.000000,-8.000000,18.000000,10.000000,5.000000,-13.000000,1.000000
1295171.536141,-20.000000,-44.000000,-21.000000,-24.000000,-13.000000,-20.000000,-16.000000,-13.000000
1295171.566015,3.000000,-21.000000,0.000000,32.000000,49.000000,58.000000,-5.000000,-8.000000
1295171.566029,-10.000000,2.000000,58.000000,5.000000,43.000000,37.000000,55.000000,-9.000000
1295171.573228,-10.000000,44.000000,34.000000,19.000000,30.000000,62.000000,-40.000000,-55.000000
1295171.573236,47.000000,8.000000,6.000000,36.000000,6.000000,47.000000,66.000000,11.000000
1295171.596130,29.000000,-2.000000,-11.000000,-24.000000,-31.000000,-22.000000,-24.000000,60.000000
1295171.596160,-37.000000,-57.000000,-29.000000,48.000000,54.000000,-39.000000,-128.000000,44.000000
1295171.610876,-102.000000,-31.000000,-23.000000,-46.000000,-76.000000,35.000000,127.000000,-77.000000
1295171.610921,96.000000,127.000000,127.000000,79.000000,60.000000,73.000000,44.000000,70.000000
1295171.611851,-34.000000,34.000000,-10.000000,-2.000000,6.000000,-27.000000,-75.000000,-5.000000
1295171.611870,-5.000000,-9.000000,-56.000000,-128.000000,-128.000000,13.000000,15.000000,-9.000000
1295171.612341,-14.000000,36.000000,3.000000,-7.000000,-10.000000,-30.000000,-25.000000,0.000000
1295171.612364,-92.000000,-66.000000,-51.000000,-20.000000,105.000000,-27.000000,-128.000000,-128.000000
1295171.613110,104.000000,127.000000,127.000000,34.000000,-67.000000,125.000000,127.000000,126.000000
1295171.613131,6.000000,-32.000000,-29.000000,66.000000,117.000000,35.000000,-31.000000,1.000000
1295171.613796,-39.000000,-16.000000,1.000000,-10.000000,-19.000000,-52.000000,-128.000000,-85.000000
1295171.613805,-71.000000,-87.000000,-128.000000,-64.000000,2.000000,-58.000000,-108.000000,-68.000000
1295171.625569,17.000000,36.000000,16.000000,-39.000000,-84.000000,16.000000,-42.000000,-7.000000
1295171.625578,25.000000,9.000000,9.000000,-3.000000,-30.000000,-31.000000,-6.000000,11.000000
1295171.648414,-68.000000,-62.000000,-24.000000,-28.000000,-29.000000,27.000000,18.000000,-2.000000
1295171.648425,55.000000,54.000000,52.000000,31.000000,19.000000,55.000000,55.000000,16.000000
1295171.663382,-36.000000,-52.000000,-20.000000,-4.000000,-8.000000,-3.000000,-49.000000,0.000000
1295171.663399,11.000000,30.000000,26.000000,-31.000000,-75.000000,-10.000000,-84.000000,-12.000000
1295171.686089,-6.000000,-116.000000,-86.000000,-23.000000,1.000000,5.000000,24.000000,0.000000
1295171.686099,12.000000,80.000000,27.000000,-2.000000,-1.000000,-14.000000,23.000000,8.000000
1295171.700617,-14.000000,6.000000,24.000000,49.000000,49.000000,34.000000,47.000000,-40.000000
1295171.700631,-7.000000,-25.000000,-3.000000,-2.000000,-33.000000,-15.000000,18.000000,2.000000
1295171.701168,32.000000,48.000000,37.000000,69.000000,79.000000,44.000000,39.000000,32.000000
1295171.701197,39.000000,19.000000,-28.000000,-97.000000,-128.000000,-108.000000,51.000000,127.000000
1295171.702429,49.000000,86.000000,71.000000,36.000000,4.000000,24.000000,14.000000,-14.000000
1295171.702449,-27.000000,-36.000000,4.000000,7.000000,4.000000,70.000000,-7.000000,-15.000000
1295171.703189,21.000000,67.000000,75.000000,26.000000,-50.000000,-56.000000,-128.000000,-20.000000
1295171.703197,24.000000,-13.000000,-9.000000,5.000000,-2.000000,66.000000,127.000000,-19.000000
1295171.715638,85.000000,127.000000,127.000000,67.000000,19.000000,84.000000,127.000000,89.000000
1295171.715666,-33.000000,-59.000000,-19.000000,-30.000000,-46.000000,-52.000000,-128.000000,-57.000000
1295171.731729,-7.000000,19.000000,3.000000,-22.000000,-3.000000,-26.000000,8.000000,34.000000
1295171.731757,-58.000000,-51.000000,-52.000000,11.000000,42.000000,-103.000000,-106.000000,-59.000000
1295171.732033,-25.000000,-84.000000,-83.000000,-37.000000,-11.000000,-26.000000,12.000000,-2.000000
1295171.732060,-27.000000,57.000000,89.000000,-14.000000,-90.000000,33.000000,-8.000000,2.000000
1295171.745772,26.000000,28.000000,16.000000,6.000000,24.000000,13.000000,86.000000,88.000000
1295171.745790,-23.000000,-43.000000,-36.000000,-23.000000,-9.000000,-21.000000,3.000000,10.000000
1295171.753323,1.000000,13.000000,24.000000,19.000000,-14.000000,-12.000000,-57.000000,-40.000000
1295171.753334,-2.000000,11.000000,16.000000,25.000000,19.000000,6.000000,-66.000000,9.000000
1295171.776076,41.000000,20.000000,6.000000,6.000000,10.000000,24.000000,127.000000,115.000000
1295171.776106,-15.000000,-14.000000,-15.000000,-16.000000,-11.000000,8.000000,-128.000000,-31.000000
1295171.791289,-14.000000,-55.000000,-72.000000,-34.000000,-24.000000,25.000000,66.000000,-5.000000
1295171.791300,49.000000,29.000000,38.000000,43.000000,27.000000,-16.000000,-4.000000,24.000000
1295171.821476,1.000000,-19.000000,-40.000000,-28.000000,-32.000000,-24.000000,9.000000,28.000000
1295171.821505,-22.000000,1.000000,7.000000,14.000000,6.000000,4.000000,-97.000000,-49.000000
1295171.828830,4.000000,-11.000000,-13.000000,-47.000000,-38.000000,-29.000000,35.000000,29.000000
1295171.828854,-128.000000,-119.000000,-86.000000,-87.000000,-69.000000,-11.000000,-48.000000,-128.000000
1295171.843115,102.000000,127.000000,126.000000,91.000000,62.000000,117.000000,127.000000,123.000000
1295171.843128,-35.000000,-4.000000,45.000000,14.000000,54.000000,3.000000,-68.000000,-5.000000
1295171.843723,24.000000,9.000000,3.000000,-27.000000,-20.000000,-30.000000,-52.000000,-12.000000
1295171.843731,-61.000000,-50.000000,-41.000000,-4.000000,42.000000,-27.000000,-67.000000,-53.000000
1295171.844963,-24.000000,-16.000000,-4.000000,-1.000000,1.000000,-3.000000,-5.000000,12.000000
1295171.844972,25.000000,27.000000,11.000000,2.000000,-6.000000,-9.000000,-65.000000,-32.000000
1295171.845733,-31.000000,-32.000000,-67.000000,-33.000000,-70.000000,-83.000000,-92.000000,-32.000000
1295171.845742,-52.000000,-64.000000,-33.000000,-16.000000,-15.000000,-6.000000,37.000000,-54.000000
1295171.846398,52.000000,30.000000,7.000000,16.000000,34.000000,13.000000,12.000000,22.000000
1295171.846420,17.000000,26.000000,29.000000,16.000000,5.000000,20.000000,-80.000000,-80.000000
1295171.873847,-33.000000,-36.000000,-70.000000,-44.000000,-40.000000,-19.000000,29.000000,-10.000000
1295171.873857,-14.000000,-10.000000,17.000000,-14.000000,-27.000000,-20.000000,-30.000000,-37.000000
1295171.888470,18.000000,38.000000,24.000000,2.000000,-47.000000,9.000000,-41.000000,-13.000000
1295171.888488,-84.000000,-73.000000,-50.000000,-11.000000,23.000000,-41.000000,-93.000000,-33.000000
1295171.933550,-48.000000,-56.000000,12.000000,-73.000000,-128.000000,-43.000000,-79.000000,-128.000000
1295171.933575,106.000000,127.000000,66.000000,12.000000,20.000000,59.000000,99.000000,29.000000
1295171.940728,-2.000000,-43.000000,-25.000000,34.000000,70.000000,-10.000000,-16.000000,14.000000
1295171.940740,-43.000000,-49.000000,-41.000000,-25.000000,-57.000000,-25.000000,118.000000,-17.000000
1295171.970813,-11.000000,-4.000000,-24.000000,0.000000,24.000000,-38.000000,-52.000000,-8.000000
1295171.970837,-128.000000,-128.000000,-128.000000,-128.000000,-128.000000,-114.000000,-128.000000,-128.000000
1295171.978377,99.000000,106.000000,88.000000,35.000000,12.000000,127.000000,105.000000,65.000000
1295171.978391,-16.000000,-44.000000,-42.000000,20.000000,46.000000,-11.000000,-24.000000,1.000000
1295172.008865,-56.000000,-37.000000,22.000000,-4.000000,-11.000000,-45.000000,-68.000000,-43.000000
1295172.008882,-10.000000,7.000000,-47.000000,-40.000000,-36.000000,-78.000000,-105.000000,-10.000000
1295172.046015,-37.000000,-40.000000,37.000000,41.000000,44.000000,17.000000,-74.000000,-26.000000
1295172.046056,-14.000000,-16.000000,-108.000000,-40.000000,24.000000,-35.000000,-82.000000,-15.000000
1295172.047293,46.000000,-41.000000,48.000000,33.000000,-11.000000,55.000000,73.000000,22.000000
1295172.047303,-89.000000,115.000000,47.000000,56.000000,79.000000,37.000000,88.000000,-2.000000
1295172.047542,73.000000,127.000000,127.000000,48.000000,79.000000,89.000000,78.000000,-1.000000
1295172.047550,-24.000000,-42.000000,-26.000000,5.000000,26.000000,-11.000000,-128.000000,17.000000
1295172.048289,22.000000,5.000000,6.000000,48.000000,12.000000,63.000000,127.000000,6.000000
1295172.048301,-15.000000,14.000000,26.000000,-1.000000,-2.000000,-21.000000,-47.000000,-49.000000
1295172.053868,-36.000000,-44.000000,-46.000000,-24.000000,48.000000,-1.000000,-47.000000,-40.000000
1295172.053877,-23.000000,-109.000000,-53.000000,-18.000000,62.000000,14.000000,106.000000,-17.000000
1295172.068433,74.000000,57.000000,48.000000,30.000000,-99.000000,58.000000,68.000000,58.000000
1295172.068443,-8.000000,6.000000,12.000000,-5.000000,-7.000000,-26.000000,-64.000000,-29.000000
1295172.091391,-13.000000,-42.000000,-57.000000,-4.000000,17.000000,-49.000000,15.000000,5.000000
1295172.091400,-39.000000,-51.000000,-5.000000,-43.000000,-30.000000,-47.000000,-105.000000,-117.000000
1295172.091969,24.000000,41.000000,25.000000,94.000000,16.000000,31.000000,95.000000,90.000000
1295172.091986,17.000000,9.000000,22.000000,44.000000,78.000000,-12.000000,91.000000,22.000000
1295172.098372,-32.000000,-28.000000,-20.000000,-9.000000,42.000000,-38.000000,23.000000,15.000000
1295172.098383,24.000000,110.000000,96.000000,30.000000,-80.000000,50.000000,8.000000,-12.000000
1295172.121056,-25.000000,-16.000000,1.000000,-39.000000,-83.000000,-61.000000,-88.000000,-31.000000
1295172.121079,-13.000000,-32.000000,7.000000,-13.000000,-41.000000,-37.000000,28.000000,2.000000
1295172.143290,-57.000000,-41.000000,-57.000000,-27.000000,-33.000000,19.000000,-128.000000,-128.000000
1295172.143300,25.000000,40.000000,25.000000,-12.000000,-39.000000,-5.000000,53.000000,-46.000000
1295172.165860,76.000000,60.000000,10.000000,22.000000,109.000000,14.000000,-40.000000,14.000000
1295172.165884,0.000000,-25.000000,-79.000000,-19.000000,-15.000000,-50.000000,-18.000000,-37.000000
1295172.167060,27.000000,69.000000,15.000000,-23.000000,-45.000000,-10.000000,-33.000000,28.000000
1295172.167075,-18.000000,-3.000000,2.000000,-16.000000,-17.000000,-8.000000,95.000000,-22.000000
1295172.167621,-14.000000,6.000000,10.000000,15.000000,22.000000,5.000000,-38.000000,-13.000000
1295172.167646,-54.000000,-42.000000,-32.000000,-36.000000,-46.000000,-84.000000,-128.000000,-57.000000
1295172.168703,48.000000,5.000000,2.000000,20.000000,62.000000,119.000000,127.000000,60.000000
1295172.168713,5.000000,16.000000,18.000000,-14.000000,-45.000000,-48.000000,-5.000000,4.000000
1295172.169701,-46.000000,-42.000000,-28.000000,-7.000000,-29.000000,-49.000000,17.000000,6.000000
1295172.169710,5.000000,20.000000,12.000000,55.000000,24.000000,15.000000,4.000000,18.000000
1295172.204189,-23.000000,-47.000000,-45.000000,-123.000000,-128.000000,-94.000000,-78.000000,-55.000000
1295172.204233,20.000000,54.000000,32.000000,72.000000,100.000000,61.000000,27.000000,18.000000
1295172.204470,-47.000000,-3.000000,-6.000000,-35.000000,-75.000000,-33.000000,-56.000000,-59.000000
1295172.204479,23.000000,-12.000000,20.000000,13.000000,-9.000000,-4.000000,55.000000,38.000000
1295172.205332,30.000000,127.000000,48.000000,-13.000000,-19.000000,56.000000,-8.000000,-5.000000
1295172.205363,12.000000,15.000000,25.000000,26.000000,14.000000,0.000000,41.000000,3.000000
1295172.206135,-53.000000,-79.000000,-53.000000,-16.000000,10.000000,-38.000000,-128.000000,-100.000000
1295172.206171,38.000000,0.000000,-30.000000,13.000000,11.000000,9.000000,83.000000,59.000000
1295172.218276,-19.000000,-10.000000,-12.000000,-9.000000,-5.000000,-27.000000,-16.000000,-8.000000
1295172.218287,0.000000,43.000000,-7.000000,-23.000000,27.000000,127.000000,127.000000,5.000000
1295172.240887,1.000000,-9.000000,36.000000,45.000000,47.000000,43.000000,113.000000,107.000000
1295172.240916,-13.000000,-46.000000,-42.000000,-9.000000,-11.000000,-33.000000,-128.000000,-128.000000
1295172.255960,44.000000,46.000000,29.000000,-2.000000,40.000000,30.000000,127.000000,22.000000
1295172.255977,-27.000000,-13.000000,11.000000,36.000000,28.000000,37.000000,14.000000,-8.000000
1295172.270916,-21.000000,-48.000000,6.000000,-10.000000,-12.000000,-56.000000,-52.000000,-24.000000
1295172.270940,39.000000,33.000000,34.000000,31.000000,19.000000,35.000000,26.000000,50.000000
1295172.308298,-23.000000,-39.000000,-28.000000,-5.000000,4.000000,-13.000000,-25.000000,-29.000000
1295172.308327,-1.000000,24.000000,4.000000,-31.000000,-39.000000,-34.000000,18.000000,18.000000
1295172.308715,-28.000000,-16.000000,-44.000000,-28.000000,-4.000000,-35.000000,-13.000000,-38.000000
1295172.308731,-11.000000,-40.000000,-45.000000,-27.000000,-18.000000,-6.000000,4.000000,-5.000000
1295172.323084,35.000000,37.000000,15.000000,41.000000,64.000000,42.000000,115.000000,-3.000000
1295172.323094,17.000000,18.000000,-4.000000,-1.000000,-28.000000,4.000000,-128.000000,-38.000000
1295172.323548,26.000000,-7.000000,-4.000000,10.000000,32.000000,35.000000,116.000000,104.000000
1295172.323557,-21.000000,3.000000,26.000000,-6.000000,-28.000000,-13.000000,-83.000000,-46.000000
1295172.324788,-46.000000,27.000000,41.000000,9.000000,19.000000,-9.000000,-99.000000,-25.000000
1295172.324795,24.000000,-11.000000,-12.000000,-34.000000,-109.000000,7.000000,67.000000,64.000000
1295172.325432,-31.000000,-13.000000,-37.000000,-18.000000,-10.000000,-24.000000,-63.000000,-36.000000
1295172.325440,17.000000,26.000000,27.000000,48.000000,74.000000,25.000000,-10.000000,-17.000000
1295172.326321,-68.000000,-91.000000,-42.000000,-17.000000,-44.000000,-67.000000,44.000000,-30.000000
1295172.326329,80.000000,89.000000,25.000000,-18.000000,-23.000000,-44.000000,20.000000,53.000000
1295172.368505,22.000000,11.000000,-45.000000,26.000000,-11.000000,27.000000,-53.000000,-10.000000
1295172.368525,-27.000000,66.000000,60.000000,-49.000000,-60.000000,-48.000000,9.000000,-15.000000
1295172.376315,-9.000000,-16.000000,-34.000000,-8.000000,12.000000,1.000000,-20.000000,-1.000000
1295172.376347,0.000000,-21.000000,13.000000,19.000000,18.000000,9.000000,-23.000000,-18.000000
1295172.377083,-65.000000,-58.000000,-24.000000,-29.000000,-13.000000,-112.000000,-42.000000,-51.000000
1295172.377111,63.000000,72.000000,70.000000,24.000000,-11.000000,90.000000,127.000000,14.000000
1295172.377715,24.000000,14.000000,-16.000000,-14.000000,-9.000000,8.000000,19.000000,28.000000
1295172.377742,-21.000000,-28.000000,6.000000,16.000000,16.000000,-53.000000,-71.000000,10.000000
1295172.379042,1.000000,20.000000,7.000000,-17.000000,-21.000000,-26.000000,1.000000,-15.000000
1295172.379051,13.000000,3.000000,15.000000,6.000000,-9.000000,23.000000,50.000000,40.000000
1295172.383551,-44.000000,-7.000000,19.000000,29.000000,22.000000,-11.000000,-41.000000,-5.000000
1295172.383587,-65.000000,-96.000000,-74.000000,-108.000000,-55.000000,-42.000000,-39.000000,-121.000000
1295172.405881,96.000000,127.000000,85.000000,122.000000,19.000000,123.000000,113.000000,49.000000
1295172.405891,-35.000000,-44.000000,-21.000000,-16.000000,15.000000,-5.000000,-107.000000,-16.000000
1295172.420674,42.000000,98.000000,19.000000,-20.000000,-39.000000,2.000000,39.000000,27.000000
1295172.420683,-35.000000,-57.000000,-28.000000,-39.000000,-44.000000,-19.000000,-74.000000,-39.000000
1295172.443239,15.000000,-4.000000,-28.000000,20.000000,5.000000,-16.000000,77.000000,52.000000
1295172.443268,-11.000000,66.000000,36.000000,-21.000000,-5.000000,-10.000000,-6.000000,-39.000000
1295172.458411,-15.000000,-31.000000,-17.000000,-14.000000,-35.000000,-72.000000,-82.000000,-22.000000
1295172.458430,-8.000000,55.000000,22.000000,-1.000000,15.000000,-5.000000,-38.000000,-5.000000
1295172.488258,37.000000,23.000000,1.000000,-20.000000,-66.000000,29.000000,45.000000,-4.000000
1295172.488270,-36.000000,19.000000,8.000000,-6.000000,-18.000000,-64.000000,-29.000000,-50.000000
1295172.496216,52.000000,72.000000,19.000000,15.000000,35.000000,-25.000000,72.000000,35.000000
1295172.496237,-10.000000,-32.000000,-55.000000,-79.000000,-74.000000,-43.000000,12.000000,-8.000000
1295172.533399,-59.000000,-77.000000,6.000000,25.000000,65.000000,-22.000000,-95.000000,-36.000000
1295172.533410,23.000000,-16.000000,-3.000000,40.000000,-11.000000,84.000000,59.000000,39.000000
1295172.563593,-30.000000,-41.000000,-5.000000,1.000000,-10.000000,33.000000,62.000000,-36.000000
1295172.563774,29.000000,21.000000,26.000000,101.000000,76.000000,-18.000000,-22.000000,48.000000
1295172.564059,47.000000,50.000000,51.000000,101.000000,59.000000,76.000000,127.000000,54.000000
1295172.564084,-35.000000,-18.000000,-35.000000,17.000000,-9.000000,-51.000000,-42.000000,-48.000000
1295172.564575,-20.000000,-43.000000,-71.000000,-117.000000,-17.000000,-52.000000,-101.000000,-18.000000
1295172.564602,19.000000,11.000000,2.000000,47.000000,78.000000,-14.000000,1.000000,34.000000
1295172.565068,-21.000000,16.000000,44.000000,18.000000,67.000000,92.000000,69.000000,-26.000000
1295172.565096,-38.000000,-70.000000,-73.000000,-17.000000,9.000000,-18.000000,-17.000000,-19.000000
1295172.566262,-93.000000,-64.000000,-53.000000,-53.000000,-56.000000,-128.000000,-128.000000,-126.000000
1295172.566288,50.000000,-41.000000,-5.000000,-22.000000,1.000000,59.000000,91.000000,35.000000
1295172.585676,-7.000000,12.000000,10.000000,-29.000000,-56.000000,-14.000000,-86.000000,-23.000000
1295172.585687,-20.000000,-25.000000,-4.000000,64.000000,74.000000,7.000000,-8.000000,-12.000000
1295172.608432,-24.000000,6.000000,-9.000000,-48.000000,-80.000000,-74.000000,-14.000000,-36.000000
1295172.608444,8.000000,1.000000,-15.000000,-72.000000,-102.000000,3.000000,34.000000,15.000000
1295172.616146,-15.000000,-29.000000,-47.000000,30.000000,52.000000,18.000000,-51.000000,-21.000000
1295172.616158,-28.000000,1.000000,35.000000,16.000000,-41.000000,-93.000000,-128.000000,-54.000000
1295172.653673,51.000000,90.000000,86.000000,-10.000000,-38.000000,-16.000000,86.000000,69.000000
1295172.653702,-56.000000,-62.000000,-50.000000,4.000000,-1.000000,34.000000,48.000000,-17.000000
1295172.661270,15.000000,7.000000,-8.000000,4.000000,19.000000,-5.000000,-25.000000,-4.000000
1295172.661280,-54.000000,-52.000000,11.000000,-10.000000,-29.000000,-78.000000,-95.000000,-83.000000
1295172.683401,24.000000,10.000000,-14.000000,16.000000,46.000000,54.000000,127.000000,43.000000
1295172.683411,29.000000,1.000000,-7.000000,3.000000,11.000000,4.000000,-27.000000,-11.000000
1295172.698303,25.000000,31.000000,27.000000,-19.000000,-21.000000,-1.000000,-58.000000,34.000000
1295172.698326,26.000000,75.000000,67.000000,31.000000,-14.000000,14.000000,49.000000,17.000000
1295172.720779,18.000000,20.000000,58.000000,-9.000000,25.000000,26.000000,92.000000,60.000000
1295172.720789,28.000000,34.000000,-8.000000,47.000000,58.000000,70.000000,40.000000,5.000000
1295172.735821,-34.000000,-76.000000,-51.000000,-24.000000,-18.000000,-47.000000,-35.000000,70.000000
1295172.735832,-18.000000,83.000000,127.000000,16.000000,-5.000000,-55.000000,-128.000000,-49.000000
1295172.751054,-13.000000,-15.000000,10.000000,20.000000,46.000000,20.000000,127.000000,20.000000
1295172.751065,-55.000000,-39.000000,-93.000000,-26.000000,-5.000000,-44.000000,-114.000000,-48.000000
1295172.765966,-59.000000,-34.000000,-14.000000,9.000000,4.000000,-7.000000,-128.000000,-105.000000
1295172.765980,79.000000,118.000000,80.000000,78.000000,102.000000,104.000000,127.000000,88.000000
1295172.766735,15.000000,-9.000000,-21.000000,-32.000000,-46.000000,-110.000000,-89.000000,-17.000000
1295172.766744,0.000000,9.000000,3.000000,73.000000,30.000000,75.000000,23.000000,32.000000
1295172.767448,-8.000000,6.000000,-11.000000,-37.000000,-29.000000,-42.000000,22.000000,3.000000
1295172.767456,-32.000000,-35.000000,-26.000000,-21.000000,-64.000000,-20.000000,22.000000,-2.000000
1295172.768989,-41.000000,-32.000000,-78.000000,-40.000000,-62.000000,-35.000000,-98.000000,-17.000000
1295172.769005,32.000000,24.000000,99.000000,19.000000,14.000000,-30.000000,-85.000000,-3.000000
1295172.795855,-30.000000,-52.000000,-46.000000,-11.000000,-41.000000,-61.000000,41.000000,-10.000000
1295172.795869,-2.000000,-6.000000,-9.000000,-98.000000,-128.000000,34.000000,13.000000,-23.000000
1295172.796491,16.000000,-15.000000,-17.000000,39.000000,63.000000,54.000000,49.000000,46.000000
1295172.796501,6.000000,38.000000,14.000000,0.000000,35.000000,-44.000000,-67.000000,-16.000000
1295172.798031,-4.000000,-11.000000,0.000000,5.000000,-43.000000,-16.000000,-19.000000,-14.000000
1295172.798043,-5.000000,-10.000000,-21.000000,-2.000000,-62.000000,13.000000,9.000000,11.000000
1295172.810828,-33.000000,-16.000000,-29.000000,-25.000000,48.000000,28.000000,35.000000,-13.000000
1295172.810891,-47.000000,-90.000000,-55.000000,10.000000,62.000000,9.000000,-21.000000,-14.000000
1295172.825736,70.000000,127.000000,127.000000,39.000000,-30.000000,7.000000,38.000000,-10.000000
1295172.825746,64.000000,16.000000,-12.000000,7.000000,-1.000000,67.000000,127.000000,77.000000
1295172.840710,-16.000000,-41.000000,-42.000000,-15.000000,27.000000,-1.000000,-9.000000,-23.000000
1295172.840719,-37.000000,-20.000000,-3.000000,-7.000000,2.000000,-10.000000,-80.000000,15.000000
1295172.878405,-64.000000,-35.000000,14.000000,-20.000000,-83.000000,-93.000000,-128.000000,-38.000000
1295172.878424,50.000000,44.000000,-4.000000,-1.000000,-2.000000,36.000000,66.000000,0.000000
1295172.885725,1.000000,6.000000,6.000000,-8.000000,-2.000000,36.000000,-9.000000,73.000000
1295172.885749,-8.000000,-55.000000,-34.000000,-21.000000,-18.000000,-15.000000,17.000000,-4.000000
1295172.923205,-6.000000,-45.000000,7.000000,-1.000000,8.000000,-9.000000,-84.000000,-81.000000
1295172.923223,-2.000000,-1.000000,4.000000,25.000000,53.000000,2.000000,15.000000,-5.000000
1295172.923745,-53.000000,-62.000000,-47.000000,-9.000000,-23.000000,-3.000000,-128.000000,-37.000000
1295172.923753,10.000000,1.000000,6.000000,-38.000000,-20.000000,3.000000,124.000000,2.000000
