# participant_id: P1
# gesture: hard
# trial_number: 1
# stream_name: Myo_EMG
# stream_type: emg
# timestamp: 20260420_130332
# samples: 4622
# duration_sec: 30.539
# nominal_sample_rate: 200.0
# effective_sample_rate: 151.31
#
timestamp,emg_1,emg_2,emg_3,emg_4,emg_5,emg_6,emg_7,emg_8
1294904.131474,25.000000,4.000000,8.000000,30.000000,87.000000,51.000000,107.000000,12.000000
1294904.131501,-59.000000,-90.000000,-62.000000,-15.000000,22.000000,-89.000000,-128.000000,-47.000000
1294904.131820,-47.000000,20.000000,17.000000,-7.000000,10.000000,74.000000,127.000000,-127.000000
1294904.131847,4.000000,-36.000000,-7.000000,1.000000,13.000000,-9.000000,34.000000,55.000000
1294904.138461,58.000000,23.000000,-5.000000,-14.000000,-60.000000,5.000000,18.000000,62.000000
1294904.138471,-97.000000,-89.000000,-46.000000,-40.000000,-42.000000,-128.000000,-128.000000,-121.000000
1294904.145298,87.000000,56.000000,30.000000,46.000000,71.000000,125.000000,127.000000,127.000000
1294904.145315,5.000000,-22.000000,-34.000000,-14.000000,-28.000000,-68.000000,-35.000000,4.000000
1294904.146590,14.000000,12.000000,22.000000,-26.000000,28.000000,36.000000,127.000000,40.000000
1294904.146599,-28.000000,-25.000000,-5.000000,-16.000000,19.000000,-55.000000,104.000000,19.000000
1294904.152729,-7.000000,-4.000000,-30.000000,-16.000000,65.000000,-25.000000,-109.000000,-5.000000
1294904.152738,39.000000,29.000000,18.000000,4.000000,-49.000000,13.000000,93.000000,22.000000
1294904.175404,3.000000,-15.000000,-3.000000,1.000000,-5.000000,-7.000000,114.000000,66.000000
1294904.175416,-50.000000,-15.000000,-4.000000,16.000000,68.000000,-47.000000,-101.000000,-57.000000
1294904.175838,22.000000,87.000000,70.000000,-47.000000,-128.000000,-9.000000,1.000000,52.000000
1294904.175848,80.000000,67.000000,22.000000,18.000000,71.000000,47.000000,79.000000,64.000000
1294904.183077,-8.000000,-36.000000,-33.000000,11.000000,-1.000000,4.000000,34.000000,7.000000
1294904.183102,-18.000000,-14.000000,-1.000000,-32.000000,-54.000000,-36.000000,-69.000000,-24.000000
1294904.190418,-79.000000,-42.000000,6.000000,-62.000000,-112.000000,-52.000000,-128.000000,-63.000000
1294904.190436,49.000000,60.000000,37.000000,73.000000,82.000000,124.000000,127.000000,50.000000
1294904.258032,24.000000,-23.000000,-2.000000,-2.000000,0.000000,4.000000,-27.000000,76.000000
1294904.258041,-66.000000,-80.000000,-45.000000,-25.000000,-17.000000,-25.000000,-128.000000,-90.000000
1294904.265636,-28.000000,4.000000,-3.000000,5.000000,55.000000,35.000000,12.000000,-28.000000
1294904.265645,88.000000,10.000000,-27.000000,9.000000,53.000000,39.000000,59.000000,52.000000
1294904.302759,29.000000,88.000000,18.000000,19.000000,39.000000,1.000000,9.000000,13.000000
1294904.302786,-54.000000,-78.000000,-41.000000,-68.000000,-100.000000,-14.000000,-128.000000,-98.000000
1294904.303187,40.000000,76.000000,95.000000,97.000000,127.000000,64.000000,26.000000,34.000000
1294904.303194,-28.000000,-33.000000,-29.000000,-53.000000,-92.000000,-82.000000,-7.000000,-63.000000
1294904.304386,21.000000,23.000000,23.000000,39.000000,18.000000,-25.000000,-128.000000,-59.000000
1294904.304408,18.000000,26.000000,-20.000000,0.000000,-37.000000,127.000000,127.000000,39.000000
1294904.305041,-14.000000,-19.000000,-18.000000,0.000000,25.000000,12.000000,29.000000,-39.000000
1294904.305062,-23.000000,-29.000000,-26.000000,-18.000000,-5.000000,-51.000000,-52.000000,8.000000
1294904.305685,-58.000000,-64.000000,-32.000000,-40.000000,-121.000000,47.000000,-6.000000,-22.000000
1294904.305706,45.000000,47.000000,57.000000,18.000000,6.000000,19.000000,8.000000,-3.000000
1294904.306568,3.000000,-26.000000,-13.000000,-9.000000,28.000000,-65.000000,28.000000,-57.000000
1294904.306589,107.000000,81.000000,-17.000000,-82.000000,-121.000000,-50.000000,127.000000,91.000000
1294904.310207,-48.000000,-63.000000,-57.000000,-61.000000,-39.000000,-97.000000,-120.000000,-55.000000
1294904.310217,17.000000,20.000000,30.000000,125.000000,112.000000,127.000000,-2.000000,-23.000000
1294904.332851,-23.000000,24.000000,43.000000,28.000000,27.000000,7.000000,-64.000000,23.000000
1294904.332862,5.000000,-10.000000,-45.000000,-13.000000,15.000000,22.000000,123.000000,22.000000
1294904.340259,-13.000000,-59.000000,21.000000,17.000000,-68.000000,-22.000000,-49.000000,1.000000
1294904.340295,84.000000,86.000000,20.000000,-13.000000,-4.000000,-38.000000,127.000000,74.000000
1294904.370516,-21.000000,-64.000000,-31.000000,-16.000000,-71.000000,40.000000,120.000000,-11.000000
1294904.370535,12.000000,-17.000000,7.000000,47.000000,26.000000,8.000000,75.000000,66.000000
1294904.377754,0.000000,-62.000000,-13.000000,-11.000000,19.000000,-26.000000,-88.000000,6.000000
1294904.377773,-76.000000,-24.000000,-22.000000,-13.000000,36.000000,-31.000000,-128.000000,-60.000000
1294904.378945,67.000000,-17.000000,-1.000000,27.000000,10.000000,32.000000,127.000000,116.000000
1294904.378954,35.000000,45.000000,67.000000,78.000000,77.000000,0.000000,39.000000,58.000000
1294904.379654,-35.000000,-90.000000,-26.000000,-53.000000,-99.000000,1.000000,-128.000000,-24.000000
1294904.379662,5.000000,4.000000,-3.000000,9.000000,82.000000,4.000000,9.000000,12.000000
1294904.392754,-86.000000,-68.000000,-40.000000,13.000000,51.000000,-62.000000,-128.000000,-128.000000
1294904.392764,50.000000,36.000000,67.000000,-2.000000,-15.000000,-35.000000,127.000000,49.000000
1294904.408101,38.000000,55.000000,73.000000,69.000000,61.000000,127.000000,127.000000,-9.000000
1294904.408129,-3.000000,13.000000,2.000000,-85.000000,-128.000000,-63.000000,-87.000000,-12.000000
1294904.416504,-15.000000,4.000000,-13.000000,27.000000,113.000000,-7.000000,-62.000000,-53.000000
1294904.416521,7.000000,-11.000000,37.000000,-23.000000,-76.000000,46.000000,-75.000000,18.000000
1294904.417077,16.000000,1.000000,9.000000,17.000000,38.000000,19.000000,11.000000,37.000000
1294904.417094,-21.000000,-15.000000,1.000000,-27.000000,-13.000000,-12.000000,14.000000,-1.000000
1294904.422930,-52.000000,-53.000000,-54.000000,-37.000000,-89.000000,-36.000000,-51.000000,-77.000000
1294904.422939,-15.000000,66.000000,45.000000,-18.000000,-18.000000,-35.000000,-128.000000,-41.000000
1294904.430473,32.000000,82.000000,52.000000,37.000000,95.000000,66.000000,19.000000,-110.000000
1294904.430497,16.000000,21.000000,7.000000,70.000000,99.000000,75.000000,127.000000,-61.000000
1294904.452970,-42.000000,-44.000000,-15.000000,-80.000000,-62.000000,-51.000000,14.000000,-45.000000
1294904.452980,6.000000,45.000000,65.000000,81.000000,62.000000,-3.000000,127.000000,58.000000
1294904.460765,61.000000,114.000000,45.000000,-49.000000,-41.000000,-29.000000,-46.000000,-31.000000
1294904.460775,-15.000000,41.000000,27.000000,15.000000,85.000000,30.000000,-19.000000,2.000000
1294904.498123,-89.000000,-106.000000,-77.000000,-21.000000,-2.000000,-20.000000,-128.000000,-94.000000
1294904.498133,42.000000,23.000000,-1.000000,12.000000,-15.000000,54.000000,127.000000,105.000000
1294904.535394,-53.000000,-71.000000,-51.000000,-70.000000,-87.000000,-87.000000,-128.000000,2.000000
1294904.535407,58.000000,86.000000,59.000000,53.000000,55.000000,89.000000,127.000000,64.000000
1294904.557953,24.000000,24.000000,19.000000,10.000000,-16.000000,11.000000,127.000000,31.000000
1294904.557964,-47.000000,-18.000000,-26.000000,0.000000,22.000000,21.000000,-46.000000,24.000000
1294904.580897,27.000000,-23.000000,29.000000,54.000000,64.000000,3.000000,-47.000000,-34.000000
1294904.580925,13.000000,50.000000,58.000000,-93.000000,-128.000000,-39.000000,-34.000000,62.000000
1294904.595857,-60.000000,-56.000000,14.000000,3.000000,51.000000,2.000000,-54.000000,-65.000000
1294904.595868,94.000000,99.000000,19.000000,9.000000,10.000000,32.000000,75.000000,40.000000
1294904.610616,21.000000,-30.000000,-1.000000,70.000000,125.000000,-8.000000,-4.000000,39.000000
1294904.610626,-63.000000,-88.000000,-47.000000,-7.000000,-20.000000,-80.000000,-66.000000,32.000000
1294904.617787,2.000000,7.000000,3.000000,25.000000,108.000000,109.000000,75.000000,-42.000000
1294904.617797,-13.000000,16.000000,7.000000,-7.000000,0.000000,27.000000,127.000000,-53.000000
1294904.648226,-47.000000,-85.000000,-24.000000,-19.000000,13.000000,-27.000000,-65.000000,7.000000
1294904.648243,-104.000000,-128.000000,-91.000000,-128.000000,-103.000000,-88.000000,-128.000000,-123.000000
1294904.649141,53.000000,127.000000,101.000000,22.000000,15.000000,127.000000,127.000000,-16.000000
1294904.649148,84.000000,30.000000,5.000000,122.000000,127.000000,71.000000,-42.000000,24.000000
1294904.655704,43.000000,10.000000,-13.000000,-21.000000,-64.000000,-12.000000,96.000000,48.000000
1294904.655714,-46.000000,-41.000000,2.000000,-10.000000,-6.000000,1.000000,-63.000000,-40.000000
1294904.656374,-9.000000,-21.000000,-23.000000,-19.000000,2.000000,-20.000000,-18.000000,22.000000
1294904.656382,83.000000,58.000000,30.000000,4.000000,14.000000,79.000000,127.000000,-41.000000
1294904.657078,-87.000000,20.000000,24.000000,50.000000,33.000000,53.000000,95.000000,37.000000
1294904.657096,-15.000000,-31.000000,-45.000000,-128.000000,-128.000000,-127.000000,23.000000,127.000000
1294904.692970,63.000000,65.000000,41.000000,105.000000,127.000000,113.000000,127.000000,110.000000
1294904.692980,10.000000,-6.000000,-22.000000,-31.000000,-44.000000,-62.000000,57.000000,107.000000
1294904.700472,15.000000,-5.000000,3.000000,13.000000,-8.000000,-34.000000,24.000000,46.000000
1294904.700522,-60.000000,-53.000000,-31.000000,-36.000000,10.000000,-86.000000,-128.000000,-37.000000
1294904.730542,26.000000,55.000000,42.000000,66.000000,59.000000,115.000000,127.000000,111.000000
1294904.730552,127.000000,111.000000,33.000000,-7.000000,-76.000000,6.000000,127.000000,127.000000
1294904.737898,-13.000000,-86.000000,-27.000000,39.000000,93.000000,-7.000000,-11.000000,6.000000
1294904.737932,-10.000000,-36.000000,-17.000000,-9.000000,-16.000000,-27.000000,12.000000,12.000000
1294904.738911,-82.000000,-69.000000,-43.000000,-10.000000,15.000000,-41.000000,-128.000000,-128.000000
1294904.738925,-14.000000,20.000000,30.000000,-47.000000,-104.000000,-10.000000,78.000000,12.000000
1294904.739666,75.000000,43.000000,22.000000,84.000000,127.000000,127.000000,127.000000,18.000000
1294904.739675,57.000000,42.000000,4.000000,0.000000,7.000000,-33.000000,-54.000000,8.000000
1294904.741165,-29.000000,-49.000000,-39.000000,-25.000000,-16.000000,-60.000000,-90.000000,-37.000000
1294904.741192,-27.000000,-59.000000,-32.000000,-47.000000,-32.000000,-92.000000,-35.000000,17.000000
1294904.745315,-43.000000,-75.000000,22.000000,-23.000000,-123.000000,-62.000000,-107.000000,-15.000000
1294904.745324,53.000000,64.000000,13.000000,33.000000,114.000000,49.000000,-128.000000,-11.000000
1294904.760228,54.000000,33.000000,32.000000,56.000000,94.000000,90.000000,127.000000,109.000000
1294904.760238,-25.000000,-43.000000,5.000000,-48.000000,-94.000000,-54.000000,-128.000000,-107.000000
1294904.776061,-41.000000,-30.000000,-33.000000,-25.000000,-17.000000,-66.000000,-44.000000,-80.000000
1294904.776070,-72.000000,-47.000000,-39.000000,-62.000000,-45.000000,22.000000,-128.000000,-128.000000
1294904.776608,58.000000,45.000000,49.000000,110.000000,127.000000,91.000000,127.000000,55.000000
1294904.776616,-18.000000,-34.000000,-14.000000,13.000000,52.000000,-22.000000,-36.000000,-27.000000
1294904.790426,7.000000,12.000000,-10.000000,-6.000000,-38.000000,-67.000000,1.000000,43.000000
1294904.790450,16.000000,19.000000,14.000000,-3.000000,56.000000,68.000000,-128.000000,-29.000000
1294904.798032,-7.000000,-18.000000,6.000000,8.000000,5.000000,-77.000000,-103.000000,31.000000
1294904.798043,26.000000,20.000000,-11.000000,33.000000,36.000000,88.000000,127.000000,127.000000
1294904.820515,83.000000,72.000000,32.000000,4.000000,-62.000000,-37.000000,9.000000,66.000000
1294904.820544,-36.000000,-21.000000,-15.000000,-40.000000,-61.000000,-21.000000,-40.000000,-45.000000
1294904.858008,-41.000000,-55.000000,-11.000000,-19.000000,39.000000,-43.000000,-53.000000,-27.000000
1294904.858027,-48.000000,-21.000000,-1.000000,-8.000000,-23.000000,-1.000000,-93.000000,-113.000000
1294904.873191,127.000000,127.000000,44.000000,66.000000,107.000000,68.000000,-23.000000,23.000000
1294904.873201,-60.000000,-49.000000,-43.000000,-3.000000,22.000000,-61.000000,-10.000000,-5.000000
1294904.887806,-92.000000,-80.000000,12.000000,-128.000000,-96.000000,4.000000,-128.000000,-128.000000
1294904.887817,127.000000,109.000000,45.000000,-15.000000,-116.000000,75.000000,127.000000,127.000000
1294904.888887,23.000000,-20.000000,-54.000000,-14.000000,-18.000000,-23.000000,-45.000000,-4.000000
1294904.888905,-5.000000,74.000000,56.000000,12.000000,15.000000,-24.000000,-113.000000,-64.000000
1294904.889470,-70.000000,-47.000000,-68.000000,-21.000000,24.000000,-104.000000,-116.000000,-54.000000
1294904.889479,18.000000,18.000000,88.000000,-73.000000,-128.000000,64.000000,-67.000000,-63.000000
1294904.890175,-109.000000,-89.000000,-67.000000,-87.000000,-111.000000,-17.000000,-128.000000,-128.000000
1294904.890194,48.000000,32.000000,16.000000,57.000000,85.000000,44.000000,127.000000,119.000000
1294904.891154,-28.000000,-43.000000,-20.000000,-6.000000,-44.000000,-35.000000,-107.000000,-40.000000
1294904.891196,-18.000000,-73.000000,-49.000000,-51.000000,-58.000000,-117.000000,-128.000000,47.000000
1294904.895186,-49.000000,-45.000000,-7.000000,4.000000,29.000000,30.000000,63.000000,60.000000
1294904.895233,82.000000,81.000000,24.000000,-48.000000,-52.000000,42.000000,127.000000,98.000000
1294904.933077,-50.000000,-37.000000,-35.000000,-8.000000,29.000000,-44.000000,-42.000000,-22.000000
1294904.933087,-35.000000,-42.000000,-15.000000,-39.000000,-20.000000,-37.000000,-73.000000,32.000000
1294904.970508,-17.000000,-23.000000,12.000000,13.000000,18.000000,38.000000,-128.000000,-103.000000
1294904.970520,-69.000000,-73.000000,-39.000000,-26.000000,36.000000,54.000000,127.000000,-6.000000
1294905.008275,77.000000,111.000000,60.000000,88.000000,45.000000,49.000000,68.000000,59.000000
1294905.008354,15.000000,21.000000,-11.000000,60.000000,45.000000,4.000000,90.000000,7.000000
1294905.008933,-60.000000,-66.000000,-28.000000,-59.000000,-71.000000,-54.000000,-32.000000,-5.000000
1294905.008962,-68.000000,-95.000000,-95.000000,-21.000000,59.000000,-116.000000,-128.000000,-82.000000
1294905.009838,60.000000,114.000000,125.000000,4.000000,-109.000000,127.000000,127.000000,70.000000
1294905.009865,-8.000000,11.000000,19.000000,8.000000,-7.000000,-38.000000,-66.000000,-52.000000
1294905.010474,-56.000000,-106.000000,-128.000000,-52.000000,-46.000000,-128.000000,-128.000000,-72.000000
1294905.010496,127.000000,127.000000,72.000000,16.000000,-20.000000,71.000000,127.000000,127.000000
1294905.011015,-31.000000,-67.000000,-30.000000,31.000000,27.000000,4.000000,54.000000,54.000000
1294905.011041,-48.000000,-52.000000,-55.000000,35.000000,49.000000,77.000000,-41.000000,-75.000000
1294905.011858,-17.000000,39.000000,0.000000,-104.000000,-128.000000,-128.000000,-128.000000,-32.000000
1294905.011879,-90.000000,-66.000000,-16.000000,33.000000,114.000000,127.000000,-84.000000,-82.000000
1294905.015481,127.000000,92.000000,56.000000,48.000000,-28.000000,-10.000000,127.000000,127.000000
1294905.015493,32.000000,-7.000000,-13.000000,45.000000,58.000000,59.000000,76.000000,60.000000
1294905.023020,-37.000000,-15.000000,-33.000000,-29.000000,-37.000000,-30.000000,-45.000000,-60.000000
1294905.023029,-128.000000,-120.000000,-90.000000,-71.000000,-27.000000,-69.000000,-128.000000,-128.000000
1294905.052970,126.000000,117.000000,70.000000,82.000000,58.000000,19.000000,127.000000,127.000000
1294905.053002,69.000000,25.000000,8.000000,29.000000,10.000000,28.000000,127.000000,45.000000
1294905.083117,-24.000000,-3.000000,9.000000,-14.000000,-14.000000,-83.000000,-128.000000,-74.000000
1294905.083131,-24.000000,-37.000000,-47.000000,-73.000000,-91.000000,-92.000000,74.000000,25.000000
1294905.090423,-58.000000,-23.000000,47.000000,88.000000,127.000000,41.000000,-38.000000,-8.000000
1294905.090433,80.000000,58.000000,-46.000000,-12.000000,72.000000,20.000000,125.000000,57.000000
1294905.135567,26.000000,-7.000000,0.000000,16.000000,-22.000000,-30.000000,127.000000,41.000000
1294905.135584,-48.000000,-54.000000,-62.000000,-18.000000,47.000000,-44.000000,-128.000000,-111.000000
1294905.143246,21.000000,-4.000000,-4.000000,-92.000000,-75.000000,16.000000,62.000000,81.000000
1294905.143274,-13.000000,-12.000000,-15.000000,-26.000000,26.000000,-26.000000,127.000000,-69.000000
1294905.172968,-42.000000,-121.000000,-45.000000,-13.000000,17.000000,-24.000000,-78.000000,-78.000000
1294905.172982,25.000000,-6.000000,-34.000000,-8.000000,27.000000,-28.000000,78.000000,109.000000
1294905.210430,-23.000000,25.000000,11.000000,-18.000000,-35.000000,-4.000000,10.000000,65.000000
1294905.210449,-22.000000,-24.000000,-14.000000,-10.000000,-17.000000,-40.000000,-110.000000,12.000000
1294905.210928,11.000000,26.000000,22.000000,10.000000,36.000000,86.000000,-9.000000,40.000000
1294905.210952,-19.000000,-42.000000,-47.000000,-6.000000,15.000000,-14.000000,13.000000,-25.000000
1294905.211499,127.000000,127.000000,74.000000,127.000000,127.000000,127.000000,97.000000,127.000000
1294905.211510,-4.000000,-14.000000,-6.000000,-49.000000,-89.000000,-128.000000,-128.000000,-105.000000
1294905.212900,-24.000000,10.000000,-31.000000,-25.000000,-37.000000,-62.000000,-67.000000,-26.000000
1294905.212920,9.000000,1.000000,-6.000000,-23.000000,-10.000000,-22.000000,-66.000000,50.000000
1294905.213465,25.000000,20.000000,27.000000,70.000000,116.000000,28.000000,-91.000000,2.000000
1294905.213474,0.000000,-5.000000,-12.000000,101.000000,127.000000,63.000000,58.000000,-36.000000
1294905.214235,-69.000000,-61.000000,-38.000000,-81.000000,-128.000000,-33.000000,-128.000000,-67.000000
1294905.214252,73.000000,74.000000,75.000000,106.000000,19.000000,25.000000,127.000000,102.000000
1294905.240315,-36.000000,-65.000000,4.000000,-65.000000,-80.000000,-15.000000,-29.000000,-59.000000
1294905.240339,33.000000,82.000000,25.000000,20.000000,3.000000,41.000000,-62.000000,-64.000000
1294905.248696,-17.000000,-72.000000,-58.000000,-38.000000,-15.000000,-35.000000,27.000000,57.000000
1294905.248704,-40.000000,-19.000000,2.000000,-20.000000,8.000000,-22.000000,-61.000000,-45.000000
1294905.249531,-23.000000,31.000000,5.000000,14.000000,29.000000,39.000000,57.000000,12.000000
1294905.249539,59.000000,55.000000,-1.000000,-9.000000,-112.000000,-79.000000,127.000000,127.000000
1294905.250576,-18.000000,-13.000000,-5.000000,-56.000000,-11.000000,2.000000,27.000000,92.000000
1294905.250585,24.000000,-27.000000,-5.000000,83.000000,127.000000,67.000000,-56.000000,42.000000
1294905.256228,-55.000000,-6.000000,-4.000000,-11.000000,-24.000000,-18.000000,-93.000000,-128.000000
1294905.256245,-38.000000,-48.000000,-12.000000,-16.000000,-16.000000,-6.000000,45.000000,-14.000000
1294905.263035,-53.000000,-45.000000,-33.000000,12.000000,30.000000,-69.000000,-128.000000,-56.000000
1294905.263054,22.000000,82.000000,-4.000000,-128.000000,-128.000000,77.000000,-13.000000,-9.000000
1294905.286229,55.000000,127.000000,97.000000,127.000000,127.000000,127.000000,-24.000000,33.000000
1294905.286257,-59.000000,-55.000000,-72.000000,-37.000000,-55.000000,-12.000000,-41.000000,-12.000000
1294905.286822,-4.000000,119.000000,41.000000,58.000000,53.000000,-7.000000,-72.000000,-39.000000
1294905.286829,18.000000,-64.000000,-62.000000,-90.000000,-104.000000,-74.000000,-128.000000,-56.000000
1294905.300514,-34.000000,-20.000000,35.000000,6.000000,69.000000,29.000000,42.000000,-60.000000
1294905.300544,9.000000,49.000000,-12.000000,21.000000,77.000000,23.000000,127.000000,25.000000
1294905.315568,-25.000000,-60.000000,-56.000000,-44.000000,-67.000000,-68.000000,42.000000,22.000000
1294905.315578,20.000000,-11.000000,24.000000,15.000000,23.000000,0.000000,127.000000,80.000000
1294905.367888,32.000000,34.000000,10.000000,6.000000,23.000000,41.000000,-48.000000,-54.000000
1294905.367904,-38.000000,-51.000000,-32.000000,-26.000000,-34.000000,-51.000000,-124.000000,-72.000000
1294905.368352,3.000000,13.000000,2.000000,31.000000,46.000000,29.000000,127.000000,16.000000
1294905.368361,-61.000000,-128.000000,-47.000000,-42.000000,-12.000000,11.000000,-48.000000,-48.000000
1294905.369496,-18.000000,-26.000000,0.000000,5.000000,30.000000,6.000000,-70.000000,-32.000000
1294905.369547,-60.000000,-128.000000,-34.000000,-43.000000,-36.000000,-68.000000,25.000000,-32.000000
1294905.370195,41.000000,86.000000,78.000000,127.000000,127.000000,52.000000,-35.000000,-46.000000
1294905.370234,14.000000,39.000000,25.000000,23.000000,51.000000,50.000000,-37.000000,25.000000
1294905.371705,-32.000000,-5.000000,-45.000000,-71.000000,-74.000000,-13.000000,-22.000000,-72.000000
1294905.371718,28.000000,52.000000,3.000000,41.000000,52.000000,76.000000,127.000000,19.000000
1294905.375976,-69.000000,-14.000000,24.000000,37.000000,-54.000000,14.000000,64.000000,-44.000000
1294905.375986,1.000000,-37.000000,-43.000000,0.000000,3.000000,-35.000000,-35.000000,34.000000
1294905.412904,34.000000,59.000000,13.000000,0.000000,-16.000000,-57.000000,-114.000000,-12.000000
1294905.412928,-38.000000,-30.000000,-1.000000,-30.000000,-13.000000,40.000000,41.000000,30.000000
1294905.427926,11.000000,4.000000,28.000000,41.000000,5.000000,43.000000,126.000000,34.000000
1294905.427936,10.000000,-58.000000,-61.000000,-46.000000,-65.000000,-128.000000,-39.000000,62.000000
1294905.443536,-64.000000,18.000000,-26.000000,-13.000000,8.000000,-91.000000,-128.000000,-24.000000
1294905.443563,127.000000,89.000000,97.000000,-28.000000,-128.000000,127.000000,127.000000,127.000000
1294905.465317,72.000000,70.000000,84.000000,69.000000,89.000000,-8.000000,20.000000,45.000000
1294905.465326,-42.000000,-55.000000,3.000000,-100.000000,-120.000000,-95.000000,-128.000000,-10.000000
1294905.488219,-38.000000,-71.000000,-40.000000,30.000000,84.000000,19.000000,-128.000000,-75.000000
1294905.488250,-68.000000,-118.000000,-76.000000,-97.000000,-122.000000,-69.000000,-128.000000,-48.000000
1294905.489213,110.000000,127.000000,92.000000,127.000000,127.000000,127.000000,127.000000,118.000000
1294905.489222,-90.000000,-124.000000,-82.000000,-49.000000,14.000000,-94.000000,-128.000000,-67.000000
1294905.490664,3.000000,6.000000,-20.000000,-21.000000,-85.000000,-40.000000,-42.000000,-14.000000
1294905.490696,-2.000000,22.000000,-22.000000,-3.000000,10.000000,37.000000,127.000000,0.000000
1294905.492063,109.000000,112.000000,91.000000,121.000000,27.000000,127.000000,127.000000,127.000000
1294905.492070,-19.000000,2.000000,59.000000,48.000000,59.000000,20.000000,-97.000000,-68.000000
1294905.525699,34.000000,103.000000,49.000000,-27.000000,-52.000000,25.000000,40.000000,5.000000
1294905.525712,-9.000000,-15.000000,-38.000000,0.000000,59.000000,-41.000000,-22.000000,-11.000000
1294905.533000,-60.000000,-60.000000,-47.000000,-97.000000,-128.000000,-6.000000,-72.000000,-93.000000
1294905.533012,-42.000000,-53.000000,-25.000000,41.000000,52.000000,-22.000000,63.000000,11.000000
1294905.563228,-24.000000,7.000000,15.000000,13.000000,53.000000,-7.000000,-27.000000,-8.000000
1294905.563249,-96.000000,-64.000000,-59.000000,-39.000000,-20.000000,-51.000000,-104.000000,-128.000000
1294905.570669,44.000000,19.000000,56.000000,45.000000,26.000000,17.000000,-2.000000,46.000000
1294905.570686,-50.000000,11.000000,-2.000000,-7.000000,2.000000,-40.000000,-122.000000,-69.000000
1294905.608234,-15.000000,-43.000000,-29.000000,-54.000000,-66.000000,15.000000,111.000000,-10.000000
1294905.608270,40.000000,25.000000,8.000000,16.000000,42.000000,43.000000,76.000000,-59.000000
1294905.630576,-67.000000,-46.000000,-15.000000,9.000000,-1.000000,35.000000,-71.000000,-15.000000
1294905.630596,-15.000000,-22.000000,-13.000000,-9.000000,-18.000000,8.000000,13.000000,8.000000
1294905.668134,3.000000,-7.000000,14.000000,127.000000,127.000000,43.000000,18.000000,20.000000
1294905.668171,-24.000000,-57.000000,-8.000000,-87.000000,-114.000000,7.000000,-21.000000,-16.000000
1294905.690586,11.000000,16.000000,-19.000000,26.000000,42.000000,1.000000,81.000000,40.000000
1294905.690621,-37.000000,-11.000000,45.000000,33.000000,68.000000,9.000000,6.000000,-126.000000
1294905.743046,0.000000,-25.000000,-8.000000,17.000000,11.000000,-19.000000,-7.000000,26.000000
1294905.743075,-94.000000,-81.000000,-89.000000,-16.000000,24.000000,-57.000000,-128.000000,-128.000000
1294905.758260,49.000000,-25.000000,26.000000,-80.000000,-128.000000,-8.000000,-72.000000,-14.000000
1294905.758276,47.000000,26.000000,-11.000000,89.000000,127.000000,78.000000,127.000000,61.000000
1294905.766015,-10.000000,22.000000,-8.000000,-29.000000,-33.000000,-75.000000,-128.000000,-80.000000
1294905.766026,53.000000,35.000000,42.000000,50.000000,39.000000,114.000000,127.000000,86.000000
1294905.766534,-32.000000,-19.000000,-53.000000,36.000000,127.000000,-38.000000,-67.000000,-11.000000
1294905.766543,33.000000,68.000000,95.000000,83.000000,-34.000000,55.000000,58.000000,-42.000000
1294905.768889,44.000000,26.000000,56.000000,42.000000,4.000000,65.000000,54.000000,48.000000
1294905.768904,66.000000,13.000000,-10.000000,-17.000000,-18.000000,-26.000000,58.000000,104.000000
1294905.803013,20.000000,32.000000,27.000000,81.000000,126.000000,28.000000,-45.000000,-20.000000
1294905.803034,7.000000,25.000000,24.000000,-37.000000,-30.000000,-83.000000,117.000000,48.000000
1294905.803379,-6.000000,41.000000,23.000000,-19.000000,-61.000000,-34.000000,-128.000000,-43.000000
1294905.803388,32.000000,-28.000000,3.000000,-27.000000,-33.000000,37.000000,127.000000,67.000000
1294905.804649,8.000000,-11.000000,-57.000000,-37.000000,-45.000000,-69.000000,46.000000,31.000000
1294905.804659,34.000000,87.000000,77.000000,64.000000,28.000000,88.000000,101.000000,65.000000
1294905.805717,12.000000,4.000000,10.000000,43.000000,40.000000,0.000000,-70.000000,-8.000000
1294905.805737,-56.000000,-80.000000,-78.000000,-41.000000,-12.000000,-70.000000,-125.000000,-59.000000
1294905.840226,8.000000,10.000000,-14.000000,-23.000000,-53.000000,-22.000000,127.000000,39.000000
1294905.840236,-37.000000,-15.000000,-13.000000,-27.000000,-15.000000,-2.000000,-51.000000,-35.000000
1294905.840700,-124.000000,-89.000000,-30.000000,-73.000000,-86.000000,-121.000000,-128.000000,-123.000000
1294905.840709,102.000000,94.000000,50.000000,96.000000,119.000000,110.000000,127.000000,127.000000
1294905.842235,-38.000000,-14.000000,-20.000000,-10.000000,25.000000,-4.000000,-67.000000,26.000000
1294905.842244,41.000000,127.000000,28.000000,5.000000,-54.000000,-45.000000,8.000000,-21.000000
1294905.847878,-12.000000,-12.000000,19.000000,-18.000000,-40.000000,-70.000000,-118.000000,-19.000000
1294905.847891,-33.000000,5.000000,1.000000,5.000000,-4.000000,-34.000000,80.000000,23.000000
1294905.856201,25.000000,1.000000,-8.000000,-82.000000,-110.000000,-3.000000,-2.000000,34.000000
1294905.856220,-90.000000,-72.000000,23.000000,55.000000,96.000000,2.000000,80.000000,-32.000000
1294905.870584,89.000000,86.000000,22.000000,40.000000,-5.000000,15.000000,43.000000,33.000000
1294905.870595,8.000000,-25.000000,-14.000000,17.000000,11.000000,-34.000000,24.000000,10.000000
1294905.908037,-76.000000,-94.000000,-62.000000,-52.000000,25.000000,-87.000000,-128.000000,-86.000000
1294905.908058,-14.000000,41.000000,34.000000,-128.000000,-128.000000,90.000000,9.000000,7.000000
1294905.922747,41.000000,43.000000,-5.000000,4.000000,-4.000000,-19.000000,1.000000,18.000000
1294905.922757,-27.000000,-7.000000,3.000000,-21.000000,54.000000,-21.000000,3.000000,-34.000000
1294905.923853,10.000000,112.000000,46.000000,79.000000,105.000000,37.000000,-9.000000,-15.000000
1294905.923863,-20.000000,-32.000000,-38.000000,-22.000000,-11.000000,-27.000000,-14.000000,7.000000
1294905.924766,-10.000000,-37.000000,-26.000000,-19.000000,-40.000000,-21.000000,-7.000000,-25.000000
1294905.924775,11.000000,19.000000,-7.000000,5.000000,11.000000,17.000000,-82.000000,-20.000000
1294905.930693,0.000000,-10.000000,-7.000000,-2.000000,-3.000000,13.000000,-128.000000,-115.000000
1294905.930707,-44.000000,-88.000000,-64.000000,-99.000000,-128.000000,-59.000000,36.000000,-47.000000
1294905.931506,-24.000000,-7.000000,-1.000000,-12.000000,-3.000000,8.000000,-128.000000,-87.000000
1294905.931515,41.000000,7.000000,-11.000000,43.000000,83.000000,44.000000,53.000000,65.000000
1294905.968110,-21.000000,45.000000,49.000000,-4.000000,-44.000000,-20.000000,-106.000000,-28.000000
1294905.968230,-44.000000,-41.000000,-28.000000,25.000000,47.000000,-57.000000,-128.000000,-23.000000
1294905.968477,23.000000,32.000000,23.000000,-36.000000,2.000000,43.000000,54.000000,47.000000
1294905.968495,46.000000,85.000000,36.000000,120.000000,127.000000,55.000000,-83.000000,2.000000
1294905.969780,-31.000000,32.000000,-18.000000,0.000000,72.000000,-69.000000,127.000000,14.000000
1294905.969790,84.000000,0.000000,37.000000,-19.000000,34.000000,90.000000,127.000000,112.000000
1294905.970426,-14.000000,25.000000,20.000000,9.000000,-13.000000,-44.000000,-128.000000,-58.000000
1294905.970434,1.000000,-15.000000,-17.000000,-21.000000,-38.000000,-47.000000,66.000000,54.000000
1294905.975972,-54.000000,-75.000000,-33.000000,-23.000000,-19.000000,-2.000000,18.000000,-8.000000
1294905.975981,-5.000000,-22.000000,-28.000000,-15.000000,-36.000000,-7.000000,14.000000,-11.000000
1294905.998062,110.000000,34.000000,43.000000,4.000000,-94.000000,34.000000,127.000000,127.000000
1294905.998088,-43.000000,-64.000000,-44.000000,-11.000000,-10.000000,-15.000000,101.000000,-14.000000
1294906.020316,1.000000,-2.000000,-25.000000,4.000000,75.000000,-5.000000,127.000000,40.000000
1294906.020326,-42.000000,-43.000000,-35.000000,2.000000,50.000000,-18.000000,-64.000000,-52.000000
1294906.027742,6.000000,95.000000,12.000000,5.000000,14.000000,-14.000000,-82.000000,-27.000000
1294906.027751,13.000000,51.000000,63.000000,45.000000,-87.000000,25.000000,9.000000,-22.000000
1294906.058148,-89.000000,-44.000000,-79.000000,-86.000000,-54.000000,-128.000000,-128.000000,-82.000000
1294906.058159,87.000000,77.000000,93.000000,-50.000000,-107.000000,127.000000,127.000000,127.000000
1294906.072930,-27.000000,-28.000000,-10.000000,43.000000,77.000000,-29.000000,-111.000000,-42.000000
1294906.072941,-53.000000,-100.000000,-84.000000,-50.000000,-22.000000,-80.000000,-128.000000,-86.000000
1294906.088079,-11.000000,5.000000,91.000000,-18.000000,-58.000000,-71.000000,-84.000000,9.000000
1294906.088090,-17.000000,43.000000,56.000000,-9.000000,-69.000000,-24.000000,-60.000000,-42.000000
1294906.095622,0.000000,-24.000000,10.000000,27.000000,7.000000,54.000000,73.000000,25.000000
1294906.095633,-50.000000,-57.000000,-52.000000,-14.000000,-9.000000,-33.000000,-59.000000,-100.000000
1294906.125189,-19.000000,-21.000000,-16.000000,8.000000,42.000000,4.000000,-1.000000,-58.000000
1294906.125198,-46.000000,-22.000000,-9.000000,-25.000000,-17.000000,-48.000000,-39.000000,38.000000
1294906.163097,-31.000000,-2.000000,-20.000000,7.000000,59.000000,-20.000000,24.000000,-15.000000
1294906.163111,-123.000000,-111.000000,-67.000000,-91.000000,-109.000000,-128.000000,-128.000000,-122.000000
1294906.200421,-31.000000,-71.000000,-51.000000,-46.000000,-39.000000,-83.000000,-76.000000,-1.000000
1294906.200437,-42.000000,-49.000000,-8.000000,-8.000000,13.000000,-6.000000,-128.000000,-128.000000
1294906.202227,-28.000000,-14.000000,-8.000000,-42.000000,-41.000000,-56.000000,84.000000,-20.000000
1294906.202244,17.000000,13.000000,3.000000,-3.000000,-59.000000,35.000000,127.000000,32.000000
1294906.202876,41.000000,27.000000,6.000000,3.000000,-32.000000,-13.000000,127.000000,115.000000
1294906.202894,-8.000000,-41.000000,-21.000000,8.000000,69.000000,30.000000,-1.000000,10.000000
1294906.203472,-13.000000,-25.000000,-25.000000,-20.000000,-14.000000,-36.000000,-119.000000,-50.000000
1294906.203508,-57.000000,-85.000000,-42.000000,-29.000000,-31.000000,-6.000000,62.000000,-57.000000
1294906.204356,-7.000000,4.000000,14.000000,2.000000,3.000000,-12.000000,-36.000000,-110.000000
1294906.204365,-2.000000,-3.000000,-16.000000,20.000000,41.000000,49.000000,127.000000,-23.000000
1294906.208057,5.000000,5.000000,1.000000,29.000000,26.000000,4.000000,125.000000,51.000000
1294906.208071,-8.000000,-39.000000,-14.000000,27.000000,39.000000,10.000000,40.000000,-8.000000
1294906.253052,50.000000,46.000000,5.000000,18.000000,20.000000,-26.000000,93.000000,20.000000
1294906.253065,-31.000000,-34.000000,5.000000,-31.000000,-115.000000,58.000000,-128.000000,-39.000000
1294906.260277,4.000000,32.000000,-2.000000,71.000000,113.000000,25.000000,88.000000,43.000000
1294906.260287,63.000000,79.000000,34.000000,44.000000,45.000000,6.000000,-85.000000,-38.000000
1294906.283277,-38.000000,-17.000000,-22.000000,-13.000000,-75.000000,4.000000,125.000000,10.000000
1294906.283317,-61.000000,-67.000000,-47.000000,-21.000000,-6.000000,-128.000000,-128.000000,-128.000000
1294906.297833,127.000000,102.000000,58.000000,22.000000,-8.000000,127.000000,127.000000,127.000000
1294906.297844,12.000000,-15.000000,-22.000000,-10.000000,-23.000000,-14.000000,-71.000000,-12.000000
1294906.313298,2.000000,11.000000,-7.000000,-5.000000,-9.000000,-46.000000,-93.000000,-24.000000
1294906.313306,-46.000000,-8.000000,-42.000000,-16.000000,-18.000000,-63.000000,-10.000000,-16.000000
1294906.313949,11.000000,-7.000000,68.000000,-15.000000,-15.000000,24.000000,-41.000000,-48.000000
1294906.313957,-48.000000,-44.000000,-12.000000,32.000000,68.000000,12.000000,31.000000,43.000000
1294906.320279,-110.000000,-121.000000,-77.000000,-33.000000,-47.000000,-98.000000,-128.000000,-99.000000
1294906.320295,127.000000,127.000000,127.000000,127.000000,127.000000,127.000000,127.000000,127.000000
1294906.321519,-78.000000,-74.000000,-40.000000,-3.000000,-8.000000,-75.000000,-118.000000,-89.000000
1294906.321530,-2.000000,61.000000,8.000000,40.000000,121.000000,58.000000,-119.000000,-52.000000
1294906.323118,-5.000000,-7.000000,-8.000000,-52.000000,-55.000000,6.000000,41.000000,8.000000
1294906.323130,-17.000000,-52.000000,-46.000000,-13.000000,-9.000000,-33.000000,-75.000000,-50.000000
1294906.358031,11.000000,-16.000000,-11.000000,-21.000000,-14.000000,-38.000000,-128.000000,-119.000000
1294906.358043,20.000000,20.000000,1.000000,4.000000,1.000000,6.000000,127.000000,-11.000000
1294906.372852,12.000000,57.000000,93.000000,-1.000000,-45.000000,27.000000,56.000000,54.000000
1294906.372861,73.000000,31.000000,11.000000,3.000000,4.000000,17.000000,37.000000,-11.000000
1294906.395372,-20.000000,-32.000000,-23.000000,31.000000,127.000000,-3.000000,-40.000000,-30.000000
1294906.395382,13.000000,-10.000000,-20.000000,-12.000000,-43.000000,-10.000000,29.000000,104.000000
1294906.440366,41.000000,34.000000,58.000000,11.000000,-79.000000,49.000000,127.000000,39.000000
1294906.440377,-76.000000,-74.000000,-46.000000,14.000000,46.000000,-126.000000,-128.000000,-39.000000
1294906.440727,32.000000,13.000000,16.000000,-10.000000,-72.000000,94.000000,127.000000,91.000000
1294906.440736,-5.000000,-14.000000,-38.000000,67.000000,127.000000,17.000000,56.000000,20.000000
1294906.441919,-73.000000,-17.000000,-16.000000,-128.000000,-128.000000,-54.000000,-10.000000,-5.000000
1294906.441927,51.000000,74.000000,62.000000,81.000000,127.000000,49.000000,66.000000,3.000000
1294906.442549,-7.000000,-12.000000,-31.000000,-28.000000,-26.000000,-22.000000,99.000000,78.000000
1294906.442558,-95.000000,-117.000000,-73.000000,-40.000000,-34.000000,-102.000000,-128.000000,-104.000000
1294906.444133,15.000000,-56.000000,-18.000000,-68.000000,-102.000000,-33.000000,0.000000,-8.000000
1294906.444141,12.000000,38.000000,4.000000,70.000000,125.000000,13.000000,48.000000,-10.000000
1294906.463171,-61.000000,0.000000,-20.000000,-32.000000,5.000000,-7.000000,-10.000000,-62.000000
1294906.463184,10.000000,-4.000000,37.000000,70.000000,52.000000,116.000000,42.000000,78.000000
1294906.522932,-22.000000,-23.000000,-23.000000,9.000000,24.000000,-53.000000,-24.000000,-19.000000
1294906.522952,-83.000000,-65.000000,-69.000000,-67.000000,-46.000000,-79.000000,-40.000000,-57.000000
1294906.530252,84.000000,24.000000,40.000000,35.000000,4.000000,117.000000,127.000000,93.000000
1294906.530261,-46.000000,-8.000000,-14.000000,-15.000000,-32.000000,-9.000000,-77.000000,-41.000000
1294906.531428,-33.000000,-41.000000,-26.000000,-9.000000,3.000000,-20.000000,-101.000000,-8.000000
1294906.531445,44.000000,5.000000,-6.000000,13.000000,45.000000,30.000000,112.000000,34.000000
1294906.532101,-8.000000,64.000000,13.000000,20.000000,-3.000000,22.000000,-1.000000,-16.000000
1294906.532118,-5.000000,-15.000000,-21.000000,15.000000,28.000000,-17.000000,33.000000,-53.000000
1294906.533563,-29.000000,-66.000000,-58.000000,-31.000000,8.000000,-33.000000,-21.000000,15.000000
1294906.533572,13.000000,36.000000,25.000000,-41.000000,-128.000000,63.000000,6.000000,33.000000
1294906.538501,72.000000,127.000000,38.000000,8.000000,-18.000000,93.000000,127.000000,60.000000
1294906.538510,15.000000,4.000000,28.000000,31.000000,61.000000,28.000000,-16.000000,-3.000000
1294906.552859,-14.000000,-11.000000,-19.000000,-30.000000,-42.000000,-41.000000,-87.000000,-39.000000
1294906.552871,-128.000000,-40.000000,-18.000000,-38.000000,-42.000000,6.000000,-128.000000,-128.000000
1294906.560459,113.000000,37.000000,-33.000000,12.000000,18.000000,55.000000,127.000000,72.000000
1294906.560472,37.000000,89.000000,63.000000,2.000000,-3.000000,48.000000,27.000000,28.000000
1294906.582973,-2.000000,-17.000000,-3.000000,3.000000,-36.000000,-17.000000,-38.000000,-2.000000
1294906.582983,-22.000000,15.000000,12.000000,4.000000,-10.000000,-22.000000,-45.000000,-31.000000
1294906.612985,-23.000000,-48.000000,-32.000000,-25.000000,-4.000000,-32.000000,-70.000000,-48.000000
1294906.613007,6.000000,-12.000000,4.000000,18.000000,-48.000000,4.000000,-59.000000,-7.000000
1294906.635548,34.000000,40.000000,16.000000,20.000000,54.000000,93.000000,127.000000,-3.000000
1294906.635561,4.000000,-4.000000,-11.000000,-5.000000,36.000000,-19.000000,2.000000,6.000000
1294906.650545,-39.000000,-58.000000,-41.000000,1.000000,24.000000,-35.000000,-26.000000,-11.000000
1294906.650568,-16.000000,-19.000000,-23.000000,-59.000000,-108.000000,-54.000000,-126.000000,-17.000000
1294906.672805,-58.000000,-63.000000,-3.000000,-38.000000,16.000000,4.000000,-128.000000,-128.000000
1294906.672818,36.000000,12.000000,8.000000,24.000000,31.000000,72.000000,57.000000,76.000000
1294906.673965,4.000000,-47.000000,-50.000000,-10.000000,-18.000000,-25.000000,-77.000000,-16.000000
1294906.673976,-1.000000,-11.000000,-11.000000,-22.000000,-42.000000,-128.000000,85.000000,89.000000
1294906.674728,24.000000,13.000000,-1.000000,-37.000000,-8.000000,15.000000,127.000000,36.000000
1294906.674760,67.000000,82.000000,34.000000,24.000000,75.000000,105.000000,127.000000,111.000000
1294906.675359,-44.000000,-12.000000,-15.000000,-17.000000,-3.000000,-79.000000,-32.000000,-45.000000
1294906.675386,-9.000000,21.000000,-2.000000,-52.000000,-21.000000,36.000000,-91.000000,-76.000000
1294906.676706,-31.000000,29.000000,83.000000,-41.000000,-48.000000,0.000000,22.000000,-43.000000
1294906.676715,-82.000000,-73.000000,-56.000000,-42.000000,-13.000000,-40.000000,-66.000000,-67.000000
1294906.680465,108.000000,108.000000,20.000000,86.000000,127.000000,73.000000,120.000000,87.000000
1294906.680493,-31.000000,-21.000000,-25.000000,-11.000000,-8.000000,-27.000000,-19.000000,-23.000000
1294906.688220,-15.000000,31.000000,13.000000,-11.000000,-3.000000,-48.000000,-128.000000,-18.000000
1294906.688249,-75.000000,-64.000000,-4.000000,-11.000000,2.000000,-5.000000,-128.000000,-128.000000
1294906.740507,-26.000000,-12.000000,-15.000000,-13.000000,-4.000000,0.000000,-12.000000,-1.000000
1294906.740518,-34.000000,-9.000000,0.000000,-14.000000,-11.000000,-33.000000,-57.000000,-70.000000
1294906.755579,127.000000,115.000000,70.000000,103.000000,79.000000,127.000000,127.000000,127.000000
1294906.755597,-7.000000,19.000000,-29.000000,11.000000,19.000000,-28.000000,-63.000000,-21.000000
1294906.770476,-31.000000,-60.000000,-37.000000,-45.000000,-53.000000,-77.000000,-128.000000,-53.000000
1294906.770487,-69.000000,-60.000000,-20.000000,5.000000,63.000000,15.000000,51.000000,-37.000000
1294906.777932,85.000000,113.000000,9.000000,-7.000000,11.000000,47.000000,22.000000,23.000000
1294906.777944,49.000000,48.000000,81.000000,15.000000,-20.000000,-12.000000,37.000000,62.000000
1294906.800851,-55.000000,-67.000000,-63.000000,22.000000,44.000000,-43.000000,16.000000,-54.000000
1294906.800869,-1.000000,-2.000000,59.000000,-128.000000,-122.000000,-29.000000,-100.000000,-36.000000
1294906.802020,29.000000,-3.000000,-18.000000,-2.000000,1.000000,-15.000000,-90.000000,33.000000
1294906.802029,-62.000000,-33.000000,-15.000000,28.000000,66.000000,66.000000,-87.000000,-128.000000
1294906.803450,21.000000,79.000000,-15.000000,-6.000000,13.000000,-6.000000,31.000000,28.000000
1294906.803467,44.000000,87.000000,116.000000,48.000000,-115.000000,80.000000,127.000000,127.000000
1294906.807820,-15.000000,-43.000000,-22.000000,-35.000000,-28.000000,-7.000000,33.000000,-14.000000
1294906.807830,32.000000,49.000000,7.000000,9.000000,15.000000,-13.000000,47.000000,37.000000
1294906.838137,-66.000000,-55.000000,-46.000000,-20.000000,20.000000,-75.000000,-128.000000,-94.000000
1294906.838150,42.000000,8.000000,88.000000,-9.000000,-128.000000,76.000000,-128.000000,-37.000000
1294906.852842,9.000000,-8.000000,-16.000000,39.000000,62.000000,29.000000,127.000000,19.000000
1294906.852853,17.000000,-12.000000,-14.000000,1.000000,28.000000,41.000000,127.000000,60.000000
1294906.875662,-69.000000,-65.000000,-38.000000,-26.000000,-34.000000,-80.000000,20.000000,-4.000000
1294906.875674,-2.000000,27.000000,-23.000000,-20.000000,-31.000000,-9.000000,-2.000000,-3.000000
1294906.890472,-25.000000,-54.000000,-9.000000,-34.000000,-26.000000,-3.000000,92.000000,8.000000
1294906.890489,47.000000,82.000000,16.000000,-17.000000,-82.000000,10.000000,21.000000,54.000000
1294906.912849,-94.000000,-109.000000,-8.000000,-38.000000,-20.000000,-87.000000,-128.000000,-128.000000
1294906.912883,80.000000,99.000000,59.000000,64.000000,59.000000,112.000000,127.000000,97.000000
1294906.913242,-30.000000,-53.000000,-30.000000,-28.000000,-66.000000,-50.000000,-26.000000,-15.000000
1294906.913263,-75.000000,-74.000000,-48.000000,-50.000000,-25.000000,-28.000000,-113.000000,-66.000000
1294906.914447,-82.000000,-84.000000,-76.000000,-51.000000,-14.000000,3.000000,-128.000000,-128.000000
1294906.914469,-5.000000,-110.000000,-31.000000,-19.000000,-71.000000,19.000000,89.000000,-51.000000
1294906.915776,26.000000,69.000000,79.000000,117.000000,113.000000,90.000000,127.000000,65.000000
1294906.915785,-1.000000,5.000000,-24.000000,-21.000000,-16.000000,-32.000000,-64.000000,-16.000000
1294906.920142,0.000000,-8.000000,-20.000000,10.000000,-19.000000,12.000000,-28.000000,-36.000000
1294906.920150,9.000000,0.000000,-14.000000,-13.000000,-5.000000,0.000000,32.000000,15.000000
1294906.928061,52.000000,36.000000,-2.000000,-11.000000,-23.000000,-128.000000,-128.000000,64.000000
1294906.928071,41.000000,91.000000,70.000000,54.000000,38.000000,127.000000,127.000000,127.000000
1294906.965642,62.000000,13.000000,-25.000000,-14.000000,-23.000000,12.000000,-77.000000,18.000000
1294906.965671,-48.000000,-87.000000,-46.000000,-22.000000,-13.000000,-48.000000,-96.000000,-65.000000
1294906.980489,7.000000,-40.000000,-41.000000,-21.000000,-35.000000,-79.000000,-30.000000,102.000000
1294906.980500,-14.000000,12.000000,36.000000,-35.000000,-118.000000,-1.000000,-128.000000,-96.000000
1294906.995521,-11.000000,-6.000000,8.000000,10.000000,-110.000000,46.000000,116.000000,20.000000
1294906.995537,13.000000,-14.000000,-4.000000,-10.000000,58.000000,-3.000000,1.000000,-1.000000
1294907.018078,-13.000000,-13.000000,-24.000000,-9.000000,-20.000000,-9.000000,94.000000,22.000000
1294907.018089,-32.000000,-6.000000,-5.000000,-36.000000,8.000000,20.000000,42.000000,-31.000000
1294907.040436,59.000000,47.000000,32.000000,28.000000,-71.000000,47.000000,109.000000,2.000000
1294907.040489,-15.000000,-16.000000,-12.000000,25.000000,87.000000,33.000000,28.000000,-32.000000
1294907.040756,-24.000000,-36.000000,-6.000000,-19.000000,18.000000,-18.000000,7.000000,-15.000000
1294907.040763,23.000000,26.000000,12.000000,2.000000,22.000000,-34.000000,-128.000000,-53.000000
1294907.042146,13.000000,-8.000000,2.000000,10.000000,16.000000,42.000000,127.000000,74.000000
1294907.042162,-62.000000,-44.000000,-37.000000,-36.000000,-72.000000,-128.000000,127.000000,106.000000
1294907.043780,50.000000,83.000000,43.000000,-60.000000,-119.000000,27.000000,19.000000,-26.000000
1294907.043796,29.000000,20.000000,6.000000,33.000000,-7.000000,4.000000,-1.000000,47.000000
1294907.055419,-46.000000,-39.000000,-12.000000,12.000000,42.000000,5.000000,-14.000000,-34.000000
1294907.055429,25.000000,30.000000,-5.000000,-52.000000,-11.000000,-9.000000,-26.000000,17.000000
1294907.085450,-43.000000,-37.000000,-36.000000,12.000000,21.000000,-64.000000,-58.000000,-40.000000
1294907.085470,-7.000000,27.000000,12.000000,-67.000000,-73.000000,20.000000,-4.000000,-16.000000
1294907.108145,46.000000,50.000000,32.000000,73.000000,127.000000,76.000000,55.000000,14.000000
1294907.108156,15.000000,98.000000,36.000000,23.000000,18.000000,-16.000000,-10.000000,-1.000000
1294907.130350,-52.000000,-68.000000,-44.000000,-22.000000,-16.000000,-110.000000,-128.000000,-73.000000
1294907.130366,48.000000,47.000000,25.000000,17.000000,46.000000,127.000000,127.000000,9.000000
1294907.145302,-6.000000,12.000000,18.000000,33.000000,3.000000,45.000000,60.000000,72.000000
1294907.145326,-13.000000,-21.000000,-9.000000,4.000000,7.000000,-28.000000,-55.000000,-27.000000
1294907.153622,-25.000000,-21.000000,-12.000000,-66.000000,-13.000000,-48.000000,-43.000000,-39.000000
1294907.153632,60.000000,23.000000,13.000000,31.000000,2.000000,19.000000,127.000000,84.000000
1294907.154090,-24.000000,-12.000000,-23.000000,-7.000000,4.000000,-32.000000,-89.000000,-45.000000
1294907.154099,-3.000000,3.000000,-13.000000,12.000000,9.000000,6.000000,103.000000,16.000000
1294907.154567,12.000000,10.000000,25.000000,7.000000,11.000000,51.000000,63.000000,32.000000
1294907.154577,-54.000000,-52.000000,-48.000000,2.000000,9.000000,-35.000000,-128.000000,-128.000000
1294907.155921,-31.000000,-6.000000,-6.000000,-22.000000,24.000000,-14.000000,18.000000,-32.000000
1294907.155931,-4.000000,-11.000000,-21.000000,12.000000,29.000000,-29.000000,-22.000000,-19.000000
1294907.156811,24.000000,15.000000,18.000000,-9.000000,-27.000000,3.000000,35.000000,14.000000
1294907.156822,-89.000000,-32.000000,-37.000000,-30.000000,-15.000000,-8.000000,-128.000000,-128.000000
1294907.168017,43.000000,26.000000,47.000000,27.000000,49.000000,104.000000,127.000000,2.000000
1294907.168028,5.000000,-13.000000,0.000000,-5.000000,-23.000000,-2.000000,-17.000000,25.000000
1294907.190413,-50.000000,-40.000000,-47.000000,-23.000000,-18.000000,-73.000000,-118.000000,-69.000000
1294907.190442,34.000000,100.000000,48.000000,-34.000000,-63.000000,77.000000,127.000000,57.000000
1294907.205631,47.000000,56.000000,48.000000,86.000000,1.000000,61.000000,93.000000,43.000000
1294907.205644,-31.000000,-43.000000,-37.000000,5.000000,37.000000,-28.000000,-85.000000,-20.000000
1294907.227929,-28.000000,-25.000000,-40.000000,-53.000000,-57.000000,-67.000000,-83.000000,-16.000000
1294907.227940,38.000000,18.000000,7.000000,64.000000,127.000000,-10.000000,-77.000000,6.000000
1294907.243447,-26.000000,4.000000,-2.000000,-81.000000,-64.000000,16.000000,127.000000,12.000000
1294907.243477,-8.000000,-13.000000,-36.000000,-16.000000,-2.000000,8.000000,28.000000,24.000000
1294907.250659,12.000000,-102.000000,-5.000000,43.000000,6.000000,17.000000,-101.000000,23.000000
1294907.250687,13.000000,-3.000000,0.000000,37.000000,87.000000,18.000000,78.000000,40.000000
1294907.272983,-46.000000,-26.000000,-27.000000,-27.000000,-15.000000,-43.000000,-128.000000,-29.000000
1294907.272999,14.000000,8.000000,-21.000000,-10.000000,-29.000000,-67.000000,-128.000000,-73.000000
1294907.274006,-30.000000,-27.000000,-28.000000,-10.000000,-16.000000,-20.000000,-42.000000,-4.000000
1294907.274028,-39.000000,-32.000000,-22.000000,-20.000000,-13.000000,-51.000000,-65.000000,-28.000000
1294907.274518,-32.000000,15.000000,-17.000000,-17.000000,-31.000000,-57.000000,-24.000000,-52.000000
1294907.274527,-11.000000,5.000000,5.000000,5.000000,20.000000,-10.000000,-128.000000,-29.000000
1294907.275982,-13.000000,-15.000000,-10.000000,-21.000000,32.000000,19.000000,10.000000,-24.000000
1294907.275991,53.000000,64.000000,10.000000,63.000000,127.000000,3.000000,-13.000000,27.000000
1294907.276879,-19.000000,1.000000,-9.000000,53.000000,58.000000,-68.000000,-57.000000,-10.000000
1294907.276921,-9.000000,12.000000,29.000000,-64.000000,-106.000000,9.000000,-28.000000,-40.000000
1294907.295569,-8.000000,-3.000000,-17.000000,69.000000,120.000000,26.000000,127.000000,17.000000
1294907.295581,15.000000,-50.000000,-18.000000,-13.000000,-42.000000,-15.000000,-53.000000,-9.000000
1294907.310440,-23.000000,-16.000000,-19.000000,17.000000,98.000000,6.000000,-29.000000,2.000000
1294907.310460,-28.000000,39.000000,49.000000,-35.000000,-52.000000,-106.000000,97.000000,24.000000
1294907.355585,35.000000,12.000000,9.000000,34.000000,69.000000,43.000000,75.000000,-28.000000
1294907.355609,16.000000,15.000000,0.000000,21.000000,-30.000000,43.000000,-3.000000,-3.000000
1294907.363060,12.000000,1.000000,6.000000,8.000000,18.000000,-11.000000,36.000000,35.000000
1294907.363129,-22.000000,-25.000000,-11.000000,22.000000,9.000000,12.000000,-61.000000,-9.000000
1294907.363821,-10.000000,6.000000,9.000000,0.000000,-12.000000,-8.000000,-37.000000,-48.000000
1294907.363830,8.000000,-18.000000,-19.000000,-18.000000,11.000000,-35.000000,-73.000000,-19.000000
1294907.364531,13.000000,-6.000000,30.000000,-4.000000,-111.000000,12.000000,50.000000,33.000000
1294907.364551,-18.000000,-49.000000,-23.000000,4.000000,-6.000000,-38.000000,-42.000000,-2.000000
1294907.366113,-10.000000,43.000000,28.000000,-9.000000,43.000000,45.000000,32.000000,-14.000000
1294907.366121,8.000000,-38.000000,-35.000000,-7.000000,-37.000000,-47.000000,-40.000000,-30.000000
1294907.370292,-56.000000,-66.000000,-55.000000,-23.000000,1.000000,-36.000000,127.000000,42.000000
1294907.370301,5.000000,-54.000000,-31.000000,-76.000000,-128.000000,51.000000,6.000000,-107.000000
1294907.393131,17.000000,25.000000,-8.000000,17.000000,51.000000,-23.000000,-64.000000,-6.000000
1294907.393144,7.000000,-1.000000,-20.000000,-13.000000,-11.000000,-8.000000,24.000000,-4.000000
1294907.393700,-69.000000,-87.000000,-39.000000,-14.000000,-6.000000,-62.000000,-117.000000,-22.000000
1294907.393718,34.000000,-4.000000,-16.000000,-71.000000,-82.000000,-30.000000,-71.000000,-24.000000
1294907.415480,51.000000,29.000000,6.000000,32.000000,67.000000,77.000000,55.000000,3.000000
1294907.415497,2.000000,25.000000,13.000000,9.000000,23.000000,-1.000000,-64.000000,-15.000000
1294907.422861,-26.000000,-18.000000,10.000000,30.000000,50.000000,-21.000000,-54.000000,-27.000000
1294907.422872,-53.000000,-100.000000,-65.000000,-32.000000,24.000000,-49.000000,-123.000000,-47.000000
1294907.467805,54.000000,127.000000,74.000000,34.000000,-28.000000,74.000000,122.000000,36.000000
1294907.467857,7.000000,17.000000,6.000000,67.000000,127.000000,36.000000,77.000000,29.000000
1294907.468284,-20.000000,-41.000000,-29.000000,9.000000,9.000000,-30.000000,-38.000000,-5.000000
1294907.468293,-41.000000,-41.000000,-29.000000,-65.000000,-68.000000,-29.000000,-13.000000,-5.000000
1294907.469513,-91.000000,-12.000000,20.000000,-26.000000,-109.000000,-13.000000,-49.000000,-17.000000
1294907.469521,63.000000,117.000000,60.000000,59.000000,80.000000,59.000000,127.000000,81.000000
1294907.470126,-4.000000,17.000000,-30.000000,-22.000000,-83.000000,6.000000,70.000000,46.000000
1294907.470134,28.000000,29.000000,17.000000,-5.000000,-19.000000,-86.000000,-103.000000,11.000000
1294907.471622,-47.000000,-62.000000,-29.000000,-36.000000,-48.000000,-52.000000,31.000000,-47.000000
1294907.471630,-8.000000,30.000000,50.000000,51.000000,127.000000,91.000000,127.000000,53.000000
1294907.483278,-32.000000,-38.000000,-18.000000,-37.000000,4.000000,-30.000000,-63.000000,-36.000000
1294907.483287,-28.000000,-49.000000,-35.000000,-22.000000,-99.000000,3.000000,-42.000000,-18.000000
1294907.505439,-24.000000,-7.000000,-19.000000,-6.000000,-45.000000,-64.000000,8.000000,36.000000
1294907.505458,-108.000000,-128.000000,-78.000000,-81.000000,-59.000000,-13.000000,-128.000000,-128.000000
1294907.506546,105.000000,127.000000,127.000000,111.000000,112.000000,115.000000,121.000000,72.000000
1294907.506555,-6.000000,-58.000000,-29.000000,-4.000000,-1.000000,-17.000000,-16.000000,-1.000000
1294907.512782,-31.000000,-91.000000,-69.000000,-41.000000,-28.000000,-48.000000,-41.000000,-16.000000
1294907.512803,-24.000000,-20.000000,-4.000000,-20.000000,-17.000000,-32.000000,-45.000000,-44.000000
1294907.520312,16.000000,-7.000000,-3.000000,-5.000000,-21.000000,0.000000,-24.000000,13.000000
1294907.520335,-7.000000,16.000000,24.000000,0.000000,29.000000,2.000000,-128.000000,-74.000000
1294907.588017,5.000000,12.000000,11.000000,19.000000,35.000000,7.000000,125.000000,30.000000
1294907.588033,-106.000000,-84.000000,-68.000000,-15.000000,-2.000000,3.000000,-128.000000,-128.000000
1294907.588847,127.000000,113.000000,78.000000,1.000000,-16.000000,115.000000,48.000000,76.000000
1294907.588856,-7.000000,-35.000000,-25.000000,31.000000,76.000000,18.000000,-31.000000,-11.000000
1294907.589592,-46.000000,-27.000000,-15.000000,-39.000000,-67.000000,-52.000000,-128.000000,-110.000000
1294907.589602,-20.000000,-13.000000,12.000000,-24.000000,-22.000000,-34.000000,-63.000000,-40.000000
1294907.590939,-27.000000,-33.000000,-14.000000,35.000000,84.000000,-9.000000,12.000000,25.000000
1294907.590984,-74.000000,-64.000000,-37.000000,-70.000000,-127.000000,-105.000000,-128.000000,-128.000000
1294907.591836,87.000000,78.000000,39.000000,79.000000,127.000000,127.000000,127.000000,127.000000
1294907.591854,8.000000,-31.000000,17.000000,1.000000,-26.000000,-40.000000,22.000000,14.000000
1294907.610416,-13.000000,9.000000,-2.000000,-1.000000,3.000000,35.000000,49.000000,-1.000000
1294907.610434,47.000000,78.000000,37.000000,25.000000,22.000000,33.000000,127.000000,60.000000
1294907.633429,-38.000000,-112.000000,-52.000000,-12.000000,7.000000,-58.000000,-23.000000,5.000000
1294907.633463,51.000000,102.000000,43.000000,19.000000,-95.000000,13.000000,-19.000000,-26.000000
1294907.648077,-38.000000,-57.000000,-47.000000,-10.000000,7.000000,-32.000000,-20.000000,-22.000000
1294907.648098,-21.000000,16.000000,26.000000,36.000000,125.000000,5.000000,-128.000000,-102.000000
1294907.662917,-5.000000,36.000000,53.000000,106.000000,82.000000,77.000000,127.000000,54.000000
1294907.662927,15.000000,4.000000,-14.000000,16.000000,33.000000,-11.000000,68.000000,-7.000000
1294907.685387,-37.000000,-43.000000,-29.000000,-31.000000,-72.000000,-56.000000,-128.000000,-81.000000
1294907.685397,-98.000000,-56.000000,3.000000,-19.000000,9.000000,8.000000,68.000000,21.000000
1294907.700370,11.000000,44.000000,-10.000000,-69.000000,-110.000000,-95.000000,-128.000000,30.000000
1294907.700380,127.000000,127.000000,97.000000,127.000000,127.000000,127.000000,127.000000,127.000000
1294907.752946,30.000000,-13.000000,11.000000,6.000000,43.000000,35.000000,85.000000,44.000000
1294907.752970,-52.000000,-73.000000,-63.000000,-36.000000,-32.000000,-53.000000,-108.000000,-46.000000
1294907.760541,-55.000000,-60.000000,-38.000000,-5.000000,-14.000000,-19.000000,-49.000000,-54.000000
1294907.760552,-39.000000,-37.000000,-19.000000,-14.000000,-12.000000,-41.000000,-128.000000,-8.000000
1294907.782862,-1.000000,13.000000,-3.000000,21.000000,109.000000,58.000000,120.000000,6.000000
1294907.782872,23.000000,17.000000,15.000000,-4.000000,-32.000000,3.000000,56.000000,40.000000
1294907.798035,-87.000000,-62.000000,-29.000000,-27.000000,-31.000000,-34.000000,-62.000000,-29.000000
1294907.798047,62.000000,30.000000,4.000000,67.000000,127.000000,26.000000,-4.000000,1.000000
1294907.813136,-52.000000,-14.000000,-8.000000,-19.000000,-14.000000,-27.000000,-55.000000,-56.000000
1294907.813148,40.000000,64.000000,33.000000,-22.000000,-92.000000,41.000000,69.000000,30.000000
1294907.828697,23.000000,6.000000,23.000000,38.000000,23.000000,41.000000,39.000000,-4.000000
1294907.828715,-35.000000,-57.000000,-33.000000,-27.000000,-27.000000,-50.000000,-76.000000,-25.000000
1294907.829054,-10.000000,-59.000000,-22.000000,0.000000,-6.000000,-9.000000,6.000000,-9.000000
1294907.829071,-12.000000,-12.000000,-1.000000,55.000000,127.000000,24.000000,-128.000000,-51.000000
1294907.830585,49.000000,72.000000,90.000000,39.000000,48.000000,49.000000,96.000000,28.000000
1294907.830601,-27.000000,-17.000000,5.000000,7.000000,1.000000,-19.000000,-29.000000,-26.000000
1294907.831936,2.000000,-12.000000,-1.000000,-55.000000,-94.000000,-14.000000,34.000000,9.000000
1294907.831957,-48.000000,-58.000000,-45.000000,-46.000000,-81.000000,-29.000000,-55.000000,-11.000000
1294907.865379,17.000000,19.000000,22.000000,34.000000,-8.000000,55.000000,114.000000,28.000000
1294907.865408,-27.000000,-40.000000,-8.000000,56.000000,65.000000,-5.000000,-7.000000,-3.000000
1294907.865929,64.000000,-16.000000,-63.000000,-39.000000,-21.000000,-19.000000,-128.000000,-6.000000
1294907.865940,35.000000,90.000000,62.000000,40.000000,-42.000000,51.000000,127.000000,97.000000
1294907.867371,-17.000000,-50.000000,-22.000000,-1.000000,7.000000,-23.000000,-51.000000,-7.000000
1294907.867380,-63.000000,-25.000000,-16.000000,-11.000000,-10.000000,-15.000000,-77.000000,-46.000000
1294907.872765,0.000000,-8.000000,-14.000000,-38.000000,-35.000000,-9.000000,-18.000000,-1.000000
1294907.872774,1.000000,39.000000,59.000000,-7.000000,-34.000000,-67.000000,-114.000000,0.000000
1294907.910524,-15.000000,-6.000000,-3.000000,-28.000000,-23.000000,42.000000,102.000000,0.000000
1294907.910547,45.000000,23.000000,12.000000,46.000000,40.000000,57.000000,28.000000,38.000000
1294907.918481,-81.000000,-66.000000,-20.000000,15.000000,3.000000,-10.000000,-128.000000,-60.000000
1294907.918498,63.000000,38.000000,36.000000,18.000000,16.000000,8.000000,84.000000,76.000000
1294907.948191,-5.000000,18.000000,19.000000,49.000000,59.000000,-4.000000,-52.000000,-18.000000
1294907.948249,-37.000000,-52.000000,-30.000000,-35.000000,-27.000000,-20.000000,12.000000,-40.000000
1294907.985581,54.000000,71.000000,64.000000,127.000000,127.000000,66.000000,51.000000,78.000000
1294907.985591,-6.000000,-20.000000,2.000000,-21.000000,-42.000000,-51.000000,52.000000,27.000000
1294908.015778,-7.000000,-43.000000,-51.000000,-21.000000,-19.000000,-37.000000,-111.000000,-46.000000
1294908.015795,37.000000,31.000000,31.000000,21.000000,-24.000000,24.000000,127.000000,63.000000
1294908.023050,-19.000000,-28.000000,-13.000000,3.000000,34.000000,-33.000000,-106.000000,-48.000000
1294908.023068,-2.000000,4.000000,-25.000000,-42.000000,-51.000000,26.000000,101.000000,20.000000
1294908.060812,-85.000000,-27.000000,-7.000000,-24.000000,-43.000000,-62.000000,-128.000000,1.000000
1294908.060844,19.000000,7.000000,-15.000000,-10.000000,-14.000000,12.000000,83.000000,3.000000
1294908.068064,9.000000,-19.000000,-2.000000,-7.000000,13.000000,7.000000,48.000000,-5.000000
1294908.068084,-59.000000,-69.000000,-55.000000,-39.000000,-42.000000,-90.000000,-106.000000,-28.000000
1294908.075369,-12.000000,2.000000,15.000000,-11.000000,-21.000000,-19.000000,42.000000,-1.000000
1294908.075379,-66.000000,-52.000000,-27.000000,-33.000000,-19.000000,-48.000000,-47.000000,-20.000000
1294908.076590,-38.000000,-35.000000,-23.000000,17.000000,40.000000,-28.000000,-124.000000,-43.000000
1294908.076638,-28.000000,6.000000,21.000000,-102.000000,-99.000000,-32.000000,-17.000000,-32.000000
1294908.077365,83.000000,69.000000,44.000000,38.000000,57.000000,27.000000,79.000000,54.000000
1294908.077386,-93.000000,-94.000000,-78.000000,-40.000000,3.000000,-128.000000,-128.000000,-89.000000
1294908.077867,-31.000000,-20.000000,-23.000000,-9.000000,25.000000,-20.000000,-60.000000,-21.000000
1294908.077876,-14.000000,-63.000000,-27.000000,-42.000000,-63.000000,-10.000000,-82.000000,-81.000000
1294908.105398,46.000000,28.000000,49.000000,96.000000,80.000000,112.000000,46.000000,97.000000
1294908.105419,-23.000000,20.000000,-4.000000,16.000000,32.000000,-6.000000,-30.000000,2.000000
1294908.105815,-38.000000,-44.000000,-45.000000,-34.000000,-37.000000,-68.000000,-128.000000,-59.000000
1294908.105829,20.000000,37.000000,27.000000,15.000000,28.000000,62.000000,127.000000,122.000000
1294908.107345,9.000000,1.000000,10.000000,2.000000,-11.000000,-8.000000,-1.000000,-12.000000
1294908.107399,-46.000000,-31.000000,-27.000000,-23.000000,-16.000000,-16.000000,-20.000000,-36.000000
1294908.143303,10.000000,18.000000,-12.000000,-2.000000,36.000000,-5.000000,1.000000,12.000000
1294908.143335,49.000000,61.000000,21.000000,3.000000,-74.000000,-2.000000,-37.000000,10.000000
1294908.188304,6.000000,-2.000000,-4.000000,51.000000,127.000000,38.000000,63.000000,5.000000
1294908.188332,31.000000,15.000000,17.000000,31.000000,3.000000,34.000000,37.000000,5.000000
1294908.195695,-48.000000,-55.000000,-23.000000,-11.000000,6.000000,-81.000000,-128.000000,-73.000000
1294908.195725,-42.000000,-27.000000,-31.000000,-41.000000,-33.000000,65.000000,12.000000,-13.000000
1294908.196598,43.000000,108.000000,51.000000,-37.000000,-44.000000,73.000000,127.000000,106.000000
1294908.196625,12.000000,-72.000000,-11.000000,30.000000,78.000000,-1.000000,-39.000000,12.000000
1294908.197212,-62.000000,-103.000000,-71.000000,-33.000000,10.000000,-60.000000,-87.000000,6.000000
1294908.197239,39.000000,57.000000,23.000000,-7.000000,-61.000000,84.000000,41.000000,31.000000
1294908.197820,12.000000,2.000000,-11.000000,12.000000,66.000000,9.000000,29.000000,14.000000
1294908.197828,-47.000000,13.000000,-20.000000,-25.000000,-19.000000,-11.000000,2.000000,-82.000000
1294908.198593,-32.000000,-41.000000,-29.000000,-19.000000,-6.000000,-25.000000,-111.000000,-31.000000
1294908.198600,-17.000000,-62.000000,-42.000000,-9.000000,-1.000000,-40.000000,-25.000000,-1.000000
1294908.217877,18.000000,86.000000,46.000000,-34.000000,-7.000000,-48.000000,-9.000000,-15.000000
1294908.217889,93.000000,21.000000,30.000000,10.000000,-31.000000,116.000000,127.000000,86.000000
1294908.218530,18.000000,-10.000000,-29.000000,0.000000,6.000000,-11.000000,79.000000,57.000000
1294908.218539,3.000000,17.000000,-5.000000,-16.000000,1.000000,-45.000000,-40.000000,20.000000
1294908.255535,-10.000000,0.000000,2.000000,-4.000000,30.000000,5.000000,-20.000000,-2.000000
1294908.255549,-30.000000,-45.000000,-1.000000,2.000000,-4.000000,-57.000000,96.000000,19.000000
1294908.262715,34.000000,-12.000000,14.000000,-44.000000,-73.000000,-19.000000,-40.000000,-15.000000
1294908.262725,-75.000000,43.000000,12.000000,20.000000,73.000000,33.000000,83.000000,-58.000000
1294908.263907,30.000000,21.000000,24.000000,-5.000000,-1.000000,38.000000,119.000000,37.000000
1294908.263917,25.000000,0.000000,3.000000,-14.000000,-37.000000,10.000000,99.000000,12.000000
1294908.264524,-16.000000,-23.000000,-20.000000,-16.000000,23.000000,-11.000000,-57.000000,-32.000000
1294908.264533,-51.000000,-12.000000,-20.000000,-15.000000,-52.000000,-52.000000,-57.000000,-41.000000
1294908.266015,-22.000000,-27.000000,-64.000000,7.000000,53.000000,-33.000000,-128.000000,-47.000000
1294908.266023,54.000000,67.000000,69.000000,3.000000,-9.000000,95.000000,127.000000,74.000000
1294908.277929,-6.000000,-1.000000,26.000000,27.000000,-5.000000,12.000000,-123.000000,-22.000000
1294908.277957,-17.000000,-21.000000,-26.000000,-14.000000,-6.000000,-65.000000,-128.000000,-38.000000
1294908.307936,13.000000,15.000000,4.000000,37.000000,34.000000,-20.000000,-22.000000,-20.000000
1294908.307946,-6.000000,19.000000,-5.000000,-22.000000,-37.000000,16.000000,66.000000,46.000000
1294908.315342,-8.000000,-7.000000,-4.000000,-19.000000,-18.000000,-16.000000,-128.000000,-57.000000
1294908.315351,29.000000,-12.000000,15.000000,-5.000000,0.000000,15.000000,73.000000,40.000000
1294908.345865,24.000000,37.000000,8.000000,1.000000,-27.000000,8.000000,-33.000000,20.000000
1294908.345883,26.000000,35.000000,-1.000000,-26.000000,-16.000000,-2.000000,38.000000,22.000000
1294908.383625,-8.000000,-11.000000,-9.000000,55.000000,89.000000,-9.000000,-33.000000,-50.000000
1294908.383636,-5.000000,0.000000,-16.000000,-4.000000,-26.000000,14.000000,65.000000,26.000000
1294908.384103,-38.000000,-45.000000,-18.000000,-7.000000,50.000000,-65.000000,-83.000000,-22.000000
1294908.384118,37.000000,102.000000,66.000000,25.000000,-101.000000,-10.000000,79.000000,-56.000000
1294908.385723,60.000000,70.000000,41.000000,77.000000,-6.000000,99.000000,127.000000,76.000000
1294908.385736,1.000000,-12.000000,-20.000000,19.000000,57.000000,-14.000000,-38.000000,0.000000
1294908.420806,117.000000,114.000000,71.000000,127.000000,127.000000,127.000000,127.000000,127.000000
1294908.420828,-25.000000,-36.000000,-10.000000,70.000000,93.000000,-21.000000,-128.000000,-86.000000
1294908.421413,-27.000000,-10.000000,1.000000,-71.000000,-88.000000,-31.000000,-106.000000,-45.000000
1294908.421421,-39.000000,4.000000,6.000000,-2.000000,-20.000000,-44.000000,-25.000000,-30.000000
1294908.422743,18.000000,12.000000,4.000000,-5.000000,-10.000000,-18.000000,-25.000000,-11.000000
1294908.422751,-6.000000,-12.000000,-19.000000,-19.000000,-24.000000,-13.000000,25.000000,20.000000
1294908.423571,8.000000,16.000000,22.000000,33.000000,-26.000000,17.000000,26.000000,-4.000000
1294908.423580,-8.000000,6.000000,7.000000,-17.000000,8.000000,5.000000,57.000000,16.000000
1294908.465556,-18.000000,-6.000000,-3.000000,-9.000000,-3.000000,-34.000000,-126.000000,-39.000000
1294908.465567,20.000000,32.000000,16.000000,9.000000,2.000000,54.000000,58.000000,-8.000000
1294908.473220,3.000000,13.000000,-4.000000,-2.000000,-1.000000,-3.000000,116.000000,44.000000
1294908.473231,-66.000000,-87.000000,-55.000000,-15.000000,14.000000,-126.000000,-128.000000,-128.000000
1294908.502901,127.000000,127.000000,125.000000,90.000000,48.000000,127.000000,127.000000,127.000000
1294908.502923,-6.000000,-30.000000,-35.000000,7.000000,15.000000,-20.000000,-29.000000,-8.000000
1294908.540477,-38.000000,-40.000000,-41.000000,-22.000000,-49.000000,-69.000000,-102.000000,-22.000000
1294908.540493,-4.000000,-73.000000,-18.000000,55.000000,106.000000,-49.000000,-94.000000,-32.000000
1294908.541334,-83.000000,-46.000000,-34.000000,-80.000000,-82.000000,18.000000,-25.000000,-87.000000
1294908.541343,79.000000,89.000000,126.000000,74.000000,60.000000,49.000000,127.000000,59.000000
1294908.542020,1.000000,8.000000,-6.000000,-42.000000,-64.000000,-3.000000,32.000000,-9.000000
1294908.542029,-29.000000,5.000000,-12.000000,-4.000000,-19.000000,6.000000,-5.000000,-8.000000
1294908.542757,0.000000,-17.000000,-15.000000,-37.000000,-13.000000,-23.000000,-64.000000,29.000000
1294908.542771,20.000000,46.000000,44.000000,90.000000,85.000000,61.000000,127.000000,4.000000
1294908.544284,-14.000000,13.000000,-16.000000,-11.000000,-2.000000,-54.000000,-35.000000,19.000000
1294908.544294,-20.000000,-6.000000,-8.000000,-95.000000,-128.000000,50.000000,6.000000,-78.000000
1294908.585527,51.000000,35.000000,31.000000,65.000000,19.000000,50.000000,-68.000000,8.000000
1294908.585537,9.000000,-27.000000,-31.000000,-59.000000,-24.000000,-17.000000,127.000000,78.000000
1294908.592832,19.000000,-16.000000,7.000000,69.000000,75.000000,36.000000,9.000000,5.000000
1294908.592842,-14.000000,33.000000,2.000000,-4.000000,25.000000,-1.000000,-20.000000,-13.000000
1294908.622998,-12.000000,-12.000000,-24.000000,28.000000,97.000000,10.000000,-128.000000,-36.000000
1294908.623008,-40.000000,-40.000000,-13.000000,12.000000,-50.000000,-38.000000,11.000000,-32.000000
1294908.630350,7.000000,42.000000,29.000000,-60.000000,-64.000000,-13.000000,-12.000000,-21.000000
1294908.630361,30.000000,20.000000,26.000000,-9.000000,38.000000,25.000000,49.000000,42.000000
1294908.661154,-63.000000,-102.000000,-95.000000,20.000000,34.000000,-24.000000,-106.000000,-85.000000
1294908.661181,76.000000,83.000000,46.000000,-33.000000,16.000000,48.000000,127.000000,88.000000
1294908.661665,8.000000,30.000000,14.000000,48.000000,60.000000,31.000000,41.000000,-40.000000
1294908.661673,-38.000000,6.000000,-15.000000,-36.000000,-33.000000,18.000000,45.000000,-6.000000
1294908.663656,-14.000000,-10.000000,-6.000000,-32.000000,-33.000000,-22.000000,24.000000,-7.000000
1294908.663666,-2.000000,-6.000000,-15.000000,-3.000000,16.000000,-4.000000,29.000000,9.000000
1294908.664544,-38.000000,-56.000000,-37.000000,-51.000000,-95.000000,-14.000000,18.000000,-1.000000
1294908.664552,44.000000,85.000000,55.000000,28.000000,127.000000,8.000000,-28.000000,6.000000
1294908.698084,-24.000000,-3.000000,-11.000000,-21.000000,-20.000000,-34.000000,7.000000,-3.000000
1294908.698097,-35.000000,-109.000000,-49.000000,-14.000000,37.000000,-45.000000,-128.000000,-75.000000
1294908.705772,69.000000,94.000000,58.000000,41.000000,10.000000,50.000000,-30.000000,-1.000000
1294908.705782,15.000000,19.000000,14.000000,14.000000,3.000000,63.000000,127.000000,61.000000
1294908.720750,-15.000000,0.000000,-16.000000,-14.000000,-12.000000,-40.000000,31.000000,-3.000000
1294908.720766,-32.000000,-61.000000,-43.000000,-15.000000,2.000000,-47.000000,-110.000000,-40.000000
1294908.742990,-14.000000,-34.000000,-27.000000,-19.000000,-37.000000,-22.000000,-6.000000,-15.000000
1294908.743000,12.000000,31.000000,49.000000,16.000000,33.000000,44.000000,104.000000,51.000000
1294908.773060,15.000000,-5.000000,2.000000,36.000000,64.000000,1.000000,-4.000000,5.000000
1294908.773094,-55.000000,-28.000000,-23.000000,-71.000000,-18.000000,-32.000000,-128.000000,-61.000000
1294908.780503,56.000000,9.000000,8.000000,17.000000,-14.000000,41.000000,127.000000,97.000000
1294908.780565,14.000000,-22.000000,-5.000000,0.000000,3.000000,-6.000000,-11.000000,36.000000
1294908.781501,-36.000000,-38.000000,-30.000000,-17.000000,7.000000,-22.000000,-128.000000,-76.000000
1294908.781509,7.000000,64.000000,59.000000,-11.000000,-21.000000,53.000000,127.000000,34.000000
1294908.782085,44.000000,10.000000,0.000000,11.000000,-68.000000,9.000000,38.000000,71.000000
1294908.782104,-7.000000,3.000000,0.000000,-3.000000,6.000000,-25.000000,16.000000,-24.000000
1294908.782616,-14.000000,-22.000000,-28.000000,5.000000,26.000000,14.000000,7.000000,-12.000000
1294908.782638,-68.000000,-84.000000,-62.000000,-71.000000,-51.000000,-34.000000,-128.000000,-83.000000
1294908.795922,-12.000000,-15.000000,-13.000000,6.000000,26.000000,-26.000000,-65.000000,-19.000000
1294908.795944,-16.000000,-23.000000,-60.000000,-89.000000,-94.000000,-23.000000,127.000000,25.000000
1294908.818035,71.000000,84.000000,86.000000,127.000000,127.000000,127.000000,127.000000,90.000000
1294908.818053,2.000000,3.000000,0.000000,7.000000,36.000000,-6.000000,13.000000,-29.000000
1294908.855679,-15.000000,-32.000000,-25.000000,-7.000000,-5.000000,-26.000000,-2.000000,19.000000
1294908.855692,-54.000000,-3.000000,-28.000000,5.000000,11.000000,-98.000000,-56.000000,5.000000
1294908.863157,15.000000,34.000000,69.000000,-119.000000,-128.000000,44.000000,53.000000,-11.000000
1294908.863237,83.000000,88.000000,55.000000,85.000000,127.000000,123.000000,127.000000,102.000000
1294908.863950,-20.000000,-27.000000,-16.000000,0.000000,13.000000,-30.000000,-35.000000,-14.000000
1294908.863963,-58.000000,-77.000000,-52.000000,-39.000000,-33.000000,-52.000000,-128.000000,-48.000000
1294908.864489,-29.000000,-32.000000,-6.000000,-12.000000,-12.000000,-81.000000,-102.000000,-33.000000
1294908.864497,27.000000,-4.000000,9.000000,15.000000,6.000000,76.000000,127.000000,81.000000
1294908.866167,30.000000,37.000000,19.000000,10.000000,-3.000000,0.000000,10.000000,15.000000
1294908.866176,-16.000000,-48.000000,-19.000000,8.000000,3.000000,8.000000,26.000000,2.000000
1294908.893058,16.000000,17.000000,33.000000,102.000000,127.000000,17.000000,18.000000,14.000000
1294908.893090,1.000000,-13.000000,-19.000000,-27.000000,13.000000,-29.000000,22.000000,19.000000
1294908.893830,-38.000000,-35.000000,-25.000000,-80.000000,-59.000000,-37.000000,-55.000000,-20.000000
1294908.893859,-17.000000,-11.000000,-1.000000,23.000000,12.000000,-35.000000,3.000000,16.000000
1294908.895070,60.000000,31.000000,36.000000,56.000000,32.000000,56.000000,-115.000000,-7.000000
1294908.895081,29.000000,31.000000,5.000000,32.000000,38.000000,50.000000,113.000000,28.000000
1294908.922937,2.000000,-30.000000,-11.000000,-12.000000,-12.000000,-40.000000,74.000000,40.000000
1294908.922950,-51.000000,-81.000000,-49.000000,-24.000000,-21.000000,-71.000000,-112.000000,-25.000000
1294908.975395,-34.000000,16.000000,15.000000,-6.000000,-15.000000,11.000000,-109.000000,-67.000000
1294908.975424,79.000000,75.000000,22.000000,28.000000,36.000000,55.000000,127.000000,74.000000
1294908.982969,-12.000000,-34.000000,-24.000000,-12.000000,-22.000000,-19.000000,-3.000000,-6.000000
1294908.982989,-46.000000,-39.000000,-9.000000,-15.000000,-10.000000,-46.000000,-41.000000,-10.000000
1294909.020365,-24.000000,58.000000,35.000000,-10.000000,11.000000,-22.000000,-128.000000,-128.000000
1294909.020389,102.000000,83.000000,37.000000,14.000000,-110.000000,109.000000,127.000000,115.000000
1294909.028257,-7.000000,15.000000,15.000000,-12.000000,20.000000,-11.000000,-31.000000,-4.000000
1294909.028290,-12.000000,7.000000,6.000000,-3.000000,1.000000,-35.000000,-64.000000,-22.000000
1294909.050578,10.000000,-4.000000,-13.000000,-11.000000,8.000000,-9.000000,29.000000,-39.000000
1294909.050594,23.000000,25.000000,9.000000,9.000000,50.000000,48.000000,103.000000,64.000000
1294909.073093,-15.000000,5.000000,36.000000,60.000000,97.000000,-1.000000,-97.000000,-39.000000
1294909.073103,-43.000000,-40.000000,3.000000,-31.000000,-2.000000,-36.000000,-59.000000,-8.000000
1294909.133271,77.000000,59.000000,67.000000,26.000000,62.000000,82.000000,127.000000,127.000000
1294909.133283,-4.000000,-7.000000,-19.000000,1.000000,-6.000000,-25.000000,-61.000000,-9.000000
1294909.140905,10.000000,8.000000,-15.000000,-9.000000,-40.000000,-11.000000,-21.000000,0.000000
1294909.140916,26.000000,12.000000,18.000000,20.000000,24.000000,56.000000,127.000000,58.000000
1294909.141557,0.000000,3.000000,-22.000000,-13.000000,-6.000000,-7.000000,-14.000000,7.000000
1294909.141572,-13.000000,-41.000000,-40.000000,15.000000,51.000000,20.000000,-35.000000,-6.000000
1294909.143167,30.000000,77.000000,79.000000,-13.000000,-33.000000,-10.000000,55.000000,31.000000
1294909.143183,0.000000,-13.000000,-17.000000,6.000000,58.000000,4.000000,32.000000,-8.000000
1294909.147928,59.000000,66.000000,40.000000,-30.000000,-35.000000,2.000000,24.000000,9.000000
1294909.147942,-10.000000,10.000000,-28.000000,4.000000,4.000000,5.000000,50.000000,35.000000
1294909.170366,2.000000,-21.000000,40.000000,5.000000,22.000000,-28.000000,-110.000000,-57.000000
1294909.170390,27.000000,5.000000,-5.000000,-22.000000,-42.000000,21.000000,72.000000,29.000000
1294909.178251,31.000000,48.000000,34.000000,119.000000,127.000000,72.000000,46.000000,48.000000
1294909.178264,-9.000000,-20.000000,-43.000000,-32.000000,-32.000000,-74.000000,-94.000000,24.000000
1294909.215570,-36.000000,-47.000000,-3.000000,-36.000000,-54.000000,-15.000000,-42.000000,-63.000000
1294909.215598,7.000000,-30.000000,-37.000000,-3.000000,-5.000000,40.000000,97.000000,54.000000
1294909.252982,21.000000,12.000000,3.000000,0.000000,-18.000000,-12.000000,-16.000000,2.000000
1294909.253035,-64.000000,-42.000000,-54.000000,1.000000,28.000000,-87.000000,-34.000000,-40.000000
1294909.253927,-3.000000,42.000000,18.000000,-128.000000,-128.000000,-2.000000,112.000000,-107.000000
1294909.253970,86.000000,91.000000,85.000000,127.000000,127.000000,127.000000,127.000000,84.000000
1294909.254563,-42.000000,-64.000000,-31.000000,-26.000000,-29.000000,-58.000000,-103.000000,-7.000000
1294909.254579,-30.000000,-1.000000,-21.000000,-34.000000,-21.000000,-93.000000,-75.000000,-13.000000
1294909.255806,-8.000000,-5.000000,-13.000000,1.000000,1.000000,-5.000000,-78.000000,-57.000000
1294909.255820,63.000000,100.000000,71.000000,-29.000000,-128.000000,75.000000,127.000000,109.000000
1294909.256780,-26.000000,-26.000000,-19.000000,-42.000000,-48.000000,-80.000000,-97.000000,-60.000000
1294909.256797,60.000000,82.000000,75.000000,105.000000,72.000000,127.000000,127.000000,63.000000
1294909.275559,-16.000000,-56.000000,-26.000000,3.000000,-62.000000,-42.000000,-96.000000,-47.000000
1294909.275571,-3.000000,-8.000000,-5.000000,22.000000,23.000000,44.000000,127.000000,47.000000
1294909.305536,-19.000000,-36.000000,-33.000000,-54.000000,-47.000000,-57.000000,-128.000000,-37.000000
1294909.305547,6.000000,-5.000000,-7.000000,-1.000000,-52.000000,-36.000000,-30.000000,45.000000
1294909.313135,52.000000,66.000000,49.000000,27.000000,51.000000,127.000000,127.000000,103.000000
1294909.313145,-46.000000,-42.000000,-43.000000,-13.000000,5.000000,-39.000000,-82.000000,-24.000000
1294909.335305,-16.000000,8.000000,-35.000000,-57.000000,-66.000000,-23.000000,-31.000000,-19.000000
1294909.335315,47.000000,31.000000,25.000000,42.000000,9.000000,12.000000,90.000000,48.000000
1294909.350463,-16.000000,-17.000000,-27.000000,-27.000000,-25.000000,-19.000000,-23.000000,15.000000
1294909.350474,13.000000,34.000000,17.000000,-12.000000,-8.000000,-44.000000,-39.000000,-30.000000
1294909.373241,-39.000000,-46.000000,-24.000000,-18.000000,-8.000000,-31.000000,-59.000000,-35.000000
1294909.373270,25.000000,17.000000,6.000000,27.000000,31.000000,76.000000,127.000000,64.000000
1294909.387849,-5.000000,-7.000000,-3.000000,-32.000000,-50.000000,-30.000000,-40.000000,-5.000000
1294909.387872,-22.000000,4.000000,-4.000000,-23.000000,21.000000,-15.000000,-69.000000,-20.000000
1294909.402865,-11.000000,-42.000000,-45.000000,-13.000000,1.000000,-2.000000,17.000000,7.000000
1294909.402888,11.000000,44.000000,53.000000,-6.000000,-3.000000,-11.000000,-1.000000,-20.000000
1294909.410610,-26.000000,-52.000000,-57.000000,-7.000000,11.000000,-67.000000,-128.000000,-32.000000
1294909.410620,43.000000,84.000000,46.000000,-15.000000,-19.000000,79.000000,112.000000,34.000000
1294909.417995,14.000000,4.000000,-21.000000,2.000000,6.000000,5.000000,50.000000,17.000000
1294909.418005,-47.000000,-68.000000,-31.000000,-19.000000,-33.000000,-17.000000,-128.000000,-50.000000
1294909.425619,-41.000000,-47.000000,-49.000000,-53.000000,-101.000000,-44.000000,-51.000000,-24.000000
1294909.425652,65.000000,73.000000,74.000000,26.000000,56.000000,36.000000,127.000000,49.000000
1294909.455772,-70.000000,-62.000000,-39.000000,-43.000000,-15.000000,-73.000000,-128.000000,-74.000000
1294909.455801,-59.000000,-29.000000,-35.000000,-64.000000,-104.000000,7.000000,-128.000000,-82.000000
1294909.463546,24.000000,31.000000,36.000000,115.000000,127.000000,74.000000,107.000000,31.000000
1294909.463576,43.000000,6.000000,-26.000000,-7.000000,-11.000000,-34.000000,-59.000000,15.000000
1294909.485375,-31.000000,-27.000000,-21.000000,-33.000000,-31.000000,-42.000000,-89.000000,-32.000000
1294909.485399,-12.000000,51.000000,20.000000,14.000000,-47.000000,1.000000,81.000000,34.000000
1294909.492852,21.000000,-11.000000,31.000000,51.000000,49.000000,4.000000,-94.000000,-32.000000
1294909.492922,4.000000,20.000000,5.000000,-9.000000,-26.000000,12.000000,120.000000,26.000000
1294909.530511,56.000000,65.000000,48.000000,37.000000,14.000000,127.000000,127.000000,58.000000
1294909.530523,-9.000000,-32.000000,-15.000000,43.000000,60.000000,22.000000,-15.000000,52.000000
1294909.537877,19.000000,-17.000000,-7.000000,98.000000,127.000000,46.000000,-41.000000,4.000000
1294909.537886,-38.000000,-46.000000,-34.000000,-38.000000,-33.000000,-39.000000,-76.000000,-62.000000
1294909.582884,-52.000000,-37.000000,-15.000000,13.000000,22.000000,-40.000000,-70.000000,-58.000000
1294909.582902,0.000000,-18.000000,-24.000000,-125.000000,-128.000000,2.000000,-12.000000,13.000000
1294909.614711,-1.000000,35.000000,-3.000000,62.000000,78.000000,10.000000,-46.000000,-4.000000
1294909.614731,10.000000,-1.000000,2.000000,-44.000000,-11.000000,-9.000000,-82.000000,-32.000000
1294909.616823,-33.000000,-20.000000,4.000000,6.000000,21.000000,-58.000000,-128.000000,-42.000000
1294909.616845,5.000000,21.000000,-8.000000,-14.000000,-19.000000,-5.000000,127.000000,32.000000
1294909.627865,9.000000,10.000000,5.000000,36.000000,62.000000,-14.000000,-13.000000,1.000000
1294909.627875,-37.000000,-29.000000,-7.000000,-30.000000,15.000000,-14.000000,-50.000000,-53.000000
1294909.688297,-41.000000,-15.000000,-48.000000,-26.000000,-29.000000,-128.000000,-128.000000,-72.000000
1294909.688325,-29.000000,-17.000000,21.000000,-56.000000,-105.000000,127.000000,127.000000,-58.000000
1294909.695632,122.000000,97.000000,40.000000,64.000000,117.000000,43.000000,-12.000000,81.000000
1294909.695661,0.000000,-35.000000,-37.000000,22.000000,28.000000,-23.000000,-44.000000,11.000000
1294909.710759,-29.000000,-13.000000,-26.000000,-36.000000,-21.000000,-56.000000,-98.000000,-53.000000
1294909.710783,-14.000000,-43.000000,-28.000000,11.000000,16.000000,-9.000000,2.000000,-16.000000
1294909.725350,-44.000000,-37.000000,-16.000000,-3.000000,-2.000000,-28.000000,-11.000000,-26.000000
1294909.725361,5.000000,3.000000,-25.000000,-60.000000,-68.000000,-23.000000,73.000000,38.000000
1294909.726308,-1.000000,-23.000000,-7.000000,28.000000,83.000000,8.000000,-128.000000,-24.000000
1294909.726316,15.000000,18.000000,15.000000,-23.000000,-72.000000,10.000000,127.000000,44.000000
1294909.726938,-6.000000,-26.000000,-7.000000,-17.000000,-68.000000,-15.000000,-2.000000,-18.000000
1294909.726945,-11.000000,-24.000000,16.000000,7.000000,-12.000000,9.000000,-128.000000,-11.000000
1294909.728477,34.000000,52.000000,89.000000,36.000000,-36.000000,74.000000,103.000000,58.000000
1294909.728484,21.000000,-9.000000,3.000000,28.000000,51.000000,-10.000000,-15.000000,-4.000000
1294909.733981,-24.000000,-47.000000,-30.000000,-5.000000,25.000000,26.000000,88.000000,4.000000
1294909.733994,10.000000,36.000000,42.000000,11.000000,3.000000,8.000000,81.000000,24.000000
1294909.770595,-8.000000,-22.000000,-3.000000,-24.000000,-34.000000,-8.000000,15.000000,7.000000
1294909.770608,19.000000,8.000000,1.000000,-11.000000,-28.000000,4.000000,-1.000000,-24.000000
1294909.815376,-30.000000,-39.000000,-29.000000,11.000000,32.000000,-28.000000,-43.000000,-5.000000
1294909.815386,-7.000000,-1.000000,17.000000,-52.000000,-63.000000,-14.000000,59.000000,12.000000
1294909.830663,18.000000,69.000000,37.000000,79.000000,75.000000,36.000000,-4.000000,-34.000000
1294909.830673,-5.000000,-1.000000,-13.000000,14.000000,47.000000,-5.000000,-20.000000,-20.000000
1294909.853400,-26.000000,-31.000000,-14.000000,6.000000,36.000000,-23.000000,1.000000,-15.000000
1294909.853423,34.000000,53.000000,30.000000,36.000000,10.000000,43.000000,72.000000,47.000000
1294909.853903,8.000000,27.000000,15.000000,9.000000,0.000000,12.000000,19.000000,-45.000000
1294909.853912,1.000000,-56.000000,-9.000000,17.000000,24.000000,-4.000000,-27.000000,-8.000000
1294909.855262,40.000000,69.000000,32.000000,-41.000000,-118.000000,56.000000,127.000000,52.000000
1294909.855270,20.000000,3.000000,-6.000000,30.000000,42.000000,43.000000,62.000000,32.000000
1294909.856755,-21.000000,-4.000000,-5.000000,2.000000,61.000000,-38.000000,-128.000000,-44.000000
1294909.856764,55.000000,33.000000,24.000000,52.000000,38.000000,60.000000,127.000000,90.000000
1294909.860365,1.000000,8.000000,7.000000,58.000000,81.000000,50.000000,102.000000,35.000000
1294909.860388,-5.000000,1.000000,-14.000000,-28.000000,-32.000000,-36.000000,-37.000000,-12.000000
1294909.867928,-19.000000,-34.000000,-9.000000,11.000000,24.000000,-7.000000,-122.000000,-53.000000
1294909.867951,-5.000000,2.000000,2.000000,-12.000000,26.000000,-38.000000,-85.000000,-48.000000
1294909.890246,-25.000000,-21.000000,-7.000000,-13.000000,-31.000000,22.000000,68.000000,46.000000
1294909.890256,58.000000,41.000000,7.000000,39.000000,45.000000,85.000000,127.000000,77.000000
1294909.905388,-13.000000,47.000000,6.000000,-5.000000,-18.000000,-34.000000,-18.000000,-22.000000
1294909.905416,-5.000000,1.000000,0.000000,-4.000000,5.000000,-22.000000,88.000000,21.000000
1294909.943150,-43.000000,-61.000000,-44.000000,-22.000000,-29.000000,-87.000000,-100.000000,6.000000
1294909.943180,33.000000,18.000000,29.000000,31.000000,31.000000,86.000000,32.000000,-37.000000
1294909.965691,18.000000,-7.000000,-3.000000,-2.000000,-3.000000,19.000000,55.000000,16.000000
1294909.965721,-36.000000,-34.000000,-12.000000,-5.000000,-21.000000,-4.000000,-23.000000,-13.000000
1294909.966537,-31.000000,-12.000000,-35.000000,-1.000000,43.000000,-24.000000,-20.000000,28.000000
1294909.966544,28.000000,5.000000,14.000000,59.000000,12.000000,6.000000,-83.000000,-42.000000
1294909.967174,5.000000,8.000000,13.000000,-43.000000,-17.000000,-18.000000,77.000000,20.000000
1294909.967181,-3.000000,-13.000000,-16.000000,-5.000000,19.000000,17.000000,14.000000,8.000000
1294909.968696,29.000000,38.000000,17.000000,31.000000,41.000000,11.000000,21.000000,28.000000
1294909.968706,-25.000000,-40.000000,-39.000000,-23.000000,-33.000000,-9.000000,-7.000000,0.000000
1294909.969564,-10.000000,73.000000,30.000000,-36.000000,-97.000000,-31.000000,-73.000000,-3.000000
1294909.969572,45.000000,46.000000,42.000000,23.000000,46.000000,-5.000000,57.000000,53.000000
1294909.980539,-46.000000,-52.000000,-31.000000,-16.000000,-11.000000,-67.000000,-79.000000,-2.000000
1294909.980550,10.000000,-16.000000,-37.000000,-50.000000,-18.000000,-15.000000,-72.000000,-8.000000
1294910.002987,20.000000,55.000000,51.000000,76.000000,101.000000,54.000000,-50.000000,5.000000
1294910.003015,-12.000000,-20.000000,0.000000,7.000000,-17.000000,-13.000000,29.000000,3.000000
1294910.017805,0.000000,-6.000000,4.000000,-34.000000,-77.000000,-28.000000,37.000000,4.000000
1294910.017814,-2.000000,-8.000000,1.000000,26.000000,53.000000,-30.000000,-78.000000,-20.000000
1294910.040729,6.000000,22.000000,40.000000,-100.000000,-128.000000,-12.000000,45.000000,23.000000
1294910.040748,-12.000000,-21.000000,-30.000000,46.000000,117.000000,27.000000,-15.000000,29.000000
1294910.070456,11.000000,48.000000,42.000000,-41.000000,-65.000000,1.000000,-39.000000,-23.000000
1294910.070479,-33.000000,-37.000000,-25.000000,-25.000000,-110.000000,-39.000000,-4.000000,47.000000
1294910.085503,44.000000,-1.000000,29.000000,5.000000,-7.000000,-6.000000,-128.000000,-23.000000
1294910.085522,27.000000,28.000000,6.000000,10.000000,34.000000,47.000000,127.000000,84.000000
1294910.086431,-42.000000,-45.000000,-14.000000,-31.000000,-10.000000,-19.000000,-128.000000,-43.000000
1294910.086441,-16.000000,3.000000,11.000000,-7.000000,-1.000000,-38.000000,-113.000000,-59.000000
1294910.087068,-79.000000,-54.000000,-61.000000,-32.000000,-56.000000,-128.000000,-128.000000,-71.000000
1294910.087086,126.000000,119.000000,67.000000,31.000000,-5.000000,127.000000,127.000000,127.000000
1294910.088514,-53.000000,-32.000000,-29.000000,-39.000000,-17.000000,-53.000000,-79.000000,-87.000000
1294910.088585,-11.000000,31.000000,20.000000,69.000000,49.000000,-18.000000,-125.000000,-23.000000
1294910.089525,-14.000000,9.000000,25.000000,46.000000,35.000000,59.000000,127.000000,-21.000000
1294910.089537,22.000000,-25.000000,-33.000000,-19.000000,-3.000000,25.000000,-1.000000,35.000000
1294910.130621,-2.000000,-15.000000,1.000000,-14.000000,-16.000000,-13.000000,7.000000,-1.000000
1294910.130648,-14.000000,-7.000000,-12.000000,45.000000,48.000000,29.000000,-20.000000,-66.000000
1294910.138099,35.000000,35.000000,3.000000,7.000000,46.000000,23.000000,97.000000,90.000000
1294910.138115,-47.000000,-62.000000,-51.000000,-24.000000,-23.000000,-41.000000,127.000000,8.000000
1294910.167829,51.000000,92.000000,64.000000,33.000000,-14.000000,49.000000,55.000000,19.000000
1294910.167839,-22.000000,6.000000,0.000000,8.000000,23.000000,-7.000000,-43.000000,-11.000000
1294910.183170,-50.000000,-33.000000,-16.000000,-12.000000,-17.000000,-36.000000,-27.000000,-52.000000
1294910.183188,66.000000,115.000000,52.000000,35.000000,21.000000,40.000000,104.000000,77.000000
1294910.205541,14.000000,-39.000000,-33.000000,-15.000000,-4.000000,24.000000,66.000000,36.000000
1294910.205553,0.000000,-71.000000,-8.000000,-32.000000,-72.000000,-30.000000,-42.000000,5.000000
1294910.227929,-3.000000,66.000000,18.000000,-1.000000,18.000000,-22.000000,-53.000000,-21.000000
1294910.227946,-21.000000,-7.000000,-23.000000,8.000000,8.000000,0.000000,-1.000000,-18.000000
1294910.251088,-24.000000,-13.000000,-12.000000,-14.000000,-4.000000,-32.000000,-24.000000,-24.000000
1294910.251096,-11.000000,-51.000000,-27.000000,-12.000000,-8.000000,-32.000000,-15.000000,10.000000
1294910.251624,7.000000,42.000000,-17.000000,-29.000000,-39.000000,-13.000000,-52.000000,10.000000
1294910.251632,50.000000,48.000000,38.000000,45.000000,71.000000,35.000000,-30.000000,18.000000
1294910.252141,16.000000,27.000000,18.000000,3.000000,-81.000000,38.000000,109.000000,32.000000
1294910.252149,12.000000,-14.000000,-19.000000,-5.000000,5.000000,-14.000000,56.000000,30.000000
1294910.252693,35.000000,32.000000,16.000000,10.000000,-5.000000,30.000000,118.000000,28.000000
1294910.252700,-23.000000,-21.000000,-27.000000,-25.000000,-32.000000,-38.000000,-27.000000,-11.000000
1294910.253559,23.000000,24.000000,6.000000,8.000000,17.000000,-4.000000,1.000000,15.000000
1294910.253566,-33.000000,-54.000000,-60.000000,-3.000000,8.000000,4.000000,-13.000000,-11.000000
1294910.257824,12.000000,62.000000,51.000000,28.000000,32.000000,15.000000,-25.000000,-7.000000
1294910.257832,-9.000000,-26.000000,-22.000000,-13.000000,-15.000000,-27.000000,2.000000,-25.000000
1294910.280443,-26.000000,-27.000000,-26.000000,-11.000000,-1.000000,-1.000000,-53.000000,-27.000000
1294910.280461,27.000000,58.000000,50.000000,5.000000,-50.000000,43.000000,59.000000,41.000000
1294910.281546,-6.000000,-51.000000,-21.000000,13.000000,24.000000,-6.000000,5.000000,0.000000
1294910.281555,-15.000000,-8.000000,-15.000000,-7.000000,-2.000000,-19.000000,-14.000000,-15.000000
1294910.287754,-16.000000,-14.000000,-11.000000,-22.000000,-20.000000,-7.000000,-42.000000,-15.000000
1294910.287764,42.000000,24.000000,26.000000,25.000000,23.000000,55.000000,1.000000,30.000000
1294910.295868,-30.000000,-18.000000,-4.000000,21.000000,16.000000,-2.000000,-27.000000,-19.000000
1294910.295877,28.000000,54.000000,15.000000,-32.000000,-40.000000,-13.000000,-20.000000,10.000000
1294910.326189,-54.000000,-107.000000,-55.000000,15.000000,36.000000,-72.000000,-128.000000,-53.000000
1294910.326221,25.000000,51.000000,60.000000,14.000000,16.000000,78.000000,127.000000,86.000000
1294910.370443,37.000000,36.000000,10.000000,20.000000,28.000000,73.000000,93.000000,22.000000
1294910.370463,-20.000000,-27.000000,-26.000000,-14.000000,20.000000,-30.000000,-40.000000,-24.000000
1294910.385458,-39.000000,-48.000000,-37.000000,-32.000000,-40.000000,-93.000000,-57.000000,-10.000000
1294910.385469,-102.000000,-99.000000,-51.000000,-22.000000,-4.000000,-54.000000,-128.000000,-128.000000
1294910.415892,116.000000,127.000000,54.000000,26.000000,-4.000000,102.000000,127.000000,58.000000
1294910.415908,25.000000,5.000000,24.000000,3.000000,14.000000,-6.000000,13.000000,29.000000
1294910.437945,-29.000000,-20.000000,-23.000000,4.000000,40.000000,-28.000000,-41.000000,-22.000000
1294910.437966,-34.000000,-35.000000,-17.000000,-47.000000,-117.000000,-46.000000,-87.000000,-26.000000
1294910.445731,-36.000000,-69.000000,-42.000000,-82.000000,-79.000000,-59.000000,-128.000000,-38.000000
1294910.445752,36.000000,80.000000,50.000000,114.000000,102.000000,56.000000,82.000000,18.000000
1294910.446308,4.000000,-2.000000,-1.000000,-40.000000,-17.000000,19.000000,1.000000,10.000000
1294910.446330,11.000000,-6.000000,-24.000000,-19.000000,1.000000,-15.000000,-13.000000,-10.000000
1294910.446999,-49.000000,-35.000000,-23.000000,-17.000000,-55.000000,-27.000000,-25.000000,-8.000000
1294910.447020,28.000000,38.000000,24.000000,41.000000,89.000000,38.000000,-15.000000,5.000000
1294910.447563,27.000000,17.000000,42.000000,4.000000,15.000000,36.000000,127.000000,36.000000
1294910.447585,25.000000,7.000000,12.000000,22.000000,10.000000,35.000000,81.000000,5.000000
1294910.483065,17.000000,17.000000,15.000000,1.000000,2.000000,-54.000000,21.000000,60.000000
1294910.483087,2.000000,-42.000000,-48.000000,-61.000000,-128.000000,-5.000000,18.000000,-51.000000
1294910.521018,33.000000,64.000000,73.000000,38.000000,13.000000,34.000000,51.000000,46.000000
1294910.521047,4.000000,-1.000000,-19.000000,-10.000000,-13.000000,-23.000000,-17.000000,7.000000
1294910.558125,-20.000000,-19.000000,-18.000000,-6.000000,17.000000,-48.000000,-41.000000,-43.000000
1294910.558180,16.000000,-8.000000,-13.000000,-54.000000,-128.000000,-22.000000,-50.000000,14.000000
1294910.558957,-15.000000,-6.000000,13.000000,5.000000,-15.000000,-7.000000,66.000000,19.000000
1294910.558987,-51.000000,-17.000000,-21.000000,5.000000,6.000000,-56.000000,-128.000000,-89.000000
1294910.559868,69.000000,6.000000,-3.000000,-66.000000,-118.000000,47.000000,127.000000,72.000000
1294910.559881,-34.000000,-13.000000,-31.000000,-16.000000,11.000000,-3.000000,-115.000000,-60.000000
1294910.560355,33.000000,127.000000,109.000000,43.000000,52.000000,0.000000,-30.000000,4.000000
1294910.560386,-8.000000,-54.000000,-32.000000,-9.000000,-7.000000,-27.000000,-15.000000,-16.000000
1294910.561019,-4.000000,-24.000000,-27.000000,24.000000,51.000000,-8.000000,76.000000,14.000000
1294910.561027,-21.000000,-26.000000,-29.000000,-69.000000,-127.000000,-32.000000,-66.000000,32.000000
1294910.565462,-15.000000,0.000000,7.000000,22.000000,28.000000,32.000000,-42.000000,-85.000000
1294910.565473,-38.000000,-46.000000,-33.000000,-6.000000,7.000000,-32.000000,-114.000000,-36.000000
1294910.602926,2.000000,32.000000,11.000000,-11.000000,-22.000000,-29.000000,5.000000,5.000000
1294910.602940,12.000000,-7.000000,7.000000,8.000000,-35.000000,51.000000,127.000000,16.000000
1294910.640783,-7.000000,-5.000000,2.000000,-1.000000,19.000000,-11.000000,-17.000000,0.000000
1294910.640793,-10.000000,-15.000000,8.000000,28.000000,-20.000000,5.000000,-37.000000,-47.000000
1294910.662868,-14.000000,-5.000000,-11.000000,5.000000,23.000000,-4.000000,-30.000000,-9.000000
1294910.662880,-19.000000,-7.000000,-9.000000,-5.000000,-12.000000,-13.000000,-16.000000,-13.000000
1294910.685494,5.000000,-39.000000,-22.000000,5.000000,29.000000,-8.000000,48.000000,20.000000
1294910.685505,-27.000000,-49.000000,-23.000000,-52.000000,5.000000,-40.000000,-51.000000,9.000000
1294910.686699,57.000000,58.000000,51.000000,127.000000,127.000000,127.000000,127.000000,86.000000
1294910.686716,-15.000000,-20.000000,-21.000000,-26.000000,-11.000000,-16.000000,8.000000,-17.000000
1294910.687232,-36.000000,-36.000000,-28.000000,-21.000000,-17.000000,-56.000000,-85.000000,-36.000000
1294910.687241,24.000000,9.000000,-1.000000,-4.000000,1.000000,17.000000,113.000000,14.000000
1294910.688445,-23.000000,-69.000000,-30.000000,-35.000000,-27.000000,-14.000000,30.000000,3.000000
1294910.688453,62.000000,75.000000,24.000000,7.000000,-4.000000,-12.000000,-23.000000,39.000000
1294910.715571,-26.000000,-35.000000,-21.000000,-3.000000,28.000000,-16.000000,-63.000000,-43.000000
1294910.715582,-55.000000,-41.000000,-26.000000,-28.000000,-41.000000,-41.000000,-81.000000,-35.000000
1294910.723287,0.000000,6.000000,-14.000000,-7.000000,-5.000000,-33.000000,-46.000000,-38.000000
1294910.723298,4.000000,23.000000,11.000000,-59.000000,-87.000000,26.000000,-128.000000,-28.000000
1294910.760436,-7.000000,49.000000,21.000000,16.000000,17.000000,20.000000,64.000000,-1.000000
1294910.760446,-20.000000,-43.000000,-11.000000,-8.000000,7.000000,-19.000000,-25.000000,-10.000000
1294910.775772,-2.000000,-12.000000,4.000000,14.000000,18.000000,-30.000000,-85.000000,-56.000000
1294910.775781,31.000000,34.000000,5.000000,16.000000,4.000000,56.000000,119.000000,42.000000
1294910.798167,11.000000,26.000000,46.000000,-10.000000,-37.000000,-23.000000,-14.000000,37.000000
1294910.798214,-18.000000,-52.000000,-40.000000,11.000000,33.000000,-16.000000,-75.000000,-22.000000
1294910.799311,14.000000,18.000000,22.000000,33.000000,-14.000000,19.000000,96.000000,3.000000
1294910.799574,16.000000,14.000000,7.000000,9.000000,8.000000,36.000000,61.000000,5.000000
1294910.801279,-19.000000,-15.000000,-14.000000,-23.000000,-34.000000,-38.000000,-52.000000,10.000000
1294910.801305,-16.000000,27.000000,-8.000000,2.000000,27.000000,1.000000,11.000000,-26.000000
1294910.801459,-16.000000,-31.000000,-3.000000,-37.000000,-77.000000,-26.000000,-101.000000,-83.000000
1294910.801510,7.000000,-28.000000,-15.000000,12.000000,32.000000,3.000000,30.000000,-2.000000
1294910.802346,-28.000000,-43.000000,-46.000000,-23.000000,-5.000000,-39.000000,-32.000000,37.000000
1294910.802372,8.000000,10.000000,9.000000,-42.000000,-61.000000,34.000000,19.000000,22.000000
1294910.814232,37.000000,98.000000,73.000000,59.000000,86.000000,27.000000,-8.000000,5.000000
1294910.814264,-15.000000,-6.000000,5.000000,12.000000,36.000000,-8.000000,-14.000000,-23.000000
1294910.835802,-60.000000,-49.000000,-78.000000,-30.000000,-17.000000,-116.000000,-79.000000,-45.000000
1294910.835818,66.000000,75.000000,46.000000,7.000000,50.000000,127.000000,101.000000,17.000000
1294910.843615,-2.000000,-7.000000,-5.000000,29.000000,60.000000,15.000000,-1.000000,13.000000
1294910.843633,-17.000000,-24.000000,-19.000000,-12.000000,5.000000,-38.000000,-54.000000,-7.000000
1294910.865352,-33.000000,-32.000000,-34.000000,-23.000000,-11.000000,-45.000000,-67.000000,-16.000000
1294910.865381,-26.000000,-11.000000,3.000000,-34.000000,-34.000000,-44.000000,-106.000000,-36.000000
1294910.918175,40.000000,47.000000,16.000000,50.000000,61.000000,68.000000,127.000000,21.000000
1294910.918187,-47.000000,-39.000000,2.000000,-9.000000,-31.000000,-41.000000,-20.000000,-62.000000
1294910.940543,25.000000,21.000000,5.000000,-9.000000,-41.000000,19.000000,-77.000000,31.000000
1294910.940554,21.000000,-3.000000,18.000000,28.000000,30.000000,-3.000000,12.000000,24.000000
1294910.962973,-9.000000,-11.000000,-33.000000,-46.000000,-31.000000,7.000000,58.000000,-11.000000
1294910.962985,-21.000000,-24.000000,-10.000000,17.000000,46.000000,3.000000,18.000000,57.000000
1294910.992870,-6.000000,-15.000000,-11.000000,13.000000,21.000000,-9.000000,32.000000,-44.000000
1294910.992880,-29.000000,24.000000,10.000000,-76.000000,-81.000000,14.000000,17.000000,-37.000000
1294911.000383,31.000000,36.000000,20.000000,20.000000,-60.000000,25.000000,21.000000,26.000000
1294911.000393,-7.000000,-7.000000,-8.000000,28.000000,51.000000,-32.000000,-22.000000,-15.000000
1294911.023047,-13.000000,4.000000,4.000000,-19.000000,-25.000000,-72.000000,-40.000000,10.000000
1294911.023061,10.000000,26.000000,0.000000,-10.000000,3.000000,24.000000,-116.000000,11.000000
1294911.030542,25.000000,16.000000,5.000000,23.000000,32.000000,73.000000,127.000000,68.000000
1294911.030554,0.000000,-11.000000,12.000000,4.000000,-5.000000,-27.000000,-12.000000,-15.000000
1294911.052937,18.000000,37.000000,35.000000,-59.000000,-46.000000,-3.000000,51.000000,17.000000
1294911.052958,1.000000,13.000000,12.000000,47.000000,78.000000,20.000000,-9.000000,-9.000000
1294911.075553,0.000000,31.000000,4.000000,-11.000000,-4.000000,-10.000000,3.000000,-5.000000
1294911.075565,-10.000000,-21.000000,-29.000000,-15.000000,-4.000000,-26.000000,-28.000000,-11.000000
1294911.083135,45.000000,57.000000,65.000000,25.000000,-10.000000,34.000000,91.000000,10.000000
1294911.083146,-8.000000,-34.000000,-10.000000,-5.000000,2.000000,-1.000000,18.000000,10.000000
1294911.090556,-39.000000,-12.000000,-24.000000,-18.000000,-20.000000,-36.000000,2.000000,17.000000
1294911.090574,-16.000000,-47.000000,-47.000000,-2.000000,12.000000,-25.000000,-89.000000,-76.000000
1294911.113093,57.000000,102.000000,60.000000,111.000000,127.000000,115.000000,127.000000,67.000000
1294911.113105,-26.000000,-26.000000,-24.000000,-1.000000,15.000000,-28.000000,-30.000000,-9.000000
1294911.120359,-44.000000,-62.000000,-73.000000,-40.000000,-6.000000,-93.000000,-128.000000,-26.000000
1294911.120370,33.000000,38.000000,76.000000,60.000000,-3.000000,84.000000,127.000000,40.000000
1294911.128040,-6.000000,-10.000000,-9.000000,21.000000,48.000000,-7.000000,-32.000000,4.000000
1294911.128071,-17.000000,-18.000000,-17.000000,-6.000000,16.000000,-32.000000,-103.000000,-37.000000
1294911.128558,-20.000000,-2.000000,-5.000000,-34.000000,-63.000000,-1.000000,-80.000000,-22.000000
1294911.128567,5.000000,-4.000000,11.000000,31.000000,85.000000,17.000000,6.000000,15.000000
1294911.129061,-13.000000,-8.000000,1.000000,-23.000000,-91.000000,2.000000,-81.000000,-20.000000
1294911.129088,9.000000,-28.000000,2.000000,9.000000,29.000000,-6.000000,-69.000000,-12.000000
1294911.129742,-22.000000,-13.000000,-46.000000,-9.000000,-2.000000,1.000000,-48.000000,8.000000
1294911.129770,10.000000,44.000000,13.000000,-55.000000,-96.000000,-8.000000,-1.000000,-57.000000
1294911.130230,22.000000,17.000000,42.000000,55.000000,73.000000,-11.000000,-14.000000,37.000000
1294911.130257,5.000000,4.000000,-9.000000,-6.000000,-58.000000,-22.000000,44.000000,23.000000
1294911.131106,-44.000000,-31.000000,-53.000000,-22.000000,-15.000000,-26.000000,-73.000000,-37.000000
1294911.131130,-8.000000,6.000000,-27.000000,6.000000,-2.000000,43.000000,127.000000,-47.000000
1294911.158013,52.000000,19.000000,31.000000,25.000000,-4.000000,86.000000,127.000000,82.000000
1294911.158026,-26.000000,-38.000000,-16.000000,9.000000,22.000000,-49.000000,-7.000000,-3.000000
1294911.158347,-17.000000,-4.000000,-20.000000,-41.000000,-95.000000,-33.000000,-98.000000,-5.000000
1294911.158357,-19.000000,-11.000000,-4.000000,18.000000,27.000000,-5.000000,-16.000000,-27.000000
1294911.159848,27.000000,-11.000000,14.000000,-14.000000,-70.000000,-9.000000,46.000000,25.000000
1294911.159858,-1.000000,-18.000000,-29.000000,18.000000,62.000000,0.000000,7.000000,14.000000
1294911.173112,-9.000000,-13.000000,-17.000000,-8.000000,0.000000,-23.000000,-20.000000,-11.000000
1294911.173129,-48.000000,-28.000000,-22.000000,-22.000000,-37.000000,-8.000000,-10.000000,-56.000000
1294911.203033,68.000000,53.000000,68.000000,30.000000,-55.000000,95.000000,127.000000,73.000000
1294911.203046,23.000000,37.000000,-6.000000,12.000000,30.000000,5.000000,16.000000,16.000000
1294911.240462,-18.000000,13.000000,4.000000,-4.000000,-9.000000,-41.000000,-75.000000,-32.000000
1294911.240482,-26.000000,-29.000000,-46.000000,-17.000000,-6.000000,-24.000000,-73.000000,-67.000000
1294911.270496,14.000000,35.000000,37.000000,-7.000000,-6.000000,-4.000000,44.000000,37.000000
1294911.270506,30.000000,33.000000,16.000000,10.000000,4.000000,12.000000,-128.000000,-27.000000
1294911.277717,-5.000000,-1.000000,-10.000000,-1.000000,-4.000000,13.000000,127.000000,-11.000000
1294911.277727,-17.000000,-2.000000,-5.000000,-4.000000,-11.000000,-19.000000,27.000000,-13.000000
1294911.278942,-10.000000,-25.000000,-13.000000,16.000000,51.000000,17.000000,-128.000000,-38.000000
1294911.278956,28.000000,32.000000,26.000000,24.000000,8.000000,22.000000,86.000000,55.000000
1294911.279540,-27.000000,-24.000000,-23.000000,2.000000,49.000000,-11.000000,-27.000000,-53.000000
1294911.279550,-6.000000,30.000000,14.000000,-18.000000,-62.000000,-2.000000,-41.000000,3.000000
1294911.281025,28.000000,65.000000,58.000000,17.000000,-24.000000,67.000000,115.000000,38.000000
1294911.281034,-14.000000,-9.000000,-21.000000,-13.000000,3.000000,-26.000000,-26.000000,-17.000000
1294911.315631,-76.000000,-41.000000,-28.000000,-23.000000,-23.000000,-32.000000,-50.000000,-73.000000
1294911.315650,39.000000,43.000000,44.000000,44.000000,65.000000,-3.000000,-128.000000,-29.000000
1294911.352933,2.000000,-4.000000,-25.000000,-34.000000,-59.000000,16.000000,127.000000,41.000000
1294911.352945,-2.000000,-15.000000,-20.000000,-21.000000,-17.000000,-29.000000,41.000000,37.000000
1294911.360530,4.000000,-18.000000,-12.000000,-36.000000,-16.000000,-11.000000,-23.000000,-46.000000
1294911.360547,2.000000,47.000000,37.000000,30.000000,73.000000,7.000000,-17.000000,1.000000
1294911.368315,-5.000000,37.000000,13.000000,20.000000,73.000000,43.000000,31.000000,5.000000
1294911.368324,5.000000,-14.000000,-13.000000,-9.000000,-9.000000,-27.000000,-57.000000,-14.000000
1294911.369111,2.000000,47.000000,7.000000,15.000000,-33.000000,-47.000000,-10.000000,-12.000000
1294911.369121,-5.000000,-1.000000,-2.000000,-25.000000,-10.000000,44.000000,54.000000,10.000000
1294911.390420,-7.000000,1.000000,1.000000,2.000000,2.000000,12.000000,56.000000,6.000000
1294911.390434,-24.000000,-23.000000,-14.000000,9.000000,35.000000,-5.000000,89.000000,-9.000000
1294911.391106,17.000000,5.000000,-7.000000,0.000000,3.000000,7.000000,21.000000,27.000000
1294911.391117,-39.000000,-35.000000,-35.000000,-21.000000,-49.000000,-73.000000,-128.000000,1.000000
1294911.391650,-15.000000,25.000000,16.000000,6.000000,6.000000,12.000000,127.000000,55.000000
1294911.391660,42.000000,-3.000000,5.000000,20.000000,18.000000,25.000000,6.000000,44.000000
1294911.392731,-7.000000,-10.000000,-3.000000,4.000000,20.000000,-11.000000,-8.000000,-9.000000
1294911.392741,-43.000000,-42.000000,-42.000000,-27.000000,-32.000000,-33.000000,-106.000000,-39.000000
1294911.394405,9.000000,4.000000,7.000000,27.000000,14.000000,-6.000000,-15.000000,8.000000
1294911.394415,-20.000000,-4.000000,-9.000000,-72.000000,-67.000000,-65.000000,45.000000,53.000000
1294911.397805,24.000000,29.000000,10.000000,-13.000000,-70.000000,30.000000,48.000000,0.000000
1294911.397815,-14.000000,2.000000,7.000000,56.000000,89.000000,21.000000,26.000000,-11.000000
1294911.458059,-19.000000,-21.000000,-24.000000,-43.000000,-37.000000,-31.000000,-6.000000,-32.000000
1294911.458079,-25.000000,-14.000000,-9.000000,-15.000000,-28.000000,-33.000000,-8.000000,21.000000
1294911.473015,50.000000,110.000000,58.000000,47.000000,15.000000,44.000000,22.000000,10.000000
1294911.473032,35.000000,-6.000000,-6.000000,3.000000,7.000000,-18.000000,29.000000,46.000000
1294911.495506,5.000000,0.000000,-7.000000,-9.000000,-1.000000,-12.000000,-51.000000,-10.000000
1294911.495518,19.000000,30.000000,-14.000000,4.000000,-1.000000,13.000000,111.000000,43.000000
1294911.517937,-38.000000,-5.000000,26.000000,2.000000,-4.000000,-58.000000,-128.000000,-78.000000
1294911.517949,40.000000,19.000000,10.000000,-60.000000,-84.000000,38.000000,127.000000,72.000000
1294911.532742,-29.000000,10.000000,10.000000,-2.000000,-43.000000,-9.000000,23.000000,-30.000000
1294911.532753,24.000000,-30.000000,-15.000000,13.000000,18.000000,3.000000,-5.000000,6.000000
1294911.548962,-15.000000,-32.000000,-21.000000,-13.000000,9.000000,-24.000000,-56.000000,-32.000000
1294911.548978,10.000000,-10.000000,-11.000000,-21.000000,-46.000000,-13.000000,16.000000,22.000000
1294911.551110,30.000000,2.000000,-5.000000,40.000000,54.000000,20.000000,78.000000,33.000000
1294911.551124,-20.000000,-15.000000,-5.000000,-15.000000,-23.000000,-22.000000,-22.000000,-11.000000
1294911.555982,-15.000000,-15.000000,-25.000000,-30.000000,-2.000000,-55.000000,-53.000000,17.000000
1294911.555995,28.000000,26.000000,17.000000,24.000000,23.000000,29.000000,-4.000000,6.000000
1294911.585476,12.000000,-26.000000,4.000000,62.000000,90.000000,29.000000,64.000000,31.000000
1294911.585487,-2.000000,-18.000000,-20.000000,-17.000000,-13.000000,-23.000000,-10.000000,-2.000000
1294911.593059,-47.000000,-37.000000,-30.000000,-21.000000,-9.000000,-46.000000,-62.000000,-38.000000
1294911.593074,42.000000,71.000000,60.000000,6.000000,-25.000000,24.000000,2.000000,38.000000
1294911.593609,31.000000,9.000000,-8.000000,27.000000,56.000000,30.000000,-11.000000,15.000000
1294911.593629,-26.000000,27.000000,29.000000,8.000000,-5.000000,-11.000000,52.000000,30.000000
1294911.594895,40.000000,92.000000,50.000000,10.000000,15.000000,6.000000,-64.000000,-7.000000
1294911.594913,11.000000,-24.000000,-14.000000,-24.000000,-8.000000,3.000000,125.000000,32.000000
1294911.607840,-31.000000,-47.000000,-35.000000,-27.000000,-11.000000,-31.000000,-42.000000,-13.000000
1294911.607850,-25.000000,-13.000000,0.000000,-16.000000,-39.000000,-26.000000,-13.000000,-33.000000
1294911.630584,2.000000,-4.000000,-1.000000,17.000000,28.000000,24.000000,4.000000,-8.000000
1294911.630596,-17.000000,-12.000000,-25.000000,-27.000000,-14.000000,-56.000000,-74.000000,-8.000000
1294911.638060,-53.000000,-68.000000,-84.000000,-24.000000,12.000000,-19.000000,-106.000000,-84.000000
1294911.638072,81.000000,87.000000,100.000000,56.000000,-48.000000,107.000000,127.000000,116.000000
1294911.668005,-5.000000,-19.000000,-22.000000,4.000000,37.000000,-26.000000,-25.000000,9.000000
1294911.668017,-57.000000,-42.000000,-50.000000,-53.000000,-45.000000,-73.000000,-77.000000,-27.000000
1294911.683027,6.000000,56.000000,49.000000,48.000000,30.000000,20.000000,-54.000000,-60.000000
1294911.683039,38.000000,-5.000000,-7.000000,19.000000,43.000000,25.000000,-28.000000,-11.000000
1294911.713058,-3.000000,13.000000,-1.000000,12.000000,-16.000000,10.000000,79.000000,4.000000
1294911.713070,-29.000000,-14.000000,13.000000,0.000000,3.000000,-35.000000,-82.000000,-26.000000
1294911.750543,28.000000,47.000000,4.000000,5.000000,17.000000,7.000000,117.000000,22.000000
1294911.750553,10.000000,-4.000000,10.000000,20.000000,-6.000000,41.000000,97.000000,22.000000
1294911.773242,-3.000000,-18.000000,6.000000,-3.000000,-28.000000,-11.000000,-28.000000,9.000000
1294911.773256,-117.000000,-110.000000,-87.000000,-44.000000,-7.000000,-74.000000,-128.000000,-128.000000
1294911.802827,-19.000000,4.000000,11.000000,25.000000,-56.000000,1.000000,-80.000000,-1.000000
1294911.802837,1.000000,4.000000,-9.000000,50.000000,85.000000,26.000000,43.000000,2.000000
1294911.826084,31.000000,58.000000,48.000000,17.000000,-5.000000,-18.000000,0.000000,1.000000
1294911.826109,-23.000000,-19.000000,-18.000000,-12.000000,-3.000000,-30.000000,-49.000000,-23.000000
1294911.828946,-7.000000,17.000000,44.000000,23.000000,22.000000,18.000000,-2.000000,10.000000
1294911.829001,-14.000000,-33.000000,-28.000000,-16.000000,-27.000000,-11.000000,-21.000000,-18.000000
1294911.833550,-16.000000,-7.000000,5.000000,12.000000,-2.000000,-25.000000,117.000000,26.000000
1294911.833559,-79.000000,-72.000000,-64.000000,-63.000000,-60.000000,-85.000000,-114.000000,-80.000000
1294911.870563,73.000000,11.000000,32.000000,20.000000,-24.000000,88.000000,127.000000,55.000000
1294911.870575,8.000000,2.000000,40.000000,13.000000,10.000000,13.000000,-36.000000,30.000000
1294911.900419,-28.000000,-25.000000,-29.000000,-32.000000,-24.000000,-39.000000,-97.000000,-27.000000
1294911.900429,-76.000000,-71.000000,-46.000000,-28.000000,-19.000000,-39.000000,-118.000000,-63.000000
1294911.907934,25.000000,58.000000,-11.000000,-33.000000,-105.000000,-2.000000,-20.000000,-10.000000
1294911.907944,16.000000,33.000000,36.000000,66.000000,111.000000,21.000000,41.000000,10.000000
1294911.923101,-2.000000,13.000000,-13.000000,4.000000,-4.000000,-7.000000,1.000000,0.000000
1294911.923123,-40.000000,-46.000000,-31.000000,-18.000000,-18.000000,-48.000000,-29.000000,-37.000000
1294911.945420,22.000000,17.000000,-7.000000,8.000000,22.000000,45.000000,77.000000,61.000000
1294911.945441,-26.000000,6.000000,33.000000,-40.000000,-88.000000,-26.000000,8.000000,-65.000000
1294911.946426,-18.000000,-14.000000,-21.000000,-22.000000,-17.000000,-16.000000,14.000000,-28.000000
1294911.946434,-24.000000,-38.000000,-22.000000,-25.000000,-35.000000,-52.000000,-96.000000,-29.000000
1294911.947161,3.000000,-14.000000,7.000000,-26.000000,-9.000000,9.000000,-58.000000,35.000000
1294911.947169,10.000000,15.000000,42.000000,8.000000,23.000000,25.000000,41.000000,-24.000000
1294911.947831,26.000000,-12.000000,-9.000000,6.000000,-26.000000,6.000000,62.000000,21.000000
1294911.947839,-10.000000,-39.000000,-21.000000,-5.000000,-18.000000,-20.000000,0.000000,11.000000
1294911.949421,60.000000,65.000000,69.000000,114.000000,55.000000,59.000000,95.000000,51.000000
1294911.949428,-27.000000,-28.000000,-16.000000,-33.000000,2.000000,-30.000000,-5.000000,2.000000
1294911.953554,26.000000,22.000000,14.000000,-16.000000,-42.000000,35.000000,89.000000,52.000000
1294911.953565,2.000000,-13.000000,-20.000000,29.000000,37.000000,-1.000000,-15.000000,4.000000
1294911.960635,6.000000,5.000000,-9.000000,-10.000000,-3.000000,-49.000000,-55.000000,-27.000000
1294911.960647,23.000000,34.000000,27.000000,18.000000,3.000000,63.000000,-18.000000,18.000000
1294911.990408,-4.000000,-7.000000,-19.000000,-7.000000,1.000000,21.000000,121.000000,-16.000000
1294911.990431,-47.000000,16.000000,21.000000,7.000000,-7.000000,-10.000000,0.000000,1.000000
1294912.020639,-2.000000,-27.000000,-10.000000,2.000000,-6.000000,-10.000000,28.000000,0.000000
1294912.020658,24.000000,22.000000,11.000000,-17.000000,-37.000000,23.000000,-70.000000,-24.000000
1294912.035238,-66.000000,-57.000000,-32.000000,0.000000,2.000000,-38.000000,-94.000000,4.000000
1294912.035248,17.000000,3.000000,-11.000000,-29.000000,21.000000,33.000000,101.000000,92.000000
1294912.050561,36.000000,65.000000,42.000000,96.000000,70.000000,72.000000,-16.000000,32.000000
1294912.050572,6.000000,48.000000,6.000000,-18.000000,-45.000000,-16.000000,51.000000,13.000000
1294912.072895,-11.000000,21.000000,29.000000,50.000000,48.000000,-33.000000,-128.000000,-62.000000
1294912.072906,-63.000000,-31.000000,-21.000000,-42.000000,-27.000000,-20.000000,-65.000000,-82.000000
1294912.073313,82.000000,22.000000,11.000000,27.000000,40.000000,38.000000,82.000000,125.000000
1294912.073322,-44.000000,-40.000000,-24.000000,-11.000000,25.000000,-3.000000,125.000000,-29.000000
1294912.073836,34.000000,45.000000,34.000000,35.000000,-85.000000,11.000000,-37.000000,-8.000000
1294912.073844,5.000000,7.000000,-22.000000,-37.000000,-30.000000,-28.000000,-42.000000,5.000000
1294912.074560,-39.000000,-28.000000,-22.000000,0.000000,9.000000,-10.000000,-46.000000,-3.000000
1294912.074570,26.000000,-1.000000,8.000000,5.000000,2.000000,-16.000000,69.000000,62.000000
1294912.075164,8.000000,15.000000,8.000000,-17.000000,-51.000000,-1.000000,-128.000000,-95.000000
1294912.075183,-7.000000,-14.000000,-2.000000,39.000000,89.000000,28.000000,52.000000,20.000000
1294912.076582,20.000000,27.000000,23.000000,37.000000,40.000000,17.000000,-13.000000,-31.000000
1294912.076590,-18.000000,-14.000000,-9.000000,-50.000000,-48.000000,-8.000000,17.000000,-28.000000
1294912.080174,15.000000,10.000000,-8.000000,3.000000,9.000000,-12.000000,14.000000,29.000000
1294912.080182,-14.000000,-9.000000,-7.000000,8.000000,31.000000,9.000000,-84.000000,-6.000000
1294912.103239,-50.000000,-64.000000,0.000000,11.000000,10.000000,-29.000000,-49.000000,2.000000
1294912.103268,65.000000,74.000000,60.000000,36.000000,-1.000000,75.000000,127.000000,63.000000
1294912.110642,-8.000000,-11.000000,-18.000000,-6.000000,6.000000,-12.000000,-66.000000,-31.000000
1294912.110660,-16.000000,-18.000000,-14.000000,-20.000000,-24.000000,-31.000000,-33.000000,-4.000000
1294912.140692,-39.000000,-35.000000,-21.000000,-3.000000,-7.000000,-44.000000,-84.000000,-88.000000
1294912.140721,9.000000,15.000000,5.000000,-37.000000,-15.000000,-7.000000,-5.000000,19.000000
1294912.147966,-9.000000,3.000000,8.000000,-3.000000,-28.000000,0.000000,-6.000000,8.000000
1294912.147995,-1.000000,-27.000000,-21.000000,14.000000,46.000000,-1.000000,36.000000,-11.000000
1294912.178260,-2.000000,25.000000,0.000000,35.000000,42.000000,2.000000,-3.000000,-8.000000
1294912.178281,-76.000000,-45.000000,-35.000000,-32.000000,28.000000,-26.000000,-128.000000,-119.000000
1294912.185573,91.000000,44.000000,16.000000,18.000000,-16.000000,75.000000,127.000000,100.000000
1294912.185583,18.000000,-4.000000,-2.000000,7.000000,-3.000000,11.000000,7.000000,13.000000
1294912.200757,-57.000000,-57.000000,-33.000000,-7.000000,11.000000,-14.000000,-10.000000,-57.000000
1294912.200773,-4.000000,3.000000,-5.000000,-6.000000,-13.000000,-21.000000,-39.000000,-20.000000
1294912.237930,5.000000,0.000000,6.000000,-12.000000,11.000000,6.000000,78.000000,13.000000
1294912.237941,-50.000000,-94.000000,-40.000000,-16.000000,-17.000000,-42.000000,-128.000000,-96.000000
1294912.268312,-37.000000,-4.000000,-5.000000,-9.000000,-13.000000,-30.000000,-104.000000,-89.000000
1294912.268322,24.000000,-7.000000,-11.000000,5.000000,7.000000,1.000000,-16.000000,4.000000
1294912.269702,5.000000,35.000000,-11.000000,-8.000000,-39.000000,-9.000000,96.000000,35.000000
1294912.269724,2.000000,9.000000,14.000000,-33.000000,-92.000000,-1.000000,-105.000000,-25.000000
1294912.270939,0.000000,21.000000,3.000000,25.000000,24.000000,34.000000,104.000000,26.000000
1294912.270953,21.000000,14.000000,3.000000,-11.000000,-40.000000,27.000000,33.000000,27.000000
1294912.305569,9.000000,1.000000,6.000000,15.000000,-2.000000,19.000000,71.000000,3.000000
1294912.305587,9.000000,27.000000,25.000000,48.000000,31.000000,25.000000,4.000000,19.000000
1294912.306204,-21.000000,-32.000000,-10.000000,-41.000000,-34.000000,-17.000000,8.000000,1.000000
1294912.306252,-3.000000,-22.000000,-42.000000,-14.000000,-1.000000,-34.000000,-58.000000,-32.000000
1294912.307202,2.000000,41.000000,22.000000,-25.000000,-22.000000,-12.000000,-44.000000,6.000000
1294912.307213,15.000000,44.000000,73.000000,9.000000,-6.000000,33.000000,41.000000,16.000000
1294912.307952,9.000000,-7.000000,-9.000000,25.000000,42.000000,9.000000,-13.000000,4.000000
1294912.307962,-27.000000,-45.000000,-29.000000,-21.000000,-3.000000,-20.000000,-68.000000,-49.000000
1294912.313489,-47.000000,-52.000000,-44.000000,-43.000000,-53.000000,-50.000000,-123.000000,-51.000000
1294912.313502,40.000000,27.000000,25.000000,32.000000,25.000000,75.000000,127.000000,65.000000
1294912.328229,-16.000000,-10.000000,-4.000000,0.000000,-5.000000,-9.000000,11.000000,9.000000
1294912.328259,-28.000000,-35.000000,-32.000000,-27.000000,0.000000,-39.000000,-41.000000,-43.000000
1294912.335605,-21.000000,-25.000000,12.000000,-16.000000,-34.000000,-57.000000,-91.000000,14.000000
1294912.335635,29.000000,25.000000,11.000000,13.000000,-21.000000,26.000000,-13.000000,-18.000000
1294912.350495,2.000000,-9.000000,-6.000000,18.000000,24.000000,25.000000,36.000000,-7.000000
1294912.350505,-26.000000,-17.000000,0.000000,15.000000,20.000000,-80.000000,-128.000000,-47.000000
1294912.380728,6.000000,13.000000,8.000000,33.000000,65.000000,39.000000,127.000000,19.000000
1294912.380757,16.000000,-35.000000,-7.000000,49.000000,72.000000,58.000000,92.000000,33.000000
1294912.387959,-1.000000,2.000000,-2.000000,38.000000,31.000000,-14.000000,-54.000000,-8.000000
1294912.387969,-26.000000,-5.000000,-20.000000,-30.000000,-37.000000,-52.000000,-68.000000,-20.000000
1294912.426073,-17.000000,-25.000000,-13.000000,-12.000000,5.000000,-1.000000,-128.000000,-53.000000
1294912.426083,25.000000,18.000000,10.000000,10.000000,-32.000000,19.000000,-28.000000,20.000000
1294912.426587,26.000000,61.000000,19.000000,52.000000,34.000000,29.000000,42.000000,16.000000
1294912.426595,-20.000000,-21.000000,-16.000000,-29.000000,-25.000000,-21.000000,-6.000000,-16.000000
1294912.428015,-20.000000,-29.000000,-22.000000,-10.000000,29.000000,-23.000000,-22.000000,-3.000000
1294912.428024,43.000000,32.000000,18.000000,34.000000,41.000000,26.000000,110.000000,58.000000
