# participant_id: P6
# gesture: baseline
# trial_number: 1
# stream_name: Myo_EMG
# stream_type: emg
# timestamp: 20260420_141711
# samples: 5573
# duration_sec: 30.546
# nominal_sample_rate: 200.0
# effective_sample_rate: 182.42
#
timestamp,emg_1,emg_2,emg_3,emg_4,emg_5,emg_6,emg_7,emg_8
1299323.455165,18.000000,18.000000,-27.000000,9.000000,-4.000000,26.000000,10.000000,16.000000
1299323.456491,-4.000000,-8.000000,9.000000,-8.000000,-3.000000,1.000000,-6.000000,-1.000000
1299323.456527,-16.000000,-16.000000,16.000000,-13.000000,3.000000,-28.000000,-8.000000,-13.000000
1299323.460881,9.000000,15.000000,-23.000000,12.000000,-1.000000,22.000000,5.000000,12.000000
1299323.460937,13.000000,-1.000000,-6.000000,3.000000,-1.000000,12.000000,4.000000,3.000000
1299323.475692,-24.000000,-22.000000,32.000000,-13.000000,0.000000,-22.000000,-12.000000,-19.000000
1299323.475747,4.000000,9.000000,-13.000000,-4.000000,3.000000,2.000000,-2.000000,-5.000000
1299323.490719,23.000000,17.000000,-18.000000,0.000000,1.000000,24.000000,5.000000,10.000000
1299323.490748,-16.000000,-22.000000,30.000000,-6.000000,-3.000000,-20.000000,-10.000000,-11.000000
1299323.505680,-9.000000,-2.000000,4.000000,-4.000000,6.000000,-13.000000,-7.000000,-10.000000
1299323.505734,19.000000,23.000000,-33.000000,11.000000,-9.000000,26.000000,7.000000,17.000000
1299323.513289,-4.000000,-13.000000,6.000000,-5.000000,3.000000,-7.000000,-4.000000,-2.000000
1299323.513358,-22.000000,-13.000000,22.000000,-3.000000,-4.000000,-22.000000,-6.000000,-13.000000
1299323.527628,16.000000,19.000000,-31.000000,14.000000,4.000000,23.000000,2.000000,9.000000
1299323.527637,2.000000,3.000000,-5.000000,-7.000000,-3.000000,9.000000,5.000000,9.000000
1299323.527932,-24.000000,-25.000000,32.000000,-13.000000,0.000000,-25.000000,-12.000000,-23.000000
1299323.527953,0.000000,-2.000000,-18.000000,1.000000,-3.000000,-1.000000,2.000000,1.000000
1299323.529668,19.000000,17.000000,-15.000000,3.000000,9.000000,20.000000,7.000000,10.000000
1299323.529707,-12.000000,-16.000000,23.000000,-10.000000,0.000000,-23.000000,-5.000000,-12.000000
1299323.534413,-4.000000,-2.000000,0.000000,1.000000,-4.000000,-15.000000,0.000000,-7.000000
1299323.534429,23.000000,26.000000,-37.000000,11.000000,-3.000000,29.000000,10.000000,19.000000
1299323.564599,4.000000,-1.000000,16.000000,-3.000000,-1.000000,-2.000000,-2.000000,1.000000
1299323.564617,-21.000000,-21.000000,16.000000,-5.000000,0.000000,-28.000000,-7.000000,-16.000000
1299323.564993,14.000000,15.000000,-22.000000,11.000000,0.000000,19.000000,-1.000000,18.000000
1299323.565013,6.000000,-4.000000,-2.000000,1.000000,-4.000000,13.000000,4.000000,7.000000
1299323.571926,-22.000000,-21.000000,30.000000,-17.000000,3.000000,-28.000000,-14.000000,-22.000000
1299323.571944,4.000000,10.000000,-13.000000,10.000000,-6.000000,4.000000,-4.000000,1.000000
1299323.579518,20.000000,15.000000,-8.000000,10.000000,2.000000,24.000000,7.000000,13.000000
1299323.579535,-19.000000,-19.000000,21.000000,-9.000000,0.000000,-22.000000,-6.000000,-15.000000
1299323.610089,-10.000000,-6.000000,-4.000000,1.000000,-1.000000,-8.000000,-6.000000,-8.000000
1299323.610129,15.000000,25.000000,-35.000000,7.000000,3.000000,25.000000,10.000000,18.000000
1299323.617826,-5.000000,-10.000000,22.000000,-9.000000,-3.000000,-5.000000,2.000000,-3.000000
1299323.617847,-18.000000,-22.000000,16.000000,-7.000000,-3.000000,-22.000000,-11.000000,-16.000000
1299323.647802,20.000000,12.000000,-29.000000,7.000000,-4.000000,22.000000,4.000000,18.000000
1299323.647839,7.000000,4.000000,-3.000000,5.000000,0.000000,9.000000,2.000000,9.000000
1299323.654942,-25.000000,-30.000000,28.000000,-11.000000,1.000000,-27.000000,-7.000000,-22.000000
1299323.654965,-1.000000,11.000000,-17.000000,3.000000,-6.000000,4.000000,4.000000,0.000000
1299323.677125,16.000000,5.000000,-12.000000,4.000000,-1.000000,22.000000,10.000000,12.000000
1299323.677135,-16.000000,-14.000000,20.000000,-13.000000,4.000000,-22.000000,-3.000000,-12.000000
1299323.677407,-8.000000,4.000000,1.000000,1.000000,-7.000000,-10.000000,-6.000000,-3.000000
1299323.677416,21.000000,22.000000,-31.000000,10.000000,-6.000000,25.000000,11.000000,18.000000
1299323.678856,-3.000000,-13.000000,19.000000,-8.000000,-1.000000,-10.000000,-1.000000,-3.000000
1299323.678869,-11.000000,-13.000000,13.000000,-3.000000,-2.000000,-19.000000,-8.000000,-21.000000
1299323.692878,-19.000000,-24.000000,24.000000,-21.000000,-5.000000,-29.000000,-6.000000,-16.000000
1299323.692890,-3.000000,14.000000,-25.000000,7.000000,-1.000000,12.000000,-4.000000,8.000000
1299323.693236,16.000000,12.000000,-15.000000,8.000000,-1.000000,21.000000,8.000000,11.000000
1299323.693252,-13.000000,-13.000000,18.000000,-12.000000,8.000000,-24.000000,-6.000000,-12.000000
1299323.693889,-11.000000,-7.000000,-5.000000,-7.000000,-5.000000,-9.000000,-7.000000,-7.000000
1299323.693905,21.000000,26.000000,-29.000000,2.000000,-3.000000,25.000000,11.000000,14.000000
1299323.699520,-10.000000,-17.000000,21.000000,-6.000000,1.000000,-10.000000,-1.000000,-8.000000
1299323.699541,-18.000000,-11.000000,12.000000,-4.000000,-5.000000,-20.000000,-7.000000,-14.000000
1299323.729685,10.000000,10.000000,-29.000000,11.000000,1.000000,20.000000,3.000000,13.000000
1299323.729698,7.000000,0.000000,3.000000,-2.000000,1.000000,5.000000,0.000000,4.000000
1299323.737067,-22.000000,-24.000000,27.000000,-5.000000,-1.000000,-29.000000,-9.000000,-23.000000
1299323.737083,7.000000,16.000000,-29.000000,11.000000,-5.000000,8.000000,3.000000,14.000000
1299323.752168,11.000000,8.000000,-8.000000,3.000000,1.000000,19.000000,7.000000,11.000000
1299323.752180,-16.000000,-21.000000,23.000000,-5.000000,-5.000000,-22.000000,-4.000000,-18.000000
1299323.767112,-5.000000,-4.000000,-3.000000,2.000000,0.000000,-1.000000,-7.000000,-10.000000
1299323.767136,20.000000,28.000000,-29.000000,9.000000,-3.000000,24.000000,6.000000,23.000000
1299323.768195,-6.000000,-15.000000,23.000000,-10.000000,0.000000,-14.000000,-2.000000,-12.000000
1299323.768212,-23.000000,-7.000000,6.000000,-5.000000,0.000000,-18.000000,-9.000000,-14.000000
1299323.768700,12.000000,16.000000,-22.000000,10.000000,2.000000,19.000000,5.000000,14.000000
1299323.768716,6.000000,-5.000000,0.000000,4.000000,2.000000,4.000000,3.000000,3.000000
1299323.770439,-17.000000,-24.000000,25.000000,-8.000000,-2.000000,-32.000000,-7.000000,-23.000000
1299323.770462,11.000000,15.000000,-31.000000,11.000000,-1.000000,5.000000,1.000000,12.000000
1299323.774851,9.000000,6.000000,-7.000000,1.000000,-4.000000,15.000000,4.000000,9.000000
1299323.774892,-16.000000,-23.000000,21.000000,-5.000000,-3.000000,-21.000000,-8.000000,-15.000000
1299323.804449,-5.000000,4.000000,-4.000000,1.000000,-8.000000,-4.000000,-7.000000,-2.000000
1299323.804461,22.000000,14.000000,-24.000000,5.000000,-7.000000,25.000000,11.000000,14.000000
1299323.804944,-9.000000,-21.000000,29.000000,-10.000000,2.000000,-12.000000,-2.000000,-9.000000
1299323.804954,-20.000000,-15.000000,11.000000,-4.000000,-3.000000,-23.000000,-9.000000,-15.000000
1299323.806471,14.000000,20.000000,-26.000000,6.000000,0.000000,17.000000,4.000000,9.000000
1299323.806482,11.000000,2.000000,0.000000,-7.000000,6.000000,5.000000,2.000000,5.000000
1299323.819607,-30.000000,-16.000000,23.000000,-18.000000,-3.000000,-29.000000,-12.000000,-17.000000
1299323.819625,10.000000,16.000000,-31.000000,13.000000,-2.000000,12.000000,5.000000,8.000000
1299323.849865,18.000000,-1.000000,-4.000000,8.000000,-2.000000,15.000000,4.000000,6.000000
1299323.849878,-14.000000,-21.000000,26.000000,-11.000000,-4.000000,-28.000000,-10.000000,-12.000000
1299323.856840,-5.000000,-2.000000,-1.000000,-3.000000,2.000000,-8.000000,-3.000000,-7.000000
1299323.856850,21.000000,21.000000,-23.000000,6.000000,1.000000,25.000000,11.000000,11.000000
1299323.880321,-11.000000,-22.000000,23.000000,-12.000000,5.000000,-8.000000,-5.000000,-8.000000
1299323.880360,-16.000000,-15.000000,10.000000,2.000000,8.000000,-19.000000,-9.000000,-14.000000
1299323.887769,12.000000,16.000000,-23.000000,8.000000,-5.000000,22.000000,6.000000,11.000000
1299323.887789,3.000000,6.000000,16.000000,4.000000,2.000000,0.000000,7.000000,-3.000000
1299323.888324,-19.000000,-16.000000,24.000000,-10.000000,-7.000000,-25.000000,-12.000000,-15.000000
1299323.888355,6.000000,22.000000,-35.000000,5.000000,5.000000,17.000000,2.000000,11.000000
1299323.888878,14.000000,10.000000,-14.000000,6.000000,-2.000000,17.000000,6.000000,9.000000
1299323.888899,-16.000000,-23.000000,26.000000,-11.000000,0.000000,-23.000000,-3.000000,-9.000000
1299323.890418,-3.000000,-5.000000,-1.000000,1.000000,-1.000000,-3.000000,-9.000000,-4.000000
1299323.890433,18.000000,12.000000,-16.000000,3.000000,-1.000000,16.000000,10.000000,12.000000
1299323.894938,-16.000000,-18.000000,25.000000,-9.000000,3.000000,-18.000000,-4.000000,-9.000000
1299323.894960,-15.000000,-13.000000,7.000000,-5.000000,0.000000,-15.000000,-8.000000,-12.000000
1299323.926239,15.000000,15.000000,-23.000000,9.000000,2.000000,21.000000,3.000000,13.000000
1299323.926607,5.000000,2.000000,3.000000,3.000000,2.000000,7.000000,3.000000,3.000000
1299323.927163,-21.000000,-14.000000,9.000000,-7.000000,-3.000000,-24.000000,-12.000000,-21.000000
1299323.927380,8.000000,13.000000,-29.000000,7.000000,-5.000000,15.000000,3.000000,12.000000
1299323.928215,16.000000,9.000000,-7.000000,6.000000,1.000000,8.000000,7.000000,9.000000
1299323.928262,-18.000000,-17.000000,17.000000,-11.000000,-7.000000,-22.000000,-4.000000,-17.000000
1299323.940643,-1.000000,2.000000,-6.000000,1.000000,-4.000000,-4.000000,-5.000000,-7.000000
1299323.940699,24.000000,15.000000,-18.000000,8.000000,2.000000,23.000000,10.000000,18.000000
1299323.962809,-10.000000,-25.000000,27.000000,-10.000000,0.000000,-19.000000,-6.000000,-13.000000
1299323.962859,-14.000000,-9.000000,6.000000,-4.000000,3.000000,-20.000000,-9.000000,-14.000000
1299323.970647,19.000000,16.000000,-24.000000,9.000000,1.000000,18.000000,4.000000,17.000000
1299323.970711,4.000000,0.000000,5.000000,-1.000000,-5.000000,7.000000,8.000000,1.000000
1299324.008158,-24.000000,-21.000000,23.000000,-15.000000,-1.000000,-25.000000,-10.000000,-17.000000
1299324.008263,13.000000,18.000000,-34.000000,7.000000,-3.000000,15.000000,4.000000,13.000000
1299324.009490,16.000000,7.000000,-5.000000,1.000000,0.000000,11.000000,3.000000,10.000000
1299324.009530,-14.000000,-14.000000,20.000000,-7.000000,-7.000000,-22.000000,-7.000000,-14.000000
1299324.011222,-19.000000,-13.000000,26.000000,-10.000000,-2.000000,-17.000000,-4.000000,-12.000000
1299324.011494,-8.000000,-3.000000,5.000000,5.000000,0.000000,-17.000000,-9.000000,-5.000000
1299324.012003,-2.000000,-6.000000,-3.000000,2.000000,0.000000,-3.000000,-1.000000,-6.000000
1299324.012186,18.000000,15.000000,-24.000000,11.000000,3.000000,27.000000,6.000000,19.000000
1299324.012943,16.000000,16.000000,-23.000000,6.000000,2.000000,22.000000,8.000000,14.000000
1299324.012971,5.000000,0.000000,6.000000,-3.000000,1.000000,-1.000000,6.000000,0.000000
1299324.024201,-21.000000,-13.000000,16.000000,-9.000000,0.000000,-24.000000,-10.000000,-20.000000
1299324.024230,10.000000,10.000000,-29.000000,11.000000,2.000000,20.000000,4.000000,11.000000
1299324.030744,7.000000,10.000000,-12.000000,2.000000,1.000000,19.000000,4.000000,11.000000
1299324.030769,-22.000000,-23.000000,23.000000,-10.000000,5.000000,-26.000000,-12.000000,-18.000000
1299324.046130,-2.000000,3.000000,-6.000000,1.000000,-6.000000,-2.000000,-4.000000,-1.000000
1299324.046477,20.000000,17.000000,-22.000000,11.000000,-2.000000,30.000000,7.000000,18.000000
1299324.047078,-12.000000,-22.000000,22.000000,-6.000000,1.000000,-14.000000,-5.000000,-13.000000
1299324.047108,-16.000000,-6.000000,4.000000,-8.000000,-2.000000,-11.000000,-6.000000,-9.000000
1299324.090946,15.000000,13.000000,-29.000000,4.000000,-4.000000,17.000000,6.000000,13.000000
1299324.091049,5.000000,-10.000000,7.000000,-2.000000,4.000000,2.000000,1.000000,2.000000
1299324.098080,-18.000000,-16.000000,20.000000,-12.000000,-4.000000,-27.000000,-10.000000,-17.000000
1299324.098143,11.000000,18.000000,-25.000000,6.000000,-1.000000,19.000000,10.000000,6.000000
1299324.113334,10.000000,11.000000,-5.000000,1.000000,-3.000000,9.000000,6.000000,12.000000
1299324.113364,-25.000000,-19.000000,28.000000,-10.000000,-1.000000,-29.000000,-4.000000,-15.000000
1299324.128693,-5.000000,2.000000,-4.000000,1.000000,-4.000000,0.000000,-2.000000,0.000000
1299324.128722,19.000000,19.000000,-23.000000,5.000000,5.000000,25.000000,8.000000,16.000000
1299324.130503,14.000000,18.000000,-28.000000,12.000000,-3.000000,24.000000,8.000000,12.000000
1299324.130547,3.000000,1.000000,10.000000,-7.000000,7.000000,1.000000,3.000000,-1.000000
1299324.130790,-17.000000,-19.000000,23.000000,-2.000000,-3.000000,-15.000000,-7.000000,-10.000000
1299324.130846,-9.000000,-8.000000,-1.000000,-3.000000,1.000000,-14.000000,-7.000000,-11.000000
1299324.132291,-18.000000,-17.000000,16.000000,-12.000000,-7.000000,-22.000000,-8.000000,-15.000000
1299324.132479,16.000000,12.000000,-24.000000,10.000000,-1.000000,18.000000,6.000000,7.000000
1299324.132922,7.000000,7.000000,-2.000000,1.000000,4.000000,5.000000,6.000000,7.000000
1299324.132983,-16.000000,-16.000000,26.000000,-14.000000,-1.000000,-24.000000,-11.000000,-19.000000
1299324.143821,6.000000,7.000000,-14.000000,-1.000000,1.000000,-3.000000,-1.000000,-5.000000
1299324.143947,19.000000,13.000000,-24.000000,-1.000000,-1.000000,23.000000,13.000000,17.000000
1299324.158197,-12.000000,-20.000000,26.000000,-6.000000,3.000000,-17.000000,-4.000000,-18.000000
1299324.158526,-12.000000,1.000000,6.000000,-4.000000,-1.000000,-9.000000,-9.000000,-8.000000
1299324.159925,17.000000,15.000000,-38.000000,14.000000,-4.000000,25.000000,4.000000,15.000000
1299324.159981,4.000000,-7.000000,9.000000,1.000000,-5.000000,-1.000000,0.000000,2.000000
1299324.173099,-17.000000,-19.000000,14.000000,-4.000000,-3.000000,-27.000000,-4.000000,-11.000000
1299324.173156,11.000000,16.000000,-25.000000,7.000000,0.000000,21.000000,7.000000,10.000000
1299324.203208,9.000000,6.000000,-2.000000,1.000000,1.000000,10.000000,4.000000,1.000000
1299324.203398,-25.000000,-19.000000,27.000000,-6.000000,-1.000000,-19.000000,-9.000000,-16.000000
1299324.211008,-1.000000,4.000000,-19.000000,5.000000,-4.000000,3.000000,4.000000,2.000000
1299324.211045,16.000000,17.000000,-20.000000,7.000000,-4.000000,24.000000,10.000000,14.000000
1299324.248160,-22.000000,-22.000000,25.000000,-8.000000,-5.000000,-25.000000,-6.000000,-13.000000
1299324.248216,-14.000000,-3.000000,0.000000,-5.000000,-5.000000,-9.000000,-9.000000,-9.000000
1299324.255757,20.000000,23.000000,-28.000000,14.000000,-6.000000,28.000000,7.000000,18.000000
1299324.255811,2.000000,-6.000000,11.000000,-6.000000,5.000000,-5.000000,-8.000000,0.000000
1299324.293454,-22.000000,-16.000000,17.000000,-7.000000,2.000000,-23.000000,-8.000000,-19.000000
1299324.293576,16.000000,18.000000,-22.000000,12.000000,-7.000000,18.000000,9.000000,14.000000
1299324.293951,15.000000,3.000000,-8.000000,-1.000000,-6.000000,9.000000,6.000000,8.000000
1299324.294303,-21.000000,-27.000000,30.000000,-11.000000,5.000000,-28.000000,-11.000000,-19.000000
1299324.300591,-17.000000,-23.000000,23.000000,-14.000000,1.000000,-22.000000,-6.000000,-13.000000
1299324.300653,-10.000000,-8.000000,2.000000,-4.000000,0.000000,-10.000000,-8.000000,-8.000000
1299324.330684,-25.000000,-19.000000,14.000000,-15.000000,-7.000000,-19.000000,-9.000000,-21.000000
1299324.331170,14.000000,15.000000,-23.000000,3.000000,-3.000000,19.000000,7.000000,10.000000
1299324.333339,-20.000000,-12.000000,23.000000,-12.000000,-4.000000,-22.000000,-11.000000,-12.000000
1299324.333632,-9.000000,-12.000000,-1.000000,-2.000000,-5.000000,-5.000000,-8.000000,-5.000000
1299324.334199,23.000000,19.000000,-27.000000,13.000000,2.000000,26.000000,10.000000,17.000000
1299324.334249,-3.000000,-10.000000,15.000000,-4.000000,-2.000000,-5.000000,-2.000000,-4.000000
1299324.338640,3.000000,10.000000,-12.000000,8.000000,0.000000,4.000000,-3.000000,2.000000
1299324.338668,20.000000,18.000000,-15.000000,3.000000,4.000000,20.000000,10.000000,12.000000
1299324.361160,-10.000000,-13.000000,28.000000,-15.000000,-2.000000,-25.000000,-10.000000,-14.000000
1299324.361211,-4.000000,-3.000000,-1.000000,1.000000,1.000000,-8.000000,0.000000,-6.000000
1299324.362168,18.000000,16.000000,-28.000000,11.000000,-9.000000,26.000000,10.000000,17.000000
1299324.362212,-8.000000,-12.000000,12.000000,-1.000000,-6.000000,-10.000000,-1.000000,-3.000000
1299324.368285,-15.000000,-12.000000,12.000000,-1.000000,-5.000000,-21.000000,-8.000000,-20.000000
1299324.368346,13.000000,16.000000,-24.000000,1.000000,-7.000000,17.000000,2.000000,10.000000
1299324.405675,2.000000,1.000000,2.000000,0.000000,3.000000,4.000000,6.000000,-1.000000
1299324.405732,-25.000000,-24.000000,28.000000,-16.000000,1.000000,-24.000000,-9.000000,-22.000000
1299324.413256,7.000000,10.000000,-29.000000,5.000000,-2.000000,7.000000,2.000000,5.000000
1299324.413310,18.000000,10.000000,-20.000000,0.000000,3.000000,17.000000,8.000000,11.000000
1299324.443706,-15.000000,-22.000000,25.000000,-7.000000,1.000000,-19.000000,-8.000000,-18.000000
1299324.443763,-3.000000,4.000000,-6.000000,-10.000000,-4.000000,-11.000000,-9.000000,-5.000000
1299324.451654,22.000000,16.000000,-24.000000,8.000000,-6.000000,27.000000,7.000000,11.000000
1299324.451722,-9.000000,-16.000000,21.000000,-5.000000,-5.000000,-8.000000,-5.000000,-7.000000
1299324.453598,-20.000000,-14.000000,11.000000,-10.000000,-3.000000,-16.000000,-9.000000,-15.000000
1299324.453623,16.000000,20.000000,-20.000000,4.000000,2.000000,17.000000,0.000000,13.000000
1299324.453935,5.000000,0.000000,-9.000000,4.000000,5.000000,5.000000,6.000000,3.000000
1299324.453996,-21.000000,-26.000000,27.000000,-5.000000,-1.000000,-23.000000,-11.000000,-21.000000
1299324.455452,-17.000000,-18.000000,29.000000,-8.000000,2.000000,-26.000000,-8.000000,-18.000000
1299324.455499,-8.000000,1.000000,-3.000000,0.000000,-3.000000,-3.000000,-2.000000,-6.000000
1299324.459842,17.000000,24.000000,-27.000000,2.000000,-5.000000,29.000000,10.000000,15.000000
1299324.459868,-6.000000,-12.000000,18.000000,-8.000000,3.000000,-13.000000,-2.000000,-10.000000
1299324.473220,-17.000000,-5.000000,9.000000,-6.000000,-8.000000,-18.000000,-7.000000,-12.000000
1299324.473283,12.000000,18.000000,-33.000000,3.000000,0.000000,19.000000,5.000000,12.000000
1299324.487386,7.000000,-4.000000,2.000000,-4.000000,-5.000000,4.000000,2.000000,3.000000
1299324.487405,-24.000000,-18.000000,32.000000,-12.000000,4.000000,-26.000000,-9.000000,-23.000000
1299324.488115,9.000000,18.000000,-31.000000,7.000000,-5.000000,17.000000,1.000000,9.000000
1299324.488152,19.000000,8.000000,-10.000000,1.000000,-3.000000,16.000000,3.000000,13.000000
1299324.525175,-19.000000,-22.000000,24.000000,-5.000000,0.000000,-28.000000,-3.000000,-17.000000
1299324.525195,-5.000000,-5.000000,0.000000,5.000000,0.000000,-8.000000,-7.000000,-5.000000
1299324.532564,16.000000,13.000000,-32.000000,9.000000,-4.000000,22.000000,6.000000,11.000000
1299324.532602,-12.000000,-14.000000,28.000000,-17.000000,2.000000,-13.000000,-7.000000,-11.000000
1299324.571275,-17.000000,-9.000000,5.000000,-5.000000,-10.000000,-16.000000,-7.000000,-13.000000
1299324.571577,11.000000,13.000000,-23.000000,9.000000,2.000000,16.000000,3.000000,15.000000
1299324.572181,4.000000,0.000000,4.000000,5.000000,-4.000000,6.000000,5.000000,8.000000
1299324.572218,-22.000000,-19.000000,24.000000,-10.000000,-4.000000,-28.000000,-6.000000,-21.000000
1299324.573772,-16.000000,-12.000000,21.000000,-9.000000,3.000000,-22.000000,-8.000000,-16.000000
1299324.574179,-2.000000,3.000000,-12.000000,4.000000,-3.000000,-1.000000,-2.000000,-3.000000
1299324.574567,3.000000,20.000000,-26.000000,5.000000,2.000000,15.000000,1.000000,8.000000
1299324.574627,13.000000,8.000000,-13.000000,9.000000,1.000000,8.000000,2.000000,12.000000
1299324.575382,19.000000,20.000000,-25.000000,7.000000,-5.000000,23.000000,4.000000,18.000000
1299324.575408,-11.000000,-19.000000,28.000000,-11.000000,5.000000,-17.000000,-8.000000,-12.000000
1299324.585522,1.000000,3.000000,8.000000,-4.000000,1.000000,3.000000,4.000000,8.000000
1299324.585561,-15.000000,-19.000000,17.000000,-9.000000,-1.000000,-17.000000,-10.000000,-16.000000
1299324.600987,12.000000,19.000000,-27.000000,13.000000,-1.000000,8.000000,-2.000000,9.000000
1299324.601273,18.000000,7.000000,-13.000000,-2.000000,-2.000000,17.000000,7.000000,11.000000
1299324.602067,-16.000000,-16.000000,25.000000,-9.000000,-4.000000,-22.000000,-4.000000,-14.000000
1299324.602117,-4.000000,-1.000000,0.000000,11.000000,5.000000,-5.000000,-5.000000,0.000000
1299324.608246,21.000000,13.000000,-26.000000,4.000000,1.000000,23.000000,6.000000,11.000000
1299324.608302,-13.000000,-21.000000,27.000000,-15.000000,-5.000000,-17.000000,-1.000000,-8.000000
1299324.624816,-8.000000,-5.000000,1.000000,-4.000000,1.000000,-11.000000,-5.000000,-7.000000
1299324.624847,19.000000,14.000000,-20.000000,3.000000,-5.000000,13.000000,2.000000,15.000000
1299324.638134,6.000000,-2.000000,-1.000000,-6.000000,8.000000,1.000000,6.000000,-2.000000
1299324.638163,-22.000000,-21.000000,20.000000,-11.000000,-3.000000,-24.000000,-9.000000,-14.000000
1299324.653279,9.000000,15.000000,-29.000000,6.000000,-5.000000,12.000000,-1.000000,7.000000
1299324.653334,10.000000,16.000000,-12.000000,3.000000,-2.000000,12.000000,6.000000,12.000000
1299324.676020,-18.000000,-20.000000,22.000000,-10.000000,-3.000000,-18.000000,-6.000000,-12.000000
1299324.676048,1.000000,2.000000,-8.000000,1.000000,-2.000000,-6.000000,-2.000000,-2.000000
1299324.690924,19.000000,19.000000,-19.000000,3.000000,-5.000000,25.000000,6.000000,10.000000
1299324.690970,-15.000000,-17.000000,23.000000,-11.000000,1.000000,-15.000000,-7.000000,-12.000000
1299324.712957,-9.000000,-7.000000,9.000000,-4.000000,2.000000,-20.000000,-14.000000,-14.000000
1299324.713011,16.000000,12.000000,-18.000000,2.000000,-4.000000,20.000000,3.000000,13.000000
1299324.723290,3.000000,-3.000000,5.000000,-7.000000,-3.000000,2.000000,3.000000,2.000000
1299324.723331,-22.000000,-26.000000,19.000000,-11.000000,-4.000000,-28.000000,-13.000000,-24.000000
1299324.723560,14.000000,15.000000,-32.000000,3.000000,0.000000,15.000000,-1.000000,8.000000
1299324.723959,11.000000,10.000000,-9.000000,-2.000000,4.000000,17.000000,8.000000,8.000000
1299324.725597,-18.000000,-22.000000,24.000000,-2.000000,1.000000,-22.000000,-6.000000,-17.000000
1299324.725631,-3.000000,9.000000,-9.000000,2.000000,-4.000000,-5.000000,-3.000000,-1.000000
1299324.726046,24.000000,12.000000,-21.000000,10.000000,0.000000,24.000000,12.000000,14.000000
1299324.726094,-15.000000,-24.000000,27.000000,-16.000000,0.000000,-19.000000,-4.000000,-14.000000
1299324.727812,-1.000000,-10.000000,4.000000,-3.000000,1.000000,3.000000,2.000000,2.000000
1299324.727864,-19.000000,-18.000000,15.000000,-10.000000,-8.000000,-27.000000,-9.000000,-14.000000
1299324.765590,15.000000,19.000000,-30.000000,15.000000,2.000000,12.000000,5.000000,12.000000
1299324.765644,15.000000,9.000000,-10.000000,-2.000000,-4.000000,8.000000,5.000000,7.000000
1299324.773579,-18.000000,-16.000000,19.000000,-6.000000,4.000000,-24.000000,-6.000000,-15.000000
1299324.773608,-1.000000,0.000000,-7.000000,4.000000,-8.000000,-1.000000,-4.000000,-1.000000
1299324.810738,19.000000,15.000000,-20.000000,7.000000,4.000000,22.000000,8.000000,12.000000
1299324.810932,-15.000000,-20.000000,21.000000,-6.000000,3.000000,-20.000000,-5.000000,-8.000000
1299324.825408,-10.000000,-3.000000,0.000000,-1.000000,-4.000000,-13.000000,-7.000000,-8.000000
1299324.825462,16.000000,15.000000,-26.000000,13.000000,6.000000,19.000000,5.000000,14.000000
1299324.841170,0.000000,-4.000000,16.000000,-5.000000,-1.000000,-5.000000,-1.000000,-1.000000
1299324.841202,-16.000000,-20.000000,19.000000,1.000000,2.000000,-22.000000,-8.000000,-14.000000
1299324.841930,17.000000,18.000000,-25.000000,5.000000,-3.000000,17.000000,2.000000,8.000000
1299324.841959,10.000000,7.000000,-7.000000,0.000000,-2.000000,13.000000,6.000000,7.000000
1299324.843693,4.000000,-4.000000,5.000000,0.000000,5.000000,0.000000,5.000000,-5.000000
1299324.843739,-17.000000,-23.000000,17.000000,-5.000000,-4.000000,-25.000000,-8.000000,-19.000000
1299324.845915,11.000000,20.000000,-22.000000,4.000000,-2.000000,16.000000,1.000000,9.000000
1299324.845980,12.000000,-1.000000,-9.000000,-7.000000,-2.000000,12.000000,7.000000,7.000000
1299324.847848,-19.000000,-17.000000,28.000000,-14.000000,-6.000000,-25.000000,-8.000000,-24.000000
1299324.847903,1.000000,2.000000,-10.000000,5.000000,-4.000000,6.000000,-1.000000,0.000000
1299324.878473,20.000000,17.000000,-23.000000,9.000000,-1.000000,22.000000,10.000000,12.000000
1299324.878512,-11.000000,-17.000000,27.000000,-7.000000,3.000000,-16.000000,-2.000000,-9.000000
1299324.885488,-17.000000,0.000000,1.000000,0.000000,1.000000,-10.000000,-8.000000,-8.000000
1299324.885542,23.000000,18.000000,-30.000000,15.000000,1.000000,23.000000,5.000000,20.000000
1299324.915381,-1.000000,-9.000000,8.000000,-3.000000,5.000000,2.000000,6.000000,2.000000
1299324.915436,-18.000000,-20.000000,19.000000,-6.000000,-2.000000,-24.000000,-9.000000,-19.000000
1299324.923005,13.000000,16.000000,-26.000000,4.000000,-5.000000,16.000000,4.000000,9.000000
1299324.923075,9.000000,3.000000,-6.000000,4.000000,2.000000,8.000000,4.000000,11.000000
1299324.953170,-19.000000,-21.000000,32.000000,-11.000000,-1.000000,-25.000000,-10.000000,-19.000000
1299324.953224,1.000000,2.000000,-11.000000,-3.000000,-1.000000,1.000000,-2.000000,2.000000
1299324.960487,21.000000,15.000000,-21.000000,7.000000,3.000000,25.000000,10.000000,8.000000
1299324.960526,-13.000000,-21.000000,25.000000,-7.000000,3.000000,-17.000000,-4.000000,-17.000000
1299324.976682,-6.000000,-9.000000,5.000000,2.000000,3.000000,-9.000000,-2.000000,-8.000000
1299324.976720,19.000000,26.000000,-31.000000,11.000000,2.000000,28.000000,7.000000,21.000000
1299324.990794,-4.000000,-4.000000,9.000000,-5.000000,-1.000000,-1.000000,0.000000,-2.000000
1299324.990847,-22.000000,-16.000000,16.000000,-14.000000,-2.000000,-28.000000,-4.000000,-15.000000
1299325.005558,-21.000000,-23.000000,33.000000,-13.000000,-2.000000,-25.000000,-11.000000,-16.000000
1299325.005587,0.000000,5.000000,-16.000000,3.000000,-6.000000,-3.000000,-1.000000,-2.000000
1299325.013328,-11.000000,-4.000000,-4.000000,-3.000000,1.000000,-13.000000,-7.000000,-10.000000
1299325.013391,18.000000,26.000000,-33.000000,8.000000,-3.000000,23.000000,9.000000,18.000000
1299325.043025,-4.000000,-5.000000,12.000000,-5.000000,1.000000,-8.000000,1.000000,-2.000000
1299325.043058,-17.000000,-18.000000,19.000000,-6.000000,1.000000,-24.000000,-4.000000,-11.000000
1299325.043931,13.000000,19.000000,-23.000000,9.000000,1.000000,20.000000,5.000000,12.000000
1299325.043981,6.000000,5.000000,2.000000,2.000000,-3.000000,5.000000,2.000000,7.000000
1299325.045766,15.000000,12.000000,-21.000000,4.000000,-7.000000,24.000000,9.000000,15.000000
1299325.046065,-11.000000,-13.000000,26.000000,-8.000000,3.000000,-20.000000,-6.000000,-12.000000
1299325.046772,-9.000000,-3.000000,0.000000,2.000000,3.000000,-12.000000,-3.000000,-10.000000
1299325.046820,20.000000,17.000000,-33.000000,13.000000,3.000000,26.000000,7.000000,14.000000
1299325.047166,-6.000000,-10.000000,14.000000,-13.000000,-1.000000,-9.000000,1.000000,-3.000000
1299325.047206,-20.000000,-13.000000,13.000000,-12.000000,-2.000000,-22.000000,-9.000000,-16.000000
1299325.050725,-23.000000,-23.000000,28.000000,-9.000000,-5.000000,-27.000000,-4.000000,-18.000000
1299325.050752,6.000000,10.000000,-14.000000,5.000000,-1.000000,7.000000,4.000000,-3.000000
1299325.082323,20.000000,16.000000,-19.000000,3.000000,2.000000,21.000000,5.000000,18.000000
1299325.082364,-25.000000,-18.000000,21.000000,-11.000000,-3.000000,-20.000000,-11.000000,-12.000000
1299325.082932,-6.000000,3.000000,-5.000000,-3.000000,2.000000,-9.000000,-9.000000,-7.000000
1299325.082961,26.000000,25.000000,-33.000000,10.000000,6.000000,26.000000,4.000000,19.000000
1299325.084431,-12.000000,-9.000000,15.000000,-9.000000,0.000000,-4.000000,-2.000000,-3.000000
1299325.084459,-13.000000,-9.000000,18.000000,-7.000000,-1.000000,-22.000000,-10.000000,-15.000000
1299325.103261,17.000000,21.000000,-32.000000,10.000000,-3.000000,25.000000,1.000000,10.000000
1299325.103288,1.000000,2.000000,3.000000,-5.000000,-3.000000,10.000000,5.000000,4.000000
1299325.125729,-17.000000,-22.000000,28.000000,-12.000000,-5.000000,-30.000000,-6.000000,-18.000000
1299325.125788,-3.000000,9.000000,-19.000000,5.000000,-4.000000,5.000000,-1.000000,6.000000
1299325.133263,13.000000,12.000000,-16.000000,5.000000,1.000000,26.000000,10.000000,16.000000
1299325.133291,-12.000000,-18.000000,24.000000,-15.000000,-4.000000,-17.000000,-3.000000,-10.000000
1299325.157029,-13.000000,-4.000000,-3.000000,1.000000,-1.000000,-7.000000,-7.000000,-8.000000
1299325.157069,24.000000,19.000000,-27.000000,7.000000,-4.000000,21.000000,7.000000,14.000000
1299325.157547,-2.000000,-13.000000,18.000000,-8.000000,1.000000,-12.000000,-2.000000,-2.000000
1299325.157573,-16.000000,-16.000000,14.000000,-7.000000,1.000000,-24.000000,-11.000000,-11.000000
1299325.159037,10.000000,16.000000,-27.000000,8.000000,1.000000,19.000000,9.000000,12.000000
1299325.159094,4.000000,0.000000,4.000000,-3.000000,-4.000000,3.000000,2.000000,3.000000
1299325.159488,-24.000000,-22.000000,20.000000,-12.000000,3.000000,-23.000000,-10.000000,-19.000000
1299325.159533,8.000000,10.000000,-18.000000,10.000000,-6.000000,6.000000,2.000000,8.000000
1299325.164382,16.000000,18.000000,-18.000000,4.000000,1.000000,21.000000,11.000000,18.000000
1299325.164435,-17.000000,-17.000000,26.000000,-9.000000,2.000000,-25.000000,-5.000000,-10.000000
1299325.170570,-11.000000,2.000000,-1.000000,-1.000000,-2.000000,-7.000000,-6.000000,-8.000000
1299325.170621,16.000000,18.000000,-27.000000,10.000000,2.000000,27.000000,6.000000,15.000000
1299325.193310,-4.000000,-20.000000,20.000000,-13.000000,-2.000000,-15.000000,0.000000,-15.000000
1299325.193647,-14.000000,-11.000000,14.000000,2.000000,-3.000000,-20.000000,-10.000000,-15.000000
1299325.194172,14.000000,14.000000,-24.000000,11.000000,-5.000000,19.000000,9.000000,7.000000
1299325.194196,14.000000,2.000000,-2.000000,0.000000,-7.000000,7.000000,5.000000,5.000000
1299325.208452,-23.000000,-20.000000,30.000000,-13.000000,-1.000000,-23.000000,-12.000000,-19.000000
1299325.208500,1.000000,14.000000,-21.000000,8.000000,-4.000000,6.000000,4.000000,2.000000
1299325.231230,15.000000,12.000000,-15.000000,3.000000,5.000000,24.000000,6.000000,13.000000
1299325.231277,-17.000000,-20.000000,23.000000,-11.000000,-1.000000,-23.000000,-9.000000,-17.000000
1299325.245690,-9.000000,-2.000000,-3.000000,-2.000000,0.000000,-7.000000,-5.000000,-3.000000
1299325.245746,21.000000,22.000000,-32.000000,7.000000,0.000000,28.000000,12.000000,18.000000
1299325.253174,-13.000000,-11.000000,32.000000,-12.000000,-6.000000,-11.000000,-2.000000,-8.000000
1299325.253204,-12.000000,-6.000000,14.000000,-1.000000,-4.000000,-23.000000,-11.000000,-12.000000
1299325.283203,16.000000,17.000000,-22.000000,7.000000,-1.000000,22.000000,6.000000,13.000000
1299325.283231,5.000000,3.000000,6.000000,-4.000000,-4.000000,10.000000,5.000000,0.000000
1299325.283646,-24.000000,-25.000000,17.000000,-11.000000,2.000000,-25.000000,-10.000000,-21.000000
1299325.283705,5.000000,11.000000,-24.000000,10.000000,-3.000000,9.000000,4.000000,9.000000
1299325.285686,13.000000,8.000000,-10.000000,0.000000,-1.000000,14.000000,6.000000,13.000000
1299325.285746,-16.000000,-15.000000,23.000000,-7.000000,0.000000,-25.000000,-12.000000,-13.000000
1299325.286159,-10.000000,1.000000,-3.000000,-1.000000,-3.000000,-7.000000,-8.000000,1.000000
1299325.286212,19.000000,16.000000,-25.000000,9.000000,0.000000,26.000000,9.000000,15.000000
1299325.291035,12.000000,19.000000,-23.000000,2.000000,0.000000,21.000000,5.000000,10.000000
1299325.291065,2.000000,-3.000000,5.000000,-6.000000,-2.000000,5.000000,0.000000,-2.000000
1299325.313472,-19.000000,-21.000000,20.000000,-12.000000,-1.000000,-27.000000,-11.000000,-18.000000
1299325.313525,6.000000,16.000000,-29.000000,8.000000,-4.000000,10.000000,0.000000,9.000000
1299325.314471,8.000000,8.000000,-7.000000,0.000000,2.000000,15.000000,7.000000,13.000000
1299325.314526,-7.000000,-19.000000,20.000000,-17.000000,0.000000,-19.000000,-9.000000,-12.000000
1299325.321525,-1.000000,-1.000000,-5.000000,2.000000,-2.000000,-1.000000,-8.000000,-12.000000
1299325.321574,16.000000,13.000000,-19.000000,5.000000,0.000000,23.000000,9.000000,17.000000
1299325.365611,-10.000000,-21.000000,19.000000,-14.000000,-1.000000,-20.000000,-7.000000,-12.000000
1299325.365659,-18.000000,-7.000000,4.000000,-1.000000,1.000000,-17.000000,-6.000000,-15.000000
1299325.396885,13.000000,18.000000,-23.000000,2.000000,-3.000000,17.000000,6.000000,12.000000
1299325.396932,2.000000,-6.000000,7.000000,-8.000000,3.000000,10.000000,1.000000,-6.000000
1299325.397776,-22.000000,-18.000000,24.000000,-9.000000,-4.000000,-25.000000,-12.000000,-17.000000
1299325.397824,9.000000,14.000000,-32.000000,11.000000,1.000000,10.000000,-1.000000,9.000000
1299325.399634,-3.000000,-1.000000,-8.000000,1.000000,-2.000000,-6.000000,-2.000000,-8.000000
1299325.399679,17.000000,21.000000,-25.000000,8.000000,2.000000,28.000000,6.000000,22.000000
1299325.399906,17.000000,12.000000,-13.000000,0.000000,-2.000000,18.000000,2.000000,8.000000
1299325.399950,-16.000000,-22.000000,22.000000,-12.000000,-6.000000,-24.000000,-5.000000,-15.000000
1299325.402898,-21.000000,-18.000000,21.000000,-13.000000,-1.000000,-25.000000,-10.000000,-14.000000
1299325.402958,7.000000,15.000000,-32.000000,11.000000,-5.000000,15.000000,3.000000,8.000000
1299325.410641,8.000000,17.000000,-13.000000,0.000000,1.000000,17.000000,4.000000,6.000000
1299325.410696,-20.000000,-17.000000,15.000000,-15.000000,6.000000,-23.000000,-7.000000,-12.000000
1299325.434630,-1.000000,2.000000,-8.000000,2.000000,-5.000000,-1.000000,-3.000000,-5.000000
1299325.434682,23.000000,11.000000,-28.000000,0.000000,-6.000000,26.000000,11.000000,10.000000
1299325.435155,-10.000000,-20.000000,22.000000,-6.000000,1.000000,-20.000000,-3.000000,-12.000000
1299325.435203,-18.000000,-5.000000,8.000000,-3.000000,-2.000000,-16.000000,-6.000000,-9.000000
1299325.441733,14.000000,18.000000,-26.000000,7.000000,0.000000,22.000000,5.000000,11.000000
1299325.441793,6.000000,-1.000000,1.000000,-6.000000,-3.000000,3.000000,2.000000,1.000000
1299325.456467,-22.000000,-18.000000,21.000000,-10.000000,-4.000000,-26.000000,-11.000000,-20.000000
1299325.456536,12.000000,17.000000,-27.000000,9.000000,-3.000000,14.000000,2.000000,8.000000
1299325.478357,14.000000,9.000000,-16.000000,5.000000,0.000000,11.000000,6.000000,8.000000
1299325.478425,-13.000000,-21.000000,19.000000,-7.000000,2.000000,-20.000000,-7.000000,-15.000000
1299325.485899,-3.000000,-2.000000,-8.000000,1.000000,-3.000000,-9.000000,-6.000000,1.000000
1299325.485940,15.000000,18.000000,-24.000000,4.000000,1.000000,23.000000,10.000000,13.000000
1299325.515593,-10.000000,-17.000000,24.000000,-15.000000,-3.000000,-18.000000,-4.000000,-10.000000
1299325.515643,-16.000000,-5.000000,0.000000,-3.000000,-1.000000,-16.000000,-7.000000,-9.000000
1299325.523365,14.000000,12.000000,-24.000000,7.000000,-6.000000,18.000000,3.000000,12.000000
1299325.523419,-2.000000,-7.000000,9.000000,-8.000000,-3.000000,1.000000,2.000000,1.000000
1299325.525521,-17.000000,-20.000000,24.000000,-5.000000,-5.000000,-26.000000,-10.000000,-19.000000
1299325.525566,11.000000,19.000000,-24.000000,10.000000,-7.000000,13.000000,3.000000,9.000000
1299325.530663,8.000000,7.000000,-10.000000,-3.000000,-5.000000,13.000000,7.000000,13.000000
1299325.530697,-16.000000,-18.000000,19.000000,-6.000000,1.000000,-21.000000,-7.000000,-17.000000
1299325.560906,-3.000000,3.000000,-10.000000,5.000000,4.000000,0.000000,-6.000000,0.000000
1299325.561127,17.000000,13.000000,-27.000000,7.000000,3.000000,25.000000,9.000000,18.000000
1299325.561834,-14.000000,-13.000000,22.000000,-14.000000,-3.000000,-20.000000,-2.000000,-11.000000
1299325.561883,-7.000000,-6.000000,9.000000,-1.000000,-1.000000,-11.000000,-7.000000,-8.000000
1299325.563327,18.000000,22.000000,-32.000000,11.000000,-1.000000,23.000000,10.000000,16.000000
1299325.563613,1.000000,-4.000000,2.000000,3.000000,3.000000,-1.000000,3.000000,4.000000
1299325.564068,-21.000000,-18.000000,18.000000,-5.000000,-4.000000,-20.000000,-11.000000,-20.000000
1299325.564119,9.000000,16.000000,-30.000000,5.000000,4.000000,19.000000,3.000000,12.000000
1299325.583197,-4.000000,9.000000,-9.000000,-3.000000,-3.000000,2.000000,-4.000000,-2.000000
1299325.583244,13.000000,12.000000,-18.000000,7.000000,-1.000000,26.000000,12.000000,14.000000
1299325.598693,-16.000000,-22.000000,25.000000,-5.000000,4.000000,-19.000000,-6.000000,-13.000000
1299325.598742,-9.000000,-11.000000,6.000000,1.000000,-7.000000,-12.000000,-9.000000,-9.000000
1299325.599793,14.000000,21.000000,-31.000000,2.000000,-7.000000,19.000000,6.000000,17.000000
1299325.599933,1.000000,-6.000000,8.000000,-5.000000,5.000000,-1.000000,2.000000,-2.000000
1299325.605237,-20.000000,-10.000000,19.000000,-9.000000,2.000000,-20.000000,-10.000000,-17.000000
1299325.605289,11.000000,11.000000,-21.000000,5.000000,1.000000,16.000000,2.000000,9.000000
1299325.612909,7.000000,4.000000,-8.000000,5.000000,2.000000,17.000000,9.000000,9.000000
1299325.612957,-24.000000,-27.000000,27.000000,-12.000000,-1.000000,-27.000000,-8.000000,-13.000000
1299325.635458,-4.000000,1.000000,-10.000000,-7.000000,0.000000,-2.000000,0.000000,-4.000000
1299325.635508,23.000000,14.000000,-16.000000,4.000000,-4.000000,21.000000,8.000000,17.000000
1299325.643256,-18.000000,-19.000000,20.000000,-8.000000,0.000000,-19.000000,-5.000000,-11.000000
1299325.643306,-13.000000,-6.000000,0.000000,-4.000000,-6.000000,-14.000000,-8.000000,-6.000000
1299325.673007,15.000000,18.000000,-27.000000,13.000000,1.000000,22.000000,6.000000,17.000000
1299325.673267,-3.000000,-3.000000,8.000000,-4.000000,3.000000,0.000000,-1.000000,-2.000000
1299325.680614,-23.000000,-17.000000,23.000000,-9.000000,3.000000,-26.000000,-11.000000,-14.000000
1299325.680660,13.000000,16.000000,-25.000000,12.000000,-2.000000,19.000000,4.000000,12.000000
1299325.710822,7.000000,3.000000,1.000000,-1.000000,-2.000000,6.000000,6.000000,2.000000
1299325.710909,-20.000000,-25.000000,32.000000,-12.000000,3.000000,-23.000000,-4.000000,-19.000000
1299325.717894,1.000000,2.000000,-14.000000,4.000000,-2.000000,0.000000,-1.000000,1.000000
1299325.717923,17.000000,16.000000,-18.000000,1.000000,-3.000000,25.000000,8.000000,11.000000
1299325.748200,-23.000000,-19.000000,23.000000,-10.000000,-2.000000,-13.000000,-8.000000,-12.000000
1299325.748251,-10.000000,6.000000,1.000000,2.000000,1.000000,-8.000000,-5.000000,-5.000000
1299325.755370,19.000000,17.000000,-30.000000,4.000000,-4.000000,24.000000,7.000000,17.000000
1299325.755653,-3.000000,-6.000000,12.000000,-7.000000,0.000000,-4.000000,2.000000,-9.000000
1299325.758549,2.000000,2.000000,-14.000000,5.000000,-5.000000,5.000000,-3.000000,4.000000
1299325.758828,23.000000,16.000000,-14.000000,12.000000,1.000000,22.000000,10.000000,14.000000
1299325.759572,-13.000000,-19.000000,22.000000,-12.000000,-1.000000,-21.000000,-7.000000,-14.000000
1299325.759623,-17.000000,-3.000000,-1.000000,1.000000,2.000000,-6.000000,-3.000000,-8.000000
1299325.759941,-20.000000,-16.000000,17.000000,-3.000000,1.000000,-24.000000,-10.000000,-19.000000
1299325.760002,10.000000,19.000000,-15.000000,12.000000,2.000000,20.000000,2.000000,12.000000
1299325.762935,10.000000,3.000000,2.000000,3.000000,1.000000,11.000000,4.000000,2.000000
1299325.762989,-22.000000,-28.000000,33.000000,-9.000000,-3.000000,-32.000000,-11.000000,-20.000000
1299325.770419,1.000000,7.000000,-20.000000,4.000000,-5.000000,3.000000,-2.000000,2.000000
1299325.770464,16.000000,15.000000,-18.000000,3.000000,-1.000000,20.000000,7.000000,11.000000
1299325.793070,-18.000000,-18.000000,22.000000,-12.000000,-2.000000,-20.000000,-6.000000,-13.000000
1299325.793305,-4.000000,-1.000000,-2.000000,0.000000,-2.000000,-9.000000,-3.000000,-10.000000
1299325.794005,17.000000,20.000000,-26.000000,7.000000,-1.000000,29.000000,7.000000,15.000000
1299325.794078,-7.000000,-11.000000,19.000000,-6.000000,2.000000,-11.000000,-4.000000,-6.000000
1299325.801473,-15.000000,-17.000000,12.000000,-8.000000,-3.000000,-25.000000,-14.000000,-16.000000
1299325.801499,16.000000,24.000000,-26.000000,10.000000,3.000000,21.000000,7.000000,15.000000
1299325.831209,4.000000,7.000000,-5.000000,1.000000,-1.000000,10.000000,8.000000,7.000000
1299325.831246,-21.000000,-17.000000,25.000000,-12.000000,1.000000,-24.000000,-9.000000,-15.000000
1299325.846132,3.000000,7.000000,-16.000000,0.000000,-2.000000,10.000000,0.000000,4.000000
1299325.846191,16.000000,9.000000,-16.000000,-1.000000,1.000000,13.000000,9.000000,10.000000
1299325.868139,-14.000000,-20.000000,25.000000,-12.000000,2.000000,-25.000000,-5.000000,-10.000000
1299325.868199,-11.000000,-4.000000,-7.000000,-3.000000,-3.000000,-6.000000,-9.000000,-5.000000
1299325.877649,17.000000,23.000000,-30.000000,5.000000,1.000000,23.000000,10.000000,15.000000
1299325.877681,-1.000000,-10.000000,15.000000,-5.000000,-2.000000,-8.000000,0.000000,-1.000000
1299325.878410,-15.000000,-14.000000,13.000000,-3.000000,-6.000000,-18.000000,-9.000000,-15.000000
1299325.878677,15.000000,20.000000,-30.000000,9.000000,2.000000,22.000000,7.000000,10.000000
1299325.879161,6.000000,-2.000000,-3.000000,-8.000000,2.000000,4.000000,5.000000,1.000000
1299325.879185,-21.000000,-22.000000,33.000000,-9.000000,-3.000000,-27.000000,-8.000000,-12.000000
1299325.879648,-1.000000,11.000000,-17.000000,6.000000,-1.000000,9.000000,3.000000,3.000000
1299325.879671,19.000000,11.000000,-13.000000,11.000000,1.000000,16.000000,6.000000,9.000000
1299325.883237,-17.000000,-19.000000,13.000000,-14.000000,2.000000,-22.000000,-6.000000,-8.000000
1299325.883266,-13.000000,4.000000,-7.000000,2.000000,2.000000,-3.000000,-8.000000,-10.000000
1299325.913502,22.000000,16.000000,-27.000000,11.000000,-4.000000,29.000000,6.000000,20.000000
1299325.913562,-4.000000,-12.000000,24.000000,-9.000000,-2.000000,-11.000000,-5.000000,-8.000000
1299325.915218,-11.000000,-8.000000,3.000000,2.000000,-1.000000,-22.000000,-7.000000,-13.000000
1299325.915275,17.000000,22.000000,-24.000000,5.000000,-6.000000,21.000000,5.000000,10.000000
1299325.915653,4.000000,1.000000,4.000000,0.000000,0.000000,4.000000,6.000000,4.000000
1299325.915678,-24.000000,-22.000000,22.000000,-9.000000,0.000000,-28.000000,-7.000000,-16.000000
1299325.921348,6.000000,6.000000,-16.000000,4.000000,0.000000,11.000000,3.000000,-1.000000
1299325.921402,12.000000,8.000000,-8.000000,-2.000000,-3.000000,17.000000,8.000000,11.000000
1299325.936154,-14.000000,-24.000000,25.000000,-9.000000,-1.000000,-26.000000,-10.000000,-13.000000
1299325.936211,-3.000000,-1.000000,-1.000000,-1.000000,-7.000000,-8.000000,-4.000000,-2.000000
1299325.958453,26.000000,21.000000,-24.000000,7.000000,2.000000,23.000000,9.000000,14.000000
1299325.958616,-10.000000,-17.000000,21.000000,-9.000000,-7.000000,-15.000000,-4.000000,-7.000000
1299325.965867,-15.000000,-10.000000,13.000000,-1.000000,-7.000000,-21.000000,-8.000000,-12.000000
1299325.966069,16.000000,19.000000,-28.000000,7.000000,0.000000,23.000000,5.000000,11.000000
1299325.988060,6.000000,0.000000,3.000000,-1.000000,3.000000,7.000000,1.000000,-1.000000
1299325.988293,-22.000000,-23.000000,22.000000,-8.000000,3.000000,-25.000000,-6.000000,-19.000000
1299325.988860,12.000000,17.000000,-24.000000,9.000000,-3.000000,9.000000,4.000000,5.000000
1299325.989178,17.000000,15.000000,-10.000000,5.000000,-1.000000,17.000000,7.000000,10.000000
1299325.990683,-21.000000,-23.000000,30.000000,-8.000000,-6.000000,-22.000000,-6.000000,-13.000000
1299325.990708,-3.000000,4.000000,-10.000000,3.000000,-2.000000,-2.000000,-6.000000,-1.000000
1299325.995727,17.000000,18.000000,-24.000000,7.000000,-7.000000,26.000000,8.000000,15.000000
1299325.995962,-8.000000,-22.000000,28.000000,-10.000000,1.000000,-15.000000,0.000000,-12.000000
1299326.003004,-25.000000,-9.000000,7.000000,-8.000000,-3.000000,-16.000000,-7.000000,-11.000000
1299326.003067,11.000000,10.000000,-25.000000,8.000000,-1.000000,20.000000,2.000000,10.000000
1299326.011214,0.000000,2.000000,4.000000,-1.000000,-5.000000,2.000000,4.000000,0.000000
1299326.011273,-21.000000,-24.000000,24.000000,-10.000000,-1.000000,-32.000000,-11.000000,-20.000000
1299326.027579,8.000000,12.000000,-31.000000,3.000000,1.000000,11.000000,3.000000,16.000000
1299326.027606,10.000000,6.000000,-14.000000,6.000000,-4.000000,17.000000,6.000000,19.000000
1299326.033203,-18.000000,-19.000000,23.000000,-5.000000,-3.000000,-20.000000,-6.000000,-17.000000
1299326.033233,-6.000000,-1.000000,-6.000000,0.000000,0.000000,-4.000000,-6.000000,-1.000000
1299326.055981,18.000000,12.000000,-21.000000,8.000000,-3.000000,19.000000,10.000000,16.000000
1299326.056009,-16.000000,-16.000000,22.000000,-11.000000,5.000000,-17.000000,-2.000000,-14.000000
1299326.063174,-13.000000,-9.000000,10.000000,-6.000000,-6.000000,-19.000000,-12.000000,-9.000000
1299326.063203,16.000000,11.000000,-23.000000,3.000000,-4.000000,13.000000,6.000000,19.000000
1299326.078254,-5.000000,-7.000000,4.000000,-12.000000,-1.000000,2.000000,-2.000000,2.000000
1299326.078305,-18.000000,-18.000000,24.000000,-7.000000,-1.000000,-27.000000,-12.000000,-15.000000
1299326.085807,8.000000,17.000000,-30.000000,6.000000,3.000000,17.000000,3.000000,11.000000
1299326.085859,13.000000,6.000000,-11.000000,6.000000,3.000000,13.000000,6.000000,6.000000
1299326.109367,-23.000000,-16.000000,26.000000,-11.000000,4.000000,-20.000000,-6.000000,-13.000000
1299326.109405,-4.000000,-3.000000,-4.000000,-3.000000,-6.000000,-2.000000,-3.000000,-3.000000
1299326.111604,19.000000,17.000000,-20.000000,3.000000,2.000000,26.000000,12.000000,15.000000
1299326.111658,-14.000000,-23.000000,20.000000,-10.000000,3.000000,-14.000000,-10.000000,-14.000000
1299326.111971,-17.000000,-8.000000,11.000000,-9.000000,1.000000,-26.000000,-11.000000,-14.000000
1299326.111991,16.000000,19.000000,-18.000000,8.000000,2.000000,26.000000,4.000000,10.000000
1299326.115561,2.000000,-11.000000,9.000000,-3.000000,-4.000000,3.000000,-1.000000,3.000000
1299326.115612,-19.000000,-19.000000,21.000000,-8.000000,-2.000000,-25.000000,-5.000000,-16.000000
1299326.123313,10.000000,15.000000,-29.000000,8.000000,-3.000000,13.000000,7.000000,12.000000
1299326.123358,11.000000,7.000000,-8.000000,2.000000,-3.000000,14.000000,2.000000,5.000000
1299326.146115,-15.000000,-20.000000,19.000000,-5.000000,1.000000,-16.000000,-6.000000,-13.000000
1299326.146178,-13.000000,1.000000,-9.000000,-4.000000,0.000000,-1.000000,1.000000,-1.000000
1299326.147566,21.000000,14.000000,-27.000000,10.000000,-6.000000,22.000000,7.000000,15.000000
1299326.147608,-9.000000,-15.000000,22.000000,-13.000000,-10.000000,-19.000000,-7.000000,-15.000000
1299326.153159,-17.000000,-7.000000,4.000000,-8.000000,-3.000000,-14.000000,-5.000000,-11.000000
1299326.153187,20.000000,11.000000,-22.000000,11.000000,-1.000000,20.000000,11.000000,21.000000
1299326.191009,0.000000,0.000000,3.000000,-6.000000,1.000000,1.000000,5.000000,-3.000000
1299326.191041,-21.000000,-18.000000,16.000000,-4.000000,1.000000,-24.000000,-11.000000,-19.000000
1299326.198258,13.000000,18.000000,-32.000000,6.000000,1.000000,16.000000,3.000000,10.000000
1299326.198282,9.000000,3.000000,-4.000000,2.000000,-5.000000,16.000000,5.000000,5.000000
1299326.228174,-12.000000,-17.000000,13.000000,-8.000000,3.000000,-21.000000,-8.000000,-14.000000
1299326.228229,-8.000000,1.000000,-4.000000,8.000000,0.000000,-4.000000,-1.000000,-2.000000
1299326.242958,11.000000,15.000000,-20.000000,3.000000,1.000000,20.000000,2.000000,14.000000
1299326.243012,-10.000000,-21.000000,26.000000,-13.000000,0.000000,-18.000000,-4.000000,-19.000000
1299326.265504,-12.000000,-10.000000,8.000000,4.000000,-1.000000,-13.000000,-8.000000,-8.000000
1299326.265774,18.000000,18.000000,-18.000000,7.000000,-8.000000,19.000000,8.000000,10.000000
1299326.266646,0.000000,2.000000,7.000000,-1.000000,3.000000,2.000000,0.000000,0.000000
1299326.266689,-20.000000,-13.000000,19.000000,-9.000000,-4.000000,-27.000000,-7.000000,-18.000000
1299326.267695,-12.000000,-10.000000,1.000000,-3.000000,4.000000,-14.000000,-6.000000,-13.000000
1299326.268158,18.000000,14.000000,-21.000000,6.000000,-3.000000,21.000000,9.000000,13.000000
1299326.268807,16.000000,15.000000,-22.000000,10.000000,-2.000000,23.000000,3.000000,9.000000
1299326.269033,10.000000,8.000000,-7.000000,-5.000000,-7.000000,13.000000,7.000000,8.000000
1299326.269652,0.000000,-10.000000,16.000000,-8.000000,1.000000,2.000000,-1.000000,1.000000
1299326.269695,-20.000000,-14.000000,20.000000,-8.000000,-3.000000,-21.000000,-7.000000,-16.000000
1299326.273150,15.000000,14.000000,-29.000000,7.000000,-4.000000,17.000000,3.000000,6.000000
1299326.273288,10.000000,8.000000,-6.000000,6.000000,-1.000000,14.000000,3.000000,13.000000
1299326.303368,-19.000000,-21.000000,29.000000,-18.000000,-6.000000,-24.000000,-13.000000,-15.000000
1299326.303426,0.000000,5.000000,-10.000000,2.000000,1.000000,2.000000,-1.000000,-1.000000
1299326.310704,15.000000,10.000000,-18.000000,7.000000,-4.000000,20.000000,7.000000,13.000000
1299326.310756,-14.000000,-15.000000,25.000000,-16.000000,2.000000,-17.000000,-12.000000,-11.000000
1299326.340857,-9.000000,-1.000000,1.000000,3.000000,-6.000000,-16.000000,-8.000000,-9.000000
1299326.341126,17.000000,19.000000,-22.000000,12.000000,0.000000,22.000000,4.000000,18.000000
1299326.341759,-2.000000,-3.000000,5.000000,-3.000000,0.000000,-8.000000,0.000000,-6.000000
1299326.341827,-19.000000,-20.000000,17.000000,-5.000000,-2.000000,-24.000000,-8.000000,-13.000000
1299326.342933,13.000000,11.000000,-25.000000,7.000000,-1.000000,18.000000,4.000000,7.000000
1299326.343287,10.000000,5.000000,-3.000000,4.000000,-7.000000,7.000000,10.000000,5.000000
1299326.343809,-15.000000,-19.000000,25.000000,-13.000000,3.000000,-22.000000,-8.000000,-15.000000
1299326.343858,-5.000000,1.000000,-6.000000,-3.000000,3.000000,2.000000,-2.000000,6.000000
1299326.355111,20.000000,18.000000,-29.000000,5.000000,4.000000,23.000000,6.000000,11.000000
1299326.355137,-11.000000,-17.000000,22.000000,-8.000000,0.000000,-12.000000,-5.000000,-12.000000
1299326.355974,-11.000000,-6.000000,4.000000,-4.000000,-6.000000,-11.000000,-9.000000,-5.000000
1299326.356023,20.000000,24.000000,-27.000000,9.000000,-1.000000,24.000000,5.000000,16.000000
1299326.385745,-2.000000,-7.000000,6.000000,-12.000000,1.000000,-1.000000,-4.000000,-1.000000
1299326.385795,-20.000000,-14.000000,20.000000,-9.000000,-3.000000,-24.000000,-8.000000,-14.000000
1299326.387312,14.000000,15.000000,-25.000000,7.000000,3.000000,13.000000,1.000000,7.000000
1299326.387424,10.000000,2.000000,-6.000000,-4.000000,6.000000,7.000000,8.000000,4.000000
1299326.387981,-15.000000,-27.000000,35.000000,-10.000000,-1.000000,-28.000000,-7.000000,-21.000000
1299326.388022,-4.000000,4.000000,-12.000000,3.000000,2.000000,4.000000,-3.000000,0.000000
1299326.392932,20.000000,19.000000,-20.000000,5.000000,-1.000000,19.000000,9.000000,14.000000
1299326.392984,-15.000000,-17.000000,24.000000,-2.000000,3.000000,-20.000000,-5.000000,-14.000000
1299326.424028,-6.000000,-1.000000,1.000000,-8.000000,1.000000,-8.000000,-1.000000,-5.000000
1299326.424082,25.000000,19.000000,-33.000000,8.000000,0.000000,27.000000,7.000000,18.000000
1299326.430754,0.000000,-10.000000,5.000000,-8.000000,2.000000,-5.000000,-3.000000,2.000000
1299326.430804,-20.000000,-15.000000,11.000000,-7.000000,4.000000,-17.000000,-8.000000,-13.000000
1299326.452992,16.000000,18.000000,-28.000000,3.000000,-4.000000,16.000000,7.000000,6.000000
1299326.453020,9.000000,7.000000,-5.000000,6.000000,7.000000,8.000000,0.000000,8.000000
1299326.468897,-20.000000,-24.000000,28.000000,-19.000000,3.000000,-29.000000,-7.000000,-16.000000
1299326.469256,-1.000000,7.000000,-10.000000,2.000000,2.000000,-3.000000,-5.000000,1.000000
1299326.471436,18.000000,15.000000,-14.000000,3.000000,4.000000,23.000000,5.000000,17.000000
1299326.471493,-20.000000,-23.000000,27.000000,-11.000000,0.000000,-19.000000,-4.000000,-13.000000
1299326.472004,-11.000000,-7.000000,1.000000,-4.000000,-5.000000,-6.000000,-9.000000,-4.000000
1299326.472134,20.000000,17.000000,-28.000000,7.000000,-4.000000,25.000000,9.000000,14.000000
1299326.473520,-7.000000,-13.000000,13.000000,-7.000000,3.000000,-5.000000,-3.000000,-4.000000
1299326.473552,-20.000000,-11.000000,12.000000,-7.000000,-3.000000,-14.000000,-6.000000,-16.000000
1299326.476044,9.000000,14.000000,-21.000000,4.000000,-4.000000,19.000000,0.000000,11.000000
1299326.476257,7.000000,6.000000,3.000000,-2.000000,0.000000,7.000000,4.000000,2.000000
1299326.505693,-19.000000,-23.000000,27.000000,-13.000000,1.000000,-23.000000,-9.000000,-20.000000
1299326.506070,-1.000000,11.000000,-14.000000,3.000000,1.000000,6.000000,1.000000,3.000000
1299326.507271,17.000000,19.000000,-22.000000,5.000000,0.000000,13.000000,5.000000,11.000000
1299326.507647,-11.000000,-19.000000,22.000000,-5.000000,-1.000000,-19.000000,-8.000000,-14.000000
1299326.508487,-10.000000,-6.000000,4.000000,0.000000,-3.000000,-9.000000,-9.000000,-7.000000
1299326.508513,20.000000,27.000000,-27.000000,10.000000,-11.000000,21.000000,6.000000,11.000000
1299326.512912,-8.000000,-9.000000,18.000000,-7.000000,7.000000,-14.000000,-1.000000,-7.000000
1299326.513037,-16.000000,-13.000000,12.000000,-7.000000,-1.000000,-16.000000,-10.000000,-13.000000
1299326.528137,14.000000,12.000000,-22.000000,10.000000,4.000000,19.000000,5.000000,11.000000
1299326.528193,6.000000,0.000000,-1.000000,-2.000000,-4.000000,6.000000,1.000000,7.000000
1299326.543049,-23.000000,-23.000000,26.000000,-13.000000,-2.000000,-27.000000,-8.000000,-14.000000
1299326.543074,2.000000,5.000000,-21.000000,4.000000,3.000000,4.000000,0.000000,-1.000000
1299326.565672,18.000000,13.000000,-13.000000,3.000000,3.000000,20.000000,2.000000,11.000000
1299326.565717,-16.000000,-14.000000,19.000000,-7.000000,0.000000,-19.000000,-7.000000,-17.000000
1299326.580367,-10.000000,1.000000,5.000000,-3.000000,-5.000000,-10.000000,-1.000000,-3.000000
1299326.580695,17.000000,23.000000,-24.000000,5.000000,-3.000000,21.000000,7.000000,20.000000
1299326.582448,-5.000000,-15.000000,17.000000,-10.000000,1.000000,-9.000000,0.000000,-3.000000
1299326.582757,-13.000000,-17.000000,10.000000,1.000000,5.000000,-23.000000,-6.000000,-18.000000
1299326.583005,9.000000,12.000000,-22.000000,-3.000000,-6.000000,18.000000,5.000000,11.000000
1299326.583053,13.000000,0.000000,-2.000000,-1.000000,2.000000,8.000000,1.000000,5.000000
1299326.587845,-23.000000,-23.000000,28.000000,-10.000000,-4.000000,-28.000000,-12.000000,-16.000000
1299326.587895,6.000000,5.000000,-13.000000,13.000000,-3.000000,3.000000,1.000000,-3.000000
1299326.595623,18.000000,10.000000,-17.000000,-4.000000,2.000000,19.000000,7.000000,8.000000
1299326.596030,-17.000000,-18.000000,17.000000,-10.000000,-4.000000,-22.000000,-7.000000,-8.000000
1299326.603008,-7.000000,-1.000000,2.000000,-2.000000,-10.000000,-9.000000,-6.000000,-8.000000
1299326.603031,18.000000,14.000000,-20.000000,5.000000,-7.000000,23.000000,6.000000,15.000000
1299326.618041,-8.000000,-14.000000,16.000000,-3.000000,3.000000,-6.000000,-4.000000,-6.000000
1299326.618246,-9.000000,-11.000000,6.000000,2.000000,1.000000,-20.000000,-6.000000,-9.000000
1299326.625506,12.000000,14.000000,-21.000000,10.000000,-3.000000,18.000000,5.000000,12.000000
1299326.625530,10.000000,2.000000,1.000000,-5.000000,5.000000,7.000000,6.000000,3.000000
1299326.632884,-22.000000,-23.000000,23.000000,-6.000000,4.000000,-24.000000,-8.000000,-20.000000
1299326.632909,5.000000,18.000000,-20.000000,7.000000,-4.000000,7.000000,3.000000,7.000000
1299326.656053,15.000000,8.000000,-10.000000,-1.000000,1.000000,17.000000,5.000000,7.000000
1299326.656155,-16.000000,-15.000000,22.000000,-6.000000,-3.000000,-26.000000,-5.000000,-13.000000
1299326.662991,-9.000000,-5.000000,-7.000000,-1.000000,-1.000000,-5.000000,-6.000000,-9.000000
1299326.663040,22.000000,19.000000,-25.000000,-2.000000,-3.000000,26.000000,6.000000,16.000000
1299326.677976,-3.000000,-9.000000,22.000000,-5.000000,1.000000,-13.000000,-3.000000,-2.000000
1299326.678025,-14.000000,-10.000000,7.000000,-8.000000,-8.000000,-15.000000,-10.000000,-12.000000
1299326.700686,14.000000,19.000000,-19.000000,7.000000,-5.000000,17.000000,7.000000,15.000000
1299326.700737,1.000000,-3.000000,4.000000,-4.000000,2.000000,5.000000,7.000000,7.000000
1299326.708939,-26.000000,-24.000000,21.000000,-12.000000,2.000000,-21.000000,-10.000000,-17.000000
1299326.709134,3.000000,6.000000,-25.000000,3.000000,-3.000000,5.000000,1.000000,6.000000
1299326.709412,14.000000,13.000000,-1.000000,5.000000,6.000000,11.000000,5.000000,5.000000
1299326.709460,-16.000000,-19.000000,20.000000,-8.000000,-2.000000,-22.000000,-6.000000,-10.000000
1299326.710580,0.000000,4.000000,-8.000000,0.000000,4.000000,-4.000000,-6.000000,-3.000000
1299326.710622,19.000000,14.000000,-30.000000,10.000000,1.000000,18.000000,10.000000,12.000000
1299326.715278,-13.000000,-17.000000,25.000000,-7.000000,3.000000,-12.000000,0.000000,-16.000000
1299326.715332,-14.000000,-5.000000,12.000000,-10.000000,-3.000000,-13.000000,-9.000000,-13.000000
1299326.745930,10.000000,11.000000,-22.000000,5.000000,4.000000,19.000000,2.000000,10.000000
1299326.746274,-1.000000,4.000000,11.000000,2.000000,-3.000000,2.000000,1.000000,0.000000
1299326.746891,-20.000000,-20.000000,27.000000,-5.000000,-4.000000,-25.000000,-11.000000,-14.000000
1299326.746947,11.000000,15.000000,-24.000000,-1.000000,-3.000000,6.000000,0.000000,7.000000
1299326.747934,11.000000,8.000000,-12.000000,3.000000,1.000000,10.000000,4.000000,6.000000
1299326.747981,-13.000000,-15.000000,20.000000,-8.000000,3.000000,-18.000000,-6.000000,-16.000000
1299326.752782,-4.000000,-1.000000,-5.000000,-1.000000,-4.000000,-6.000000,-4.000000,-11.000000
1299326.752833,19.000000,14.000000,-15.000000,9.000000,-3.000000,22.000000,4.000000,13.000000
1299326.783051,-8.000000,-19.000000,26.000000,-11.000000,6.000000,-12.000000,-7.000000,-9.000000
1299326.783180,-14.000000,-10.000000,2.000000,-8.000000,-1.000000,-16.000000,-5.000000,-12.000000
1299326.791029,17.000000,13.000000,-18.000000,6.000000,-5.000000,14.000000,3.000000,12.000000
1299326.791077,6.000000,-5.000000,3.000000,-4.000000,0.000000,7.000000,6.000000,1.000000
1299326.805681,-20.000000,-11.000000,26.000000,-11.000000,3.000000,-32.000000,-8.000000,-12.000000
1299326.805711,10.000000,12.000000,-25.000000,12.000000,4.000000,11.000000,-1.000000,8.000000
1299326.820381,10.000000,11.000000,-12.000000,3.000000,2.000000,16.000000,6.000000,12.000000
1299326.820408,-17.000000,-28.000000,14.000000,-6.000000,-2.000000,-20.000000,-9.000000,-13.000000
1299326.835710,-5.000000,-4.000000,-3.000000,-4.000000,-4.000000,-3.000000,1.000000,0.000000
1299326.835739,22.000000,12.000000,-25.000000,4.000000,-3.000000,25.000000,7.000000,8.000000
1299326.843299,-16.000000,-18.000000,23.000000,-8.000000,-3.000000,-15.000000,-6.000000,-5.000000
1299326.843324,-16.000000,-12.000000,14.000000,-8.000000,-1.000000,-15.000000,-6.000000,-11.000000
1299326.865155,21.000000,12.000000,-22.000000,6.000000,0.000000,20.000000,8.000000,13.000000
1299326.865232,3.000000,-2.000000,4.000000,-2.000000,1.000000,-3.000000,0.000000,2.000000
1299326.866207,-21.000000,-17.000000,20.000000,-12.000000,-3.000000,-24.000000,-8.000000,-18.000000
1299326.866233,6.000000,19.000000,-28.000000,5.000000,1.000000,14.000000,0.000000,7.000000
1299326.867685,14.000000,9.000000,-11.000000,4.000000,1.000000,15.000000,10.000000,10.000000
1299326.867703,-10.000000,-16.000000,17.000000,-12.000000,-1.000000,-19.000000,-9.000000,-11.000000
1299326.868814,-5.000000,1.000000,-1.000000,1.000000,-6.000000,-4.000000,-5.000000,-2.000000
1299326.868928,17.000000,15.000000,-20.000000,8.000000,4.000000,23.000000,6.000000,14.000000
1299326.872757,13.000000,12.000000,-18.000000,2.000000,2.000000,23.000000,2.000000,16.000000
1299326.872805,2.000000,-2.000000,1.000000,-5.000000,3.000000,2.000000,4.000000,-2.000000
1299326.903346,-20.000000,-17.000000,18.000000,-12.000000,-4.000000,-27.000000,-14.000000,-14.000000
1299326.903375,12.000000,21.000000,-17.000000,9.000000,-2.000000,16.000000,6.000000,10.000000
1299326.910693,7.000000,6.000000,-7.000000,0.000000,0.000000,15.000000,7.000000,9.000000
1299326.910718,-20.000000,-16.000000,20.000000,-9.000000,-3.000000,-21.000000,-6.000000,-17.000000
1299326.940676,-3.000000,2.000000,-2.000000,2.000000,4.000000,-4.000000,-2.000000,-1.000000
1299326.940727,19.000000,12.000000,-16.000000,6.000000,0.000000,20.000000,11.000000,13.000000
1299326.955986,-12.000000,-21.000000,21.000000,-7.000000,-4.000000,-20.000000,-7.000000,-10.000000
1299326.956016,-12.000000,-7.000000,11.000000,-9.000000,3.000000,-14.000000,-6.000000,-13.000000
1299326.978186,20.000000,19.000000,-18.000000,8.000000,-1.000000,22.000000,5.000000,14.000000
1299326.978245,1.000000,-3.000000,0.000000,-9.000000,0.000000,4.000000,5.000000,1.000000
1299326.985673,-21.000000,-15.000000,17.000000,-8.000000,-3.000000,-17.000000,-7.000000,-14.000000
1299326.985719,10.000000,16.000000,-30.000000,12.000000,3.000000,19.000000,6.000000,15.000000
1299326.992937,9.000000,7.000000,-5.000000,-4.000000,3.000000,11.000000,3.000000,11.000000
1299326.992993,-18.000000,-10.000000,23.000000,-10.000000,-6.000000,-23.000000,-8.000000,-18.000000
1299327.000625,-12.000000,-18.000000,22.000000,-8.000000,-3.000000,-13.000000,-1.000000,-13.000000
1299327.000681,-11.000000,-11.000000,2.000000,-6.000000,-1.000000,-8.000000,-6.000000,-10.000000
1299327.023303,13.000000,18.000000,-20.000000,7.000000,-2.000000,23.000000,5.000000,17.000000
1299327.023331,-4.000000,-12.000000,2.000000,-6.000000,0.000000,0.000000,1.000000,0.000000
1299327.037861,13.000000,5.000000,-7.000000,2.000000,-1.000000,4.000000,1.000000,10.000000
1299327.037885,-15.000000,-17.000000,19.000000,-11.000000,-2.000000,-21.000000,-11.000000,-12.000000
1299327.046211,-5.000000,1.000000,-7.000000,9.000000,-7.000000,-4.000000,0.000000,-3.000000
1299327.046257,18.000000,7.000000,-25.000000,2.000000,-2.000000,24.000000,8.000000,16.000000
1299327.061110,-9.000000,-16.000000,25.000000,-6.000000,1.000000,-13.000000,2.000000,-15.000000
1299327.061166,-9.000000,-9.000000,2.000000,-7.000000,-2.000000,-13.000000,-9.000000,-6.000000
1299327.062791,13.000000,5.000000,-9.000000,2.000000,0.000000,8.000000,6.000000,10.000000
1299327.062821,-21.000000,-16.000000,21.000000,-11.000000,2.000000,-21.000000,-6.000000,-15.000000
1299327.064149,-1.000000,7.000000,-15.000000,-2.000000,-1.000000,2.000000,-3.000000,0.000000
1299327.064191,12.000000,9.000000,-17.000000,7.000000,-3.000000,20.000000,9.000000,13.000000
1299327.075600,-20.000000,-16.000000,23.000000,-3.000000,-9.000000,-24.000000,-9.000000,-9.000000
1299327.075657,-10.000000,-8.000000,0.000000,0.000000,2.000000,-14.000000,-7.000000,-11.000000
1299327.099241,15.000000,24.000000,-30.000000,15.000000,-3.000000,20.000000,6.000000,15.000000
1299327.099507,0.000000,-8.000000,13.000000,-5.000000,-5.000000,-4.000000,-2.000000,-1.000000
1299327.099745,-14.000000,-19.000000,9.000000,-8.000000,1.000000,-23.000000,-8.000000,-13.000000
1299327.099779,6.000000,15.000000,-27.000000,4.000000,1.000000,17.000000,5.000000,7.000000
1299327.100912,6.000000,1.000000,-4.000000,0.000000,2.000000,6.000000,1.000000,4.000000
1299327.100936,-19.000000,-20.000000,30.000000,-10.000000,-3.000000,-23.000000,-9.000000,-16.000000
1299327.105237,-3.000000,4.000000,-8.000000,4.000000,6.000000,1.000000,-1.000000,-4.000000
1299327.105262,15.000000,18.000000,-21.000000,6.000000,6.000000,25.000000,5.000000,9.000000
1299327.135564,-13.000000,-16.000000,23.000000,-7.000000,-3.000000,-16.000000,-5.000000,-12.000000
1299327.135620,-7.000000,-5.000000,-2.000000,0.000000,-6.000000,-11.000000,-7.000000,-1.000000
1299327.143318,20.000000,23.000000,-28.000000,15.000000,-4.000000,24.000000,9.000000,17.000000
1299327.143355,-1.000000,-10.000000,3.000000,-10.000000,-1.000000,-4.000000,-3.000000,-2.000000
1299327.158139,-15.000000,-10.000000,11.000000,-2.000000,0.000000,-19.000000,-6.000000,-20.000000
1299327.158197,12.000000,17.000000,-26.000000,8.000000,0.000000,17.000000,9.000000,12.000000
1299327.165527,6.000000,3.000000,2.000000,-2.000000,3.000000,7.000000,6.000000,5.000000
1299327.165552,-26.000000,-28.000000,31.000000,-9.000000,3.000000,-25.000000,-8.000000,-13.000000
1299327.173676,-2.000000,11.000000,-13.000000,2.000000,-1.000000,3.000000,-1.000000,3.000000
1299327.173720,16.000000,15.000000,-24.000000,11.000000,-3.000000,23.000000,10.000000,12.000000
1299327.180286,-12.000000,-15.000000,22.000000,-5.000000,4.000000,-12.000000,-5.000000,-12.000000
1299327.180320,-10.000000,-13.000000,1.000000,2.000000,-4.000000,-12.000000,-8.000000,-3.000000
1299327.188097,21.000000,20.000000,-29.000000,7.000000,-5.000000,22.000000,10.000000,16.000000
1299327.188360,-3.000000,-7.000000,14.000000,-10.000000,-7.000000,-10.000000,2.000000,-1.000000
1299327.188977,-19.000000,-14.000000,18.000000,-10.000000,-6.000000,-20.000000,-10.000000,-13.000000
1299327.189024,15.000000,17.000000,-28.000000,8.000000,-7.000000,17.000000,3.000000,12.000000
1299327.218526,9.000000,-4.000000,-4.000000,-7.000000,2.000000,5.000000,4.000000,5.000000
1299327.218741,-22.000000,-21.000000,35.000000,-16.000000,1.000000,-25.000000,-3.000000,-15.000000
1299327.218990,7.000000,8.000000,-9.000000,8.000000,-2.000000,1.000000,-3.000000,-1.000000
1299327.219013,18.000000,11.000000,-23.000000,3.000000,4.000000,24.000000,3.000000,12.000000
1299327.220161,-19.000000,-18.000000,23.000000,-3.000000,-1.000000,-18.000000,-4.000000,-8.000000
1299327.220218,-3.000000,4.000000,2.000000,0.000000,-7.000000,-14.000000,-4.000000,-4.000000
1299327.225468,17.000000,24.000000,-33.000000,11.000000,0.000000,30.000000,10.000000,18.000000
1299327.225519,-1.000000,-15.000000,16.000000,-9.000000,0.000000,-4.000000,-3.000000,-6.000000
1299327.270542,-22.000000,-11.000000,11.000000,-3.000000,-10.000000,-18.000000,-13.000000,-18.000000
1299327.270570,15.000000,13.000000,-18.000000,12.000000,-1.000000,15.000000,2.000000,12.000000
1299327.300671,6.000000,0.000000,2.000000,-8.000000,1.000000,7.000000,0.000000,7.000000
1299327.300709,-27.000000,-21.000000,23.000000,-12.000000,2.000000,-26.000000,-10.000000,-18.000000
1299327.302014,-1.000000,3.000000,-15.000000,4.000000,1.000000,5.000000,0.000000,0.000000
1299327.302054,17.000000,10.000000,-17.000000,13.000000,-1.000000,17.000000,6.000000,17.000000
1299327.303563,-11.000000,-17.000000,26.000000,-9.000000,3.000000,-18.000000,-6.000000,-12.000000
1299327.303599,-9.000000,-8.000000,-2.000000,-4.000000,1.000000,-12.000000,-10.000000,-8.000000
1299327.305062,-10.000000,-7.000000,11.000000,1.000000,-1.000000,-18.000000,-6.000000,-15.000000
1299327.305091,11.000000,12.000000,-20.000000,3.000000,-3.000000,19.000000,5.000000,5.000000
1299327.305392,23.000000,14.000000,-28.000000,11.000000,-4.000000,28.000000,7.000000,12.000000
1299327.305515,-7.000000,-10.000000,11.000000,0.000000,-2.000000,-8.000000,1.000000,-9.000000
1299327.308175,9.000000,9.000000,-15.000000,12.000000,-2.000000,5.000000,-1.000000,3.000000
1299327.308226,11.000000,8.000000,-9.000000,-3.000000,-3.000000,20.000000,4.000000,10.000000
1299327.340312,-18.000000,-18.000000,21.000000,-12.000000,0.000000,-17.000000,-6.000000,-13.000000
1299327.340337,-5.000000,0.000000,0.000000,0.000000,0.000000,-4.000000,3.000000,-5.000000
1299327.341216,17.000000,20.000000,-24.000000,14.000000,2.000000,22.000000,4.000000,16.000000
1299327.341239,-3.000000,-14.000000,20.000000,-11.000000,-1.000000,-10.000000,0.000000,-7.000000
1299327.341819,-18.000000,-13.000000,11.000000,-11.000000,-4.000000,-21.000000,-5.000000,-13.000000
1299327.341944,18.000000,14.000000,-30.000000,10.000000,4.000000,18.000000,7.000000,13.000000
1299327.345730,7.000000,-1.000000,1.000000,3.000000,4.000000,5.000000,3.000000,3.000000
1299327.345840,-18.000000,-17.000000,28.000000,-9.000000,4.000000,-22.000000,-11.000000,-19.000000
1299327.375562,-2.000000,10.000000,-23.000000,8.000000,-1.000000,10.000000,0.000000,3.000000
1299327.375612,13.000000,2.000000,-11.000000,2.000000,-7.000000,17.000000,7.000000,9.000000
1299327.382900,-17.000000,-17.000000,16.000000,-9.000000,1.000000,-14.000000,-2.000000,-17.000000
1299327.382951,-4.000000,4.000000,-8.000000,-2.000000,-9.000000,-7.000000,-6.000000,-3.000000
1299327.413327,25.000000,23.000000,-28.000000,12.000000,-3.000000,28.000000,5.000000,16.000000
1299327.413812,-9.000000,-13.000000,16.000000,-10.000000,-1.000000,-9.000000,-1.000000,-6.000000
1299327.415369,-14.000000,-14.000000,9.000000,-5.000000,-3.000000,-20.000000,-10.000000,-15.000000
1299327.415486,13.000000,17.000000,-19.000000,7.000000,-7.000000,22.000000,5.000000,9.000000
1299327.416942,2.000000,-3.000000,0.000000,6.000000,-7.000000,2.000000,1.000000,5.000000
1299327.417061,-20.000000,-23.000000,23.000000,-15.000000,-2.000000,-25.000000,-13.000000,-18.000000
1299327.417402,5.000000,16.000000,-29.000000,8.000000,-3.000000,11.000000,2.000000,9.000000
1299327.417444,17.000000,10.000000,-19.000000,4.000000,0.000000,15.000000,4.000000,9.000000
1299327.422146,-13.000000,-16.000000,23.000000,-9.000000,-1.000000,-22.000000,-10.000000,-14.000000
1299327.422203,-12.000000,-3.000000,-6.000000,4.000000,-6.000000,-7.000000,-4.000000,-8.000000
1299327.427988,20.000000,15.000000,-23.000000,4.000000,-1.000000,21.000000,7.000000,17.000000
1299327.428034,-13.000000,-16.000000,28.000000,-10.000000,-4.000000,-12.000000,0.000000,-11.000000
1299327.451241,-11.000000,-5.000000,1.000000,-10.000000,-1.000000,-13.000000,-7.000000,-8.000000
1299327.451305,14.000000,13.000000,-21.000000,6.000000,4.000000,21.000000,4.000000,4.000000
1299327.458869,1.000000,-1.000000,11.000000,2.000000,1.000000,5.000000,2.000000,-4.000000
1299327.458935,-17.000000,-19.000000,25.000000,-6.000000,-2.000000,-27.000000,-10.000000,-18.000000
1299327.480622,11.000000,16.000000,-26.000000,7.000000,3.000000,13.000000,4.000000,12.000000
1299327.480650,13.000000,5.000000,-8.000000,-1.000000,0.000000,14.000000,6.000000,3.000000
1299327.488192,-21.000000,-24.000000,15.000000,-7.000000,-2.000000,-20.000000,-9.000000,-15.000000
1299327.488247,-7.000000,-3.000000,0.000000,-3.000000,-12.000000,-5.000000,-8.000000,-8.000000
1299327.510699,21.000000,16.000000,-19.000000,6.000000,-1.000000,22.000000,7.000000,16.000000
1299327.510725,-7.000000,-19.000000,20.000000,-13.000000,-1.000000,-20.000000,-2.000000,-8.000000
1299327.525575,-16.000000,-9.000000,6.000000,-5.000000,2.000000,-16.000000,-6.000000,-10.000000
1299327.525624,13.000000,14.000000,-20.000000,5.000000,0.000000,22.000000,4.000000,13.000000
1299327.541206,5.000000,-1.000000,5.000000,-4.000000,1.000000,-1.000000,2.000000,1.000000
1299327.541235,-23.000000,-16.000000,20.000000,-10.000000,-6.000000,-20.000000,-7.000000,-17.000000
1299327.541625,12.000000,14.000000,-34.000000,9.000000,-1.000000,8.000000,1.000000,10.000000
1299327.541678,13.000000,5.000000,-8.000000,2.000000,3.000000,15.000000,7.000000,12.000000
1299327.543437,17.000000,18.000000,-23.000000,3.000000,1.000000,21.000000,6.000000,12.000000
1299327.543539,-10.000000,-17.000000,18.000000,-10.000000,3.000000,-14.000000,-6.000000,-8.000000
1299327.543889,-13.000000,-18.000000,16.000000,-15.000000,-5.000000,-25.000000,-4.000000,-15.000000
1299327.543943,-11.000000,2.000000,-7.000000,-2.000000,5.000000,1.000000,-2.000000,-3.000000
1299327.547769,4.000000,-2.000000,-1.000000,-3.000000,2.000000,4.000000,3.000000,0.000000
1299327.547819,-20.000000,-19.000000,16.000000,-12.000000,2.000000,-24.000000,-9.000000,-16.000000
1299327.563716,12.000000,21.000000,-25.000000,6.000000,-4.000000,15.000000,1.000000,9.000000
1299327.563760,10.000000,5.000000,-3.000000,-2.000000,2.000000,14.000000,6.000000,9.000000
1299327.578141,-22.000000,-16.000000,22.000000,-7.000000,0.000000,-18.000000,-7.000000,-12.000000
1299327.578190,-8.000000,0.000000,-3.000000,-2.000000,1.000000,-8.000000,-6.000000,-2.000000
1299327.600582,14.000000,10.000000,-15.000000,6.000000,-5.000000,21.000000,8.000000,10.000000
1299327.600716,-18.000000,-21.000000,32.000000,-13.000000,5.000000,-15.000000,-1.000000,-8.000000
1299327.607792,-15.000000,-4.000000,4.000000,-2.000000,-2.000000,-10.000000,-4.000000,-12.000000
1299327.607841,13.000000,16.000000,-18.000000,9.000000,-2.000000,12.000000,3.000000,12.000000
1299327.623098,3.000000,-1.000000,2.000000,3.000000,1.000000,1.000000,3.000000,4.000000
1299327.623149,-23.000000,-16.000000,20.000000,-3.000000,3.000000,-25.000000,-7.000000,-13.000000
1299327.630669,12.000000,2.000000,-28.000000,1.000000,-1.000000,16.000000,5.000000,10.000000
1299327.630696,9.000000,12.000000,-11.000000,2.000000,3.000000,12.000000,9.000000,9.000000
1299327.653404,-12.000000,-14.000000,15.000000,-6.000000,2.000000,-19.000000,-5.000000,-13.000000
1299327.653885,-4.000000,2.000000,1.000000,-2.000000,3.000000,-9.000000,1.000000,-2.000000
1299327.655246,18.000000,16.000000,-23.000000,5.000000,-6.000000,19.000000,8.000000,12.000000
1299327.655296,-19.000000,-19.000000,25.000000,-10.000000,1.000000,-17.000000,-8.000000,-12.000000
1299327.655702,-16.000000,-14.000000,14.000000,-7.000000,-5.000000,-15.000000,-9.000000,-10.000000
1299327.655741,20.000000,11.000000,-20.000000,8.000000,-4.000000,26.000000,7.000000,10.000000
1299327.656250,-3.000000,-8.000000,5.000000,-2.000000,5.000000,1.000000,2.000000,-1.000000
1299327.656281,-20.000000,-20.000000,19.000000,-8.000000,2.000000,-24.000000,-8.000000,-17.000000
1299327.661802,9.000000,17.000000,-19.000000,5.000000,-7.000000,19.000000,-3.000000,8.000000
1299327.661846,8.000000,0.000000,-3.000000,2.000000,-2.000000,13.000000,7.000000,12.000000
1299327.668097,-16.000000,-17.000000,15.000000,-11.000000,3.000000,-23.000000,-5.000000,-19.000000
1299327.668152,-8.000000,-3.000000,-2.000000,3.000000,-4.000000,-2.000000,-2.000000,-3.000000
1299327.690704,16.000000,15.000000,-19.000000,7.000000,1.000000,17.000000,4.000000,10.000000
1299327.691093,-17.000000,-18.000000,17.000000,2.000000,-2.000000,-21.000000,0.000000,-9.000000
1299327.691743,-9.000000,-8.000000,4.000000,0.000000,-3.000000,-9.000000,-7.000000,-8.000000
1299327.691768,15.000000,17.000000,-24.000000,8.000000,3.000000,21.000000,5.000000,6.000000
1299327.705834,2.000000,-6.000000,8.000000,2.000000,1.000000,0.000000,3.000000,0.000000
1299327.705918,-20.000000,-20.000000,19.000000,-4.000000,-3.000000,-17.000000,-10.000000,-13.000000
1299327.713247,12.000000,12.000000,-21.000000,9.000000,-2.000000,10.000000,4.000000,12.000000
1299327.713284,12.000000,7.000000,-4.000000,1.000000,3.000000,10.000000,6.000000,6.000000
1299327.727774,-13.000000,-14.000000,29.000000,-8.000000,-3.000000,-26.000000,-13.000000,-15.000000
1299327.727801,-2.000000,-1.000000,-14.000000,-2.000000,0.000000,1.000000,-4.000000,-1.000000
1299327.735897,19.000000,16.000000,-27.000000,1.000000,2.000000,20.000000,13.000000,15.000000
1299327.735927,-18.000000,-17.000000,21.000000,-4.000000,3.000000,-17.000000,-7.000000,-15.000000
1299327.750498,-10.000000,-5.000000,3.000000,0.000000,-3.000000,-13.000000,-7.000000,-11.000000
1299327.750548,20.000000,14.000000,-28.000000,6.000000,-10.000000,21.000000,10.000000,18.000000
1299327.757966,-6.000000,-6.000000,10.000000,1.000000,-9.000000,-3.000000,4.000000,1.000000
1299327.758012,-15.000000,-16.000000,12.000000,-4.000000,5.000000,-24.000000,-9.000000,-12.000000
1299327.766935,9.000000,13.000000,-22.000000,8.000000,-3.000000,20.000000,2.000000,4.000000
1299327.766973,8.000000,10.000000,-2.000000,3.000000,2.000000,11.000000,8.000000,5.000000
1299327.767380,-17.000000,-24.000000,30.000000,-13.000000,-3.000000,-24.000000,-8.000000,-17.000000
1299327.767402,1.000000,6.000000,-6.000000,3.000000,-3.000000,1.000000,0.000000,2.000000
1299327.781615,18.000000,14.000000,-19.000000,1.000000,-6.000000,20.000000,6.000000,14.000000
1299327.781663,-16.000000,-17.000000,25.000000,-9.000000,-2.000000,-28.000000,-9.000000,-12.000000
1299327.787780,-15.000000,0.000000,-2.000000,2.000000,-4.000000,-13.000000,-8.000000,-9.000000
1299327.787826,21.000000,18.000000,-30.000000,12.000000,6.000000,22.000000,9.000000,17.000000
1299327.811329,2.000000,-2.000000,14.000000,-5.000000,5.000000,-1.000000,0.000000,0.000000
1299327.811375,-15.000000,-17.000000,11.000000,-2.000000,1.000000,-20.000000,-6.000000,-16.000000
1299327.817813,9.000000,17.000000,-22.000000,5.000000,-2.000000,21.000000,7.000000,8.000000
1299327.817864,10.000000,12.000000,-14.000000,4.000000,0.000000,6.000000,8.000000,9.000000
1299327.855669,-20.000000,-26.000000,24.000000,-10.000000,0.000000,-27.000000,-8.000000,-15.000000
1299327.855821,-3.000000,0.000000,-14.000000,4.000000,-4.000000,0.000000,3.000000,0.000000
1299327.862967,20.000000,21.000000,-15.000000,6.000000,-8.000000,18.000000,2.000000,16.000000
1299327.863018,-21.000000,-18.000000,19.000000,-11.000000,-2.000000,-20.000000,-3.000000,-10.000000
1299327.894634,-8.000000,-1.000000,3.000000,5.000000,0.000000,-10.000000,-5.000000,-5.000000
1299327.894853,20.000000,21.000000,-28.000000,4.000000,-9.000000,32.000000,4.000000,21.000000
1299327.895141,-5.000000,-3.000000,11.000000,0.000000,-2.000000,-1.000000,0.000000,-1.000000
1299327.895366,-18.000000,-15.000000,21.000000,-2.000000,-4.000000,-23.000000,-10.000000,-14.000000
1299327.896668,13.000000,19.000000,-28.000000,5.000000,-3.000000,21.000000,1.000000,12.000000
1299327.896695,11.000000,0.000000,-4.000000,-6.000000,-3.000000,11.000000,1.000000,9.000000
1299327.897066,-25.000000,-20.000000,23.000000,-15.000000,0.000000,-25.000000,-8.000000,-19.000000
1299327.897118,4.000000,8.000000,-14.000000,2.000000,3.000000,4.000000,1.000000,2.000000
1299327.901074,-5.000000,-8.000000,14.000000,-9.000000,0.000000,-5.000000,0.000000,-4.000000
1299327.901098,-18.000000,-16.000000,17.000000,-1.000000,4.000000,-23.000000,-7.000000,-15.000000
1299327.907771,19.000000,20.000000,-27.000000,14.000000,5.000000,18.000000,1.000000,10.000000
1299327.907796,7.000000,8.000000,-2.000000,3.000000,-2.000000,10.000000,2.000000,6.000000
1299327.930399,-27.000000,-28.000000,30.000000,-12.000000,6.000000,-30.000000,-8.000000,-14.000000
1299327.930610,4.000000,-1.000000,-12.000000,-2.000000,-5.000000,8.000000,-1.000000,5.000000
1299327.931135,15.000000,16.000000,-13.000000,6.000000,3.000000,20.000000,5.000000,14.000000
1299327.931182,-7.000000,-10.000000,15.000000,-9.000000,4.000000,-21.000000,-5.000000,-11.000000
1299327.945722,-12.000000,-4.000000,-2.000000,-5.000000,-1.000000,-8.000000,-7.000000,-7.000000
1299327.945777,20.000000,21.000000,-29.000000,3.000000,-2.000000,20.000000,6.000000,15.000000
1299327.952903,-5.000000,-8.000000,14.000000,-3.000000,-3.000000,-9.000000,0.000000,-5.000000
1299327.952959,-13.000000,-19.000000,18.000000,-6.000000,2.000000,-21.000000,-5.000000,-7.000000
1299327.975446,14.000000,16.000000,-23.000000,5.000000,-7.000000,18.000000,5.000000,4.000000
1299327.975494,5.000000,4.000000,0.000000,-6.000000,8.000000,5.000000,4.000000,4.000000
1299327.983039,-21.000000,-20.000000,26.000000,-9.000000,7.000000,-24.000000,-10.000000,-15.000000
1299327.983083,8.000000,8.000000,-22.000000,4.000000,-7.000000,12.000000,1.000000,3.000000
1299327.984540,18.000000,9.000000,-19.000000,9.000000,-1.000000,21.000000,7.000000,14.000000
1299327.984588,-13.000000,-20.000000,23.000000,-11.000000,5.000000,-17.000000,-4.000000,-7.000000
1299327.990607,-7.000000,-3.000000,-2.000000,0.000000,-2.000000,-10.000000,-2.000000,-9.000000
1299327.990657,18.000000,19.000000,-31.000000,12.000000,-7.000000,22.000000,10.000000,15.000000
1299328.006820,-8.000000,-8.000000,12.000000,-13.000000,0.000000,-5.000000,-3.000000,1.000000
1299328.006849,-15.000000,-15.000000,8.000000,1.000000,-5.000000,-14.000000,-8.000000,-17.000000
1299328.013066,19.000000,21.000000,-28.000000,7.000000,5.000000,19.000000,9.000000,14.000000
1299328.013103,11.000000,0.000000,4.000000,-2.000000,-2.000000,6.000000,-1.000000,1.000000
1299328.028871,-21.000000,-23.000000,20.000000,-5.000000,-5.000000,-23.000000,-8.000000,-19.000000
1299328.028899,3.000000,12.000000,-24.000000,3.000000,-3.000000,8.000000,4.000000,2.000000
1299328.029103,19.000000,7.000000,-10.000000,2.000000,-8.000000,21.000000,6.000000,8.000000
1299328.029123,-12.000000,-18.000000,21.000000,-6.000000,-7.000000,-19.000000,-10.000000,-15.000000
1299328.058093,-3.000000,4.000000,-9.000000,-1.000000,2.000000,-7.000000,-2.000000,-6.000000
1299328.058139,20.000000,17.000000,-27.000000,10.000000,-4.000000,25.000000,10.000000,10.000000
1299328.065673,-6.000000,-15.000000,20.000000,-9.000000,2.000000,-13.000000,-4.000000,-7.000000
1299328.065697,-19.000000,-12.000000,9.000000,-9.000000,1.000000,-22.000000,-10.000000,-10.000000
1299328.088097,16.000000,18.000000,-23.000000,10.000000,-10.000000,21.000000,9.000000,10.000000
1299328.088125,7.000000,-2.000000,0.000000,-2.000000,-2.000000,2.000000,1.000000,5.000000
1299328.095575,-17.000000,-27.000000,23.000000,-5.000000,0.000000,-28.000000,-12.000000,-15.000000
1299328.095601,8.000000,12.000000,-21.000000,8.000000,2.000000,5.000000,-1.000000,0.000000
1299328.118164,16.000000,8.000000,-17.000000,1.000000,2.000000,13.000000,3.000000,11.000000
1299328.118193,-15.000000,-16.000000,30.000000,-14.000000,-1.000000,-21.000000,-7.000000,-14.000000
1299328.133110,-8.000000,-5.000000,-7.000000,2.000000,0.000000,-9.000000,-1.000000,-4.000000
1299328.133144,22.000000,17.000000,-35.000000,7.000000,3.000000,24.000000,7.000000,14.000000
1299328.170585,-2.000000,-14.000000,24.000000,-6.000000,-4.000000,-7.000000,-1.000000,-9.000000
1299328.170638,-18.000000,-15.000000,8.000000,1.000000,-4.000000,-20.000000,-8.000000,-14.000000
1299328.178048,13.000000,19.000000,-21.000000,-3.000000,-3.000000,20.000000,-1.000000,13.000000
1299328.178086,1.000000,5.000000,0.000000,-1.000000,3.000000,1.000000,5.000000,2.000000
1299328.208102,-23.000000,-27.000000,26.000000,-9.000000,-11.000000,-27.000000,-13.000000,-19.000000
1299328.208128,8.000000,8.000000,-24.000000,4.000000,-2.000000,10.000000,4.000000,4.000000
1299328.215479,16.000000,12.000000,-5.000000,4.000000,1.000000,12.000000,4.000000,8.000000
1299328.215534,-14.000000,-19.000000,15.000000,-12.000000,5.000000,-20.000000,-6.000000,-16.000000
1299328.223013,-9.000000,-17.000000,20.000000,-14.000000,-1.000000,-18.000000,-3.000000,-11.000000
1299328.223070,-16.000000,-12.000000,3.000000,-4.000000,3.000000,-17.000000,-11.000000,-12.000000
1299328.246021,1.000000,0.000000,-11.000000,4.000000,-5.000000,-1.000000,0.000000,0.000000
1299328.246065,17.000000,21.000000,-26.000000,7.000000,4.000000,26.000000,10.000000,16.000000
1299328.275953,-13.000000,-14.000000,25.000000,-9.000000,-3.000000,-17.000000,-4.000000,-14.000000
1299328.276002,-13.000000,-9.000000,8.000000,-12.000000,1.000000,-18.000000,-4.000000,-7.000000
1299328.276554,-24.000000,-23.000000,24.000000,-11.000000,-7.000000,-30.000000,-14.000000,-16.000000
1299328.276615,8.000000,15.000000,-31.000000,5.000000,-3.000000,10.000000,2.000000,7.000000
1299328.284380,12.000000,4.000000,-10.000000,5.000000,-3.000000,16.000000,4.000000,15.000000
1299328.284448,-16.000000,-20.000000,21.000000,-10.000000,-2.000000,-20.000000,-10.000000,-14.000000
1299328.285395,-9.000000,-14.000000,26.000000,-11.000000,1.000000,-12.000000,-3.000000,-7.000000
1299328.285714,-12.000000,-12.000000,8.000000,-6.000000,-1.000000,-13.000000,-6.000000,-12.000000
1299328.286108,-17.000000,-16.000000,14.000000,-5.000000,0.000000,-24.000000,-14.000000,-14.000000
1299328.286132,9.000000,14.000000,-16.000000,10.000000,-7.000000,12.000000,2.000000,6.000000
1299328.290751,13.000000,7.000000,-10.000000,5.000000,-4.000000,17.000000,6.000000,5.000000
1299328.290809,-16.000000,-14.000000,19.000000,-11.000000,1.000000,-22.000000,-8.000000,-14.000000
1299328.320831,-5.000000,2.000000,-9.000000,3.000000,-1.000000,-6.000000,-3.000000,-6.000000
1299328.320889,19.000000,20.000000,-23.000000,4.000000,-3.000000,20.000000,5.000000,15.000000
1299328.335682,-15.000000,-19.000000,31.000000,-14.000000,1.000000,-16.000000,-4.000000,-12.000000
1299328.335709,-12.000000,-12.000000,11.000000,-6.000000,-2.000000,-14.000000,-9.000000,-10.000000
1299328.343251,20.000000,19.000000,-22.000000,6.000000,0.000000,14.000000,1.000000,10.000000
1299328.343301,0.000000,-7.000000,2.000000,-1.000000,0.000000,-1.000000,-1.000000,1.000000
1299328.367795,16.000000,4.000000,-12.000000,9.000000,-2.000000,15.000000,4.000000,9.000000
1299328.367827,-16.000000,-13.000000,17.000000,-10.000000,0.000000,-20.000000,-6.000000,-10.000000
1299328.370075,-20.000000,-18.000000,25.000000,-15.000000,-11.000000,-19.000000,-6.000000,-9.000000
1299328.370266,-15.000000,-7.000000,0.000000,-4.000000,2.000000,-14.000000,-7.000000,-10.000000
1299328.370527,-5.000000,0.000000,-7.000000,-2.000000,-6.000000,-3.000000,-7.000000,-1.000000
1299328.370580,18.000000,16.000000,-17.000000,5.000000,1.000000,20.000000,10.000000,14.000000
1299328.371619,-23.000000,-23.000000,22.000000,-10.000000,-3.000000,-26.000000,-12.000000,-15.000000
1299328.371686,16.000000,19.000000,-23.000000,10.000000,-6.000000,12.000000,3.000000,10.000000
1299328.373592,-20.000000,-17.000000,23.000000,-7.000000,-2.000000,-25.000000,-13.000000,-11.000000
1299328.373645,11.000000,21.000000,-30.000000,17.000000,-7.000000,19.000000,4.000000,8.000000
1299328.380808,10.000000,2.000000,-16.000000,-4.000000,0.000000,16.000000,5.000000,8.000000
1299328.380833,-17.000000,-10.000000,23.000000,-12.000000,-1.000000,-26.000000,-6.000000,-14.000000
1299328.410008,-4.000000,-4.000000,-6.000000,1.000000,-5.000000,-1.000000,-5.000000,-3.000000
1299328.410027,20.000000,15.000000,-13.000000,2.000000,0.000000,19.000000,9.000000,12.000000
1299328.425029,-12.000000,-16.000000,18.000000,-8.000000,0.000000,-14.000000,-7.000000,-7.000000
1299328.425048,-12.000000,-7.000000,8.000000,-6.000000,-5.000000,-13.000000,-7.000000,-11.000000
1299328.432970,19.000000,16.000000,-25.000000,15.000000,0.000000,17.000000,9.000000,10.000000
1299328.433008,5.000000,3.000000,4.000000,-1.000000,-2.000000,-3.000000,1.000000,-1.000000
1299328.455311,-19.000000,-9.000000,15.000000,-13.000000,1.000000,-24.000000,-11.000000,-12.000000
1299328.455347,13.000000,15.000000,-24.000000,4.000000,-4.000000,17.000000,2.000000,10.000000
1299328.463074,13.000000,6.000000,-4.000000,8.000000,1.000000,15.000000,6.000000,5.000000
1299328.463179,-20.000000,-16.000000,21.000000,-6.000000,-1.000000,-25.000000,-8.000000,-20.000000
1299328.485066,1.000000,4.000000,-16.000000,-1.000000,6.000000,-4.000000,-1.000000,-1.000000
1299328.485256,14.000000,16.000000,-15.000000,14.000000,6.000000,27.000000,8.000000,16.000000
1299328.485763,-14.000000,-17.000000,21.000000,-7.000000,-3.000000,-18.000000,-9.000000,-15.000000
1299328.485795,-10.000000,-2.000000,0.000000,-4.000000,1.000000,-8.000000,-8.000000,-9.000000
1299328.487127,21.000000,25.000000,-29.000000,15.000000,-6.000000,19.000000,6.000000,17.000000
1299328.487146,1.000000,-4.000000,13.000000,-5.000000,3.000000,-2.000000,4.000000,-4.000000
1299328.487850,-19.000000,-15.000000,16.000000,-10.000000,-2.000000,-24.000000,-6.000000,-19.000000
1299328.487872,13.000000,19.000000,-19.000000,13.000000,-2.000000,18.000000,8.000000,10.000000
1299328.492514,2.000000,6.000000,-9.000000,1.000000,1.000000,0.000000,-3.000000,4.000000
1299328.492533,18.000000,13.000000,-20.000000,10.000000,1.000000,23.000000,4.000000,7.000000
1299328.500644,-13.000000,-22.000000,26.000000,-7.000000,-3.000000,-20.000000,-3.000000,-11.000000
1299328.500662,-14.000000,-7.000000,9.000000,0.000000,-1.000000,-10.000000,-8.000000,-10.000000
1299328.507644,23.000000,18.000000,-25.000000,8.000000,-4.000000,23.000000,7.000000,17.000000
1299328.507672,-1.000000,-5.000000,10.000000,-5.000000,-1.000000,-3.000000,-3.000000,-1.000000
1299328.530322,-17.000000,-14.000000,18.000000,-12.000000,-5.000000,-21.000000,-10.000000,-15.000000
1299328.530343,6.000000,13.000000,-20.000000,6.000000,1.000000,14.000000,0.000000,3.000000
1299328.537852,8.000000,2.000000,-4.000000,4.000000,-3.000000,8.000000,8.000000,7.000000
1299328.537871,-18.000000,-15.000000,28.000000,-7.000000,3.000000,-23.000000,-7.000000,-14.000000
1299328.559731,-7.000000,0.000000,-15.000000,-1.000000,-2.000000,-3.000000,-2.000000,-4.000000
1299328.559745,21.000000,20.000000,-13.000000,7.000000,-4.000000,19.000000,10.000000,20.000000
1299328.566971,-14.000000,-17.000000,21.000000,-14.000000,-5.000000,-22.000000,-7.000000,-11.000000
1299328.566983,-17.000000,-10.000000,1.000000,-5.000000,0.000000,-14.000000,-5.000000,-14.000000
1299328.597200,17.000000,24.000000,-36.000000,10.000000,5.000000,25.000000,2.000000,18.000000
1299328.597213,-4.000000,-13.000000,12.000000,3.000000,-7.000000,-4.000000,-3.000000,-2.000000
1299328.604482,-28.000000,-21.000000,19.000000,-5.000000,0.000000,-23.000000,-11.000000,-21.000000
1299328.604494,15.000000,18.000000,-23.000000,2.000000,-7.000000,23.000000,1.000000,7.000000
1299328.605854,9.000000,1.000000,2.000000,-6.000000,1.000000,8.000000,6.000000,8.000000
1299328.605877,-26.000000,-26.000000,36.000000,-12.000000,3.000000,-23.000000,-8.000000,-20.000000
1299328.606361,-1.000000,5.000000,-14.000000,4.000000,-1.000000,6.000000,-3.000000,0.000000
1299328.606373,13.000000,16.000000,-21.000000,8.000000,0.000000,20.000000,2.000000,12.000000
1299328.607808,-18.000000,-14.000000,29.000000,-2.000000,-3.000000,-18.000000,-7.000000,-12.000000
1299328.607830,-8.000000,-2.000000,-1.000000,-4.000000,-2.000000,-11.000000,-4.000000,-2.000000
1299328.612097,17.000000,20.000000,-32.000000,15.000000,0.000000,27.000000,6.000000,17.000000
1299328.612119,0.000000,-9.000000,15.000000,-1.000000,-5.000000,-7.000000,2.000000,-1.000000
1299328.620308,-18.000000,-20.000000,18.000000,-8.000000,-6.000000,-21.000000,-10.000000,-15.000000
1299328.620332,16.000000,20.000000,-28.000000,7.000000,1.000000,19.000000,0.000000,13.000000
1299328.642245,2.000000,4.000000,0.000000,-1.000000,-2.000000,7.000000,4.000000,6.000000
1299328.642258,-22.000000,-23.000000,28.000000,-12.000000,-8.000000,-24.000000,-6.000000,-20.000000
1299328.657138,2.000000,10.000000,-15.000000,4.000000,0.000000,5.000000,1.000000,3.000000
1299328.657161,18.000000,9.000000,-19.000000,7.000000,-1.000000,26.000000,9.000000,14.000000
1299328.672878,-16.000000,-23.000000,22.000000,-6.000000,-2.000000,-22.000000,-6.000000,-11.000000
1299328.672918,-6.000000,-2.000000,1.000000,1.000000,-3.000000,-10.000000,-4.000000,-7.000000
1299328.695758,21.000000,19.000000,-27.000000,15.000000,-5.000000,21.000000,11.000000,15.000000
1299328.695786,1.000000,-7.000000,12.000000,-3.000000,1.000000,-4.000000,2.000000,1.000000
1299328.710840,-21.000000,-15.000000,15.000000,-14.000000,-1.000000,-20.000000,-8.000000,-14.000000
1299328.710880,13.000000,18.000000,-25.000000,1.000000,-7.000000,16.000000,3.000000,15.000000
1299328.732934,7.000000,5.000000,5.000000,5.000000,-7.000000,9.000000,4.000000,4.000000
1299328.732988,-23.000000,-24.000000,32.000000,-8.000000,-1.000000,-30.000000,-11.000000,-22.000000
1299328.740777,6.000000,3.000000,-20.000000,6.000000,-7.000000,7.000000,1.000000,3.000000
1299328.740807,18.000000,15.000000,-16.000000,12.000000,0.000000,19.000000,8.000000,12.000000
1299328.763133,-14.000000,-19.000000,25.000000,-3.000000,-2.000000,-13.000000,-11.000000,-14.000000
1299328.763201,-7.000000,-7.000000,2.000000,1.000000,4.000000,-9.000000,-7.000000,-6.000000
1299328.770697,29.000000,22.000000,-31.000000,12.000000,-1.000000,30.000000,5.000000,16.000000
1299328.770774,-5.000000,-16.000000,14.000000,-8.000000,2.000000,-10.000000,-3.000000,-6.000000
1299328.800615,5.000000,12.000000,-17.000000,9.000000,2.000000,3.000000,4.000000,2.000000
1299328.800659,15.000000,10.000000,-8.000000,7.000000,-7.000000,24.000000,10.000000,18.000000
1299328.808014,-17.000000,-14.000000,29.000000,-7.000000,-6.000000,-29.000000,-8.000000,-10.000000
1299328.808062,-10.000000,1.000000,-1.000000,-6.000000,-1.000000,-3.000000,-10.000000,-6.000000
1299328.838131,14.000000,20.000000,-23.000000,6.000000,-3.000000,21.000000,3.000000,11.000000
1299328.838158,-6.000000,-15.000000,22.000000,-4.000000,4.000000,-10.000000,1.000000,-6.000000
1299328.846486,9.000000,14.000000,-28.000000,9.000000,-1.000000,9.000000,1.000000,1.000000
1299328.846910,19.000000,12.000000,-11.000000,3.000000,4.000000,14.000000,9.000000,9.000000
1299328.848441,-20.000000,-13.000000,10.000000,-7.000000,1.000000,-15.000000,-6.000000,-14.000000
1299328.848492,19.000000,17.000000,-30.000000,5.000000,-7.000000,17.000000,5.000000,9.000000
1299328.849381,1.000000,-3.000000,2.000000,-1.000000,-2.000000,9.000000,5.000000,8.000000
1299328.849428,-21.000000,-19.000000,31.000000,-12.000000,-4.000000,-29.000000,-9.000000,-19.000000
1299328.853127,-15.000000,-20.000000,27.000000,-8.000000,0.000000,-25.000000,-6.000000,-14.000000
1299328.853412,-8.000000,-7.000000,0.000000,-1.000000,-7.000000,-6.000000,-6.000000,-6.000000
1299328.867841,16.000000,15.000000,-28.000000,4.000000,-4.000000,22.000000,8.000000,17.000000
1299328.867890,-8.000000,-20.000000,22.000000,-11.000000,3.000000,-13.000000,-1.000000,-10.000000
1299328.876117,-18.000000,-6.000000,9.000000,-5.000000,-1.000000,-19.000000,-12.000000,-12.000000
1299328.876171,16.000000,20.000000,-24.000000,8.000000,1.000000,23.000000,9.000000,12.000000
1299328.883089,5.000000,3.000000,5.000000,-3.000000,-2.000000,6.000000,5.000000,1.000000
1299328.883116,-27.000000,-17.000000,28.000000,-7.000000,3.000000,-26.000000,-8.000000,-16.000000
1299328.890928,4.000000,18.000000,-28.000000,9.000000,-1.000000,13.000000,2.000000,3.000000
1299328.891062,15.000000,6.000000,-13.000000,3.000000,4.000000,21.000000,6.000000,13.000000
1299328.920624,-11.000000,-16.000000,19.000000,-1.000000,-4.000000,-19.000000,-6.000000,-12.000000
1299328.920673,-6.000000,-2.000000,-8.000000,-1.000000,-10.000000,-2.000000,-4.000000,-2.000000
1299328.928097,22.000000,16.000000,-25.000000,10.000000,-1.000000,25.000000,10.000000,15.000000
1299328.928326,-7.000000,-12.000000,30.000000,-9.000000,2.000000,-12.000000,-4.000000,-10.000000
1299328.929501,-13.000000,-13.000000,8.000000,-11.000000,-1.000000,-21.000000,-8.000000,-9.000000
1299328.929548,14.000000,12.000000,-26.000000,2.000000,4.000000,21.000000,5.000000,13.000000
1299328.935600,4.000000,0.000000,7.000000,-3.000000,-3.000000,2.000000,1.000000,3.000000
1299328.935827,-20.000000,-24.000000,14.000000,-8.000000,1.000000,-28.000000,-11.000000,-17.000000
1299328.950350,9.000000,12.000000,-23.000000,8.000000,-4.000000,12.000000,4.000000,15.000000
1299328.950373,16.000000,14.000000,-8.000000,3.000000,-2.000000,11.000000,1.000000,8.000000
1299328.965576,-15.000000,-20.000000,23.000000,-6.000000,3.000000,-21.000000,-9.000000,-15.000000
1299328.965628,-4.000000,3.000000,-9.000000,6.000000,-7.000000,-3.000000,-3.000000,-2.000000
1299328.974333,14.000000,16.000000,-24.000000,5.000000,2.000000,20.000000,9.000000,13.000000
1299328.974359,-14.000000,-20.000000,27.000000,-16.000000,4.000000,-15.000000,-2.000000,-9.000000
1299328.974478,-19.000000,-17.000000,13.000000,-6.000000,-4.000000,-16.000000,-8.000000,-15.000000
1299328.974497,19.000000,13.000000,-23.000000,5.000000,1.000000,22.000000,5.000000,15.000000
1299328.995687,3.000000,-7.000000,10.000000,-2.000000,-1.000000,4.000000,6.000000,3.000000
1299328.995742,-25.000000,-17.000000,16.000000,-16.000000,2.000000,-27.000000,-13.000000,-15.000000
1299329.003091,16.000000,29.000000,-31.000000,15.000000,-6.000000,16.000000,4.000000,12.000000
1299329.003116,16.000000,8.000000,-13.000000,5.000000,2.000000,17.000000,6.000000,12.000000
1299329.025641,-15.000000,-13.000000,29.000000,-11.000000,-7.000000,-24.000000,-10.000000,-19.000000
1299329.025702,-6.000000,-3.000000,-9.000000,-2.000000,-6.000000,-4.000000,-3.000000,-1.000000
1299329.032814,20.000000,24.000000,-17.000000,9.000000,-3.000000,25.000000,11.000000,19.000000
1299329.032940,-15.000000,-17.000000,26.000000,-10.000000,4.000000,-13.000000,-4.000000,-11.000000
1299329.047702,-8.000000,-14.000000,3.000000,-4.000000,-3.000000,-13.000000,-11.000000,-10.000000
1299329.047728,16.000000,15.000000,-25.000000,3.000000,1.000000,19.000000,6.000000,13.000000
1299329.055800,4.000000,-4.000000,9.000000,-6.000000,-3.000000,2.000000,3.000000,-4.000000
1299329.055828,-20.000000,-16.000000,18.000000,-2.000000,-6.000000,-25.000000,-10.000000,-19.000000
1299329.080318,14.000000,12.000000,-25.000000,6.000000,-8.000000,16.000000,-2.000000,6.000000
1299329.080346,8.000000,5.000000,-13.000000,4.000000,2.000000,11.000000,6.000000,10.000000
1299329.080748,-16.000000,-20.000000,24.000000,-5.000000,-3.000000,-20.000000,-7.000000,-11.000000
1299329.080788,-5.000000,-1.000000,-4.000000,-1.000000,1.000000,-1.000000,-1.000000,-8.000000
1299329.082297,-14.000000,-6.000000,5.000000,-3.000000,-8.000000,-18.000000,-10.000000,-11.000000
1299329.082399,18.000000,10.000000,-20.000000,1.000000,0.000000,19.000000,6.000000,14.000000
1299329.082594,12.000000,15.000000,-20.000000,8.000000,0.000000,18.000000,4.000000,15.000000
1299329.082639,-17.000000,-19.000000,23.000000,-9.000000,0.000000,-12.000000,-2.000000,-11.000000
1299329.085372,-1.000000,3.000000,2.000000,3.000000,0.000000,5.000000,3.000000,-1.000000
1299329.085423,-22.000000,-20.000000,19.000000,-11.000000,-3.000000,-25.000000,-10.000000,-14.000000
1299329.092979,12.000000,15.000000,-30.000000,15.000000,-1.000000,14.000000,4.000000,11.000000
1299329.093217,10.000000,5.000000,-5.000000,0.000000,-3.000000,11.000000,13.000000,5.000000
1299329.123097,-19.000000,-19.000000,26.000000,-5.000000,-1.000000,-25.000000,-10.000000,-15.000000
1299329.123152,-3.000000,2.000000,-10.000000,1.000000,-5.000000,-4.000000,-1.000000,-5.000000
1299329.160594,17.000000,15.000000,-17.000000,13.000000,-2.000000,28.000000,9.000000,16.000000
1299329.160620,-16.000000,-12.000000,26.000000,-7.000000,2.000000,-15.000000,-6.000000,-9.000000
1299329.175776,-14.000000,-8.000000,8.000000,-3.000000,-1.000000,-14.000000,-7.000000,-6.000000
1299329.175833,16.000000,20.000000,-22.000000,12.000000,7.000000,22.000000,2.000000,12.000000
1299329.183127,-2.000000,-4.000000,9.000000,-2.000000,-4.000000,0.000000,0.000000,5.000000
1299329.183183,-19.000000,-20.000000,20.000000,-11.000000,-1.000000,-24.000000,-7.000000,-14.000000
1299329.198144,13.000000,12.000000,-26.000000,10.000000,-1.000000,17.000000,1.000000,11.000000
1299329.198173,15.000000,12.000000,-11.000000,3.000000,-3.000000,18.000000,3.000000,10.000000
1299329.206592,-20.000000,-21.000000,23.000000,-6.000000,0.000000,-20.000000,-3.000000,-15.000000
1299329.207162,-1.000000,-4.000000,-10.000000,-3.000000,2.000000,-1.000000,-4.000000,-5.000000
1299329.208007,-17.000000,-10.000000,3.000000,-5.000000,-7.000000,-15.000000,-4.000000,-11.000000
1299329.208037,15.000000,21.000000,-26.000000,8.000000,-3.000000,18.000000,3.000000,12.000000
1299329.208743,10.000000,13.000000,-25.000000,7.000000,-3.000000,20.000000,2.000000,10.000000
1299329.208858,6.000000,7.000000,-6.000000,3.000000,-2.000000,10.000000,2.000000,3.000000
1299329.209087,1.000000,-3.000000,9.000000,-4.000000,-1.000000,-3.000000,-1.000000,-5.000000
1299329.209130,-18.000000,-17.000000,21.000000,-4.000000,4.000000,-22.000000,-11.000000,-18.000000
1299329.209777,-23.000000,-23.000000,24.000000,-13.000000,3.000000,-21.000000,-10.000000,-15.000000
1299329.209823,-4.000000,1.000000,-10.000000,3.000000,2.000000,1.000000,0.000000,-3.000000
1299329.213315,16.000000,15.000000,-19.000000,-3.000000,0.000000,21.000000,9.000000,17.000000
1299329.213374,-16.000000,-18.000000,25.000000,-8.000000,-7.000000,-20.000000,-9.000000,-13.000000
1299329.243179,-13.000000,-12.000000,7.000000,-4.000000,-6.000000,-18.000000,-7.000000,-11.000000
1299329.243210,20.000000,15.000000,-32.000000,12.000000,1.000000,23.000000,8.000000,16.000000
1299329.250633,-7.000000,-6.000000,10.000000,3.000000,-4.000000,1.000000,1.000000,-2.000000
1299329.250689,-17.000000,-15.000000,16.000000,-9.000000,-1.000000,-23.000000,-14.000000,-9.000000
1299329.280537,17.000000,24.000000,-29.000000,5.000000,-3.000000,19.000000,2.000000,16.000000
1299329.280589,16.000000,6.000000,-6.000000,2.000000,-1.000000,7.000000,5.000000,9.000000
1299329.288078,-20.000000,-29.000000,24.000000,-13.000000,0.000000,-30.000000,-8.000000,-18.000000
1299329.288108,0.000000,3.000000,-14.000000,8.000000,-2.000000,1.000000,-3.000000,-1.000000
1299329.310486,15.000000,16.000000,-28.000000,3.000000,-5.000000,20.000000,11.000000,12.000000
1299329.310540,-17.000000,-12.000000,20.000000,-9.000000,5.000000,-18.000000,-9.000000,-15.000000
1299329.317942,-3.000000,-7.000000,3.000000,-2.000000,0.000000,-6.000000,-7.000000,-6.000000
1299329.318482,21.000000,21.000000,-33.000000,7.000000,-3.000000,28.000000,8.000000,20.000000
1299329.320810,12.000000,21.000000,-20.000000,7.000000,-2.000000,14.000000,5.000000,10.000000
1299329.321346,6.000000,-1.000000,-1.000000,-1.000000,4.000000,11.000000,2.000000,6.000000
1299329.322398,-20.000000,-22.000000,25.000000,-13.000000,-1.000000,-30.000000,-10.000000,-17.000000
1299329.322452,-1.000000,14.000000,-16.000000,4.000000,1.000000,0.000000,-1.000000,-2.000000
1299329.325944,-9.000000,-6.000000,-2.000000,7.000000,-6.000000,-10.000000,-6.000000,-2.000000
1299329.325972,23.000000,19.000000,-31.000000,11.000000,-3.000000,23.000000,5.000000,19.000000
1299329.332989,1.000000,-1.000000,7.000000,2.000000,0.000000,-9.000000,-3.000000,2.000000
1299329.333221,-17.000000,-20.000000,11.000000,-8.000000,-5.000000,-19.000000,-8.000000,-14.000000
1299329.340673,10.000000,16.000000,-24.000000,6.000000,-3.000000,19.000000,1.000000,10.000000
1299329.340729,5.000000,-4.000000,-1.000000,-4.000000,3.000000,6.000000,3.000000,3.000000
1299329.355828,-24.000000,-22.000000,30.000000,-12.000000,-6.000000,-30.000000,-11.000000,-16.000000
1299329.355886,0.000000,6.000000,-15.000000,0.000000,-5.000000,4.000000,0.000000,5.000000
1299329.370682,19.000000,13.000000,-21.000000,2.000000,-2.000000,22.000000,9.000000,14.000000
1299329.370733,-21.000000,-22.000000,28.000000,-12.000000,2.000000,-20.000000,-7.000000,-11.000000
1299329.400997,-11.000000,3.000000,0.000000,-5.000000,-1.000000,-8.000000,-5.000000,-6.000000
1299329.401165,21.000000,24.000000,-30.000000,7.000000,-3.000000,19.000000,7.000000,19.000000
1299329.430636,-7.000000,-6.000000,16.000000,-7.000000,-5.000000,-10.000000,1.000000,-3.000000
1299329.430692,-19.000000,-21.000000,18.000000,-6.000000,0.000000,-24.000000,-16.000000,-16.000000
1299329.438222,13.000000,15.000000,-22.000000,6.000000,-3.000000,16.000000,6.000000,10.000000
1299329.438280,4.000000,1.000000,-1.000000,2.000000,-3.000000,4.000000,1.000000,7.000000
1299329.447505,19.000000,9.000000,-12.000000,5.000000,3.000000,18.000000,7.000000,13.000000
1299329.447539,-23.000000,-20.000000,25.000000,-14.000000,0.000000,-24.000000,-10.000000,-18.000000
1299329.447764,-23.000000,-28.000000,33.000000,-12.000000,-3.000000,-26.000000,-11.000000,-18.000000
1299329.447812,3.000000,10.000000,-18.000000,10.000000,0.000000,6.000000,0.000000,3.000000
1299329.449351,-7.000000,-4.000000,-1.000000,1.000000,-4.000000,-10.000000,-7.000000,-5.000000
1299329.449405,22.000000,14.000000,-33.000000,7.000000,-4.000000,29.000000,11.000000,11.000000
1299329.449547,13.000000,16.000000,-26.000000,4.000000,-4.000000,20.000000,5.000000,12.000000
1299329.449592,0.000000,-5.000000,3.000000,0.000000,1.000000,6.000000,3.000000,3.000000
1299329.453417,-20.000000,-24.000000,32.000000,-15.000000,-3.000000,-26.000000,-5.000000,-17.000000
1299329.453790,7.000000,12.000000,-26.000000,1.000000,1.000000,6.000000,4.000000,6.000000
1299329.475794,9.000000,-1.000000,-12.000000,2.000000,1.000000,15.000000,6.000000,11.000000
1299329.475850,-12.000000,-18.000000,22.000000,-13.000000,-3.000000,-21.000000,-4.000000,-17.000000
1299329.483079,-6.000000,-8.000000,-1.000000,-5.000000,-7.000000,-3.000000,-6.000000,-7.000000
1299329.483142,24.000000,21.000000,-27.000000,8.000000,5.000000,29.000000,9.000000,19.000000
1299329.521184,-11.000000,-7.000000,22.000000,-11.000000,1.000000,-10.000000,-1.000000,-8.000000
1299329.521249,-17.000000,-10.000000,5.000000,-8.000000,-3.000000,-19.000000,-10.000000,-12.000000
1299329.528679,15.000000,12.000000,-23.000000,8.000000,2.000000,20.000000,2.000000,11.000000
1299329.528730,1.000000,0.000000,5.000000,-1.000000,-4.000000,3.000000,1.000000,4.000000
1299329.558055,-22.000000,-25.000000,24.000000,-10.000000,-1.000000,-23.000000,-10.000000,-17.000000
1299329.558110,6.000000,16.000000,-25.000000,7.000000,0.000000,8.000000,0.000000,6.000000
1299329.573126,20.000000,12.000000,-9.000000,7.000000,2.000000,19.000000,8.000000,9.000000
1299329.573182,-18.000000,-17.000000,19.000000,-12.000000,1.000000,-21.000000,-9.000000,-13.000000
1299329.581235,-14.000000,-8.000000,0.000000,2.000000,0.000000,-3.000000,-3.000000,-4.000000
1299329.581281,23.000000,20.000000,-31.000000,1.000000,5.000000,25.000000,8.000000,17.000000
1299329.595537,-7.000000,-7.000000,21.000000,-12.000000,0.000000,-6.000000,-1.000000,-8.000000
1299329.595593,-15.000000,-11.000000,-1.000000,-8.000000,2.000000,-18.000000,-8.000000,-17.000000
1299329.602990,12.000000,10.000000,-24.000000,10.000000,-8.000000,20.000000,0.000000,13.000000
1299329.603042,8.000000,-4.000000,2.000000,3.000000,3.000000,4.000000,0.000000,6.000000
1299329.640632,-6.000000,-3.000000,-11.000000,2.000000,1.000000,-3.000000,-5.000000,-7.000000
1299329.640686,17.000000,21.000000,-23.000000,10.000000,-2.000000,25.000000,11.000000,15.000000
1299329.647988,18.000000,12.000000,-18.000000,5.000000,2.000000,19.000000,5.000000,11.000000
1299329.648017,4.000000,0.000000,3.000000,-4.000000,-6.000000,9.000000,2.000000,0.000000
1299329.679264,-19.000000,-21.000000,20.000000,-5.000000,2.000000,-22.000000,-14.000000,-14.000000
1299329.679317,8.000000,6.000000,-27.000000,4.000000,-3.000000,12.000000,1.000000,7.000000
1299329.681186,-4.000000,3.000000,-5.000000,0.000000,2.000000,-9.000000,-2.000000,-3.000000
1299329.681388,18.000000,17.000000,-25.000000,13.000000,-5.000000,21.000000,6.000000,18.000000
1299329.681639,13.000000,9.000000,-10.000000,3.000000,0.000000,13.000000,9.000000,10.000000
1299329.681687,-19.000000,-17.000000,20.000000,-11.000000,-2.000000,-19.000000,-7.000000,-15.000000
1299329.681891,-24.000000,-14.000000,23.000000,-6.000000,1.000000,-31.000000,-13.000000,-14.000000
1299329.681924,9.000000,12.000000,-29.000000,9.000000,-4.000000,11.000000,7.000000,0.000000
1299329.682553,16.000000,7.000000,-13.000000,4.000000,1.000000,14.000000,1.000000,8.000000
1299329.682595,-20.000000,-17.000000,24.000000,-13.000000,-4.000000,-21.000000,-11.000000,-14.000000
1299329.685372,-10.000000,-17.000000,27.000000,-7.000000,3.000000,-13.000000,-4.000000,-9.000000
1299329.685422,-10.000000,-5.000000,8.000000,-4.000000,1.000000,-14.000000,-7.000000,-10.000000
1299329.692732,17.000000,11.000000,-21.000000,7.000000,2.000000,20.000000,3.000000,11.000000
1299329.692783,3.000000,1.000000,0.000000,-5.000000,-1.000000,0.000000,3.000000,0.000000
1299329.730494,-24.000000,-21.000000,29.000000,-13.000000,1.000000,-27.000000,-5.000000,-18.000000
1299329.730521,16.000000,18.000000,-23.000000,4.000000,0.000000,12.000000,3.000000,11.000000
1299329.738047,15.000000,12.000000,-8.000000,-3.000000,2.000000,17.000000,7.000000,11.000000
1299329.738074,-16.000000,-16.000000,22.000000,-12.000000,-6.000000,-25.000000,-1.000000,-18.000000
1299329.752850,-4.000000,-1.000000,-8.000000,3.000000,-1.000000,-4.000000,-6.000000,-2.000000
1299329.752899,21.000000,23.000000,-28.000000,4.000000,1.000000,20.000000,6.000000,13.000000
1299329.760626,-7.000000,-22.000000,23.000000,-9.000000,3.000000,-13.000000,-8.000000,-8.000000
1299329.760681,-15.000000,-10.000000,8.000000,-7.000000,1.000000,-16.000000,-7.000000,-8.000000
1299329.775860,17.000000,17.000000,-25.000000,8.000000,-8.000000,20.000000,7.000000,12.000000
1299329.775912,0.000000,-2.000000,8.000000,-5.000000,-4.000000,-3.000000,-2.000000,0.000000
1299329.776306,-24.000000,-18.000000,20.000000,-9.000000,-1.000000,-21.000000,-4.000000,-14.000000
1299329.776329,8.000000,11.000000,-26.000000,1.000000,0.000000,17.000000,1.000000,8.000000
1299329.799175,13.000000,8.000000,-12.000000,1.000000,4.000000,12.000000,3.000000,10.000000
1299329.799755,-16.000000,-13.000000,18.000000,-9.000000,0.000000,-20.000000,-7.000000,-18.000000
1299329.800696,-8.000000,7.000000,-9.000000,7.000000,5.000000,-1.000000,-4.000000,1.000000
1299329.800750,21.000000,16.000000,-19.000000,4.000000,2.000000,19.000000,5.000000,13.000000
1299329.802377,-11.000000,-18.000000,21.000000,-7.000000,-1.000000,-21.000000,-5.000000,-11.000000
1299329.802424,-13.000000,-14.000000,7.000000,0.000000,2.000000,-13.000000,-10.000000,-12.000000
1299329.802557,12.000000,14.000000,-13.000000,5.000000,-7.000000,22.000000,5.000000,11.000000
1299329.802570,4.000000,-3.000000,8.000000,9.000000,1.000000,2.000000,0.000000,0.000000
1299329.805362,-22.000000,-14.000000,25.000000,-8.000000,-4.000000,-25.000000,-10.000000,-16.000000
1299329.805413,7.000000,11.000000,-29.000000,10.000000,0.000000,15.000000,1.000000,11.000000
1299329.820428,9.000000,10.000000,-9.000000,1.000000,-5.000000,18.000000,11.000000,7.000000
1299329.820481,-20.000000,-16.000000,28.000000,-9.000000,-11.000000,-24.000000,-6.000000,-16.000000
1299329.843182,-5.000000,-1.000000,-10.000000,8.000000,0.000000,-4.000000,-5.000000,2.000000
1299329.843208,17.000000,18.000000,-20.000000,7.000000,2.000000,23.000000,7.000000,15.000000
1299329.850531,-11.000000,-19.000000,25.000000,-7.000000,-1.000000,-22.000000,-9.000000,-12.000000
1299329.850580,-16.000000,-8.000000,2.000000,-6.000000,3.000000,-13.000000,-6.000000,-10.000000
1299329.872951,15.000000,17.000000,-21.000000,5.000000,-4.000000,20.000000,5.000000,16.000000
1299329.872986,-2.000000,-13.000000,9.000000,-4.000000,0.000000,-4.000000,0.000000,1.000000
1299329.880667,-22.000000,-17.000000,17.000000,-7.000000,-1.000000,-22.000000,-11.000000,-18.000000
1299329.880716,9.000000,15.000000,-23.000000,9.000000,-7.000000,13.000000,7.000000,13.000000
1299329.911689,12.000000,5.000000,-6.000000,1.000000,-2.000000,7.000000,3.000000,7.000000
1299329.911718,-17.000000,-19.000000,24.000000,-6.000000,1.000000,-23.000000,-7.000000,-14.000000
1299329.911976,-4.000000,6.000000,-2.000000,-4.000000,-2.000000,1.000000,4.000000,-3.000000
1299329.912007,19.000000,18.000000,-16.000000,8.000000,-3.000000,19.000000,6.000000,10.000000
1299329.913385,-17.000000,-23.000000,27.000000,-7.000000,5.000000,-15.000000,-3.000000,-12.000000
1299329.913676,-13.000000,-8.000000,1.000000,3.000000,-3.000000,-14.000000,-8.000000,-10.000000
1299329.914792,23.000000,24.000000,-28.000000,11.000000,-3.000000,20.000000,5.000000,11.000000
1299329.914835,1.000000,-4.000000,9.000000,-2.000000,-4.000000,-3.000000,-2.000000,1.000000
1299329.915060,-16.000000,-23.000000,12.000000,-2.000000,0.000000,-20.000000,-10.000000,-17.000000
1299329.915147,10.000000,14.000000,-25.000000,9.000000,-2.000000,18.000000,2.000000,10.000000
1299329.917832,15.000000,6.000000,-5.000000,-2.000000,2.000000,17.000000,6.000000,8.000000
1299329.917889,-19.000000,-20.000000,31.000000,-9.000000,-2.000000,-23.000000,-8.000000,-14.000000
1299329.926220,-3.000000,3.000000,-7.000000,-4.000000,2.000000,2.000000,-4.000000,-6.000000
1299329.926268,18.000000,12.000000,-23.000000,10.000000,-3.000000,26.000000,8.000000,19.000000
1299329.932935,-9.000000,-13.000000,21.000000,-13.000000,-4.000000,-13.000000,-2.000000,-9.000000
1299329.932960,-14.000000,-15.000000,8.000000,-3.000000,-9.000000,-17.000000,-2.000000,-8.000000
1299329.948228,18.000000,22.000000,-37.000000,10.000000,0.000000,16.000000,0.000000,13.000000
1299329.948279,-3.000000,-7.000000,15.000000,-3.000000,0.000000,-3.000000,2.000000,-5.000000
1299329.955779,-21.000000,-17.000000,15.000000,-7.000000,-5.000000,-19.000000,-10.000000,-14.000000
1299329.955822,14.000000,26.000000,-25.000000,8.000000,-2.000000,25.000000,3.000000,15.000000
1299329.970323,8.000000,10.000000,-5.000000,1.000000,3.000000,15.000000,4.000000,10.000000
1299329.970369,-27.000000,-24.000000,25.000000,-12.000000,1.000000,-29.000000,-8.000000,-18.000000
1299329.992957,-3.000000,2.000000,-10.000000,4.000000,-4.000000,-5.000000,-5.000000,-3.000000
1299329.993012,25.000000,15.000000,-17.000000,7.000000,1.000000,18.000000,16.000000,12.000000
1299330.001840,-16.000000,-22.000000,22.000000,-12.000000,0.000000,-19.000000,-4.000000,-14.000000
1299330.001877,-13.000000,-3.000000,4.000000,-7.000000,-7.000000,-8.000000,-6.000000,-9.000000
1299330.002131,19.000000,29.000000,-35.000000,8.000000,-2.000000,26.000000,8.000000,17.000000
1299330.002408,1.000000,-4.000000,5.000000,-5.000000,-2.000000,-2.000000,2.000000,1.000000
1299330.008296,-20.000000,-10.000000,12.000000,-3.000000,1.000000,-23.000000,-9.000000,-18.000000
1299330.008324,13.000000,22.000000,-32.000000,7.000000,-3.000000,22.000000,1.000000,14.000000
1299330.015793,17.000000,2.000000,-3.000000,3.000000,7.000000,14.000000,8.000000,5.000000
1299330.015821,-18.000000,-25.000000,28.000000,-13.000000,2.000000,-26.000000,-9.000000,-16.000000
1299330.037980,0.000000,5.000000,-13.000000,-1.000000,2.000000,5.000000,-3.000000,0.000000
1299330.038009,19.000000,11.000000,-18.000000,6.000000,-2.000000,20.000000,7.000000,20.000000
1299330.046317,-13.000000,-20.000000,28.000000,-11.000000,1.000000,-20.000000,-7.000000,-7.000000
1299330.046561,-17.000000,-3.000000,-2.000000,-4.000000,-2.000000,-9.000000,-6.000000,-11.000000
1299330.047064,17.000000,13.000000,-30.000000,10.000000,-1.000000,22.000000,9.000000,15.000000
1299330.047087,4.000000,-9.000000,11.000000,-5.000000,-2.000000,-4.000000,3.000000,1.000000
1299330.075526,-24.000000,-23.000000,14.000000,-13.000000,-6.000000,-21.000000,-11.000000,-19.000000
1299330.075571,19.000000,15.000000,-26.000000,8.000000,3.000000,22.000000,9.000000,14.000000
1299330.082774,12.000000,7.000000,-1.000000,-6.000000,5.000000,8.000000,2.000000,5.000000
1299330.082825,-24.000000,-18.000000,27.000000,-13.000000,-2.000000,-26.000000,-15.000000,-19.000000
1299330.105494,4.000000,2.000000,-17.000000,1.000000,1.000000,3.000000,0.000000,-2.000000
1299330.105545,20.000000,16.000000,-25.000000,2.000000,1.000000,23.000000,7.000000,19.000000
1299330.112951,-12.000000,-15.000000,22.000000,-7.000000,-4.000000,-19.000000,0.000000,-15.000000
1299330.113001,-10.000000,2.000000,-1.000000,-4.000000,0.000000,-12.000000,-9.000000,-4.000000
1299330.127886,23.000000,22.000000,-36.000000,10.000000,0.000000,23.000000,7.000000,21.000000
1299330.127935,0.000000,-2.000000,13.000000,-4.000000,-1.000000,-2.000000,-7.000000,-1.000000
1299330.135205,-20.000000,-19.000000,15.000000,-10.000000,-5.000000,-26.000000,-2.000000,-19.000000
1299330.135256,10.000000,18.000000,-19.000000,4.000000,1.000000,17.000000,3.000000,14.000000
1299330.151213,2.000000,4.000000,-5.000000,-2.000000,-3.000000,4.000000,1.000000,0.000000
1299330.151264,-23.000000,-18.000000,33.000000,-10.000000,0.000000,-29.000000,-5.000000,-17.000000
1299330.165302,2.000000,5.000000,-17.000000,-3.000000,1.000000,4.000000,-6.000000,-4.000000
1299330.165359,11.000000,10.000000,-15.000000,2.000000,-3.000000,20.000000,1.000000,11.000000
1299330.166682,-14.000000,-16.000000,18.000000,-6.000000,1.000000,-16.000000,-3.000000,-13.000000
1299330.166726,-3.000000,-4.000000,6.000000,-3.000000,-3.000000,-7.000000,-5.000000,-3.000000
1299330.168466,21.000000,16.000000,-31.000000,6.000000,-6.000000,22.000000,9.000000,16.000000
1299330.168528,-2.000000,-9.000000,16.000000,0.000000,-4.000000,-5.000000,-2.000000,-5.000000
1299330.169366,-21.000000,-11.000000,13.000000,-3.000000,-3.000000,-21.000000,-6.000000,-13.000000
1299330.169389,16.000000,17.000000,-27.000000,5.000000,-2.000000,20.000000,5.000000,13.000000
1299330.170159,6.000000,3.000000,0.000000,-1.000000,3.000000,7.000000,2.000000,5.000000
1299330.170206,-25.000000,-21.000000,26.000000,-12.000000,2.000000,-30.000000,-8.000000,-15.000000
1299330.173740,-1.000000,3.000000,-19.000000,7.000000,-9.000000,4.000000,2.000000,-1.000000
1299330.173781,15.000000,9.000000,-6.000000,6.000000,4.000000,17.000000,8.000000,12.000000
1299330.195606,-16.000000,-20.000000,19.000000,-12.000000,-1.000000,-19.000000,-9.000000,-15.000000
1299330.195657,-7.000000,2.000000,-5.000000,2.000000,-4.000000,-7.000000,-5.000000,-3.000000
1299330.218399,24.000000,24.000000,-29.000000,9.000000,1.000000,26.000000,10.000000,15.000000
1299330.218425,1.000000,-15.000000,14.000000,-12.000000,3.000000,-5.000000,-3.000000,-4.000000
1299330.233060,-17.000000,-10.000000,11.000000,-4.000000,1.000000,-24.000000,-6.000000,-12.000000
1299330.233111,17.000000,18.000000,-26.000000,0.000000,-3.000000,17.000000,2.000000,12.000000
1299330.271452,9.000000,-2.000000,2.000000,-5.000000,-5.000000,9.000000,-1.000000,-1.000000
1299330.271508,-23.000000,-21.000000,26.000000,0.000000,-9.000000,-29.000000,-8.000000,-19.000000
1299330.271775,11.000000,15.000000,-29.000000,11.000000,1.000000,6.000000,-1.000000,3.000000
1299330.271818,21.000000,8.000000,-12.000000,0.000000,2.000000,17.000000,3.000000,14.000000
1299330.273838,-18.000000,-25.000000,20.000000,-6.000000,-4.000000,-21.000000,-4.000000,-14.000000
1299330.273865,-3.000000,0.000000,-9.000000,-2.000000,0.000000,-3.000000,-4.000000,-9.000000
1299330.274048,26.000000,17.000000,-30.000000,8.000000,-2.000000,24.000000,6.000000,20.000000
1299330.274407,-6.000000,-12.000000,22.000000,-5.000000,1.000000,-13.000000,-7.000000,-7.000000
1299330.275241,-23.000000,-10.000000,17.000000,-10.000000,-3.000000,-17.000000,-7.000000,-18.000000
1299330.275282,17.000000,14.000000,-24.000000,4.000000,-3.000000,15.000000,6.000000,16.000000
1299330.278559,7.000000,15.000000,-24.000000,5.000000,-4.000000,9.000000,-1.000000,1.000000
1299330.278614,15.000000,7.000000,-16.000000,2.000000,1.000000,22.000000,8.000000,10.000000
1299330.285499,-11.000000,-14.000000,18.000000,-8.000000,2.000000,-20.000000,-7.000000,-10.000000
1299330.285547,-6.000000,1.000000,1.000000,-3.000000,-2.000000,-8.000000,-8.000000,-2.000000
1299330.308288,18.000000,20.000000,-22.000000,1.000000,-3.000000,19.000000,4.000000,17.000000
1299330.308353,-7.000000,-18.000000,27.000000,-5.000000,-2.000000,-18.000000,-3.000000,-9.000000
1299330.315724,-17.000000,-10.000000,8.000000,-4.000000,5.000000,-17.000000,-8.000000,-11.000000
1299330.315752,19.000000,21.000000,-26.000000,8.000000,-2.000000,22.000000,4.000000,11.000000
1299330.331326,1.000000,-10.000000,6.000000,-4.000000,-6.000000,4.000000,-1.000000,0.000000
1299330.331354,-15.000000,-19.000000,25.000000,-15.000000,-2.000000,-20.000000,-6.000000,-14.000000
1299330.361358,3.000000,13.000000,-23.000000,12.000000,-7.000000,9.000000,4.000000,4.000000
1299330.361403,12.000000,6.000000,-11.000000,0.000000,-2.000000,14.000000,7.000000,8.000000
1299330.363333,22.000000,17.000000,-24.000000,7.000000,4.000000,22.000000,12.000000,16.000000
1299330.363685,-9.000000,-15.000000,26.000000,-9.000000,2.000000,-14.000000,-2.000000,-5.000000
1299330.363976,-17.000000,-13.000000,20.000000,-12.000000,-5.000000,-21.000000,-6.000000,-18.000000
1299330.364029,-10.000000,-2.000000,-1.000000,-2.000000,-6.000000,-4.000000,-6.000000,-3.000000
1299330.364713,-18.000000,-9.000000,7.000000,-7.000000,-4.000000,-17.000000,-8.000000,-13.000000
1299330.364757,16.000000,19.000000,-21.000000,4.000000,0.000000,10.000000,5.000000,9.000000
1299330.391387,7.000000,3.000000,1.000000,-3.000000,-1.000000,0.000000,4.000000,-1.000000
1299330.391418,-18.000000,-27.000000,25.000000,-8.000000,-5.000000,-24.000000,-10.000000,-17.000000
1299330.393048,-19.000000,-14.000000,17.000000,-14.000000,1.000000,-21.000000,-7.000000,-15.000000
1299330.393099,-5.000000,3.000000,-8.000000,-3.000000,0.000000,-7.000000,-6.000000,-3.000000
