# participant_id: P6
# gesture: baseline
# trial_number: 2
# stream_name: Myo_EMG
# stream_type: emg
# timestamp: 20260420_145249
# samples: 5258
# duration_sec: 30.424
# nominal_sample_rate: 200.0
# effective_sample_rate: 172.79
#
timestamp,emg_1,emg_2,emg_3,emg_4,emg_5,emg_6,emg_7,emg_8
1301461.648104,5.000000,-3.000000,0.000000,2.000000,-2.000000,-1.000000,0.000000,-3.000000
1301461.648158,8.000000,-1.000000,-2.000000,-3.000000,0.000000,-2.000000,-5.000000,3.000000
1301461.663525,1.000000,-3.000000,2.000000,0.000000,-1.000000,-3.000000,0.000000,0.000000
1301461.663536,-2.000000,3.000000,1.000000,1.000000,-5.000000,0.000000,-2.000000,5.000000
1301461.663604,-8.000000,0.000000,-4.000000,-5.000000,2.000000,-6.000000,-4.000000,0.000000
1301461.663623,-1.000000,-3.000000,-5.000000,2.000000,-1.000000,-6.000000,-1.000000,1.000000
1301461.664126,-2.000000,-5.000000,0.000000,-4.000000,0.000000,-1.000000,-3.000000,-3.000000
1301461.664137,-3.000000,-2.000000,2.000000,6.000000,-1.000000,2.000000,0.000000,1.000000
1301461.665372,-6.000000,-6.000000,-5.000000,-5.000000,-9.000000,-1.000000,-5.000000,1.000000
1301461.665430,-4.000000,-3.000000,0.000000,6.000000,2.000000,-1.000000,-2.000000,4.000000
1301461.676380,1.000000,-5.000000,1.000000,3.000000,-4.000000,-4.000000,-6.000000,1.000000
1301461.676397,-1.000000,6.000000,3.000000,1.000000,-5.000000,0.000000,-1.000000,-1.000000
1301461.684833,6.000000,4.000000,-3.000000,-8.000000,-3.000000,0.000000,-3.000000,-3.000000
1301461.684850,-4.000000,-1.000000,2.000000,1.000000,3.000000,4.000000,0.000000,-1.000000
1301461.699397,-6.000000,0.000000,-1.000000,0.000000,-4.000000,0.000000,1.000000,0.000000
1301461.699414,-3.000000,-1.000000,-5.000000,-1.000000,4.000000,3.000000,-2.000000,-3.000000
1301461.736671,0.000000,3.000000,0.000000,6.000000,2.000000,-4.000000,0.000000,0.000000
1301461.736689,-1.000000,-5.000000,-5.000000,-1.000000,-6.000000,-5.000000,0.000000,-2.000000
1301461.744447,6.000000,1.000000,-5.000000,-2.000000,-1.000000,-3.000000,1.000000,-5.000000
1301461.744464,0.000000,-5.000000,-1.000000,3.000000,-3.000000,-1.000000,1.000000,-3.000000
1301461.782005,8.000000,-3.000000,-6.000000,6.000000,0.000000,5.000000,4.000000,-3.000000
1301461.782202,-8.000000,4.000000,0.000000,-5.000000,1.000000,-3.000000,-4.000000,-6.000000
1301461.782442,0.000000,-1.000000,-6.000000,-1.000000,-1.000000,1.000000,2.000000,2.000000
1301461.782599,-1.000000,3.000000,-3.000000,0.000000,-4.000000,0.000000,2.000000,-5.000000
1301461.783312,1.000000,-6.000000,2.000000,4.000000,3.000000,-1.000000,3.000000,-5.000000
1301461.783328,-2.000000,1.000000,-2.000000,-4.000000,-1.000000,-1.000000,0.000000,0.000000
1301461.783685,0.000000,0.000000,-4.000000,-3.000000,-6.000000,-5.000000,-1.000000,0.000000
1301461.783703,-5.000000,-6.000000,-1.000000,-1.000000,5.000000,-3.000000,-3.000000,1.000000
1301461.785056,-5.000000,-1.000000,4.000000,0.000000,0.000000,2.000000,-1.000000,-5.000000
1301461.785093,5.000000,-4.000000,1.000000,2.000000,2.000000,0.000000,-2.000000,-3.000000
1301461.796588,-1.000000,-4.000000,-4.000000,0.000000,-3.000000,-2.000000,0.000000,0.000000
1301461.796599,-2.000000,-3.000000,3.000000,-4.000000,2.000000,-2.000000,-3.000000,0.000000
1301461.797649,-1.000000,4.000000,-3.000000,-5.000000,-8.000000,-1.000000,1.000000,-6.000000
1301461.797682,2.000000,-1.000000,-3.000000,0.000000,3.000000,-2.000000,-1.000000,1.000000
1301461.819545,2.000000,-1.000000,1.000000,4.000000,-8.000000,-5.000000,-3.000000,-2.000000
1301461.819562,1.000000,-2.000000,-1.000000,-3.000000,-3.000000,-1.000000,-4.000000,-3.000000
1301461.857272,1.000000,-6.000000,-4.000000,6.000000,4.000000,-4.000000,1.000000,-1.000000
1301461.857311,0.000000,-2.000000,3.000000,-4.000000,-3.000000,-4.000000,-2.000000,-3.000000
1301461.864271,-4.000000,-3.000000,-1.000000,-3.000000,-5.000000,-3.000000,-2.000000,1.000000
1301461.864291,-3.000000,0.000000,-3.000000,-3.000000,3.000000,3.000000,-2.000000,-5.000000
1301461.879781,-5.000000,3.000000,-2.000000,-4.000000,0.000000,0.000000,-2.000000,-2.000000
1301461.879793,-3.000000,-2.000000,0.000000,-2.000000,-3.000000,1.000000,-1.000000,-2.000000
1301461.880215,0.000000,1.000000,-2.000000,-6.000000,-1.000000,3.000000,-5.000000,-1.000000
1301461.880224,-7.000000,-4.000000,-1.000000,3.000000,1.000000,-3.000000,0.000000,0.000000
1301461.881262,-4.000000,3.000000,-3.000000,2.000000,1.000000,-1.000000,0.000000,1.000000
1301461.881273,-1.000000,5.000000,5.000000,-4.000000,1.000000,-2.000000,-1.000000,0.000000
1301461.882193,-2.000000,-5.000000,-3.000000,-8.000000,-2.000000,0.000000,1.000000,-1.000000
1301461.882215,0.000000,1.000000,-1.000000,-5.000000,0.000000,-2.000000,-3.000000,-1.000000
1301461.893698,1.000000,2.000000,2.000000,1.000000,-3.000000,3.000000,2.000000,4.000000
1301461.893715,1.000000,-1.000000,0.000000,4.000000,-7.000000,3.000000,1.000000,-5.000000
1301461.901921,-3.000000,-3.000000,-1.000000,1.000000,-3.000000,-3.000000,0.000000,-3.000000
1301461.901937,6.000000,-5.000000,0.000000,-7.000000,-1.000000,2.000000,0.000000,-8.000000
1301461.917084,-4.000000,-5.000000,3.000000,-4.000000,-1.000000,-4.000000,-1.000000,-1.000000
1301461.917113,2.000000,3.000000,2.000000,1.000000,4.000000,-4.000000,-2.000000,-1.000000
1301461.918436,5.000000,1.000000,-1.000000,-4.000000,-2.000000,0.000000,-4.000000,-4.000000
1301461.918474,-1.000000,4.000000,-3.000000,-3.000000,5.000000,-1.000000,2.000000,-2.000000
1301461.931495,2.000000,-4.000000,3.000000,1.000000,-2.000000,-2.000000,2.000000,3.000000
1301461.931516,-4.000000,3.000000,0.000000,-1.000000,3.000000,1.000000,1.000000,1.000000
1301461.962696,-1.000000,-5.000000,-1.000000,3.000000,3.000000,-2.000000,-1.000000,-1.000000
1301461.962819,-2.000000,4.000000,-1.000000,-3.000000,-2.000000,-4.000000,-1.000000,-2.000000
1301461.977482,-3.000000,-5.000000,-2.000000,-5.000000,-1.000000,-3.000000,1.000000,-3.000000
1301461.977533,1.000000,3.000000,7.000000,1.000000,3.000000,1.000000,-3.000000,-5.000000
1301462.015060,-3.000000,-2.000000,-5.000000,1.000000,-3.000000,-1.000000,-5.000000,-3.000000
1301462.015120,1.000000,-1.000000,-3.000000,-11.000000,-4.000000,-2.000000,-1.000000,-1.000000
1301462.022751,-3.000000,-1.000000,0.000000,1.000000,-2.000000,-1.000000,-1.000000,1.000000
1301462.022991,-1.000000,1.000000,-8.000000,-2.000000,4.000000,-2.000000,-1.000000,2.000000
1301462.052835,1.000000,-2.000000,1.000000,4.000000,0.000000,-3.000000,-4.000000,3.000000
1301462.052884,-5.000000,-4.000000,2.000000,-3.000000,0.000000,-1.000000,-3.000000,-2.000000
1301462.060410,-2.000000,-5.000000,-1.000000,-3.000000,-6.000000,-7.000000,0.000000,-5.000000
1301462.060445,-2.000000,0.000000,2.000000,-5.000000,-6.000000,-1.000000,-3.000000,-3.000000
1301462.097603,4.000000,4.000000,-1.000000,-2.000000,4.000000,7.000000,-3.000000,3.000000
1301462.097665,-3.000000,6.000000,4.000000,-10.000000,-3.000000,-4.000000,0.000000,0.000000
1301462.127750,1.000000,-2.000000,0.000000,-2.000000,1.000000,-3.000000,-4.000000,0.000000
1301462.127808,0.000000,0.000000,-3.000000,-1.000000,0.000000,3.000000,-1.000000,-3.000000
1301462.135380,-2.000000,2.000000,-9.000000,-3.000000,5.000000,4.000000,1.000000,-4.000000
1301462.135422,1.000000,-1.000000,-3.000000,-1.000000,-5.000000,-2.000000,2.000000,-3.000000
1301462.143865,0.000000,-1.000000,-4.000000,3.000000,6.000000,3.000000,2.000000,-4.000000
1301462.144255,-1.000000,1.000000,4.000000,-8.000000,-1.000000,0.000000,1.000000,1.000000
1301462.145214,-2.000000,-4.000000,-2.000000,4.000000,6.000000,3.000000,-3.000000,-2.000000
1301462.145312,-1.000000,-3.000000,-1.000000,1.000000,0.000000,0.000000,-5.000000,-1.000000
1301462.145831,-4.000000,-2.000000,1.000000,-1.000000,-7.000000,-3.000000,2.000000,0.000000
1301462.145851,-4.000000,-6.000000,-3.000000,-4.000000,0.000000,2.000000,0.000000,-4.000000
1301462.149508,-1.000000,1.000000,1.000000,4.000000,0.000000,-3.000000,-4.000000,3.000000
1301462.149593,3.000000,-2.000000,1.000000,0.000000,-1.000000,-1.000000,0.000000,-2.000000
1301462.157753,3.000000,-1.000000,0.000000,-3.000000,-6.000000,-1.000000,0.000000,4.000000
1301462.157770,-2.000000,-3.000000,-1.000000,-2.000000,-1.000000,-5.000000,-3.000000,0.000000
1301462.179390,1.000000,1.000000,-2.000000,-5.000000,-3.000000,3.000000,2.000000,-2.000000
1301462.179422,3.000000,0.000000,-9.000000,-2.000000,-3.000000,2.000000,-4.000000,4.000000
1301462.217419,0.000000,-1.000000,-2.000000,-3.000000,-4.000000,-3.000000,-4.000000,-2.000000
1301462.217469,2.000000,4.000000,1.000000,7.000000,4.000000,-1.000000,0.000000,-2.000000
1301462.239868,-3.000000,3.000000,3.000000,-2.000000,-10.000000,-3.000000,-1.000000,-3.000000
1301462.239895,0.000000,7.000000,0.000000,-2.000000,-1.000000,-3.000000,3.000000,2.000000
1301462.256148,1.000000,3.000000,-2.000000,3.000000,1.000000,1.000000,0.000000,-5.000000
1301462.256423,0.000000,0.000000,-4.000000,-5.000000,-4.000000,3.000000,-4.000000,-2.000000
1301462.256994,-6.000000,0.000000,1.000000,-4.000000,-5.000000,2.000000,1.000000,-4.000000
1301462.257086,-10.000000,2.000000,-4.000000,-4.000000,0.000000,-4.000000,-3.000000,-4.000000
1301462.258884,1.000000,5.000000,-3.000000,0.000000,-6.000000,-5.000000,0.000000,1.000000
1301462.258915,-2.000000,-4.000000,-1.000000,-5.000000,4.000000,-2.000000,0.000000,-6.000000
1301462.259688,2.000000,-2.000000,0.000000,-3.000000,-1.000000,0.000000,-1.000000,1.000000
1301462.259711,1.000000,1.000000,0.000000,-4.000000,-2.000000,-1.000000,-6.000000,1.000000
1301462.260030,2.000000,-4.000000,-4.000000,-4.000000,-2.000000,-3.000000,-2.000000,1.000000
1301462.260078,-3.000000,-1.000000,3.000000,1.000000,3.000000,-1.000000,-3.000000,-3.000000
1301462.278683,-3.000000,-2.000000,-1.000000,-1.000000,-2.000000,-1.000000,0.000000,0.000000
1301462.279039,-1.000000,-3.000000,-1.000000,0.000000,2.000000,-5.000000,5.000000,5.000000
1301462.279403,-3.000000,3.000000,-3.000000,1.000000,-2.000000,-2.000000,-2.000000,-5.000000
1301462.279458,-2.000000,6.000000,-3.000000,-1.000000,-7.000000,-1.000000,-2.000000,0.000000
1301462.280146,2.000000,-2.000000,0.000000,-4.000000,-6.000000,-6.000000,-1.000000,3.000000
1301462.280189,-3.000000,1.000000,0.000000,-5.000000,3.000000,0.000000,0.000000,1.000000
1301462.292710,-5.000000,-1.000000,-2.000000,-6.000000,-7.000000,1.000000,-1.000000,-3.000000
1301462.292897,0.000000,0.000000,-1.000000,7.000000,4.000000,-1.000000,-2.000000,0.000000
1301462.314617,6.000000,-1.000000,-4.000000,1.000000,-3.000000,1.000000,1.000000,-4.000000
1301462.314663,-2.000000,3.000000,-4.000000,-3.000000,-1.000000,1.000000,-3.000000,-6.000000
1301462.337394,-4.000000,0.000000,0.000000,-1.000000,2.000000,-2.000000,-3.000000,0.000000
1301462.337444,-3.000000,-2.000000,-3.000000,-4.000000,-3.000000,2.000000,-2.000000,-1.000000
1301462.354056,3.000000,-2.000000,4.000000,4.000000,1.000000,-4.000000,-4.000000,-3.000000
1301462.354462,3.000000,0.000000,1.000000,7.000000,1.000000,-2.000000,-1.000000,-2.000000
1301462.354897,-6.000000,-3.000000,2.000000,-1.000000,-4.000000,-7.000000,-2.000000,1.000000
1301462.355030,-3.000000,-2.000000,1.000000,-1.000000,-5.000000,-5.000000,0.000000,3.000000
1301462.356843,0.000000,-2.000000,0.000000,-5.000000,-3.000000,-4.000000,-1.000000,2.000000
1301462.356869,-3.000000,1.000000,0.000000,4.000000,4.000000,0.000000,-3.000000,-3.000000
1301462.357017,4.000000,-1.000000,-3.000000,0.000000,-3.000000,-2.000000,1.000000,-2.000000
1301462.357032,-4.000000,-8.000000,4.000000,3.000000,3.000000,3.000000,-1.000000,1.000000
1301462.360309,-3.000000,-3.000000,0.000000,-1.000000,-6.000000,-2.000000,-1.000000,2.000000
1301462.360338,3.000000,-3.000000,-4.000000,-6.000000,0.000000,-3.000000,2.000000,-5.000000
1301462.374986,-1.000000,0.000000,-4.000000,0.000000,-1.000000,-2.000000,-6.000000,-1.000000
1301462.375035,-2.000000,-5.000000,0.000000,5.000000,4.000000,1.000000,3.000000,-4.000000
1301462.398933,2.000000,1.000000,-8.000000,-6.000000,-9.000000,-1.000000,-2.000000,-1.000000
1301462.398982,0.000000,-4.000000,-1.000000,2.000000,0.000000,1.000000,-1.000000,1.000000
1301462.400125,2.000000,0.000000,3.000000,-3.000000,3.000000,-2.000000,-3.000000,0.000000
1301462.400171,-9.000000,2.000000,-4.000000,-8.000000,1.000000,-3.000000,0.000000,-5.000000
1301462.401838,-9.000000,0.000000,-3.000000,-4.000000,-3.000000,-2.000000,-1.000000,4.000000
1301462.401901,-4.000000,-1.000000,-2.000000,-6.000000,3.000000,2.000000,3.000000,-4.000000
1301462.412549,-5.000000,-3.000000,3.000000,3.000000,0.000000,-1.000000,-2.000000,-5.000000
1301462.412609,1.000000,1.000000,0.000000,2.000000,-3.000000,-5.000000,0.000000,0.000000
1301462.435151,0.000000,1.000000,-2.000000,-1.000000,-3.000000,-6.000000,-1.000000,0.000000
1301462.435196,8.000000,-6.000000,-1.000000,-1.000000,-2.000000,2.000000,2.000000,-5.000000
1301462.442847,-5.000000,-2.000000,-1.000000,2.000000,-9.000000,-2.000000,-1.000000,3.000000
1301462.442900,4.000000,3.000000,1.000000,3.000000,2.000000,0.000000,-2.000000,2.000000
1301462.480975,-2.000000,-6.000000,0.000000,-2.000000,-8.000000,-1.000000,1.000000,-3.000000
1301462.481114,1.000000,2.000000,-1.000000,0.000000,0.000000,0.000000,-1.000000,-3.000000
1301462.481354,3.000000,-2.000000,-1.000000,2.000000,1.000000,-2.000000,-2.000000,-3.000000
1301462.481372,-1.000000,1.000000,2.000000,5.000000,5.000000,-7.000000,-3.000000,-2.000000
1301462.496298,1.000000,-6.000000,-5.000000,1.000000,3.000000,-6.000000,4.000000,-2.000000
1301462.496521,1.000000,-5.000000,-2.000000,-1.000000,1.000000,-2.000000,-1.000000,1.000000
1301462.496879,-5.000000,-2.000000,-4.000000,-2.000000,-4.000000,4.000000,-5.000000,1.000000
1301462.496925,1.000000,-4.000000,-2.000000,0.000000,5.000000,-1.000000,-6.000000,-1.000000
1301462.498408,-2.000000,3.000000,-4.000000,-1.000000,-4.000000,-2.000000,1.000000,0.000000
1301462.498432,1.000000,-2.000000,0.000000,-1.000000,6.000000,3.000000,5.000000,0.000000
1301462.498684,3.000000,-6.000000,-3.000000,-3.000000,-5.000000,-5.000000,-1.000000,-3.000000
1301462.498706,-3.000000,3.000000,-3.000000,3.000000,5.000000,-2.000000,0.000000,-1.000000
1301462.518081,1.000000,-1.000000,1.000000,0.000000,-6.000000,-6.000000,0.000000,1.000000
1301462.518448,1.000000,1.000000,-6.000000,2.000000,-4.000000,1.000000,2.000000,0.000000
1301462.519008,1.000000,-6.000000,-2.000000,-3.000000,-4.000000,0.000000,-1.000000,0.000000
1301462.519033,-5.000000,-3.000000,-1.000000,-5.000000,-1.000000,1.000000,1.000000,3.000000
1301462.532436,-2.000000,-3.000000,-6.000000,-2.000000,-3.000000,-9.000000,-1.000000,-3.000000
1301462.532464,-5.000000,-1.000000,1.000000,-3.000000,0.000000,-2.000000,0.000000,1.000000
1301462.570122,-2.000000,-5.000000,-2.000000,-3.000000,-2.000000,-3.000000,-2.000000,-3.000000
1301462.570158,1.000000,1.000000,-2.000000,5.000000,0.000000,4.000000,-4.000000,-4.000000
1301462.614791,0.000000,1.000000,-1.000000,1.000000,5.000000,6.000000,1.000000,1.000000
1301462.615304,-4.000000,2.000000,2.000000,-3.000000,-1.000000,-4.000000,0.000000,-3.000000
1301462.615900,0.000000,-1.000000,-1.000000,4.000000,4.000000,1.000000,2.000000,-2.000000
1301462.615956,-6.000000,2.000000,3.000000,9.000000,1.000000,5.000000,-2.000000,-2.000000
1301462.617240,2.000000,1.000000,0.000000,0.000000,0.000000,-6.000000,-5.000000,-2.000000
1301462.617292,1.000000,-4.000000,1.000000,2.000000,2.000000,-4.000000,2.000000,2.000000
1301462.618390,1.000000,-1.000000,3.000000,3.000000,3.000000,6.000000,1.000000,-5.000000
1301462.618765,-2.000000,2.000000,0.000000,1.000000,4.000000,4.000000,2.000000,-6.000000
1301462.619250,-4.000000,-6.000000,-2.000000,0.000000,-3.000000,-3.000000,-2.000000,-2.000000
1301462.619300,7.000000,-3.000000,-1.000000,1.000000,-6.000000,-7.000000,1.000000,-1.000000
1301462.619709,0.000000,-1.000000,-5.000000,1.000000,-2.000000,0.000000,-3.000000,-2.000000
1301462.619760,4.000000,3.000000,-2.000000,-4.000000,-8.000000,-4.000000,0.000000,-2.000000
1301462.630617,2.000000,-1.000000,1.000000,3.000000,-4.000000,2.000000,0.000000,-1.000000
1301462.630673,6.000000,-3.000000,-4.000000,-5.000000,-2.000000,2.000000,-5.000000,0.000000
1301462.630928,0.000000,-5.000000,-3.000000,-5.000000,0.000000,-3.000000,1.000000,-3.000000
1301462.630969,6.000000,-8.000000,-1.000000,-2.000000,0.000000,2.000000,-2.000000,-1.000000
1301462.652749,7.000000,4.000000,-2.000000,0.000000,1.000000,1.000000,2.000000,1.000000
1301462.652784,1.000000,0.000000,-1.000000,0.000000,1.000000,-1.000000,0.000000,1.000000
1301462.675055,-5.000000,-1.000000,-1.000000,-4.000000,0.000000,-4.000000,-1.000000,0.000000
1301462.675084,-5.000000,-2.000000,-1.000000,-3.000000,0.000000,-1.000000,-2.000000,0.000000
1301462.697565,-2.000000,6.000000,0.000000,1.000000,-2.000000,-3.000000,3.000000,-2.000000
1301462.697593,-2.000000,2.000000,-1.000000,0.000000,-4.000000,-1.000000,-1.000000,2.000000
1301462.712408,3.000000,1.000000,-6.000000,-2.000000,0.000000,0.000000,-2.000000,-1.000000
1301462.712460,-7.000000,0.000000,-4.000000,2.000000,4.000000,-1.000000,0.000000,-3.000000
1301462.713974,0.000000,-2.000000,-3.000000,-4.000000,2.000000,-3.000000,1.000000,1.000000
1301462.714023,8.000000,1.000000,1.000000,3.000000,-7.000000,0.000000,4.000000,2.000000
1301462.714826,-3.000000,-1.000000,-6.000000,-3.000000,-4.000000,2.000000,-3.000000,-5.000000
1301462.715031,0.000000,2.000000,0.000000,0.000000,-1.000000,-1.000000,-1.000000,3.000000
1301462.734922,-6.000000,-3.000000,0.000000,0.000000,-1.000000,0.000000,-1.000000,0.000000
1301462.734949,3.000000,2.000000,-2.000000,5.000000,-1.000000,4.000000,-1.000000,1.000000
1301462.749920,0.000000,1.000000,-4.000000,-5.000000,-3.000000,-2.000000,-5.000000,1.000000
1301462.749968,1.000000,-2.000000,4.000000,-5.000000,-4.000000,-4.000000,-5.000000,-4.000000
1301462.772483,0.000000,0.000000,-1.000000,4.000000,7.000000,4.000000,-2.000000,-5.000000
1301462.773290,-5.000000,-3.000000,0.000000,3.000000,3.000000,6.000000,-2.000000,1.000000
1301462.774427,0.000000,-3.000000,-4.000000,-5.000000,-5.000000,-4.000000,-1.000000,-1.000000
1301462.774451,1.000000,0.000000,3.000000,-1.000000,5.000000,-1.000000,0.000000,2.000000
1301462.794451,0.000000,1.000000,-1.000000,1.000000,2.000000,5.000000,0.000000,-2.000000
1301462.794477,-1.000000,0.000000,5.000000,4.000000,-1.000000,0.000000,-2.000000,-4.000000
1301462.809892,4.000000,3.000000,-4.000000,-5.000000,-5.000000,-5.000000,-2.000000,-3.000000
1301462.809927,1.000000,-5.000000,-1.000000,1.000000,-3.000000,1.000000,-2.000000,-1.000000
1301462.832870,0.000000,3.000000,-7.000000,2.000000,0.000000,-1.000000,-5.000000,1.000000
1301462.832900,-3.000000,-1.000000,3.000000,-1.000000,2.000000,-1.000000,-1.000000,-1.000000
1301462.833693,1.000000,-4.000000,0.000000,2.000000,-1.000000,-3.000000,-1.000000,-1.000000
1301462.833848,-4.000000,-6.000000,-4.000000,2.000000,0.000000,1.000000,2.000000,1.000000
1301462.834214,-5.000000,0.000000,-2.000000,4.000000,-1.000000,0.000000,-3.000000,2.000000
1301462.834232,-1.000000,-1.000000,-2.000000,-3.000000,2.000000,1.000000,-3.000000,-6.000000
1301462.834496,-2.000000,-2.000000,-2.000000,-8.000000,2.000000,-4.000000,-3.000000,0.000000
1301462.834520,0.000000,-4.000000,-3.000000,-4.000000,-1.000000,-4.000000,-1.000000,-5.000000
1301462.835113,2.000000,4.000000,1.000000,3.000000,0.000000,-4.000000,1.000000,-1.000000
1301462.835147,-2.000000,0.000000,-4.000000,-3.000000,-1.000000,-3.000000,0.000000,-1.000000
1301462.835724,0.000000,-2.000000,-1.000000,3.000000,4.000000,-1.000000,2.000000,-4.000000
1301462.835749,1.000000,1.000000,-1.000000,-5.000000,2.000000,-2.000000,-6.000000,-2.000000
1301462.846910,-1.000000,-4.000000,-3.000000,0.000000,1.000000,1.000000,-2.000000,-1.000000
1301462.846947,2.000000,1.000000,0.000000,0.000000,1.000000,0.000000,-3.000000,-1.000000
1301462.854299,-2.000000,-6.000000,-5.000000,-2.000000,0.000000,-1.000000,0.000000,1.000000
1301462.854329,-3.000000,-2.000000,-2.000000,0.000000,2.000000,2.000000,-2.000000,-1.000000
1301462.869356,3.000000,-5.000000,-4.000000,4.000000,-6.000000,-1.000000,-4.000000,0.000000
1301462.869389,1.000000,-6.000000,-1.000000,-4.000000,-1.000000,-1.000000,-3.000000,4.000000
1301462.870077,-8.000000,-6.000000,2.000000,-4.000000,3.000000,2.000000,0.000000,3.000000
1301462.870093,-1.000000,0.000000,-5.000000,-6.000000,-1.000000,1.000000,0.000000,-4.000000
1301462.906819,-1.000000,-1.000000,2.000000,-2.000000,-3.000000,-7.000000,2.000000,-2.000000
1301462.906840,-1.000000,0.000000,1.000000,4.000000,2.000000,2.000000,0.000000,1.000000
1301462.914337,2.000000,-7.000000,1.000000,-6.000000,2.000000,-4.000000,-4.000000,5.000000
1301462.914368,3.000000,-1.000000,2.000000,-7.000000,-3.000000,-3.000000,-1.000000,-1.000000
1301462.929922,-8.000000,-3.000000,-2.000000,-4.000000,4.000000,-1.000000,-2.000000,1.000000
1301462.929959,1.000000,-2.000000,1.000000,-1.000000,-4.000000,1.000000,-2.000000,-2.000000
1301462.930500,4.000000,1.000000,-5.000000,0.000000,0.000000,1.000000,0.000000,3.000000
1301462.930515,0.000000,-4.000000,-1.000000,-5.000000,-4.000000,-1.000000,-3.000000,-1.000000
1301462.931653,-3.000000,-6.000000,0.000000,6.000000,0.000000,-5.000000,0.000000,-7.000000
1301462.931683,-11.000000,0.000000,-9.000000,2.000000,1.000000,-6.000000,-2.000000,0.000000
1301462.932434,1.000000,0.000000,4.000000,-4.000000,-1.000000,-2.000000,3.000000,-3.000000
1301462.932465,-3.000000,-1.000000,-4.000000,-5.000000,8.000000,0.000000,0.000000,-1.000000
1301462.952438,-5.000000,-2.000000,0.000000,-1.000000,2.000000,2.000000,-2.000000,0.000000
1301462.952627,-5.000000,-4.000000,-8.000000,-4.000000,4.000000,2.000000,0.000000,0.000000
1301462.952988,-5.000000,0.000000,-5.000000,-6.000000,0.000000,-2.000000,-1.000000,-4.000000
1301462.953013,-2.000000,-6.000000,3.000000,-1.000000,0.000000,-4.000000,-3.000000,3.000000
1301462.966915,0.000000,-1.000000,-6.000000,-6.000000,-1.000000,-1.000000,3.000000,-1.000000
1301462.966946,4.000000,-6.000000,-3.000000,-1.000000,-4.000000,0.000000,2.000000,0.000000
1301462.974094,2.000000,3.000000,0.000000,4.000000,-1.000000,-1.000000,-3.000000,2.000000
1301462.974130,0.000000,-5.000000,-2.000000,0.000000,0.000000,-4.000000,-4.000000,-3.000000
1301462.989367,0.000000,4.000000,0.000000,-3.000000,-4.000000,-3.000000,1.000000,1.000000
1301462.989391,3.000000,1.000000,-1.000000,2.000000,-2.000000,-5.000000,-2.000000,-5.000000
1301462.989840,-1.000000,-5.000000,-3.000000,1.000000,0.000000,4.000000,-3.000000,-5.000000
1301462.989855,0.000000,-2.000000,1.000000,5.000000,-2.000000,-5.000000,-1.000000,1.000000
1301463.027056,-4.000000,-3.000000,-3.000000,-3.000000,5.000000,4.000000,-1.000000,-4.000000
1301463.027090,3.000000,-5.000000,0.000000,-4.000000,3.000000,0.000000,1.000000,-4.000000
1301463.034393,0.000000,0.000000,-4.000000,0.000000,-4.000000,1.000000,0.000000,2.000000
1301463.034417,0.000000,-1.000000,-3.000000,-4.000000,-1.000000,-5.000000,-2.000000,-2.000000
1301463.071860,2.000000,-3.000000,-2.000000,-5.000000,1.000000,1.000000,-1.000000,1.000000
1301463.072028,3.000000,0.000000,0.000000,3.000000,-6.000000,0.000000,-1.000000,3.000000
1301463.072324,-1.000000,-6.000000,3.000000,-9.000000,0.000000,-2.000000,-1.000000,0.000000
1301463.072347,-3.000000,-6.000000,-4.000000,-4.000000,-5.000000,-3.000000,-2.000000,-1.000000
1301463.073355,-3.000000,2.000000,-6.000000,2.000000,1.000000,1.000000,-5.000000,0.000000
1301463.073427,0.000000,3.000000,-2.000000,0.000000,-2.000000,-1.000000,1.000000,1.000000
1301463.074077,0.000000,3.000000,4.000000,-3.000000,-1.000000,0.000000,-3.000000,4.000000
1301463.074109,-4.000000,-3.000000,-1.000000,-2.000000,1.000000,2.000000,-3.000000,-2.000000
1301463.075505,-1.000000,0.000000,-1.000000,2.000000,-2.000000,4.000000,1.000000,0.000000
1301463.075519,4.000000,1.000000,-5.000000,-5.000000,-1.000000,-3.000000,-2.000000,-5.000000
1301463.086780,-1.000000,0.000000,-5.000000,-7.000000,-7.000000,-2.000000,-1.000000,0.000000
1301463.086812,-2.000000,-1.000000,1.000000,0.000000,-3.000000,-4.000000,2.000000,-1.000000
1301463.109368,2.000000,-2.000000,-3.000000,-2.000000,-5.000000,1.000000,0.000000,-6.000000
1301463.109409,-2.000000,1.000000,-1.000000,-7.000000,1.000000,0.000000,-3.000000,-1.000000
1301463.131606,-8.000000,-3.000000,-3.000000,4.000000,-7.000000,0.000000,0.000000,-4.000000
1301463.131623,0.000000,-3.000000,3.000000,2.000000,-4.000000,-1.000000,2.000000,-2.000000
1301463.184905,-3.000000,-5.000000,0.000000,1.000000,-4.000000,4.000000,-3.000000,2.000000
1301463.184928,-6.000000,-1.000000,0.000000,-1.000000,0.000000,-3.000000,-3.000000,1.000000
1301463.185633,5.000000,-1.000000,0.000000,9.000000,4.000000,2.000000,-3.000000,2.000000
1301463.185653,0.000000,-1.000000,-1.000000,6.000000,5.000000,3.000000,2.000000,1.000000
1301463.186076,0.000000,3.000000,3.000000,-2.000000,-5.000000,-4.000000,0.000000,0.000000
1301463.186105,0.000000,4.000000,2.000000,0.000000,-1.000000,3.000000,0.000000,1.000000
1301463.187442,-3.000000,0.000000,-1.000000,-1.000000,-3.000000,-2.000000,-5.000000,-1.000000
1301463.187477,1.000000,-1.000000,-3.000000,-1.000000,-2.000000,1.000000,1.000000,0.000000
1301463.188116,-5.000000,-1.000000,-4.000000,-4.000000,-1.000000,-6.000000,-1.000000,1.000000
1301463.188146,4.000000,-1.000000,1.000000,-3.000000,-1.000000,1.000000,1.000000,-2.000000
1301463.192505,4.000000,-4.000000,0.000000,1.000000,2.000000,3.000000,-3.000000,0.000000
1301463.192534,0.000000,6.000000,-6.000000,-10.000000,-5.000000,-1.000000,1.000000,-1.000000
1301463.206917,2.000000,-3.000000,-6.000000,-4.000000,-3.000000,-3.000000,-1.000000,3.000000
1301463.206933,0.000000,0.000000,-2.000000,-2.000000,1.000000,-3.000000,-1.000000,1.000000
1301463.244381,-1.000000,0.000000,2.000000,0.000000,-2.000000,1.000000,-1.000000,1.000000
1301463.244409,-5.000000,1.000000,0.000000,3.000000,-2.000000,-4.000000,-1.000000,0.000000
1301463.251659,2.000000,0.000000,2.000000,1.000000,4.000000,2.000000,0.000000,-1.000000
1301463.251676,-2.000000,-5.000000,-2.000000,-1.000000,0.000000,-1.000000,-2.000000,0.000000
1301463.266778,3.000000,6.000000,3.000000,-3.000000,-4.000000,-8.000000,0.000000,1.000000
1301463.266807,-1.000000,-1.000000,0.000000,-1.000000,4.000000,-1.000000,0.000000,-4.000000
1301463.282313,4.000000,-2.000000,-2.000000,4.000000,2.000000,5.000000,-5.000000,-3.000000
1301463.282352,-5.000000,-5.000000,-4.000000,-3.000000,-5.000000,1.000000,0.000000,-3.000000
1301463.304303,-6.000000,0.000000,-4.000000,-4.000000,-4.000000,0.000000,1.000000,-1.000000
1301463.304325,-5.000000,-5.000000,6.000000,1.000000,2.000000,1.000000,0.000000,-2.000000
1301463.311637,-5.000000,2.000000,-1.000000,-5.000000,0.000000,-3.000000,-1.000000,-1.000000
1301463.311670,3.000000,-1.000000,-3.000000,-3.000000,0.000000,2.000000,-3.000000,-5.000000
1301463.327118,4.000000,-2.000000,5.000000,0.000000,-2.000000,1.000000,4.000000,-1.000000
1301463.327158,-4.000000,4.000000,1.000000,4.000000,-5.000000,2.000000,1.000000,2.000000
1301463.349206,2.000000,1.000000,-6.000000,4.000000,0.000000,2.000000,-4.000000,1.000000
1301463.349235,0.000000,-2.000000,-4.000000,-3.000000,4.000000,3.000000,5.000000,-2.000000
1301463.386790,-2.000000,-2.000000,1.000000,-5.000000,1.000000,3.000000,-3.000000,-3.000000
1301463.386821,-2.000000,-1.000000,0.000000,3.000000,-3.000000,-4.000000,-4.000000,2.000000
1301463.401686,5.000000,-4.000000,-1.000000,5.000000,0.000000,5.000000,-1.000000,5.000000
1301463.401703,2.000000,-5.000000,2.000000,1.000000,-1.000000,0.000000,1.000000,-5.000000
1301463.424776,4.000000,4.000000,-6.000000,0.000000,-8.000000,-3.000000,3.000000,2.000000
1301463.424806,3.000000,-4.000000,0.000000,4.000000,0.000000,0.000000,0.000000,0.000000
1301463.447647,0.000000,0.000000,-1.000000,-8.000000,-2.000000,-1.000000,2.000000,-3.000000
1301463.447694,-5.000000,1.000000,0.000000,0.000000,-3.000000,-3.000000,3.000000,-1.000000
1301463.463069,-3.000000,-1.000000,1.000000,-2.000000,-4.000000,-4.000000,-2.000000,3.000000
1301463.463121,-5.000000,1.000000,-1.000000,3.000000,-5.000000,-1.000000,3.000000,5.000000
1301463.463596,-1.000000,1.000000,-4.000000,1.000000,-6.000000,0.000000,-2.000000,2.000000
1301463.463643,-1.000000,1.000000,-1.000000,0.000000,6.000000,2.000000,-1.000000,0.000000
1301463.465413,-6.000000,-5.000000,-1.000000,-5.000000,3.000000,4.000000,0.000000,-4.000000
1301463.465697,3.000000,-2.000000,-3.000000,1.000000,1.000000,1.000000,0.000000,-2.000000
1301463.466087,-4.000000,-1.000000,1.000000,-3.000000,7.000000,1.000000,-2.000000,0.000000
1301463.466150,-1.000000,-1.000000,0.000000,4.000000,2.000000,2.000000,-1.000000,2.000000
1301463.467213,-4.000000,0.000000,-5.000000,-6.000000,2.000000,2.000000,3.000000,1.000000
1301463.467252,-1.000000,2.000000,-5.000000,-4.000000,-7.000000,-3.000000,-4.000000,-3.000000
1301463.467698,0.000000,-5.000000,-2.000000,3.000000,1.000000,-3.000000,0.000000,-1.000000
1301463.467719,-2.000000,2.000000,-2.000000,-4.000000,-2.000000,0.000000,-2.000000,-1.000000
1301463.530302,-3.000000,-6.000000,3.000000,2.000000,4.000000,1.000000,2.000000,0.000000
1301463.530329,0.000000,-5.000000,2.000000,-7.000000,2.000000,-5.000000,-2.000000,-3.000000
1301463.545469,0.000000,4.000000,0.000000,-6.000000,-5.000000,-3.000000,-2.000000,-3.000000
1301463.545495,3.000000,-1.000000,-2.000000,3.000000,4.000000,0.000000,2.000000,1.000000
1301463.547411,-1.000000,-5.000000,0.000000,3.000000,-3.000000,4.000000,-1.000000,-4.000000
1301463.547480,0.000000,-1.000000,-5.000000,4.000000,0.000000,1.000000,3.000000,-3.000000
1301463.548780,0.000000,-3.000000,-6.000000,1.000000,3.000000,5.000000,0.000000,-5.000000
1301463.548920,-1.000000,2.000000,2.000000,-2.000000,0.000000,-2.000000,-3.000000,-5.000000
1301463.549638,0.000000,2.000000,0.000000,-2.000000,-3.000000,0.000000,-2.000000,2.000000
1301463.549686,-6.000000,2.000000,3.000000,-5.000000,1.000000,-5.000000,0.000000,-2.000000
1301463.550104,1.000000,-3.000000,2.000000,0.000000,4.000000,1.000000,-1.000000,-1.000000
1301463.550126,1.000000,0.000000,0.000000,1.000000,-4.000000,-3.000000,-3.000000,-3.000000
1301463.567912,2.000000,-1.000000,-4.000000,-1.000000,-1.000000,3.000000,-1.000000,-3.000000
1301463.567965,-6.000000,-2.000000,-2.000000,6.000000,10.000000,4.000000,-1.000000,-5.000000
1301463.568373,5.000000,3.000000,-2.000000,1.000000,1.000000,2.000000,-3.000000,-1.000000
1301463.568421,-2.000000,-5.000000,-1.000000,0.000000,2.000000,0.000000,1.000000,-3.000000
1301463.583415,1.000000,0.000000,-1.000000,-3.000000,-2.000000,-3.000000,-4.000000,-3.000000
1301463.583465,4.000000,-3.000000,-1.000000,1.000000,0.000000,-2.000000,0.000000,-4.000000
1301463.584542,2.000000,-2.000000,1.000000,-6.000000,-6.000000,1.000000,-1.000000,-2.000000
1301463.584585,-7.000000,-3.000000,0.000000,5.000000,2.000000,-4.000000,-3.000000,-4.000000
1301463.634996,4.000000,-1.000000,-1.000000,6.000000,0.000000,2.000000,1.000000,1.000000
1301463.635049,-6.000000,3.000000,-2.000000,-6.000000,2.000000,-1.000000,0.000000,-4.000000
1301463.643021,-3.000000,1.000000,-1.000000,-2.000000,-5.000000,2.000000,0.000000,-1.000000
1301463.643233,1.000000,-3.000000,0.000000,-2.000000,-1.000000,3.000000,-1.000000,-1.000000
1301463.644675,0.000000,0.000000,0.000000,-1.000000,-7.000000,-5.000000,0.000000,-1.000000
1301463.645181,0.000000,1.000000,-5.000000,-3.000000,-2.000000,-5.000000,-1.000000,1.000000
1301463.647267,-3.000000,-2.000000,-2.000000,-2.000000,-2.000000,0.000000,2.000000,0.000000
1301463.647314,2.000000,-2.000000,5.000000,-1.000000,-2.000000,-3.000000,-4.000000,-3.000000
1301463.647642,5.000000,1.000000,2.000000,-1.000000,1.000000,1.000000,-2.000000,-3.000000
1301463.647694,2.000000,-4.000000,0.000000,-5.000000,-6.000000,-5.000000,-3.000000,1.000000
1301463.665621,-7.000000,2.000000,-3.000000,-3.000000,0.000000,-1.000000,0.000000,-5.000000
1301463.665674,0.000000,2.000000,0.000000,-5.000000,-5.000000,1.000000,-7.000000,-6.000000
1301463.666307,3.000000,-6.000000,4.000000,0.000000,-2.000000,-5.000000,0.000000,-5.000000
1301463.666356,0.000000,-3.000000,2.000000,-4.000000,2.000000,0.000000,0.000000,2.000000
1301463.681226,-3.000000,0.000000,-8.000000,-5.000000,-1.000000,4.000000,1.000000,1.000000
1301463.681280,-3.000000,3.000000,0.000000,8.000000,4.000000,1.000000,-3.000000,3.000000
1301463.687756,5.000000,1.000000,-3.000000,-6.000000,-5.000000,-9.000000,-1.000000,-3.000000
1301463.687806,-2.000000,0.000000,0.000000,1.000000,5.000000,1.000000,2.000000,1.000000
1301463.717905,0.000000,0.000000,-3.000000,1.000000,1.000000,2.000000,2.000000,-1.000000
1301463.717962,1.000000,0.000000,3.000000,-4.000000,-6.000000,-4.000000,2.000000,1.000000
1301463.725474,0.000000,-3.000000,-3.000000,-1.000000,0.000000,2.000000,-4.000000,-2.000000
1301463.725793,-3.000000,-6.000000,-3.000000,1.000000,-3.000000,6.000000,-3.000000,-3.000000
1301463.747689,-3.000000,-2.000000,-3.000000,-7.000000,-8.000000,-4.000000,-2.000000,1.000000
1301463.747754,4.000000,1.000000,1.000000,1.000000,1.000000,3.000000,-3.000000,-6.000000
1301463.762601,0.000000,0.000000,-6.000000,-1.000000,-7.000000,-3.000000,-5.000000,-2.000000
1301463.762662,-7.000000,-1.000000,-2.000000,-3.000000,-1.000000,2.000000,-2.000000,2.000000
1301463.786810,0.000000,0.000000,-1.000000,-5.000000,-6.000000,-3.000000,1.000000,2.000000
1301463.787834,2.000000,0.000000,-1.000000,2.000000,-2.000000,0.000000,0.000000,-5.000000
1301463.790670,-7.000000,3.000000,-2.000000,3.000000,5.000000,0.000000,1.000000,-1.000000
1301463.790720,-5.000000,1.000000,-5.000000,-4.000000,-5.000000,-6.000000,1.000000,-2.000000
1301463.790967,-2.000000,-2.000000,2.000000,-4.000000,-1.000000,0.000000,-2.000000,2.000000
1301463.791001,-5.000000,2.000000,-4.000000,0.000000,-3.000000,-5.000000,2.000000,-2.000000
1301463.791499,4.000000,-1.000000,-3.000000,1.000000,1.000000,4.000000,0.000000,-9.000000
1301463.791538,-5.000000,-1.000000,-1.000000,-8.000000,-4.000000,0.000000,-4.000000,-5.000000
1301463.801517,-5.000000,-1.000000,-4.000000,-1.000000,-1.000000,-1.000000,-4.000000,-1.000000
1301463.801604,-5.000000,1.000000,2.000000,0.000000,2.000000,-2.000000,-2.000000,-6.000000
1301463.808215,0.000000,-1.000000,7.000000,4.000000,-5.000000,-2.000000,1.000000,1.000000
1301463.808263,-1.000000,0.000000,2.000000,-6.000000,3.000000,3.000000,0.000000,0.000000
1301463.845437,1.000000,-3.000000,4.000000,1.000000,-1.000000,-4.000000,0.000000,-4.000000
1301463.845486,0.000000,5.000000,0.000000,3.000000,5.000000,-4.000000,-1.000000,-5.000000
1301463.861026,-2.000000,-5.000000,-5.000000,-4.000000,2.000000,8.000000,-1.000000,0.000000
1301463.861089,-4.000000,2.000000,-1.000000,-1.000000,-1.000000,-2.000000,-6.000000,-4.000000
1301463.875595,-7.000000,-1.000000,0.000000,-4.000000,-3.000000,2.000000,4.000000,-1.000000
1301463.875665,-6.000000,-4.000000,-7.000000,7.000000,3.000000,2.000000,1.000000,-5.000000
1301463.882944,1.000000,3.000000,-4.000000,3.000000,1.000000,1.000000,-4.000000,-1.000000
1301463.882998,4.000000,3.000000,0.000000,-5.000000,-2.000000,0.000000,-1.000000,-5.000000
1301463.908701,4.000000,-6.000000,3.000000,5.000000,2.000000,-3.000000,-2.000000,0.000000
1301463.908998,-1.000000,1.000000,5.000000,6.000000,3.000000,7.000000,-2.000000,3.000000
1301463.909355,-1.000000,0.000000,0.000000,-7.000000,-1.000000,0.000000,0.000000,3.000000
1301463.909418,-2.000000,-3.000000,-4.000000,2.000000,-1.000000,-3.000000,-1.000000,-2.000000
1301463.910049,1.000000,1.000000,-3.000000,-5.000000,-6.000000,-3.000000,-3.000000,0.000000
1301463.910102,-8.000000,-1.000000,4.000000,0.000000,4.000000,3.000000,2.000000,1.000000
1301463.910873,1.000000,-1.000000,3.000000,-1.000000,1.000000,1.000000,-2.000000,-4.000000
1301463.910923,0.000000,-2.000000,-3.000000,-4.000000,-4.000000,0.000000,-2.000000,1.000000
1301463.921840,-3.000000,0.000000,1.000000,-6.000000,-5.000000,-3.000000,-8.000000,-5.000000
1301463.921891,0.000000,-2.000000,2.000000,2.000000,0.000000,-1.000000,-4.000000,-2.000000
1301463.942701,0.000000,-6.000000,0.000000,-1.000000,3.000000,5.000000,0.000000,2.000000
1301463.942741,2.000000,0.000000,-3.000000,-1.000000,3.000000,2.000000,-3.000000,1.000000
1301463.957675,4.000000,1.000000,6.000000,-4.000000,-9.000000,-7.000000,3.000000,-3.000000
1301463.957720,6.000000,0.000000,0.000000,8.000000,6.000000,6.000000,3.000000,-4.000000
1301463.965256,-1.000000,-1.000000,-1.000000,-3.000000,-2.000000,-1.000000,-5.000000,-5.000000
1301463.965288,1.000000,-3.000000,1.000000,-1.000000,-4.000000,-5.000000,-1.000000,-3.000000
1301463.987755,1.000000,-5.000000,7.000000,-1.000000,5.000000,0.000000,1.000000,1.000000
1301463.987815,3.000000,-1.000000,1.000000,3.000000,4.000000,-1.000000,-3.000000,-4.000000
1301464.002921,3.000000,4.000000,-3.000000,-2.000000,-3.000000,-4.000000,1.000000,4.000000
1301464.002967,0.000000,-3.000000,-4.000000,-2.000000,-4.000000,-4.000000,-3.000000,2.000000
1301464.025300,1.000000,-1.000000,-1.000000,0.000000,0.000000,-1.000000,4.000000,-4.000000
1301464.025350,1.000000,0.000000,-1.000000,-3.000000,0.000000,0.000000,3.000000,-4.000000
1301464.041123,-5.000000,5.000000,-4.000000,1.000000,0.000000,0.000000,-1.000000,-1.000000
1301464.041477,1.000000,-5.000000,1.000000,5.000000,1.000000,0.000000,2.000000,1.000000
1301464.044098,-2.000000,3.000000,-3.000000,2.000000,3.000000,0.000000,-2.000000,-5.000000
1301464.044128,-8.000000,-3.000000,0.000000,-4.000000,-4.000000,-7.000000,1.000000,-5.000000
1301464.044417,1.000000,-4.000000,6.000000,-1.000000,1.000000,1.000000,-1.000000,0.000000
1301464.044450,-6.000000,-8.000000,-8.000000,0.000000,4.000000,0.000000,0.000000,-1.000000
1301464.044745,2.000000,1.000000,2.000000,-8.000000,-3.000000,-6.000000,3.000000,5.000000
1301464.044784,-11.000000,2.000000,-4.000000,-1.000000,-3.000000,-3.000000,-3.000000,-3.000000
1301464.077973,-5.000000,3.000000,-2.000000,-3.000000,-4.000000,-2.000000,-2.000000,-4.000000
1301464.078023,2.000000,3.000000,-3.000000,0.000000,2.000000,-2.000000,-1.000000,0.000000
1301464.093065,4.000000,-2.000000,-2.000000,2.000000,2.000000,1.000000,1.000000,0.000000
1301464.093137,-8.000000,1.000000,-6.000000,-1.000000,-2.000000,0.000000,-3.000000,-2.000000
1301464.101114,-1.000000,0.000000,-3.000000,-11.000000,-3.000000,-4.000000,0.000000,-1.000000
1301464.101286,2.000000,-5.000000,-3.000000,-4.000000,-1.000000,-2.000000,1.000000,3.000000
1301464.117115,1.000000,-3.000000,3.000000,-1.000000,0.000000,0.000000,-1.000000,-1.000000
1301464.117261,3.000000,-4.000000,1.000000,-4.000000,1.000000,0.000000,-1.000000,1.000000
1301464.117659,-3.000000,-8.000000,1.000000,5.000000,1.000000,0.000000,-2.000000,1.000000
1301464.117703,5.000000,0.000000,-1.000000,2.000000,1.000000,2.000000,4.000000,3.000000
1301464.124062,-2.000000,5.000000,0.000000,2.000000,-2.000000,-3.000000,-1.000000,-1.000000
1301464.124439,2.000000,3.000000,3.000000,-2.000000,-5.000000,0.000000,-5.000000,-1.000000
1301464.126023,-3.000000,-5.000000,-1.000000,-5.000000,0.000000,-2.000000,-1.000000,0.000000
1301464.126051,-7.000000,-2.000000,-1.000000,-6.000000,0.000000,1.000000,2.000000,2.000000
1301464.126184,-3.000000,-5.000000,0.000000,-1.000000,2.000000,2.000000,-1.000000,2.000000
1301464.126220,3.000000,1.000000,-4.000000,-8.000000,-7.000000,1.000000,-1.000000,2.000000
1301464.138737,0.000000,3.000000,0.000000,4.000000,-2.000000,2.000000,2.000000,4.000000
1301464.138794,-1.000000,4.000000,4.000000,3.000000,3.000000,-4.000000,-1.000000,0.000000
1301464.145297,-3.000000,-3.000000,5.000000,-3.000000,0.000000,2.000000,-5.000000,2.000000
1301464.145327,0.000000,1.000000,3.000000,3.000000,3.000000,5.000000,0.000000,1.000000
1301464.161790,-1.000000,-3.000000,-1.000000,4.000000,0.000000,-3.000000,2.000000,2.000000
1301464.161820,-4.000000,-3.000000,-2.000000,-3.000000,-2.000000,-3.000000,0.000000,-2.000000
1301464.198112,-7.000000,3.000000,-8.000000,1.000000,-4.000000,-9.000000,1.000000,-2.000000
1301464.198144,-7.000000,-3.000000,0.000000,2.000000,1.000000,2.000000,-3.000000,-4.000000
1301464.235124,-7.000000,3.000000,4.000000,-5.000000,4.000000,0.000000,-2.000000,-2.000000
1301464.235180,1.000000,-1.000000,0.000000,-4.000000,0.000000,-1.000000,-3.000000,2.000000
1301464.243254,4.000000,-1.000000,4.000000,2.000000,-3.000000,-1.000000,0.000000,-2.000000
1301464.243325,-6.000000,5.000000,-4.000000,-5.000000,-1.000000,1.000000,0.000000,-6.000000
1301464.259728,-3.000000,-5.000000,0.000000,-1.000000,1.000000,7.000000,0.000000,-4.000000
1301464.259780,0.000000,-1.000000,-1.000000,0.000000,-4.000000,2.000000,-4.000000,-3.000000
1301464.260071,-2.000000,-2.000000,-3.000000,0.000000,5.000000,2.000000,3.000000,-3.000000
1301464.260121,-1.000000,-3.000000,2.000000,-1.000000,-4.000000,-5.000000,0.000000,-1.000000
1301464.262827,-3.000000,-2.000000,-1.000000,0.000000,0.000000,-4.000000,1.000000,-6.000000
1301464.262852,-6.000000,-1.000000,5.000000,-4.000000,-4.000000,1.000000,0.000000,-1.000000
1301464.265276,4.000000,-1.000000,-4.000000,-5.000000,-8.000000,-5.000000,-1.000000,-3.000000
1301464.265327,1.000000,-2.000000,-1.000000,0.000000,0.000000,-2.000000,0.000000,-3.000000
1301464.281416,0.000000,3.000000,-1.000000,-2.000000,3.000000,-3.000000,-1.000000,1.000000
1301464.281443,-4.000000,-2.000000,-3.000000,-3.000000,-3.000000,1.000000,-2.000000,-4.000000
1301464.295059,4.000000,0.000000,-2.000000,1.000000,-2.000000,1.000000,0.000000,-2.000000
1301464.295135,0.000000,2.000000,0.000000,-1.000000,-5.000000,1.000000,-3.000000,1.000000
1301464.317968,-2.000000,-4.000000,1.000000,7.000000,4.000000,3.000000,-2.000000,4.000000
1301464.318013,-4.000000,3.000000,2.000000,-1.000000,-1.000000,0.000000,1.000000,-2.000000
1301464.339901,3.000000,-3.000000,-1.000000,-2.000000,2.000000,3.000000,-2.000000,-2.000000
1301464.339952,2.000000,-5.000000,-1.000000,-4.000000,3.000000,5.000000,-4.000000,-3.000000
1301464.354850,0.000000,-3.000000,-2.000000,-4.000000,-1.000000,3.000000,-2.000000,-2.000000
1301464.354904,-2.000000,3.000000,-3.000000,7.000000,-6.000000,-2.000000,-2.000000,-3.000000
1301464.362461,2.000000,0.000000,8.000000,-1.000000,6.000000,3.000000,-3.000000,-4.000000
1301464.362514,3.000000,5.000000,-4.000000,-3.000000,-6.000000,-3.000000,-2.000000,-5.000000
1301464.378207,-7.000000,-1.000000,-4.000000,-1.000000,2.000000,-3.000000,-1.000000,0.000000
1301464.378247,0.000000,0.000000,-1.000000,-2.000000,-3.000000,0.000000,-2.000000,-6.000000
1301464.379337,-5.000000,1.000000,6.000000,4.000000,1.000000,2.000000,0.000000,3.000000
1301464.379398,4.000000,2.000000,-1.000000,2.000000,-2.000000,-3.000000,1.000000,0.000000
1301464.380689,4.000000,2.000000,1.000000,2.000000,0.000000,1.000000,-1.000000,1.000000
1301464.380721,-1.000000,-1.000000,5.000000,-3.000000,-3.000000,-3.000000,-2.000000,3.000000
1301464.382434,2.000000,-4.000000,-3.000000,3.000000,-4.000000,2.000000,2.000000,-2.000000
1301464.382502,-5.000000,-4.000000,3.000000,-3.000000,-2.000000,-5.000000,-5.000000,-1.000000
1301464.400501,-1.000000,1.000000,-7.000000,-1.000000,1.000000,-4.000000,3.000000,-2.000000
1301464.400984,0.000000,-2.000000,-4.000000,-7.000000,-6.000000,0.000000,1.000000,-1.000000
1301464.401774,-4.000000,2.000000,-1.000000,-1.000000,-2.000000,-2.000000,-3.000000,-1.000000
1301464.401819,0.000000,4.000000,0.000000,-3.000000,-2.000000,-8.000000,0.000000,-3.000000
1301464.414928,-3.000000,1.000000,-1.000000,-3.000000,0.000000,3.000000,1.000000,-3.000000
1301464.414981,-5.000000,-5.000000,-4.000000,2.000000,0.000000,2.000000,3.000000,-6.000000
1301464.429953,-5.000000,-2.000000,0.000000,-5.000000,-4.000000,-2.000000,-2.000000,-3.000000
1301464.430013,5.000000,-2.000000,7.000000,-2.000000,1.000000,-1.000000,-1.000000,-1.000000
1301464.437368,-9.000000,-4.000000,-5.000000,-2.000000,-7.000000,-7.000000,-2.000000,-7.000000
1301464.437422,1.000000,0.000000,1.000000,-1.000000,-7.000000,0.000000,-1.000000,-1.000000
1301464.498042,0.000000,0.000000,1.000000,0.000000,-4.000000,-1.000000,-2.000000,0.000000
1301464.498090,-6.000000,0.000000,0.000000,0.000000,0.000000,3.000000,-3.000000,1.000000
1301464.498738,-1.000000,-3.000000,4.000000,1.000000,4.000000,0.000000,0.000000,6.000000
1301464.498778,-4.000000,-4.000000,-2.000000,6.000000,2.000000,2.000000,0.000000,-4.000000
1301464.500963,-7.000000,-3.000000,-2.000000,2.000000,1.000000,2.000000,2.000000,-4.000000
1301464.501326,1.000000,1.000000,3.000000,3.000000,2.000000,-4.000000,-4.000000,-1.000000
1301464.501609,0.000000,2.000000,1.000000,-2.000000,-1.000000,-1.000000,2.000000,-3.000000
1301464.501659,1.000000,-5.000000,-7.000000,1.000000,-1.000000,-3.000000,-3.000000,2.000000
1301464.502147,3.000000,-3.000000,-1.000000,-3.000000,4.000000,2.000000,1.000000,-1.000000
1301464.502191,5.000000,-5.000000,-4.000000,-3.000000,-2.000000,-3.000000,-1.000000,-4.000000
1301464.504770,-4.000000,4.000000,-2.000000,3.000000,5.000000,-2.000000,0.000000,-2.000000
1301464.504833,5.000000,0.000000,-3.000000,-1.000000,-5.000000,-1.000000,0.000000,-1.000000
1301464.520085,-2.000000,-4.000000,-3.000000,-6.000000,-3.000000,-4.000000,-1.000000,-1.000000
1301464.520114,3.000000,-2.000000,0.000000,1.000000,-2.000000,-3.000000,-3.000000,0.000000
1301464.535101,4.000000,-3.000000,1.000000,-2.000000,-1.000000,-3.000000,2.000000,0.000000
1301464.535137,-4.000000,6.000000,-3.000000,2.000000,-2.000000,-1.000000,-1.000000,-2.000000
1301464.557661,3.000000,-2.000000,-1.000000,-5.000000,1.000000,1.000000,1.000000,-1.000000
1301464.557709,2.000000,-6.000000,-4.000000,-6.000000,2.000000,0.000000,1.000000,-1.000000
1301464.572534,2.000000,-2.000000,3.000000,0.000000,-3.000000,-3.000000,-2.000000,-5.000000
1301464.572708,2.000000,-4.000000,-1.000000,2.000000,-3.000000,0.000000,-3.000000,-2.000000
1301464.595282,3.000000,0.000000,0.000000,0.000000,2.000000,1.000000,-2.000000,0.000000
1301464.595339,-2.000000,-5.000000,-1.000000,3.000000,-1.000000,-1.000000,-3.000000,-1.000000
1301464.617699,5.000000,3.000000,2.000000,1.000000,-3.000000,-2.000000,-4.000000,-2.000000
1301464.617762,2.000000,-5.000000,-1.000000,2.000000,0.000000,-2.000000,3.000000,-2.000000
1301464.639901,0.000000,0.000000,-1.000000,-1.000000,0.000000,-3.000000,1.000000,-1.000000
1301464.639981,6.000000,1.000000,-6.000000,0.000000,-6.000000,-3.000000,0.000000,-1.000000
1301464.654938,-1.000000,-5.000000,-2.000000,-7.000000,-4.000000,0.000000,2.000000,-5.000000
1301464.654990,-2.000000,-7.000000,0.000000,2.000000,-1.000000,0.000000,-2.000000,-5.000000
1301464.679017,-4.000000,1.000000,0.000000,-1.000000,-3.000000,-1.000000,-3.000000,-6.000000
1301464.679384,-1.000000,-3.000000,0.000000,4.000000,-4.000000,-3.000000,-3.000000,5.000000
1301464.680888,1.000000,0.000000,-1.000000,2.000000,1.000000,-1.000000,-2.000000,1.000000
1301464.681326,-2.000000,-3.000000,-3.000000,5.000000,5.000000,4.000000,-1.000000,-5.000000
1301464.682405,1.000000,-4.000000,-1.000000,-2.000000,0.000000,-4.000000,-3.000000,5.000000
1301464.682455,-3.000000,1.000000,0.000000,-4.000000,2.000000,-2.000000,-1.000000,2.000000
1301464.693089,1.000000,7.000000,3.000000,4.000000,0.000000,-6.000000,0.000000,-3.000000
1301464.693121,-1.000000,0.000000,-2.000000,3.000000,5.000000,2.000000,-1.000000,3.000000
1301464.699813,3.000000,-2.000000,-3.000000,-3.000000,4.000000,0.000000,2.000000,0.000000
1301464.699867,3.000000,-4.000000,-1.000000,2.000000,0.000000,0.000000,-2.000000,1.000000
1301464.715844,-2.000000,-1.000000,-6.000000,1.000000,-3.000000,1.000000,-1.000000,-1.000000
1301464.716080,0.000000,0.000000,-5.000000,1.000000,6.000000,3.000000,-4.000000,0.000000
1301464.716822,-2.000000,-1.000000,-4.000000,-6.000000,-3.000000,-3.000000,-5.000000,1.000000
1301464.716872,-7.000000,-5.000000,2.000000,-3.000000,4.000000,2.000000,-2.000000,-1.000000
1301464.738313,0.000000,-6.000000,-2.000000,3.000000,-1.000000,-7.000000,-1.000000,-3.000000
1301464.738343,-1.000000,-7.000000,2.000000,2.000000,-2.000000,-4.000000,-2.000000,0.000000
1301464.739474,4.000000,2.000000,-2.000000,2.000000,3.000000,2.000000,2.000000,3.000000
1301464.739499,-5.000000,-3.000000,-3.000000,5.000000,-1.000000,4.000000,-2.000000,3.000000
1301464.752337,-1.000000,-3.000000,-2.000000,-3.000000,-1.000000,0.000000,-4.000000,-2.000000
1301464.752368,-2.000000,-2.000000,2.000000,-6.000000,1.000000,-2.000000,-3.000000,-5.000000
1301464.774988,-7.000000,4.000000,-2.000000,3.000000,2.000000,0.000000,1.000000,-4.000000
1301464.775045,5.000000,-6.000000,-4.000000,3.000000,8.000000,-2.000000,0.000000,2.000000
1301464.790063,-3.000000,2.000000,4.000000,-2.000000,0.000000,-5.000000,1.000000,1.000000
1301464.790118,1.000000,2.000000,1.000000,-5.000000,3.000000,-3.000000,1.000000,-3.000000
1301464.812670,2.000000,3.000000,-3.000000,8.000000,0.000000,0.000000,2.000000,1.000000
1301464.812698,0.000000,2.000000,-3.000000,-3.000000,-1.000000,-1.000000,-3.000000,1.000000
1301464.820114,-2.000000,-4.000000,1.000000,-4.000000,-6.000000,1.000000,4.000000,0.000000
1301464.820143,4.000000,2.000000,-1.000000,-2.000000,3.000000,-5.000000,0.000000,-2.000000
1301464.836957,0.000000,2.000000,-4.000000,2.000000,2.000000,-1.000000,-1.000000,2.000000
1301464.837024,2.000000,0.000000,-3.000000,3.000000,3.000000,4.000000,-1.000000,-3.000000
1301464.839003,-2.000000,-5.000000,-3.000000,-1.000000,4.000000,2.000000,1.000000,-4.000000
1301464.839040,-1.000000,1.000000,-1.000000,3.000000,0.000000,-1.000000,-3.000000,1.000000
1301464.839233,0.000000,1.000000,7.000000,4.000000,1.000000,1.000000,-1.000000,1.000000
1301464.839281,4.000000,-4.000000,-2.000000,1.000000,-3.000000,1.000000,-5.000000,-4.000000
1301464.839833,-3.000000,-5.000000,-3.000000,-6.000000,0.000000,-3.000000,2.000000,-1.000000
1301464.839865,2.000000,-7.000000,1.000000,-6.000000,2.000000,-1.000000,2.000000,4.000000
1301464.850492,1.000000,-1.000000,0.000000,4.000000,6.000000,-2.000000,5.000000,-1.000000
1301464.850524,0.000000,1.000000,0.000000,-5.000000,-1.000000,-3.000000,-1.000000,0.000000
1301464.858028,2.000000,-3.000000,-6.000000,7.000000,1.000000,-1.000000,4.000000,-5.000000
1301464.858084,-6.000000,3.000000,4.000000,-3.000000,-2.000000,2.000000,1.000000,1.000000
1301464.872699,0.000000,0.000000,-5.000000,-3.000000,2.000000,-3.000000,-2.000000,-5.000000
1301464.872995,-7.000000,-4.000000,6.000000,0.000000,2.000000,-3.000000,-2.000000,-5.000000
1301464.895415,1.000000,-5.000000,-4.000000,2.000000,4.000000,-2.000000,-2.000000,-7.000000
1301464.895629,0.000000,0.000000,0.000000,-3.000000,0.000000,-3.000000,2.000000,-3.000000
1301464.910281,1.000000,-5.000000,-3.000000,-3.000000,-4.000000,1.000000,-3.000000,-1.000000
1301464.910312,-6.000000,2.000000,-3.000000,-2.000000,-6.000000,-3.000000,-5.000000,3.000000
1301464.932513,3.000000,-3.000000,-2.000000,-2.000000,1.000000,1.000000,-3.000000,0.000000
1301464.932564,-3.000000,1.000000,0.000000,3.000000,-2.000000,0.000000,-3.000000,-1.000000
1301464.947647,2.000000,-5.000000,-3.000000,-3.000000,-2.000000,-3.000000,-1.000000,0.000000
1301464.947699,-8.000000,-3.000000,-1.000000,-4.000000,-6.000000,-3.000000,-5.000000,-4.000000
1301464.971125,7.000000,-4.000000,-5.000000,-5.000000,1.000000,-5.000000,-3.000000,1.000000
1301464.971730,4.000000,-2.000000,0.000000,5.000000,-1.000000,0.000000,-1.000000,2.000000
1301464.972288,-1.000000,1.000000,2.000000,-4.000000,2.000000,-1.000000,0.000000,0.000000
1301464.972347,2.000000,-3.000000,-3.000000,0.000000,6.000000,0.000000,2.000000,1.000000
1301464.973313,-2.000000,-1.000000,-4.000000,-7.000000,-4.000000,0.000000,-2.000000,-3.000000
1301464.973356,2.000000,-7.000000,-1.000000,4.000000,3.000000,1.000000,1.000000,3.000000
1301464.975451,5.000000,-2.000000,-3.000000,3.000000,3.000000,0.000000,-2.000000,2.000000
1301464.975589,2.000000,-5.000000,-1.000000,-2.000000,-1.000000,2.000000,-2.000000,1.000000
1301464.977659,-4.000000,4.000000,2.000000,-8.000000,1.000000,-1.000000,-1.000000,1.000000
1301464.977692,3.000000,2.000000,-4.000000,0.000000,3.000000,-5.000000,-3.000000,3.000000
1301464.985250,0.000000,0.000000,-2.000000,-5.000000,-3.000000,1.000000,0.000000,0.000000
1301464.985314,1.000000,1.000000,-6.000000,-1.000000,-3.000000,-3.000000,-3.000000,-3.000000
1301465.015294,-1.000000,4.000000,-3.000000,-7.000000,1.000000,-2.000000,-2.000000,0.000000
1301465.015356,-3.000000,3.000000,0.000000,-3.000000,-2.000000,-1.000000,0.000000,0.000000
1301465.030053,-1.000000,-5.000000,-3.000000,0.000000,-1.000000,0.000000,-1.000000,0.000000
1301465.030085,-1.000000,9.000000,-4.000000,-2.000000,-6.000000,3.000000,-2.000000,-2.000000
1301465.052836,-6.000000,0.000000,1.000000,-1.000000,1.000000,-5.000000,-2.000000,1.000000
1301465.052867,-1.000000,-7.000000,0.000000,-1.000000,1.000000,0.000000,0.000000,-1.000000
1301465.059979,-9.000000,0.000000,4.000000,5.000000,1.000000,-1.000000,1.000000,0.000000
1301465.060033,-1.000000,3.000000,0.000000,-4.000000,-2.000000,0.000000,0.000000,-3.000000
1301465.076378,2.000000,-4.000000,3.000000,0.000000,-3.000000,0.000000,-1.000000,0.000000
1301465.076876,-2.000000,2.000000,-1.000000,8.000000,1.000000,-3.000000,-2.000000,0.000000
1301465.078384,-4.000000,-1.000000,-1.000000,0.000000,6.000000,1.000000,-2.000000,-5.000000
1301465.078421,-1.000000,-6.000000,-1.000000,-3.000000,-6.000000,-2.000000,1.000000,-1.000000
1301465.079294,-1.000000,-4.000000,0.000000,-2.000000,0.000000,-2.000000,-1.000000,-8.000000
1301465.079494,2.000000,-3.000000,-1.000000,-5.000000,0.000000,0.000000,1.000000,0.000000
1301465.079734,4.000000,0.000000,2.000000,-4.000000,0.000000,1.000000,-3.000000,-3.000000
1301465.079758,-4.000000,3.000000,1.000000,-2.000000,-2.000000,-4.000000,-2.000000,2.000000
1301465.090270,-4.000000,-6.000000,2.000000,-5.000000,3.000000,0.000000,-6.000000,1.000000
1301465.090302,-2.000000,-1.000000,-4.000000,-1.000000,1.000000,-1.000000,2.000000,-4.000000
1301465.097802,-2.000000,-3.000000,-1.000000,-3.000000,-3.000000,-4.000000,-1.000000,-2.000000
1301465.097833,3.000000,5.000000,1.000000,-1.000000,1.000000,0.000000,-3.000000,2.000000
1301465.112422,-4.000000,-1.000000,-5.000000,-2.000000,-4.000000,2.000000,-2.000000,1.000000
1301465.112681,-4.000000,-2.000000,0.000000,-3.000000,-10.000000,-2.000000,-1.000000,-3.000000
1301465.127334,1.000000,0.000000,-4.000000,-5.000000,0.000000,1.000000,-4.000000,-4.000000
1301465.127601,-2.000000,-1.000000,4.000000,3.000000,0.000000,2.000000,2.000000,-5.000000
1301465.128095,-1.000000,0.000000,-5.000000,1.000000,-5.000000,-1.000000,-1.000000,0.000000
1301465.128141,0.000000,-5.000000,-3.000000,-3.000000,2.000000,1.000000,3.000000,-3.000000
1301465.150061,-2.000000,1.000000,-2.000000,1.000000,-4.000000,-1.000000,0.000000,0.000000
1301465.150089,-2.000000,-1.000000,-5.000000,-1.000000,-2.000000,-2.000000,-1.000000,-4.000000
1301465.172585,-4.000000,2.000000,-7.000000,-5.000000,-8.000000,-3.000000,-1.000000,0.000000
1301465.172636,0.000000,-3.000000,3.000000,-4.000000,-8.000000,1.000000,-3.000000,-1.000000
1301465.210026,1.000000,-2.000000,-1.000000,1.000000,-4.000000,1.000000,1.000000,-3.000000
1301465.210074,1.000000,-5.000000,2.000000,-2.000000,2.000000,2.000000,-1.000000,2.000000
1301465.211215,-7.000000,-5.000000,0.000000,-5.000000,0.000000,-3.000000,-3.000000,-3.000000
1301465.211264,2.000000,-1.000000,4.000000,-4.000000,-2.000000,0.000000,2.000000,7.000000
1301465.212581,2.000000,4.000000,0.000000,9.000000,0.000000,-3.000000,2.000000,4.000000
1301465.212608,-4.000000,3.000000,1.000000,-3.000000,-3.000000,0.000000,-5.000000,-3.000000
1301465.214388,-2.000000,1.000000,0.000000,-1.000000,-1.000000,-4.000000,1.000000,2.000000
1301465.214411,0.000000,2.000000,0.000000,3.000000,-1.000000,0.000000,-1.000000,-4.000000
1301465.214575,-1.000000,-4.000000,-5.000000,5.000000,-1.000000,-2.000000,-1.000000,0.000000
1301465.214618,1.000000,1.000000,-3.000000,-2.000000,3.000000,-1.000000,-2.000000,-2.000000
1301465.232523,1.000000,0.000000,0.000000,-1.000000,1.000000,4.000000,-5.000000,2.000000
1301465.232835,-1.000000,0.000000,-2.000000,-1.000000,2.000000,-1.000000,3.000000,-3.000000
1301465.233765,-5.000000,-1.000000,0.000000,-2.000000,2.000000,-3.000000,-3.000000,-3.000000
1301465.233817,1.000000,-2.000000,-6.000000,-5.000000,2.000000,5.000000,1.000000,-1.000000
1301465.239779,0.000000,-3.000000,-2.000000,-7.000000,-5.000000,-4.000000,-1.000000,2.000000
1301465.239828,-5.000000,-2.000000,-2.000000,-6.000000,-3.000000,-8.000000,-1.000000,0.000000
1301465.247169,1.000000,4.000000,-1.000000,4.000000,-5.000000,-1.000000,2.000000,0.000000
1301465.247193,1.000000,0.000000,0.000000,2.000000,-5.000000,0.000000,1.000000,-2.000000
1301465.270314,-7.000000,4.000000,3.000000,-7.000000,-3.000000,0.000000,-1.000000,2.000000
1301465.270353,0.000000,-5.000000,0.000000,0.000000,7.000000,2.000000,-4.000000,-1.000000
1301465.270537,-4.000000,-3.000000,-6.000000,0.000000,1.000000,-5.000000,-6.000000,-2.000000
1301465.270563,0.000000,4.000000,-2.000000,-1.000000,-4.000000,-4.000000,0.000000,4.000000
1301465.292398,-5.000000,-4.000000,5.000000,1.000000,5.000000,-3.000000,0.000000,-2.000000
1301465.292447,-2.000000,-3.000000,-3.000000,3.000000,-3.000000,-3.000000,-3.000000,-3.000000
1301465.307436,-1.000000,-1.000000,0.000000,-5.000000,-5.000000,0.000000,-3.000000,-1.000000
1301465.307482,-4.000000,1.000000,-2.000000,-5.000000,3.000000,0.000000,2.000000,-3.000000
1301465.344883,-4.000000,-3.000000,-1.000000,1.000000,3.000000,4.000000,-1.000000,4.000000
1301465.344910,1.000000,-6.000000,-5.000000,-2.000000,2.000000,4.000000,0.000000,-1.000000
1301465.352257,-3.000000,-2.000000,1.000000,-1.000000,2.000000,-3.000000,1.000000,-1.000000
1301465.352282,0.000000,-3.000000,1.000000,-2.000000,-5.000000,3.000000,4.000000,-5.000000
1301465.390285,3.000000,1.000000,-3.000000,-3.000000,5.000000,2.000000,0.000000,1.000000
1301465.390325,0.000000,-3.000000,-3.000000,1.000000,3.000000,0.000000,0.000000,1.000000
1301465.405271,-4.000000,-3.000000,-1.000000,-3.000000,-1.000000,4.000000,0.000000,-3.000000
1301465.405300,3.000000,1.000000,-1.000000,-1.000000,0.000000,-1.000000,2.000000,3.000000
1301465.428072,4.000000,1.000000,-1.000000,-2.000000,-4.000000,0.000000,-3.000000,3.000000
1301465.428102,0.000000,-1.000000,1.000000,0.000000,-6.000000,-4.000000,1.000000,-1.000000
1301465.429150,-8.000000,-2.000000,-3.000000,-4.000000,-5.000000,-2.000000,-5.000000,1.000000
1301465.429362,-1.000000,-3.000000,0.000000,0.000000,-1.000000,-1.000000,1.000000,-2.000000
1301465.429929,0.000000,0.000000,-3.000000,0.000000,-5.000000,-3.000000,-5.000000,-3.000000
1301465.429988,-1.000000,1.000000,4.000000,2.000000,0.000000,1.000000,-2.000000,-1.000000
1301465.430252,-3.000000,2.000000,3.000000,2.000000,0.000000,-3.000000,0.000000,3.000000
1301465.430296,-5.000000,-2.000000,-4.000000,-3.000000,-1.000000,1.000000,-5.000000,-1.000000
1301465.431547,-4.000000,-5.000000,0.000000,-3.000000,2.000000,0.000000,-2.000000,4.000000
1301465.431591,2.000000,5.000000,4.000000,3.000000,3.000000,3.000000,0.000000,-3.000000
1301465.431792,-7.000000,-3.000000,-2.000000,0.000000,3.000000,-3.000000,-3.000000,-2.000000
1301465.431809,-9.000000,-5.000000,-4.000000,-3.000000,2.000000,-2.000000,3.000000,3.000000
1301465.450926,-2.000000,-2.000000,0.000000,0.000000,3.000000,-1.000000,-4.000000,0.000000
1301465.451038,-2.000000,1.000000,0.000000,2.000000,-3.000000,2.000000,3.000000,-5.000000
1301465.451262,4.000000,-4.000000,0.000000,-1.000000,-7.000000,1.000000,2.000000,7.000000
1301465.451288,2.000000,0.000000,-4.000000,-2.000000,-4.000000,0.000000,-2.000000,0.000000
1301465.465206,1.000000,-4.000000,-1.000000,-1.000000,-5.000000,-1.000000,-2.000000,-1.000000
1301465.465251,-3.000000,-5.000000,-1.000000,-3.000000,-9.000000,-3.000000,-5.000000,-3.000000
1301465.472421,-1.000000,3.000000,-7.000000,-3.000000,-1.000000,1.000000,-2.000000,-4.000000
1301465.472689,-3.000000,-1.000000,4.000000,0.000000,4.000000,3.000000,1.000000,3.000000
1301465.487715,-1.000000,0.000000,3.000000,3.000000,7.000000,5.000000,1.000000,-3.000000
1301465.487744,2.000000,-6.000000,-1.000000,1.000000,-4.000000,-5.000000,3.000000,1.000000
1301465.510012,-6.000000,-2.000000,-3.000000,2.000000,-1.000000,4.000000,-2.000000,0.000000
1301465.510077,1.000000,-3.000000,1.000000,3.000000,0.000000,2.000000,2.000000,-2.000000
1301465.525286,2.000000,2.000000,1.000000,-5.000000,-1.000000,-2.000000,2.000000,1.000000
1301465.525315,-8.000000,0.000000,-2.000000,-1.000000,-4.000000,-3.000000,-3.000000,-3.000000
1301465.532500,-2.000000,0.000000,1.000000,1.000000,1.000000,-3.000000,0.000000,3.000000
1301465.532553,0.000000,-1.000000,-3.000000,-5.000000,-3.000000,0.000000,-2.000000,0.000000
1301465.549588,2.000000,1.000000,0.000000,1.000000,-1.000000,-1.000000,0.000000,-4.000000
1301465.549615,-1.000000,-2.000000,-5.000000,-3.000000,0.000000,0.000000,0.000000,-2.000000
1301465.550445,-2.000000,4.000000,-3.000000,0.000000,-1.000000,2.000000,1.000000,3.000000
1301465.550795,-4.000000,-1.000000,2.000000,2.000000,-1.000000,-5.000000,-4.000000,1.000000
1301465.551542,1.000000,-1.000000,-1.000000,-1.000000,-2.000000,4.000000,1.000000,-5.000000
1301465.551589,2.000000,0.000000,5.000000,2.000000,1.000000,2.000000,1.000000,-7.000000
1301465.551998,-5.000000,0.000000,-4.000000,-3.000000,-6.000000,-1.000000,-4.000000,0.000000
1301465.552025,0.000000,-1.000000,-2.000000,-7.000000,-5.000000,-1.000000,2.000000,0.000000
1301465.570866,1.000000,4.000000,1.000000,-3.000000,-2.000000,0.000000,0.000000,4.000000
1301465.570936,1.000000,2.000000,0.000000,-6.000000,-2.000000,-1.000000,-1.000000,-1.000000
1301465.572419,4.000000,-2.000000,-2.000000,0.000000,-7.000000,0.000000,-1.000000,-1.000000
1301465.572473,6.000000,-4.000000,-3.000000,5.000000,4.000000,0.000000,0.000000,0.000000
1301465.584973,2.000000,-5.000000,-3.000000,3.000000,2.000000,-1.000000,1.000000,-6.000000
1301465.585023,-2.000000,1.000000,0.000000,4.000000,1.000000,-3.000000,-3.000000,4.000000
1301465.607966,-3.000000,-3.000000,-4.000000,-6.000000,0.000000,4.000000,-1.000000,1.000000
1301465.608113,-4.000000,-5.000000,3.000000,3.000000,3.000000,0.000000,-4.000000,-5.000000
1301465.629990,6.000000,0.000000,4.000000,-2.000000,-4.000000,-3.000000,-1.000000,3.000000
1301465.630032,-5.000000,-6.000000,-3.000000,-10.000000,1.000000,-5.000000,-1.000000,-1.000000
1301465.645023,0.000000,-3.000000,-5.000000,-4.000000,1.000000,-6.000000,-3.000000,-2.000000
1301465.645076,-2.000000,-3.000000,1.000000,-3.000000,1.000000,1.000000,1.000000,-1.000000
1301465.660079,-4.000000,4.000000,-1.000000,-5.000000,-3.000000,-2.000000,-3.000000,-4.000000
1301465.660106,0.000000,-3.000000,-2.000000,0.000000,-2.000000,1.000000,-2.000000,2.000000
1301465.667635,-2.000000,3.000000,0.000000,4.000000,-5.000000,-1.000000,-1.000000,-6.000000
1301465.667998,-1.000000,-3.000000,-2.000000,-3.000000,-5.000000,-1.000000,-4.000000,-3.000000
1301465.669382,-5.000000,-5.000000,-3.000000,1.000000,0.000000,-1.000000,-1.000000,-2.000000
1301465.669424,-1.000000,4.000000,-4.000000,5.000000,2.000000,-4.000000,-1.000000,-1.000000
1301465.670501,-2.000000,1.000000,2.000000,-2.000000,2.000000,1.000000,1.000000,-4.000000
1301465.670549,4.000000,4.000000,-4.000000,2.000000,-1.000000,-2.000000,-3.000000,0.000000
1301465.671055,1.000000,-1.000000,-5.000000,-2.000000,-1.000000,-2.000000,2.000000,-1.000000
1301465.671078,0.000000,2.000000,-3.000000,1.000000,-1.000000,2.000000,-5.000000,-3.000000
1301465.671194,6.000000,2.000000,0.000000,2.000000,1.000000,4.000000,0.000000,-2.000000
1301465.671208,-6.000000,-4.000000,-1.000000,-4.000000,-6.000000,0.000000,-2.000000,-1.000000
1301465.683953,-2.000000,-2.000000,-1.000000,-4.000000,-1.000000,-4.000000,-5.000000,-6.000000
1301465.683983,0.000000,-3.000000,-3.000000,-1.000000,2.000000,-3.000000,-1.000000,2.000000
1301465.690338,5.000000,0.000000,-5.000000,-5.000000,-6.000000,-1.000000,-2.000000,-1.000000
1301465.690778,0.000000,-2.000000,-3.000000,-1.000000,2.000000,-3.000000,0.000000,-4.000000
1301465.705236,-6.000000,-1.000000,2.000000,-7.000000,-5.000000,-5.000000,1.000000,-3.000000
1301465.705305,1.000000,-2.000000,-2.000000,-4.000000,-4.000000,-4.000000,0.000000,0.000000
1301465.727799,-2.000000,0.000000,2.000000,5.000000,6.000000,1.000000,2.000000,-1.000000
1301465.727900,-4.000000,4.000000,0.000000,-2.000000,1.000000,-1.000000,1.000000,-4.000000
1301465.750297,-5.000000,-5.000000,4.000000,0.000000,0.000000,1.000000,0.000000,-4.000000
1301465.750326,0.000000,2.000000,-1.000000,2.000000,2.000000,0.000000,-6.000000,-7.000000
1301465.787264,2.000000,1.000000,-2.000000,1.000000,2.000000,-2.000000,1.000000,-3.000000
1301465.787283,0.000000,-1.000000,-5.000000,1.000000,-2.000000,-9.000000,-6.000000,0.000000
1301465.802903,-2.000000,-1.000000,0.000000,0.000000,-8.000000,-1.000000,-1.000000,3.000000
1301465.802993,2.000000,-6.000000,1.000000,2.000000,7.000000,4.000000,0.000000,-6.000000
1301465.803134,0.000000,4.000000,0.000000,-3.000000,-2.000000,-2.000000,-3.000000,0.000000
1301465.803172,-1.000000,-4.000000,-4.000000,-4.000000,0.000000,4.000000,-3.000000,2.000000
1301465.804369,-4.000000,-2.000000,-2.000000,-4.000000,-3.000000,0.000000,-4.000000,2.000000
1301465.804617,-3.000000,2.000000,1.000000,-9.000000,-1.000000,3.000000,-2.000000,1.000000
1301465.804937,-3.000000,2.000000,-3.000000,-2.000000,3.000000,3.000000,0.000000,-1.000000
1301465.804952,3.000000,-2.000000,1.000000,2.000000,0.000000,-1.000000,2.000000,0.000000
1301465.805770,-1.000000,1.000000,-4.000000,2.000000,0.000000,-2.000000,-2.000000,-4.000000
1301465.805804,-5.000000,-2.000000,1.000000,0.000000,-1.000000,-1.000000,0.000000,-4.000000
1301465.809386,-3.000000,-4.000000,-4.000000,2.000000,2.000000,-1.000000,0.000000,1.000000
1301465.809413,2.000000,5.000000,-4.000000,0.000000,-9.000000,-4.000000,2.000000,3.000000
1301465.817122,3.000000,-5.000000,2.000000,-9.000000,3.000000,-2.000000,-4.000000,-2.000000
1301465.817153,1.000000,-1.000000,2.000000,6.000000,2.000000,-1.000000,0.000000,0.000000
1301465.854427,0.000000,-4.000000,-1.000000,0.000000,4.000000,8.000000,0.000000,3.000000
1301465.854461,0.000000,3.000000,-4.000000,-7.000000,-2.000000,-3.000000,-3.000000,-5.000000
1301465.884628,-1.000000,-9.000000,5.000000,3.000000,9.000000,4.000000,-3.000000,2.000000
1301465.884656,-1.000000,-5.000000,2.000000,-7.000000,-2.000000,-5.000000,0.000000,-4.000000
1301465.899358,1.000000,-4.000000,-3.000000,-1.000000,1.000000,3.000000,-2.000000,-3.000000
1301465.899376,0.000000,-5.000000,-3.000000,-8.000000,2.000000,-2.000000,-6.000000,2.000000
1301465.908271,-3.000000,-4.000000,-1.000000,1.000000,1.000000,-1.000000,-4.000000,-5.000000
1301465.908661,-2.000000,-4.000000,1.000000,-1.000000,-2.000000,1.000000,1.000000,-1.000000
1301465.909269,-4.000000,-5.000000,-2.000000,-4.000000,-4.000000,-7.000000,2.000000,0.000000
1301465.909495,2.000000,-9.000000,-3.000000,-1.000000,2.000000,0.000000,-3.000000,0.000000
1301465.910331,-3.000000,-2.000000,-2.000000,-5.000000,2.000000,3.000000,-1.000000,-4.000000
1301465.910348,-2.000000,1.000000,-1.000000,-7.000000,-5.000000,0.000000,-1.000000,-4.000000
1301465.910558,3.000000,-2.000000,-4.000000,3.000000,-6.000000,-5.000000,-1.000000,-1.000000
1301465.910571,0.000000,4.000000,-4.000000,-2.000000,0.000000,-2.000000,-1.000000,1.000000
1301465.936910,2.000000,-4.000000,-1.000000,0.000000,-1.000000,1.000000,1.000000,-1.000000
1301465.936944,-2.000000,-1.000000,3.000000,-10.000000,-6.000000,-3.000000,-1.000000,-2.000000
1301465.944429,1.000000,2.000000,1.000000,-3.000000,-4.000000,0.000000,-1.000000,-3.000000
1301465.944463,2.000000,4.000000,1.000000,2.000000,0.000000,1.000000,-1.000000,-1.000000
1301465.967847,5.000000,-5.000000,-1.000000,0.000000,3.000000,-4.000000,-1.000000,-1.000000
1301465.967878,3.000000,1.000000,-3.000000,3.000000,0.000000,0.000000,-1.000000,-3.000000
1301466.004837,-1.000000,-4.000000,3.000000,5.000000,1.000000,-1.000000,-1.000000,1.000000
1301466.004866,-9.000000,3.000000,3.000000,-2.000000,2.000000,-3.000000,0.000000,-4.000000
1301466.007167,-4.000000,-4.000000,-1.000000,-3.000000,-7.000000,-1.000000,-3.000000,3.000000
1301466.007214,-3.000000,-2.000000,-2.000000,-5.000000,-1.000000,-2.000000,-4.000000,-4.000000
1301466.007739,3.000000,-2.000000,-2.000000,0.000000,-2.000000,2.000000,-2.000000,4.000000
1301466.008252,-4.000000,0.000000,-3.000000,-3.000000,1.000000,-1.000000,2.000000,-1.000000
1301466.008907,-4.000000,3.000000,-3.000000,-8.000000,-5.000000,-3.000000,-5.000000,-4.000000
1301466.008947,2.000000,-3.000000,2.000000,3.000000,-4.000000,-2.000000,-2.000000,3.000000
1301466.009186,0.000000,-4.000000,1.000000,-4.000000,-6.000000,4.000000,3.000000,-2.000000
1301466.009225,-2.000000,-6.000000,0.000000,1.000000,1.000000,-4.000000,-3.000000,3.000000
1301466.019839,1.000000,0.000000,-9.000000,1.000000,-2.000000,1.000000,1.000000,-1.000000
1301466.019887,-4.000000,-2.000000,-2.000000,-7.000000,-9.000000,-4.000000,-4.000000,-3.000000
1301466.021164,-2.000000,1.000000,3.000000,4.000000,1.000000,-3.000000,1.000000,0.000000
1301466.021214,-5.000000,1.000000,0.000000,-4.000000,1.000000,-3.000000,2.000000,1.000000
1301466.027651,-3.000000,2.000000,-4.000000,2.000000,-7.000000,-4.000000,-4.000000,3.000000
1301466.027680,0.000000,-2.000000,-3.000000,-5.000000,1.000000,-1.000000,-2.000000,-5.000000
1301466.043466,-8.000000,2.000000,-7.000000,4.000000,-2.000000,0.000000,0.000000,-1.000000
1301466.043516,-1.000000,0.000000,-1.000000,1.000000,-1.000000,-3.000000,0.000000,3.000000
1301466.064818,-1.000000,0.000000,-2.000000,-6.000000,-2.000000,-1.000000,-1.000000,0.000000
1301466.064846,-2.000000,1.000000,-6.000000,2.000000,0.000000,-2.000000,-2.000000,-3.000000
1301466.066382,3.000000,2.000000,-6.000000,-1.000000,-10.000000,1.000000,-1.000000,2.000000
1301466.066429,-1.000000,-2.000000,0.000000,-1.000000,-4.000000,-5.000000,-1.000000,-1.000000
1301466.080944,-2.000000,3.000000,-1.000000,2.000000,0.000000,-3.000000,0.000000,2.000000
1301466.081130,0.000000,2.000000,-6.000000,-1.000000,3.000000,3.000000,0.000000,-5.000000
1301466.081713,-3.000000,2.000000,6.000000,-2.000000,-1.000000,2.000000,-2.000000,-3.000000
1301466.081762,0.000000,-5.000000,-1.000000,-1.000000,-6.000000,-4.000000,2.000000,2.000000
1301466.087028,3.000000,-1.000000,-4.000000,1.000000,1.000000,-3.000000,0.000000,-4.000000
1301466.087053,3.000000,-8.000000,1.000000,-1.000000,1.000000,-1.000000,1.000000,1.000000
1301466.124743,-2.000000,-5.000000,1.000000,-2.000000,-4.000000,-2.000000,1.000000,-2.000000
1301466.124789,2.000000,5.000000,3.000000,-5.000000,-5.000000,-2.000000,-2.000000,5.000000
1301466.140029,5.000000,-2.000000,-2.000000,5.000000,2.000000,-1.000000,-4.000000,0.000000
1301466.140054,2.000000,-8.000000,0.000000,-4.000000,-6.000000,-3.000000,-3.000000,-2.000000
1301466.178909,-3.000000,0.000000,0.000000,4.000000,-1.000000,0.000000,-1.000000,-2.000000
1301466.178965,0.000000,1.000000,2.000000,1.000000,0.000000,0.000000,-1.000000,-2.000000
1301466.179228,3.000000,5.000000,1.000000,-6.000000,1.000000,-3.000000,-1.000000,0.000000
1301466.179270,0.000000,6.000000,-5.000000,-4.000000,-3.000000,-4.000000,-1.000000,-2.000000
1301466.180884,-2.000000,-2.000000,2.000000,2.000000,-2.000000,-5.000000,2.000000,0.000000
1301466.180932,1.000000,-5.000000,0.000000,0.000000,-2.000000,-1.000000,1.000000,-4.000000
1301466.183012,-6.000000,-1.000000,4.000000,0.000000,1.000000,-4.000000,-2.000000,-5.000000
1301466.183059,-7.000000,-3.000000,1.000000,1.000000,7.000000,3.000000,0.000000,0.000000
1301466.183442,2.000000,2.000000,-1.000000,0.000000,-3.000000,-5.000000,1.000000,-3.000000
1301466.183490,-1.000000,-4.000000,-1.000000,-1.000000,-1.000000,-4.000000,1.000000,5.000000
1301466.201648,-2.000000,-1.000000,-5.000000,3.000000,-2.000000,0.000000,1.000000,0.000000
1301466.201780,-1.000000,1.000000,-1.000000,3.000000,0.000000,2.000000,-2.000000,6.000000
1301466.202305,2.000000,-2.000000,-3.000000,0.000000,-5.000000,0.000000,2.000000,3.000000
1301466.202358,-5.000000,-4.000000,-1.000000,1.000000,1.000000,3.000000,-1.000000,-3.000000
1301466.237998,-3.000000,2.000000,-3.000000,2.000000,0.000000,-2.000000,-3.000000,-3.000000
1301466.238062,-3.000000,-2.000000,3.000000,-7.000000,0.000000,-2.000000,2.000000,1.000000
1301466.245760,4.000000,-3.000000,3.000000,-5.000000,-1.000000,-2.000000,-1.000000,1.000000
1301466.245825,-2.000000,-2.000000,-5.000000,-6.000000,-1.000000,-3.000000,2.000000,-4.000000
1301466.285141,3.000000,-7.000000,-6.000000,3.000000,-1.000000,-2.000000,0.000000,-3.000000
1301466.285722,-4.000000,-1.000000,-5.000000,-1.000000,-7.000000,-1.000000,-1.000000,-3.000000
1301466.287872,-2.000000,-1.000000,-7.000000,2.000000,0.000000,-1.000000,-3.000000,2.000000
1301466.287932,-1.000000,1.000000,-5.000000,-4.000000,2.000000,3.000000,-1.000000,-3.000000
1301466.288556,2.000000,-3.000000,-4.000000,-8.000000,2.000000,-2.000000,-4.000000,-7.000000
1301466.288615,2.000000,-3.000000,-5.000000,1.000000,-2.000000,2.000000,-5.000000,0.000000
1301466.289170,2.000000,0.000000,1.000000,0.000000,1.000000,6.000000,0.000000,-2.000000
1301466.289226,1.000000,3.000000,0.000000,0.000000,-4.000000,0.000000,-2.000000,1.000000
1301466.299960,-1.000000,-1.000000,1.000000,-1.000000,-6.000000,-5.000000,-5.000000,-2.000000
1301466.300003,5.000000,-4.000000,-2.000000,5.000000,2.000000,3.000000,1.000000,4.000000
1301466.300530,-4.000000,-5.000000,2.000000,2.000000,3.000000,3.000000,4.000000,-3.000000
1301466.300565,1.000000,0.000000,1.000000,0.000000,-4.000000,-4.000000,-3.000000,3.000000
1301466.321299,2.000000,-9.000000,-5.000000,4.000000,-1.000000,-1.000000,0.000000,-7.000000
1301466.321341,4.000000,-1.000000,0.000000,-5.000000,0.000000,-7.000000,-1.000000,1.000000
1301466.322493,1.000000,4.000000,-4.000000,-4.000000,-2.000000,-1.000000,0.000000,-7.000000
1301466.322553,2.000000,-4.000000,-1.000000,-3.000000,-1.000000,-2.000000,-2.000000,4.000000
1301466.358166,-9.000000,-5.000000,-4.000000,-3.000000,-2.000000,-4.000000,-1.000000,-5.000000
1301466.358390,3.000000,-1.000000,-4.000000,3.000000,-1.000000,-2.000000,-3.000000,4.000000
1301466.365351,-3.000000,-6.000000,-5.000000,0.000000,3.000000,4.000000,0.000000,2.000000
1301466.365417,-2.000000,-2.000000,2.000000,-2.000000,-6.000000,-1.000000,-1.000000,-3.000000
1301466.402814,-2.000000,1.000000,-1.000000,4.000000,1.000000,-1.000000,2.000000,-3.000000
1301466.403441,1.000000,-5.000000,-2.000000,-5.000000,-3.000000,-5.000000,-3.000000,1.000000
1301466.404282,-2.000000,2.000000,3.000000,1.000000,7.000000,2.000000,1.000000,-4.000000
1301466.404553,2.000000,-1.000000,4.000000,-8.000000,-7.000000,-3.000000,-1.000000,1.000000
1301466.405493,-9.000000,2.000000,-4.000000,4.000000,-2.000000,-5.000000,-7.000000,0.000000
1301466.405551,-4.000000,-4.000000,-1.000000,7.000000,-2.000000,1.000000,-2.000000,-4.000000
1301466.407111,2.000000,-3.000000,-1.000000,5.000000,0.000000,0.000000,-2.000000,0.000000
1301466.407162,-5.000000,3.000000,-1.000000,-4.000000,3.000000,0.000000,-2.000000,-3.000000
1301466.407908,1.000000,-1.000000,1.000000,2.000000,3.000000,4.000000,-2.000000,-1.000000
1301466.407959,-3.000000,-1.000000,-2.000000,3.000000,-5.000000,0.000000,1.000000,-3.000000
1301466.419107,-6.000000,1.000000,-5.000000,3.000000,1.000000,-4.000000,2.000000,3.000000
1301466.419133,0.000000,-2.000000,-1.000000,-2.000000,1.000000,3.000000,1.000000,-5.000000
1301466.440639,3.000000,2.000000,0.000000,4.000000,5.000000,1.000000,-1.000000,2.000000
1301466.441030,-2.000000,-1.000000,-2.000000,-2.000000,-6.000000,4.000000,-3.000000,0.000000
1301466.442439,2.000000,-3.000000,0.000000,3.000000,5.000000,-1.000000,-1.000000,2.000000
1301466.442468,-12.000000,-3.000000,0.000000,-5.000000,-3.000000,0.000000,-1.000000,-3.000000
1301466.442873,2.000000,-4.000000,-3.000000,5.000000,1.000000,0.000000,1.000000,0.000000
1301466.442930,-5.000000,2.000000,4.000000,-3.000000,3.000000,0.000000,-2.000000,-2.000000
1301466.477881,-5.000000,0.000000,-6.000000,0.000000,2.000000,-2.000000,-1.000000,2.000000
1301466.477939,-7.000000,1.000000,2.000000,4.000000,3.000000,2.000000,1.000000,-2.000000
1301466.492930,-1.000000,2.000000,1.000000,-1.000000,-2.000000,1.000000,-4.000000,-3.000000
1301466.492991,2.000000,-4.000000,0.000000,-6.000000,-5.000000,-4.000000,-1.000000,0.000000
1301466.515661,-3.000000,1.000000,-2.000000,0.000000,2.000000,3.000000,-3.000000,-1.000000
1301466.515732,-2.000000,2.000000,0.000000,2.000000,0.000000,-1.000000,1.000000,-3.000000
1301466.516809,1.000000,-5.000000,1.000000,2.000000,1.000000,1.000000,-5.000000,-2.000000
1301466.516878,0.000000,2.000000,1.000000,-2.000000,-4.000000,-3.000000,0.000000,0.000000
1301466.517769,-4.000000,-3.000000,0.000000,2.000000,2.000000,-1.000000,-3.000000,-4.000000
1301466.518344,0.000000,2.000000,-4.000000,0.000000,0.000000,-2.000000,1.000000,-2.000000
1301466.520052,-5.000000,2.000000,0.000000,5.000000,-6.000000,2.000000,1.000000,-2.000000
1301466.520110,3.000000,-1.000000,-6.000000,-2.000000,0.000000,0.000000,-3.000000,0.000000
1301466.520421,-4.000000,-2.000000,3.000000,4.000000,5.000000,2.000000,-1.000000,-1.000000
1301466.520477,4.000000,-5.000000,-5.000000,-6.000000,-1.000000,2.000000,-1.000000,0.000000
1301466.522583,0.000000,1.000000,2.000000,-1.000000,0.000000,1.000000,-3.000000,0.000000
1301466.522628,0.000000,2.000000,1.000000,-4.000000,-4.000000,-2.000000,-5.000000,1.000000
1301466.538617,-1.000000,2.000000,-3.000000,-1.000000,0.000000,-1.000000,-3.000000,0.000000
1301466.538648,4.000000,-7.000000,1.000000,0.000000,3.000000,-3.000000,-1.000000,-3.000000
1301466.560680,-3.000000,5.000000,-4.000000,0.000000,-5.000000,-1.000000,-3.000000,0.000000
1301466.560711,2.000000,5.000000,2.000000,7.000000,4.000000,-2.000000,1.000000,-1.000000
1301466.583001,-4.000000,2.000000,-1.000000,7.000000,7.000000,0.000000,-3.000000,-2.000000
1301466.583046,1.000000,-2.000000,3.000000,-4.000000,0.000000,-1.000000,-4.000000,0.000000
1301466.597738,4.000000,-1.000000,3.000000,0.000000,2.000000,1.000000,-4.000000,3.000000
1301466.597785,-3.000000,-1.000000,-2.000000,-3.000000,1.000000,1.000000,3.000000,-3.000000
1301466.620571,-3.000000,1.000000,4.000000,-1.000000,3.000000,1.000000,-2.000000,-1.000000
1301466.620674,-1.000000,0.000000,-4.000000,-11.000000,-3.000000,1.000000,-2.000000,-2.000000
1301466.635413,-1.000000,0.000000,0.000000,0.000000,0.000000,-1.000000,-3.000000,-3.000000
1301466.635459,3.000000,2.000000,-5.000000,-1.000000,-2.000000,-5.000000,0.000000,0.000000
1301466.651058,2.000000,2.000000,3.000000,-2.000000,2.000000,-2.000000,-3.000000,-5.000000
1301466.651256,0.000000,1.000000,2.000000,0.000000,2.000000,-2.000000,1.000000,2.000000
1301466.651608,-5.000000,1.000000,0.000000,2.000000,4.000000,-2.000000,-2.000000,-1.000000
1301466.651671,2.000000,0.000000,-3.000000,0.000000,-1.000000,-1.000000,-1.000000,-3.000000
1301466.658354,0.000000,-2.000000,1.000000,-6.000000,-5.000000,-3.000000,2.000000,-4.000000
1301466.658399,0.000000,-1.000000,-3.000000,-2.000000,-1.000000,-1.000000,-2.000000,-1.000000
1301466.659542,-2.000000,-1.000000,3.000000,-9.000000,-8.000000,-2.000000,-2.000000,0.000000
1301466.659575,-3.000000,-3.000000,-6.000000,-3.000000,-2.000000,-3.000000,0.000000,-1.000000
1301466.672836,0.000000,-4.000000,-3.000000,9.000000,6.000000,0.000000,0.000000,-1.000000
1301466.672867,0.000000,-3.000000,-5.000000,-3.000000,-4.000000,-1.000000,-3.000000,-1.000000
1301466.680934,0.000000,-3.000000,-1.000000,2.000000,-3.000000,-1.000000,1.000000,-1.000000
1301466.680999,0.000000,-3.000000,-1.000000,0.000000,-2.000000,-5.000000,2.000000,-4.000000
1301466.682161,4.000000,-7.000000,0.000000,0.000000,2.000000,0.000000,0.000000,-4.000000
1301466.682232,-4.000000,2.000000,-1.000000,-1.000000,-5.000000,-2.000000,-2.000000,-2.000000
1301466.717622,-5.000000,-1.000000,3.000000,5.000000,-1.000000,-3.000000,-3.000000,-3.000000
1301466.717659,0.000000,-1.000000,-2.000000,3.000000,0.000000,0.000000,-2.000000,-2.000000
1301466.732249,-3.000000,-1.000000,-1.000000,-10.000000,-7.000000,-1.000000,0.000000,2.000000
1301466.732287,-3.000000,0.000000,-2.000000,1.000000,2.000000,0.000000,-3.000000,3.000000
1301466.754463,-6.000000,2.000000,1.000000,0.000000,1.000000,1.000000,-1.000000,-2.000000
1301466.754491,0.000000,6.000000,1.000000,-5.000000,-5.000000,1.000000,1.000000,-6.000000
1301466.755210,1.000000,2.000000,0.000000,-6.000000,-3.000000,-3.000000,3.000000,-1.000000
1301466.755241,-3.000000,1.000000,-7.000000,-1.000000,-6.000000,-3.000000,1.000000,-3.000000
1301466.757176,1.000000,0.000000,1.000000,2.000000,-1.000000,-1.000000,-3.000000,2.000000
1301466.757209,-1.000000,-1.000000,-7.000000,-2.000000,-1.000000,-3.000000,0.000000,0.000000
1301466.757465,-5.000000,-5.000000,2.000000,-4.000000,-5.000000,-4.000000,-1.000000,4.000000
1301466.757726,-2.000000,0.000000,-3.000000,-6.000000,-4.000000,-2.000000,0.000000,-3.000000
1301466.777043,-2.000000,0.000000,-1.000000,5.000000,3.000000,0.000000,-4.000000,0.000000
1301466.777063,6.000000,0.000000,2.000000,-3.000000,1.000000,-4.000000,-2.000000,-1.000000
1301466.792885,-1.000000,-3.000000,-3.000000,-3.000000,-5.000000,-6.000000,-2.000000,-1.000000
1301466.792904,2.000000,-2.000000,-5.000000,-2.000000,-4.000000,0.000000,1.000000,-4.000000
1301466.793253,-8.000000,-2.000000,-5.000000,2.000000,-1.000000,-5.000000,0.000000,1.000000
1301466.793271,0.000000,-4.000000,-2.000000,-2.000000,-6.000000,-1.000000,1.000000,0.000000
1301466.794949,-3.000000,4.000000,1.000000,0.000000,1.000000,3.000000,-3.000000,0.000000
1301466.794982,0.000000,-4.000000,-3.000000,-3.000000,1.000000,-4.000000,-3.000000,3.000000
1301466.799374,0.000000,-2.000000,-1.000000,-6.000000,-3.000000,0.000000,-4.000000,-2.000000
1301466.799417,-4.000000,0.000000,1.000000,3.000000,6.000000,-1.000000,-1.000000,0.000000
1301466.837203,-1.000000,-4.000000,1.000000,-1.000000,1.000000,-1.000000,-3.000000,-5.000000
1301466.837247,0.000000,1.000000,1.000000,2.000000,-3.000000,-4.000000,0.000000,-3.000000
1301466.844661,4.000000,1.000000,-2.000000,-3.000000,-3.000000,0.000000,2.000000,-2.000000
1301466.844681,-7.000000,-1.000000,-2.000000,0.000000,0.000000,-3.000000,-2.000000,-2.000000
1301466.874794,5.000000,6.000000,1.000000,-2.000000,-2.000000,0.000000,4.000000,0.000000
1301466.875127,2.000000,0.000000,2.000000,2.000000,3.000000,0.000000,0.000000,5.000000
1301466.875778,-1.000000,0.000000,1.000000,2.000000,-3.000000,0.000000,0.000000,-2.000000
1301466.875809,3.000000,1.000000,-5.000000,-6.000000,1.000000,-2.000000,3.000000,1.000000
1301466.876906,0.000000,-2.000000,-3.000000,-3.000000,-1.000000,2.000000,0.000000,-3.000000
1301466.876940,-4.000000,3.000000,0.000000,2.000000,-1.000000,1.000000,-2.000000,-1.000000
1301466.877257,0.000000,-3.000000,2.000000,3.000000,1.000000,0.000000,-2.000000,3.000000
1301466.877294,-4.000000,-3.000000,-3.000000,2.000000,2.000000,3.000000,1.000000,1.000000
1301466.878499,-1.000000,-4.000000,-4.000000,-6.000000,-1.000000,-2.000000,-2.000000,0.000000
1301466.878534,-4.000000,-3.000000,-7.000000,-7.000000,3.000000,0.000000,-1.000000,2.000000
1301466.897605,-1.000000,2.000000,-3.000000,-2.000000,-8.000000,-2.000000,-4.000000,-3.000000
1301466.897634,-3.000000,-1.000000,-1.000000,-3.000000,2.000000,-2.000000,-3.000000,0.000000
1301466.898293,3.000000,3.000000,-3.000000,-9.000000,-2.000000,-4.000000,-1.000000,1.000000
1301466.898307,-3.000000,1.000000,-4.000000,2.000000,3.000000,2.000000,3.000000,4.000000
1301466.911941,4.000000,2.000000,2.000000,-3.000000,-3.000000,-1.000000,0.000000,-3.000000
1301466.911988,0.000000,1.000000,-2.000000,0.000000,-4.000000,-6.000000,-1.000000,-1.000000
1301466.913410,-2.000000,-3.000000,-3.000000,-2.000000,-9.000000,2.000000,-2.000000,2.000000
1301466.913429,0.000000,1.000000,-1.000000,-2.000000,5.000000,-4.000000,-4.000000,-2.000000
1301466.919255,0.000000,-6.000000,3.000000,1.000000,0.000000,1.000000,0.000000,-2.000000
1301466.919352,1.000000,-10.000000,-4.000000,4.000000,5.000000,2.000000,-6.000000,-3.000000
1301466.957172,-1.000000,8.000000,-4.000000,-3.000000,-5.000000,-2.000000,0.000000,-5.000000
1301466.957224,0.000000,-5.000000,0.000000,-4.000000,-5.000000,1.000000,-2.000000,1.000000
1301466.972090,-3.000000,6.000000,-1.000000,-8.000000,2.000000,-1.000000,0.000000,3.000000
1301466.972114,-1.000000,3.000000,0.000000,-1.000000,-1.000000,2.000000,-1.000000,1.000000
1301466.994623,1.000000,0.000000,-1.000000,-3.000000,-5.000000,-2.000000,3.000000,-4.000000
1301466.994663,-1.000000,0.000000,-6.000000,7.000000,0.000000,1.000000,-1.000000,1.000000
1301467.009825,1.000000,2.000000,-1.000000,0.000000,1.000000,1.000000,-1.000000,-5.000000
1301467.009866,6.000000,-5.000000,-2.000000,-7.000000,-1.000000,-1.000000,-2.000000,2.000000
1301467.011216,-6.000000,-2.000000,0.000000,-7.000000,-1.000000,3.000000,1.000000,2.000000
1301467.011253,0.000000,0.000000,-2.000000,1.000000,2.000000,1.000000,2.000000,-6.000000
1301467.011427,10.000000,8.000000,-5.000000,0.000000,-4.000000,-2.000000,-3.000000,-1.000000
1301467.011465,-3.000000,1.000000,-2.000000,-5.000000,-1.000000,0.000000,1.000000,-4.000000
1301467.012306,-3.000000,-4.000000,-1.000000,-1.000000,-6.000000,1.000000,0.000000,-4.000000
1301467.012396,-1.000000,-4.000000,0.000000,-4.000000,-3.000000,0.000000,-2.000000,-1.000000
1301467.012641,1.000000,-6.000000,0.000000,-4.000000,1.000000,-8.000000,0.000000,-1.000000
1301467.012672,2.000000,-3.000000,0.000000,0.000000,-2.000000,-3.000000,0.000000,2.000000
1301467.032088,1.000000,4.000000,2.000000,-2.000000,-5.000000,-2.000000,-1.000000,2.000000
1301467.032255,-2.000000,-2.000000,-1.000000,5.000000,0.000000,-2.000000,2.000000,2.000000
1301467.033236,-2.000000,-2.000000,-1.000000,-3.000000,-3.000000,-3.000000,0.000000,-1.000000
1301467.033254,1.000000,-1.000000,-6.000000,-4.000000,2.000000,-6.000000,-2.000000,0.000000
1301467.039580,-7.000000,-2.000000,-6.000000,-10.000000,-5.000000,-1.000000,1.000000,0.000000
1301467.039619,-2.000000,3.000000,-1.000000,-5.000000,0.000000,0.000000,1.000000,-3.000000
1301467.069920,1.000000,-5.000000,4.000000,0.000000,-3.000000,1.000000,-1.000000,-2.000000
1301467.069942,-3.000000,-4.000000,1.000000,5.000000,-2.000000,2.000000,1.000000,4.000000
1301467.077236,0.000000,-3.000000,2.000000,2.000000,-3.000000,-4.000000,1.000000,0.000000
1301467.077274,-1.000000,-2.000000,-2.000000,-1.000000,-4.000000,-3.000000,0.000000,1.000000
1301467.107098,-3.000000,-5.000000,0.000000,-3.000000,-5.000000,-1.000000,1.000000,-3.000000
1301467.107137,3.000000,-2.000000,4.000000,6.000000,5.000000,3.000000,-4.000000,0.000000
1301467.114411,-1.000000,-4.000000,2.000000,4.000000,-5.000000,-3.000000,-1.000000,1.000000
1301467.114673,2.000000,1.000000,-1.000000,1.000000,-3.000000,-4.000000,-1.000000,0.000000
1301467.115859,-1.000000,4.000000,-4.000000,-1.000000,2.000000,-5.000000,-1.000000,0.000000
1301467.115879,1.000000,0.000000,-5.000000,-3.000000,-3.000000,1.000000,1.000000,-3.000000
1301467.116593,2.000000,-7.000000,-1.000000,9.000000,5.000000,-3.000000,-2.000000,-1.000000
1301467.116620,-4.000000,3.000000,-4.000000,-6.000000,1.000000,-3.000000,-2.000000,-2.000000
1301467.117904,-2.000000,1.000000,-1.000000,4.000000,-5.000000,-2.000000,-5.000000,-1.000000
1301467.117941,5.000000,0.000000,3.000000,1.000000,-6.000000,1.000000,0.000000,2.000000
1301467.129950,-6.000000,-2.000000,-1.000000,2.000000,-2.000000,4.000000,-1.000000,-4.000000
1301467.129984,-2.000000,-2.000000,-2.000000,-4.000000,-5.000000,2.000000,-3.000000,-4.000000
1301467.130877,-4.000000,-5.000000,0.000000,0.000000,2.000000,6.000000,2.000000,2.000000
1301467.130914,-3.000000,4.000000,1.000000,-6.000000,-5.000000,0.000000,-5.000000,1.000000
1301467.152219,2.000000,2.000000,-1.000000,-2.000000,-4.000000,-2.000000,2.000000,1.000000
1301467.152242,4.000000,-2.000000,0.000000,1.000000,-1.000000,1.000000,-3.000000,3.000000
1301467.153596,-1.000000,1.000000,-1.000000,-5.000000,-3.000000,-5.000000,1.000000,-7.000000
1301467.153630,4.000000,-4.000000,2.000000,1.000000,0.000000,2.000000,-3.000000,1.000000
1301467.167159,1.000000,2.000000,-5.000000,2.000000,-5.000000,-5.000000,1.000000,0.000000
1301467.167178,-3.000000,1.000000,2.000000,1.000000,2.000000,-2.000000,-6.000000,-2.000000
1301467.189627,7.000000,-1.000000,2.000000,-5.000000,-6.000000,-2.000000,-4.000000,-1.000000
1301467.189951,-1.000000,0.000000,1.000000,4.000000,1.000000,-1.000000,-1.000000,-1.000000
1301467.190802,-2.000000,-2.000000,0.000000,-3.000000,2.000000,1.000000,-3.000000,0.000000
1301467.190919,-8.000000,-1.000000,2.000000,-4.000000,-7.000000,-3.000000,1.000000,-2.000000
1301467.191650,-3.000000,2.000000,-2.000000,-3.000000,-3.000000,-4.000000,-2.000000,0.000000
1301467.191669,-1.000000,6.000000,-2.000000,-3.000000,7.000000,-1.000000,-1.000000,0.000000
1301467.212037,-1.000000,2.000000,-6.000000,-1.000000,-2.000000,2.000000,-1.000000,-3.000000
1301467.212074,-4.000000,-5.000000,5.000000,-1.000000,-4.000000,-2.000000,-3.000000,-2.000000
1301467.249714,5.000000,-1.000000,1.000000,6.000000,3.000000,-4.000000,2.000000,-5.000000
1301467.249745,5.000000,0.000000,0.000000,2.000000,1.000000,2.000000,-1.000000,-3.000000
1301467.272124,-2.000000,1.000000,0.000000,2.000000,2.000000,-3.000000,-2.000000,-4.000000
1301467.272161,-8.000000,-4.000000,-3.000000,3.000000,0.000000,-3.000000,-1.000000,-3.000000
1301467.294377,-5.000000,1.000000,-3.000000,-12.000000,-6.000000,-4.000000,-1.000000,1.000000
1301467.294611,0.000000,-1.000000,-3.000000,2.000000,-1.000000,0.000000,-1.000000,-1.000000
1301467.295091,0.000000,3.000000,1.000000,0.000000,-6.000000,-3.000000,-2.000000,1.000000
1301467.295142,0.000000,-4.000000,1.000000,-1.000000,-2.000000,0.000000,0.000000,1.000000
1301467.297110,2.000000,-3.000000,1.000000,0.000000,5.000000,-2.000000,-2.000000,3.000000
1301467.297131,-7.000000,0.000000,-3.000000,3.000000,-4.000000,-3.000000,2.000000,-1.000000
1301467.297239,-5.000000,1.000000,0.000000,-1.000000,3.000000,8.000000,-4.000000,-3.000000
1301467.297266,2.000000,-4.000000,4.000000,-3.000000,-4.000000,0.000000,0.000000,-1.000000
1301467.297856,-1.000000,-1.000000,1.000000,-9.000000,2.000000,-1.000000,1.000000,1.000000
1301467.297891,-1.000000,-3.000000,-3.000000,0.000000,4.000000,-1.000000,-1.000000,0.000000
1301467.309716,1.000000,-3.000000,-3.000000,7.000000,1.000000,-2.000000,-1.000000,-4.000000
1301467.309738,-1.000000,-3.000000,-3.000000,7.000000,-7.000000,-1.000000,-1.000000,3.000000
1301467.331865,-5.000000,-1.000000,-1.000000,-2.000000,1.000000,-3.000000,0.000000,1.000000
1301467.332033,1.000000,0.000000,-8.000000,-2.000000,-2.000000,-1.000000,-3.000000,1.000000
1301467.332459,2.000000,-1.000000,0.000000,3.000000,2.000000,1.000000,-3.000000,-1.000000
1301467.332488,0.000000,-7.000000,1.000000,2.000000,4.000000,6.000000,4.000000,-4.000000
1301467.333927,5.000000,1.000000,1.000000,-5.000000,-3.000000,-5.000000,-1.000000,5.000000
1301467.333966,-2.000000,7.000000,0.000000,-5.000000,1.000000,0.000000,-2.000000,4.000000
1301467.346936,0.000000,-5.000000,0.000000,-5.000000,-1.000000,-6.000000,-2.000000,1.000000
1301467.346973,-3.000000,-2.000000,2.000000,-1.000000,-4.000000,-1.000000,1.000000,1.000000
1301467.354560,-6.000000,2.000000,1.000000,-1.000000,0.000000,-2.000000,2.000000,0.000000
1301467.354599,1.000000,-3.000000,0.000000,2.000000,-6.000000,0.000000,0.000000,-1.000000
1301467.369612,-7.000000,3.000000,3.000000,2.000000,6.000000,1.000000,-4.000000,-3.000000
1301467.369661,-3.000000,-1.000000,-2.000000,-7.000000,-7.000000,-3.000000,-5.000000,-2.000000
1301467.391932,0.000000,-7.000000,-4.000000,-1.000000,-1.000000,3.000000,0.000000,-1.000000
1301467.391969,1.000000,-4.000000,1.000000,5.000000,4.000000,3.000000,-3.000000,-4.000000
1301467.399616,-1.000000,4.000000,2.000000,-2.000000,-8.000000,0.000000,-3.000000,-1.000000
1301467.399655,-1.000000,-1.000000,-3.000000,6.000000,0.000000,-1.000000,0.000000,4.000000
1301467.414672,0.000000,1.000000,-4.000000,-4.000000,-1.000000,-3.000000,1.000000,1.000000
1301467.414709,0.000000,3.000000,6.000000,2.000000,-1.000000,-3.000000,-1.000000,-4.000000
1301467.429557,1.000000,-3.000000,-3.000000,-1.000000,-1.000000,1.000000,1.000000,-3.000000
1301467.429580,-2.000000,1.000000,-4.000000,-4.000000,-6.000000,-1.000000,-3.000000,4.000000
1301467.452348,-7.000000,0.000000,3.000000,2.000000,-2.000000,-3.000000,1.000000,-3.000000
1301467.452377,-3.000000,0.000000,-3.000000,-3.000000,5.000000,1.000000,0.000000,-4.000000
1301467.453709,-6.000000,-3.000000,2.000000,-2.000000,0.000000,-4.000000,-1.000000,1.000000
1301467.453731,-2.000000,4.000000,1.000000,-2.000000,-2.000000,0.000000,-3.000000,0.000000
1301467.454776,-2.000000,-1.000000,-4.000000,-4.000000,-3.000000,-8.000000,-2.000000,1.000000
1301467.454808,-5.000000,3.000000,-2.000000,-5.000000,-8.000000,-5.000000,-1.000000,0.000000
1301467.455030,-4.000000,-2.000000,-6.000000,-1.000000,0.000000,-3.000000,-4.000000,1.000000
1301467.455215,-1.000000,2.000000,2.000000,4.000000,-1.000000,-1.000000,1.000000,-3.000000
1301467.466981,-4.000000,-3.000000,3.000000,2.000000,0.000000,-3.000000,2.000000,4.000000
1301467.467011,3.000000,-5.000000,-1.000000,-4.000000,-2.000000,1.000000,0.000000,1.000000
1301467.474745,-4.000000,-4.000000,0.000000,-2.000000,-2.000000,-3.000000,-5.000000,4.000000
1301467.474785,-1.000000,-6.000000,-1.000000,7.000000,4.000000,-1.000000,1.000000,-4.000000
1301467.489538,1.000000,3.000000,1.000000,1.000000,1.000000,0.000000,1.000000,-2.000000
1301467.489570,-5.000000,-4.000000,2.000000,-6.000000,-2.000000,0.000000,-2.000000,-2.000000
1301467.512076,-3.000000,2.000000,2.000000,3.000000,2.000000,6.000000,1.000000,-2.000000
1301467.512097,0.000000,2.000000,-3.000000,1.000000,1.000000,-1.000000,-2.000000,-5.000000
1301467.527125,-5.000000,-2.000000,0.000000,-2.000000,-1.000000,0.000000,0.000000,2.000000
1301467.527145,2.000000,7.000000,-5.000000,-4.000000,-6.000000,-1.000000,0.000000,-5.000000
1301467.564534,3.000000,3.000000,3.000000,4.000000,0.000000,1.000000,2.000000,3.000000
1301467.564576,-4.000000,1.000000,-1.000000,0.000000,1.000000,-1.000000,2.000000,-1.000000
1301467.572081,-3.000000,-4.000000,-6.000000,0.000000,-4.000000,-2.000000,-1.000000,-1.000000
1301467.572103,-1.000000,5.000000,-4.000000,-1.000000,-2.000000,-3.000000,-2.000000,-4.000000
1301467.588308,2.000000,-2.000000,3.000000,1.000000,-6.000000,-3.000000,-2.000000,2.000000
1301467.588336,-5.000000,-2.000000,-4.000000,-2.000000,0.000000,-1.000000,2.000000,0.000000
1301467.588892,0.000000,-2.000000,-6.000000,-7.000000,6.000000,-3.000000,-3.000000,0.000000
1301467.589086,-4.000000,-1.000000,0.000000,-3.000000,0.000000,-3.000000,-1.000000,-4.000000
1301467.590117,-1.000000,-4.000000,-1.000000,0.000000,1.000000,4.000000,-2.000000,-4.000000
1301467.590277,2.000000,-8.000000,0.000000,0.000000,3.000000,-1.000000,-2.000000,-2.000000
1301467.590823,2.000000,2.000000,1.000000,3.000000,-1.000000,2.000000,2.000000,2.000000
1301467.590857,4.000000,-5.000000,-3.000000,3.000000,6.000000,-2.000000,0.000000,-1.000000
1301467.594418,0.000000,1.000000,-3.000000,4.000000,2.000000,3.000000,3.000000,-3.000000
1301467.594438,-4.000000,-10.000000,-1.000000,3.000000,2.000000,2.000000,-1.000000,1.000000
1301467.609575,-5.000000,2.000000,-3.000000,-6.000000,-2.000000,-2.000000,-3.000000,-1.000000
1301467.609834,3.000000,5.000000,-2.000000,-3.000000,-3.000000,-6.000000,0.000000,-3.000000
1301467.624911,-6.000000,-7.000000,-2.000000,0.000000,-4.000000,-3.000000,0.000000,-2.000000
1301467.624933,0.000000,-2.000000,-1.000000,2.000000,1.000000,-2.000000,-1.000000,-1.000000
1301467.632167,-2.000000,1.000000,-5.000000,0.000000,-6.000000,-1.000000,-5.000000,-1.000000
1301467.632188,-3.000000,-1.000000,4.000000,5.000000,0.000000,-1.000000,-3.000000,0.000000
1301467.669542,-5.000000,-5.000000,-1.000000,0.000000,0.000000,-1.000000,-1.000000,-1.000000
1301467.669564,-4.000000,1.000000,-1.000000,-6.000000,-1.000000,-1.000000,-2.000000,0.000000
1301467.684500,3.000000,-6.000000,-2.000000,-3.000000,-1.000000,-5.000000,2.000000,-3.000000
1301467.684521,-8.000000,-2.000000,3.000000,1.000000,7.000000,3.000000,-3.000000,-4.000000
1301467.693381,-5.000000,0.000000,-6.000000,-4.000000,1.000000,0.000000,3.000000,-1.000000
1301467.693543,2.000000,3.000000,-4.000000,-3.000000,-6.000000,-1.000000,-1.000000,2.000000
1301467.694528,1.000000,-4.000000,0.000000,-2.000000,3.000000,6.000000,1.000000,-4.000000
1301467.694556,-4.000000,-5.000000,-7.000000,3.000000,0.000000,2.000000,-1.000000,-5.000000
1301467.695405,1.000000,-1.000000,-2.000000,4.000000,1.000000,-2.000000,-1.000000,-3.000000
1301467.695441,0.000000,-5.000000,0.000000,1.000000,3.000000,2.000000,0.000000,-4.000000
1301467.695871,-1.000000,2.000000,0.000000,0.000000,-3.000000,-4.000000,0.000000,-4.000000
1301467.695897,1.000000,0.000000,-1.000000,-1.000000,2.000000,2.000000,-1.000000,2.000000
1301467.707525,1.000000,3.000000,3.000000,-1.000000,-2.000000,0.000000,-1.000000,-2.000000
1301467.707558,-1.000000,4.000000,-1.000000,-10.000000,-9.000000,-3.000000,-1.000000,-1.000000
1301467.729727,1.000000,0.000000,1.000000,5.000000,2.000000,0.000000,-4.000000,3.000000
1301467.729765,-3.000000,1.000000,-5.000000,2.000000,3.000000,2.000000,-2.000000,-5.000000
1301467.744453,5.000000,-2.000000,-2.000000,-7.000000,-1.000000,0.000000,-3.000000,-1.000000
1301467.744669,-2.000000,-2.000000,-3.000000,4.000000,4.000000,5.000000,1.000000,-1.000000
1301467.745933,4.000000,1.000000,6.000000,-2.000000,2.000000,0.000000,-1.000000,-2.000000
1301467.745954,-3.000000,1.000000,1.000000,-5.000000,4.000000,1.000000,0.000000,0.000000
1301467.752212,-3.000000,0.000000,-6.000000,5.000000,-3.000000,-2.000000,-4.000000,-4.000000
1301467.752249,-5.000000,2.000000,5.000000,2.000000,-2.000000,1.000000,-1.000000,0.000000
1301467.789661,0.000000,-3.000000,-6.000000,-4.000000,-4.000000,-1.000000,-2.000000,-1.000000
1301467.789749,-8.000000,1.000000,-1.000000,-4.000000,-5.000000,-5.000000,1.000000,1.000000
1301467.804543,-4.000000,-3.000000,-1.000000,3.000000,1.000000,-3.000000,1.000000,0.000000
1301467.804582,2.000000,3.000000,-2.000000,-1.000000,-1.000000,1.000000,-1.000000,1.000000
1301467.827704,-6.000000,7.000000,2.000000,3.000000,-2.000000,4.000000,-1.000000,-4.000000
1301467.827934,1.000000,-5.000000,-2.000000,0.000000,3.000000,2.000000,-2.000000,-6.000000
1301467.828512,-6.000000,0.000000,0.000000,-10.000000,0.000000,-2.000000,0.000000,3.000000
1301467.828541,3.000000,-6.000000,2.000000,-2.000000,-6.000000,-4.000000,-2.000000,-2.000000
1301467.830298,-5.000000,0.000000,0.000000,0.000000,2.000000,-1.000000,2.000000,-2.000000
1301467.830343,-1.000000,0.000000,2.000000,-2.000000,2.000000,-3.000000,-3.000000,0.000000
1301467.830625,-3.000000,2.000000,0.000000,-4.000000,-1.000000,-2.000000,-6.000000,-4.000000
1301467.830902,-2.000000,-2.000000,-5.000000,-1.000000,-9.000000,-5.000000,2.000000,2.000000
1301467.831386,-2.000000,-2.000000,1.000000,4.000000,0.000000,2.000000,1.000000,-1.000000
1301467.831405,2.000000,-1.000000,-3.000000,0.000000,3.000000,-2.000000,-1.000000,-5.000000
1301467.842040,-4.000000,3.000000,-1.000000,0.000000,0.000000,-4.000000,-2.000000,-6.000000
1301467.842068,-1.000000,-3.000000,-1.000000,0.000000,-4.000000,-2.000000,-3.000000,1.000000
1301467.864513,-2.000000,1.000000,-6.000000,-2.000000,1.000000,-1.000000,-1.000000,-2.000000
1301467.864553,0.000000,-1.000000,-4.000000,-2.000000,2.000000,-1.000000,-2.000000,1.000000
1301467.887106,-1.000000,-4.000000,1.000000,-4.000000,6.000000,4.000000,1.000000,-3.000000
1301467.887128,-2.000000,6.000000,-1.000000,-7.000000,-8.000000,-2.000000,-1.000000,-3.000000
1301467.902149,-1.000000,4.000000,6.000000,4.000000,-3.000000,-1.000000,-3.000000,-1.000000
1301467.902185,-4.000000,1.000000,-2.000000,-5.000000,-2.000000,-4.000000,0.000000,0.000000
1301467.925236,1.000000,0.000000,3.000000,-3.000000,-1.000000,-1.000000,0.000000,-5.000000
1301467.925313,-3.000000,3.000000,0.000000,-6.000000,2.000000,-2.000000,-1.000000,0.000000
1301467.926236,-3.000000,-3.000000,-4.000000,-8.000000,-11.000000,-3.000000,1.000000,-4.000000
1301467.926608,0.000000,1.000000,-4.000000,-3.000000,-6.000000,-4.000000,1.000000,-1.000000
1301467.927850,4.000000,-1.000000,-3.000000,5.000000,3.000000,2.000000,0.000000,-10.000000
1301467.927873,3.000000,3.000000,-1.000000,7.000000,0.000000,4.000000,-1.000000,-5.000000
1301467.928545,4.000000,-4.000000,-6.000000,4.000000,3.000000,1.000000,4.000000,2.000000
1301467.928570,-1.000000,1.000000,-2.000000,1.000000,-4.000000,1.000000,-5.000000,-4.000000
1301467.947702,3.000000,1.000000,-2.000000,3.000000,-2.000000,0.000000,0.000000,-3.000000
1301467.947744,-1.000000,-6.000000,0.000000,0.000000,-5.000000,-2.000000,-1.000000,3.000000
1301467.948478,0.000000,-1.000000,-1.000000,-6.000000,-3.000000,2.000000,-2.000000,1.000000
1301467.948498,0.000000,3.000000,0.000000,1.000000,4.000000,0.000000,-1.000000,-1.000000
1301467.962082,3.000000,4.000000,-2.000000,-1.000000,-6.000000,-6.000000,-1.000000,3.000000
1301467.962265,-1.000000,-1.000000,-3.000000,0.000000,-3.000000,-6.000000,2.000000,-2.000000
1301467.962680,-3.000000,0.000000,-1.000000,-3.000000,2.000000,4.000000,-2.000000,-5.000000
1301467.962717,1.000000,7.000000,-1.000000,-3.000000,-5.000000,-6.000000,1.000000,-1.000000
1301467.984626,-1.000000,-7.000000,-2.000000,2.000000,-3.000000,-1.000000,-2.000000,-2.000000
1301467.984700,-1.000000,-2.000000,1.000000,-1.000000,-1.000000,1.000000,0.000000,0.000000
1301467.999838,2.000000,-7.000000,-4.000000,-2.000000,4.000000,4.000000,-2.000000,-2.000000
1301467.999860,0.000000,-4.000000,3.000000,3.000000,0.000000,4.000000,-1.000000,-1.000000
1301468.022395,0.000000,3.000000,2.000000,5.000000,5.000000,-4.000000,0.000000,-4.000000
1301468.022441,-3.000000,-5.000000,-6.000000,-4.000000,-8.000000,-2.000000,-2.000000,-2.000000
1301468.029413,1.000000,1.000000,-4.000000,0.000000,-3.000000,-1.000000,-2.000000,0.000000
1301468.029432,-1.000000,2.000000,-3.000000,0.000000,-6.000000,2.000000,-4.000000,-4.000000
1301468.067392,2.000000,-1.000000,-4.000000,-6.000000,10.000000,5.000000,1.000000,-2.000000
1301468.067765,0.000000,2.000000,2.000000,-1.000000,-5.000000,-1.000000,-1.000000,-3.000000
1301468.068483,2.000000,-3.000000,-2.000000,-1.000000,0.000000,-2.000000,-4.000000,3.000000
1301468.068500,-1.000000,2.000000,-3.000000,-3.000000,-4.000000,-2.000000,-2.000000,-4.000000
1301468.069380,4.000000,0.000000,-5.000000,-4.000000,2.000000,3.000000,0.000000,0.000000
1301468.069670,1.000000,-2.000000,5.000000,1.000000,-4.000000,-2.000000,1.000000,-3.000000
1301468.070308,-5.000000,-5.000000,-5.000000,-2.000000,-1.000000,3.000000,-5.000000,1.000000
1301468.070373,-4.000000,-2.000000,1.000000,1.000000,-7.000000,-1.000000,3.000000,0.000000
1301468.071437,5.000000,3.000000,1.000000,2.000000,-3.000000,-3.000000,-1.000000,-1.000000
1301468.071487,-5.000000,3.000000,6.000000,1.000000,-4.000000,-4.000000,-1.000000,-2.000000
1301468.074645,-7.000000,-1.000000,0.000000,-4.000000,2.000000,-1.000000,-3.000000,-5.000000
1301468.074673,2.000000,-3.000000,-3.000000,-5.000000,2.000000,2.000000,-2.000000,-4.000000
1301468.081988,0.000000,-2.000000,-2.000000,2.000000,3.000000,2.000000,-5.000000,3.000000
1301468.082126,5.000000,-4.000000,1.000000,-2.000000,-1.000000,-1.000000,-1.000000,1.000000
1301468.119621,-4.000000,1.000000,-4.000000,-4.000000,-1.000000,-2.000000,-2.000000,0.000000
1301468.119641,-4.000000,-2.000000,-5.000000,4.000000,1.000000,0.000000,0.000000,-3.000000
1301468.127132,-1.000000,1.000000,-4.000000,-12.000000,-5.000000,-1.000000,-1.000000,-1.000000
1301468.127164,-2.000000,5.000000,-1.000000,-1.000000,1.000000,-5.000000,-2.000000,1.000000
1301468.179545,8.000000,0.000000,-3.000000,-4.000000,-9.000000,-4.000000,3.000000,0.000000
1301468.179584,0.000000,-3.000000,3.000000,0.000000,-5.000000,-3.000000,-1.000000,0.000000
1301468.187115,-4.000000,0.000000,-3.000000,-7.000000,-6.000000,-4.000000,0.000000,1.000000
1301468.187155,-1.000000,3.000000,-4.000000,-1.000000,3.000000,-1.000000,-1.000000,-4.000000
1301468.203395,1.000000,-3.000000,-4.000000,3.000000,-1.000000,-2.000000,1.000000,0.000000
1301468.203426,1.000000,1.000000,0.000000,2.000000,-1.000000,3.000000,-2.000000,2.000000
1301468.203598,1.000000,2.000000,-2.000000,4.000000,-6.000000,-2.000000,-2.000000,-4.000000
1301468.203637,0.000000,-4.000000,2.000000,4.000000,0.000000,-1.000000,-3.000000,4.000000
1301468.205111,-6.000000,0.000000,6.000000,0.000000,5.000000,6.000000,-4.000000,-1.000000
1301468.205133,0.000000,-5.000000,-1.000000,3.000000,-2.000000,-2.000000,-4.000000,-1.000000
1301468.205981,-2.000000,-4.000000,1.000000,-3.000000,1.000000,-1.000000,0.000000,0.000000
1301468.206021,3.000000,2.000000,-3.000000,-1.000000,4.000000,0.000000,3.000000,-3.000000
1301468.239585,0.000000,0.000000,-3.000000,0.000000,-5.000000,-2.000000,-2.000000,2.000000
1301468.239625,-1.000000,-1.000000,-4.000000,1.000000,0.000000,-1.000000,1.000000,-2.000000
1301468.246974,1.000000,-3.000000,-2.000000,-11.000000,-5.000000,-3.000000,1.000000,-5.000000
1301468.247011,-4.000000,-6.000000,-2.000000,0.000000,3.000000,1.000000,-2.000000,-3.000000
1301468.285157,5.000000,1.000000,3.000000,5.000000,2.000000,-3.000000,-2.000000,-1.000000
1301468.285221,-1.000000,-3.000000,-5.000000,-3.000000,-7.000000,-1.000000,0.000000,1.000000
1301468.285430,-3.000000,-6.000000,-3.000000,-4.000000,0.000000,0.000000,2.000000,-1.000000
1301468.285466,-3.000000,-3.000000,1.000000,2.000000,-2.000000,-2.000000,0.000000,-1.000000
1301468.286755,1.000000,0.000000,1.000000,1.000000,-2.000000,-4.000000,1.000000,4.000000
1301468.286787,0.000000,-2.000000,-3.000000,1.000000,1.000000,-1.000000,-1.000000,2.000000
1301468.287741,-7.000000,2.000000,-3.000000,-1.000000,0.000000,0.000000,2.000000,-1.000000
1301468.287777,2.000000,-1.000000,-1.000000,-2.000000,0.000000,-1.000000,-2.000000,0.000000
1301468.288766,0.000000,1.000000,1.000000,3.000000,-6.000000,-6.000000,-2.000000,3.000000
1301468.288803,6.000000,3.000000,1.000000,0.000000,-3.000000,2.000000,1.000000,2.000000
1301468.300582,-2.000000,-9.000000,1.000000,0.000000,3.000000,0.000000,-2.000000,-3.000000
1301468.300616,-3.000000,-7.000000,-2.000000,3.000000,-1.000000,4.000000,-1.000000,-4.000000
1301468.307233,-2.000000,-3.000000,2.000000,2.000000,1.000000,-1.000000,-2.000000,2.000000
1301468.307284,4.000000,-2.000000,4.000000,2.000000,0.000000,-1.000000,-1.000000,-4.000000
1301468.321978,-6.000000,-2.000000,0.000000,-4.000000,-7.000000,1.000000,-1.000000,-3.000000
1301468.322019,3.000000,-4.000000,-4.000000,2.000000,-3.000000,2.000000,2.000000,1.000000
1301468.344779,-4.000000,1.000000,-1.000000,2.000000,1.000000,-3.000000,-3.000000,-1.000000
1301468.344816,-2.000000,-5.000000,-2.000000,0.000000,0.000000,1.000000,1.000000,-5.000000
1301468.359476,1.000000,1.000000,5.000000,1.000000,-2.000000,3.000000,-3.000000,0.000000
1301468.359519,-4.000000,-4.000000,1.000000,0.000000,0.000000,2.000000,1.000000,0.000000
1301468.382037,1.000000,0.000000,0.000000,1.000000,-5.000000,-2.000000,0.000000,-1.000000
1301468.382076,-1.000000,1.000000,-3.000000,-4.000000,0.000000,1.000000,-1.000000,3.000000
1301468.397181,-3.000000,-5.000000,0.000000,-3.000000,-2.000000,2.000000,-1.000000,0.000000
1301468.397224,5.000000,-1.000000,4.000000,-1.000000,-4.000000,-1.000000,1.000000,0.000000
1301468.404600,-3.000000,-3.000000,0.000000,-4.000000,3.000000,-5.000000,-1.000000,-1.000000
1301468.404855,5.000000,3.000000,-1.000000,-1.000000,-5.000000,-3.000000,3.000000,-3.000000
1301468.406304,1.000000,-1.000000,-4.000000,-7.000000,-4.000000,-1.000000,0.000000,0.000000
1301468.406342,0.000000,0.000000,4.000000,-3.000000,-1.000000,-2.000000,-1.000000,-5.000000
1301468.406478,3.000000,1.000000,-1.000000,1.000000,3.000000,0.000000,-2.000000,-4.000000
1301468.406511,2.000000,-2.000000,-2.000000,-1.000000,-3.000000,-5.000000,0.000000,-4.000000
1301468.407233,-1.000000,0.000000,1.000000,4.000000,5.000000,-1.000000,-4.000000,3.000000
1301468.407263,1.000000,1.000000,-2.000000,3.000000,-1.000000,-1.000000,-1.000000,-4.000000
1301468.407847,2.000000,-1.000000,-1.000000,-5.000000,0.000000,-1.000000,0.000000,0.000000
1301468.407898,2.000000,1.000000,0.000000,1.000000,1.000000,0.000000,1.000000,2.000000
1301468.420223,-2.000000,0.000000,-4.000000,-1.000000,-3.000000,4.000000,-1.000000,1.000000
1301468.420244,3.000000,1.000000,-1.000000,-3.000000,-1.000000,0.000000,0.000000,-2.000000
1301468.434403,-2.000000,-1.000000,-5.000000,2.000000,2.000000,-2.000000,1.000000,-2.000000
1301468.434424,1.000000,-3.000000,4.000000,-1.000000,3.000000,2.000000,0.000000,2.000000
1301468.442922,-1.000000,0.000000,1.000000,0.000000,-2.000000,-1.000000,-2.000000,-5.000000
1301468.442950,2.000000,0.000000,-4.000000,-3.000000,1.000000,-1.000000,0.000000,0.000000
1301468.457101,2.000000,-5.000000,1.000000,6.000000,4.000000,5.000000,3.000000,-1.000000
1301468.457139,-3.000000,1.000000,1.000000,-2.000000,-3.000000,0.000000,1.000000,2.000000
1301468.479544,0.000000,-2.000000,-1.000000,-3.000000,3.000000,-5.000000,1.000000,1.000000
1301468.479582,1.000000,-4.000000,0.000000,3.000000,1.000000,3.000000,1.000000,2.000000
1301468.501948,1.000000,4.000000,-2.000000,1.000000,-1.000000,3.000000,-2.000000,-2.000000
1301468.501984,-1.000000,-1.000000,-1.000000,-4.000000,1.000000,-3.000000,0.000000,-1.000000
1301468.517321,-1.000000,3.000000,-2.000000,-2.000000,2.000000,4.000000,1.000000,-3.000000
1301468.517360,-4.000000,-1.000000,1.000000,-6.000000,-1.000000,-3.000000,-6.000000,-2.000000
1301468.524551,-5.000000,-1.000000,-3.000000,1.000000,1.000000,-4.000000,-5.000000,1.000000
1301468.524591,6.000000,-2.000000,1.000000,-2.000000,2.000000,2.000000,1.000000,0.000000
1301468.562072,-3.000000,-2.000000,5.000000,2.000000,4.000000,1.000000,-1.000000,-1.000000
1301468.562110,3.000000,0.000000,1.000000,-2.000000,-6.000000,-3.000000,-3.000000,3.000000
1301468.577189,0.000000,-5.000000,-3.000000,-1.000000,-3.000000,-2.000000,-3.000000,1.000000
1301468.577226,-1.000000,2.000000,-5.000000,4.000000,-4.000000,0.000000,0.000000,-1.000000
1301468.584511,7.000000,2.000000,-7.000000,-3.000000,-4.000000,-1.000000,1.000000,1.000000
1301468.584530,4.000000,-1.000000,4.000000,0.000000,3.000000,-1.000000,2.000000,-3.000000
1301468.599613,-2.000000,-4.000000,-5.000000,-1.000000,-1.000000,-3.000000,-1.000000,-2.000000
1301468.599634,-1.000000,-1.000000,2.000000,-1.000000,-3.000000,0.000000,2.000000,-5.000000
1301468.622645,-4.000000,-3.000000,-3.000000,1.000000,2.000000,0.000000,1.000000,-4.000000
1301468.622876,-3.000000,-5.000000,-6.000000,2.000000,4.000000,2.000000,-1.000000,-1.000000
1301468.623299,-2.000000,0.000000,-2.000000,-4.000000,3.000000,-6.000000,0.000000,4.000000
1301468.623349,0.000000,-4.000000,-3.000000,-4.000000,2.000000,4.000000,-3.000000,-6.000000
1301468.624798,2.000000,-3.000000,-6.000000,-3.000000,-4.000000,-3.000000,0.000000,-4.000000
1301468.624942,2.000000,-2.000000,5.000000,-2.000000,-3.000000,0.000000,-2.000000,1.000000
1301468.626682,2.000000,-1.000000,7.000000,1.000000,1.000000,0.000000,2.000000,-1.000000
1301468.626995,6.000000,-2.000000,0.000000,-1.000000,-2.000000,0.000000,0.000000,-3.000000
1301468.627413,1.000000,-6.000000,-5.000000,0.000000,4.000000,-3.000000,1.000000,1.000000
1301468.627463,-2.000000,-5.000000,-2.000000,-2.000000,6.000000,-1.000000,0.000000,0.000000
1301468.630201,-2.000000,0.000000,-3.000000,-1.000000,2.000000,-2.000000,-3.000000,-1.000000
1301468.630269,-5.000000,5.000000,-5.000000,-2.000000,3.000000,-3.000000,1.000000,2.000000
1301468.638571,-3.000000,2.000000,6.000000,-3.000000,-3.000000,2.000000,-5.000000,3.000000
1301468.638621,2.000000,0.000000,-3.000000,-2.000000,4.000000,-3.000000,1.000000,-1.000000
1301468.660365,1.000000,-4.000000,-7.000000,-1.000000,-1.000000,1.000000,0.000000,-1.000000
1301468.660412,-2.000000,-3.000000,2.000000,2.000000,-2.000000,-3.000000,2.000000,3.000000
1301468.661628,0.000000,2.000000,-2.000000,-3.000000,-1.000000,-2.000000,0.000000,-3.000000
1301468.661682,4.000000,-7.000000,-1.000000,-7.000000,-2.000000,-2.000000,-2.000000,-2.000000
1301468.667388,-1.000000,-5.000000,-1.000000,-3.000000,0.000000,1.000000,2.000000,-1.000000
1301468.667448,2.000000,3.000000,-1.000000,1.000000,-4.000000,5.000000,-1.000000,-2.000000
1301468.676163,-6.000000,2.000000,0.000000,-1.000000,4.000000,-2.000000,0.000000,-1.000000
1301468.676222,3.000000,0.000000,-2.000000,3.000000,3.000000,-2.000000,-1.000000,4.000000
1301468.698613,6.000000,1.000000,0.000000,-2.000000,1.000000,-1.000000,-3.000000,1.000000
1301468.698642,1.000000,2.000000,0.000000,1.000000,3.000000,-1.000000,0.000000,1.000000
1301468.699864,-3.000000,-3.000000,-4.000000,-2.000000,5.000000,1.000000,1.000000,-3.000000
1301468.699922,1.000000,-1.000000,-3.000000,-5.000000,-2.000000,-2.000000,-1.000000,-2.000000
1301468.720962,1.000000,-1.000000,1.000000,-1.000000,4.000000,-1.000000,-2.000000,-5.000000
1301468.721038,3.000000,1.000000,-3.000000,-1.000000,-2.000000,-2.000000,-2.000000,-5.000000
1301468.743044,0.000000,3.000000,5.000000,-2.000000,-6.000000,1.000000,-2.000000,2.000000
1301468.743105,-6.000000,-2.000000,-2.000000,-6.000000,-2.000000,2.000000,1.000000,-9.000000
1301468.780502,-3.000000,0.000000,1.000000,-1.000000,2.000000,-5.000000,-4.000000,-3.000000
1301468.780568,-4.000000,0.000000,0.000000,0.000000,2.000000,-4.000000,-3.000000,-1.000000
1301468.782915,-3.000000,-1.000000,2.000000,1.000000,-1.000000,1.000000,-4.000000,-2.000000
1301468.783719,0.000000,-4.000000,-1.000000,-4.000000,-1.000000,6.000000,-3.000000,0.000000
1301468.785524,1.000000,-4.000000,-4.000000,1.000000,3.000000,2.000000,-4.000000,3.000000
1301468.785574,0.000000,-6.000000,-4.000000,-4.000000,-4.000000,-5.000000,1.000000,-1.000000
1301468.786576,-2.000000,-3.000000,2.000000,1.000000,0.000000,-1.000000,3.000000,1.000000
1301468.786633,3.000000,0.000000,0.000000,0.000000,-2.000000,0.000000,-3.000000,-3.000000
1301468.795237,-2.000000,-4.000000,-6.000000,1.000000,3.000000,-3.000000,-1.000000,1.000000
1301468.795844,4.000000,-5.000000,-1.000000,3.000000,1.000000,2.000000,2.000000,1.000000
1301468.797758,-1.000000,-4.000000,0.000000,0.000000,-8.000000,-4.000000,-2.000000,-4.000000
1301468.797793,0.000000,2.000000,-1.000000,2.000000,2.000000,-1.000000,0.000000,-3.000000
1301468.818621,3.000000,-6.000000,1.000000,0.000000,1.000000,1.000000,-1.000000,-1.000000
1301468.818765,1.000000,1.000000,3.000000,0.000000,-3.000000,0.000000,-2.000000,-1.000000
1301468.819550,-1.000000,6.000000,-4.000000,-1.000000,1.000000,-3.000000,1.000000,7.000000
1301468.819576,1.000000,-6.000000,0.000000,-4.000000,3.000000,-2.000000,-4.000000,0.000000
1301468.840881,-4.000000,4.000000,-5.000000,-9.000000,-2.000000,1.000000,-1.000000,-2.000000
1301468.840936,2.000000,-1.000000,-4.000000,1.000000,3.000000,3.000000,0.000000,1.000000
1301468.862956,2.000000,-5.000000,2.000000,3.000000,-3.000000,3.000000,1.000000,2.000000
1301468.863030,-5.000000,3.000000,-3.000000,3.000000,-4.000000,0.000000,-3.000000,3.000000
1301468.877866,-2.000000,-1.000000,1.000000,-3.000000,0.000000,3.000000,0.000000,-2.000000
1301468.877930,0.000000,4.000000,-5.000000,-6.000000,6.000000,-3.000000,2.000000,-1.000000
1301468.903687,-3.000000,-2.000000,-5.000000,-8.000000,0.000000,2.000000,-1.000000,0.000000
1301468.905790,2.000000,-6.000000,-6.000000,-3.000000,-6.000000,0.000000,-3.000000,0.000000
1301468.907351,-6.000000,-4.000000,-5.000000,2.000000,-3.000000,2.000000,-1.000000,-8.000000
1301468.907427,3.000000,-2.000000,-3.000000,-5.000000,-4.000000,-6.000000,2.000000,-3.000000
1301468.908070,4.000000,3.000000,-2.000000,-8.000000,-7.000000,-4.000000,-2.000000,3.000000
1301468.908128,-3.000000,1.000000,-3.000000,5.000000,-3.000000,-1.000000,-3.000000,1.000000
1301468.908691,1.000000,3.000000,-3.000000,-1.000000,-6.000000,-5.000000,0.000000,4.000000
1301468.909199,-5.000000,-1.000000,2.000000,1.000000,1.000000,7.000000,-1.000000,-2.000000
1301468.910079,11.000000,-3.000000,1.000000,-3.000000,0.000000,-4.000000,-3.000000,-3.000000
1301468.910102,2.000000,-3.000000,-1.000000,2.000000,-4.000000,-1.000000,0.000000,3.000000
1301468.915409,-1.000000,-3.000000,-4.000000,-8.000000,-6.000000,-6.000000,0.000000,-3.000000
1301468.915442,2.000000,-1.000000,-3.000000,-6.000000,-7.000000,-1.000000,-1.000000,-3.000000
1301468.930592,-3.000000,-1.000000,-3.000000,-9.000000,-1.000000,-5.000000,-1.000000,0.000000
1301468.930626,0.000000,1.000000,-5.000000,2.000000,-4.000000,-4.000000,-3.000000,0.000000
1301468.938786,-9.000000,-4.000000,0.000000,1.000000,1.000000,-2.000000,0.000000,-4.000000
1301468.938845,0.000000,-1.000000,-1.000000,1.000000,-6.000000,-7.000000,-4.000000,1.000000
1301468.945470,-2.000000,0.000000,-1.000000,2.000000,0.000000,2.000000,1.000000,-2.000000
1301468.945503,-3.000000,-4.000000,-2.000000,-4.000000,-2.000000,-5.000000,-2.000000,-3.000000
1301468.960436,1.000000,-3.000000,1.000000,1.000000,1.000000,0.000000,-2.000000,0.000000
1301468.960470,-1.000000,-2.000000,-1.000000,2.000000,-4.000000,2.000000,-5.000000,-2.000000
1301468.975616,1.000000,0.000000,1.000000,-5.000000,-3.000000,1.000000,-3.000000,1.000000
1301468.975688,-1.000000,-5.000000,1.000000,3.000000,-2.000000,-4.000000,0.000000,-3.000000
1301469.015367,0.000000,-4.000000,-6.000000,-4.000000,-5.000000,-5.000000,-1.000000,-2.000000
1301469.015451,-4.000000,2.000000,-4.000000,-1.000000,-4.000000,-3.000000,-2.000000,1.000000
1301469.015767,-3.000000,1.000000,1.000000,0.000000,0.000000,-8.000000,-1.000000,-1.000000
1301469.015816,2.000000,-2.000000,-5.000000,-2.000000,2.000000,-4.000000,2.000000,-3.000000
1301469.016577,0.000000,-3.000000,-5.000000,-6.000000,-4.000000,-1.000000,1.000000,4.000000
1301469.016634,-2.000000,2.000000,2.000000,-4.000000,-3.000000,-1.000000,0.000000,-4.000000
1301469.018518,-2.000000,-5.000000,2.000000,2.000000,6.000000,-3.000000,-4.000000,0.000000
1301469.018576,-1.000000,2.000000,2.000000,0.000000,-4.000000,-1.000000,0.000000,0.000000
1301469.020481,4.000000,-1.000000,-1.000000,-2.000000,-3.000000,1.000000,0.000000,3.000000
1301469.020544,-3.000000,-5.000000,3.000000,2.000000,-4.000000,0.000000,-1.000000,-3.000000
1301469.035595,-3.000000,-1.000000,-3.000000,0.000000,-3.000000,2.000000,1.000000,-2.000000
1301469.036075,0.000000,-5.000000,-1.000000,-1.000000,-7.000000,-6.000000,1.000000,-1.000000
1301469.038293,-2.000000,-4.000000,-4.000000,-6.000000,0.000000,2.000000,-1.000000,0.000000
1301469.038478,-4.000000,-5.000000,-4.000000,-7.000000,-2.000000,-1.000000,-1.000000,0.000000
1301469.058538,1.000000,-1.000000,-1.000000,1.000000,-3.000000,5.000000,2.000000,4.000000
1301469.058809,2.000000,-2.000000,-1.000000,-1.000000,2.000000,-4.000000,-2.000000,1.000000
1301469.059610,-1.000000,-3.000000,1.000000,-1.000000,-3.000000,1.000000,-1.000000,1.000000
1301469.059666,0.000000,1.000000,-5.000000,2.000000,0.000000,-4.000000,-3.000000,-3.000000
1301469.073018,-1.000000,0.000000,3.000000,-6.000000,-6.000000,0.000000,-2.000000,1.000000
1301469.073051,2.000000,2.000000,-1.000000,3.000000,5.000000,2.000000,2.000000,-3.000000
1301469.095458,0.000000,0.000000,-3.000000,-5.000000,-2.000000,0.000000,-3.000000,0.000000
1301469.095517,9.000000,0.000000,-3.000000,-2.000000,-3.000000,-5.000000,-2.000000,-1.000000
1301469.118037,-3.000000,-1.000000,2.000000,-1.000000,-6.000000,-4.000000,1.000000,1.000000
1301469.118096,-5.000000,-7.000000,-5.000000,-2.000000,-5.000000,-2.000000,1.000000,-1.000000
1301469.140801,1.000000,0.000000,-1.000000,1.000000,3.000000,1.000000,-3.000000,2.000000
1301469.140867,-3.000000,1.000000,2.000000,-2.000000,-1.000000,0.000000,-1.000000,-4.000000
1301469.155499,-1.000000,2.000000,-1.000000,0.000000,-6.000000,0.000000,-2.000000,-3.000000
1301469.155561,2.000000,-4.000000,0.000000,3.000000,2.000000,-1.000000,0.000000,-3.000000
1301469.180442,-3.000000,2.000000,2.000000,-7.000000,-6.000000,-1.000000,0.000000,-4.000000
1301469.181121,-1.000000,-4.000000,1.000000,0.000000,1.000000,-1.000000,1.000000,-7.000000
1301469.181869,1.000000,-4.000000,-2.000000,3.000000,1.000000,1.000000,-2.000000,4.000000
1301469.181917,-3.000000,-1.000000,1.000000,-5.000000,-1.000000,0.000000,0.000000,-4.000000
1301469.182455,-1.000000,1.000000,2.000000,1.000000,3.000000,1.000000,-1.000000,-1.000000
1301469.182498,-5.000000,0.000000,1.000000,-3.000000,0.000000,3.000000,2.000000,4.000000
1301469.230442,-2.000000,4.000000,0.000000,-2.000000,3.000000,1.000000,1.000000,-3.000000
1301469.230553,-2.000000,-1.000000,-3.000000,-3.000000,-1.000000,5.000000,-3.000000,3.000000
1301469.238382,3.000000,4.000000,-2.000000,0.000000,-7.000000,-2.000000,-1.000000,-1.000000
