# participant_id: P7
# gesture: medium
# trial_number: 2
# stream_name: Myo_EMG
# stream_type: emg
# timestamp: 20260420_151621
# samples: 5424
# duration_sec: 31.328
# nominal_sample_rate: 200.0
# effective_sample_rate: 173.11
#
timestamp,emg_1,emg_2,emg_3,emg_4,emg_5,emg_6,emg_7,emg_8
1302872.316237,-7.000000,4.000000,11.000000,-20.000000,-19.000000,-3.000000,-3.000000,8.000000
1302872.316247,7.000000,-16.000000,-45.000000,-14.000000,7.000000,4.000000,36.000000,11.000000
1302872.331385,-13.000000,14.000000,53.000000,-23.000000,-20.000000,-16.000000,-58.000000,-13.000000
1302872.331403,26.000000,27.000000,8.000000,-1.000000,2.000000,-1.000000,12.000000,-9.000000
1302872.346367,-33.000000,-94.000000,-3.000000,-10.000000,-19.000000,-19.000000,-6.000000,-13.000000
1302872.346376,-4.000000,14.000000,3.000000,-46.000000,22.000000,13.000000,16.000000,16.000000
1302872.376433,-2.000000,1.000000,12.000000,10.000000,14.000000,9.000000,-8.000000,-5.000000
1302872.376503,-7.000000,-1.000000,10.000000,15.000000,-20.000000,-11.000000,-9.000000,-5.000000
1302872.391869,-22.000000,-2.000000,-23.000000,-16.000000,10.000000,11.000000,6.000000,1.000000
1302872.391915,10.000000,-29.000000,-29.000000,-29.000000,-14.000000,-20.000000,-33.000000,-7.000000
1302872.392402,-17.000000,35.000000,1.000000,38.000000,18.000000,8.000000,5.000000,-12.000000
1302872.392429,20.000000,-13.000000,-22.000000,-79.000000,-27.000000,2.000000,13.000000,15.000000
1302872.393697,0.000000,-9.000000,17.000000,8.000000,15.000000,9.000000,12.000000,7.000000
1302872.393706,-22.000000,1.000000,49.000000,-46.000000,-22.000000,-13.000000,-30.000000,-22.000000
1302872.394439,-10.000000,-10.000000,-32.000000,8.000000,-4.000000,4.000000,12.000000,-6.000000
1302872.394447,-13.000000,-35.000000,-1.000000,26.000000,-2.000000,-15.000000,-24.000000,-19.000000
1302872.398691,16.000000,-9.000000,7.000000,-7.000000,13.000000,8.000000,7.000000,2.000000
1302872.398701,-14.000000,-9.000000,2.000000,78.000000,12.000000,10.000000,11.000000,0.000000
1302872.413903,-13.000000,7.000000,4.000000,10.000000,22.000000,12.000000,-12.000000,-10.000000
1302872.413913,4.000000,-7.000000,-9.000000,-43.000000,-27.000000,-34.000000,-49.000000,8.000000
1302872.414410,21.000000,2.000000,-30.000000,-36.000000,-3.000000,13.000000,59.000000,12.000000
1302872.414418,19.000000,36.000000,31.000000,-12.000000,-7.000000,-7.000000,-9.000000,2.000000
1302872.436352,-26.000000,-52.000000,-27.000000,-40.000000,-11.000000,-12.000000,-67.000000,-32.000000
1302872.436370,21.000000,32.000000,29.000000,-10.000000,12.000000,19.000000,78.000000,44.000000
1302872.474166,-19.000000,6.000000,18.000000,-26.000000,-14.000000,-16.000000,-33.000000,-27.000000
1302872.474197,-12.000000,8.000000,1.000000,10.000000,1.000000,3.000000,-5.000000,7.000000
1302872.511262,1.000000,-23.000000,-10.000000,-24.000000,-10.000000,0.000000,9.000000,-2.000000
1302872.511280,-4.000000,2.000000,-37.000000,-37.000000,12.000000,0.000000,-18.000000,-12.000000
1302872.511834,16.000000,62.000000,53.000000,17.000000,-9.000000,2.000000,-20.000000,-1.000000
1302872.511875,0.000000,-24.000000,-43.000000,-45.000000,-26.000000,-13.000000,35.000000,2.000000
1302872.513085,-19.000000,11.000000,-30.000000,12.000000,13.000000,7.000000,-7.000000,4.000000
1302872.513117,8.000000,19.000000,54.000000,59.000000,18.000000,2.000000,5.000000,17.000000
1302872.514369,32.000000,34.000000,-28.000000,-12.000000,-4.000000,6.000000,46.000000,8.000000
1302872.514385,-4.000000,-35.000000,30.000000,-35.000000,-2.000000,-4.000000,-15.000000,5.000000
1302872.534219,8.000000,18.000000,24.000000,-34.000000,-16.000000,-5.000000,1.000000,7.000000
1302872.534253,-3.000000,2.000000,-16.000000,-12.000000,-11.000000,-21.000000,-44.000000,-14.000000
1302872.534825,1.000000,2.000000,29.000000,-2.000000,3.000000,15.000000,45.000000,23.000000
1302872.534832,-17.000000,-34.000000,-17.000000,-28.000000,-9.000000,-9.000000,-16.000000,-10.000000
1302872.535563,-16.000000,-13.000000,-18.000000,-30.000000,-14.000000,-8.000000,-14.000000,-9.000000
1302872.535571,-1.000000,3.000000,-5.000000,25.000000,19.000000,11.000000,-5.000000,-8.000000
1302872.556344,-19.000000,-15.000000,-37.000000,40.000000,-26.000000,-22.000000,-21.000000,-13.000000
1302872.556373,-27.000000,-13.000000,-19.000000,-31.000000,-5.000000,1.000000,12.000000,1.000000
1302872.571256,21.000000,13.000000,-37.000000,3.000000,-1.000000,-9.000000,-7.000000,-2.000000
1302872.571269,4.000000,-14.000000,13.000000,6.000000,6.000000,0.000000,48.000000,2.000000
1302872.593824,-30.000000,-50.000000,-13.000000,-49.000000,-9.000000,16.000000,27.000000,5.000000
1302872.593835,-4.000000,5.000000,-4.000000,-16.000000,-16.000000,-11.000000,-24.000000,-17.000000
1302872.608792,-6.000000,-1.000000,-16.000000,-7.000000,-1.000000,-6.000000,-28.000000,-11.000000
1302872.608809,21.000000,10.000000,35.000000,62.000000,18.000000,14.000000,21.000000,15.000000
1302872.616621,-4.000000,-1.000000,-17.000000,-4.000000,-7.000000,-11.000000,-23.000000,-16.000000
1302872.616644,-3.000000,-23.000000,-58.000000,-110.000000,-34.000000,-11.000000,-17.000000,-20.000000
1302872.617230,-13.000000,-18.000000,0.000000,6.000000,-20.000000,-32.000000,3.000000,6.000000
1302872.617253,17.000000,4.000000,-13.000000,-16.000000,7.000000,-7.000000,18.000000,14.000000
1302872.631311,-13.000000,-32.000000,-50.000000,-18.000000,-10.000000,-1.000000,-16.000000,-11.000000
1302872.631322,-26.000000,-19.000000,-28.000000,-49.000000,6.000000,2.000000,-13.000000,-15.000000
1302872.631937,22.000000,26.000000,26.000000,9.000000,-3.000000,-11.000000,-15.000000,-1.000000
1302872.631949,4.000000,-9.000000,-24.000000,-34.000000,-22.000000,-15.000000,-65.000000,-8.000000
1302872.632558,-2.000000,0.000000,-51.000000,-95.000000,-33.000000,-16.000000,38.000000,-12.000000
1302872.632565,12.000000,9.000000,50.000000,117.000000,30.000000,24.000000,-2.000000,27.000000
1302872.653774,1.000000,7.000000,13.000000,3.000000,2.000000,2.000000,29.000000,5.000000
1302872.653792,11.000000,8.000000,22.000000,-29.000000,-7.000000,-9.000000,-25.000000,-14.000000
1302872.668914,-8.000000,24.000000,27.000000,0.000000,-3.000000,2.000000,-21.000000,-1.000000
1302872.668935,4.000000,9.000000,-7.000000,31.000000,14.000000,4.000000,7.000000,-4.000000
1302872.676584,5.000000,-11.000000,-27.000000,-69.000000,-49.000000,-34.000000,-30.000000,-18.000000
1302872.676595,-20.000000,-18.000000,-15.000000,61.000000,5.000000,-33.000000,-41.000000,-7.000000
1302872.706306,-2.000000,11.000000,-17.000000,-3.000000,9.000000,17.000000,40.000000,3.000000
1302872.706342,28.000000,25.000000,-3.000000,-31.000000,-19.000000,-9.000000,-19.000000,4.000000
1302872.713671,17.000000,1.000000,28.000000,-11.000000,-6.000000,-1.000000,5.000000,20.000000
1302872.713680,13.000000,28.000000,-23.000000,51.000000,21.000000,4.000000,-27.000000,-3.000000
1302872.744156,-38.000000,-26.000000,11.000000,-18.000000,9.000000,14.000000,62.000000,0.000000
1302872.744168,10.000000,-7.000000,-2.000000,-27.000000,-10.000000,0.000000,-23.000000,-7.000000
1302872.751314,7.000000,-17.000000,36.000000,-13.000000,5.000000,2.000000,5.000000,2.000000
1302872.751323,5.000000,8.000000,-7.000000,37.000000,44.000000,14.000000,-6.000000,4.000000
1302872.766664,-9.000000,-5.000000,52.000000,74.000000,32.000000,11.000000,13.000000,5.000000
1302872.766691,0.000000,-3.000000,1.000000,1.000000,2.000000,-1.000000,12.000000,6.000000
1302872.767249,6.000000,19.000000,8.000000,-15.000000,-7.000000,-3.000000,-20.000000,-3.000000
1302872.767258,-3.000000,-32.000000,-26.000000,-29.000000,-22.000000,-13.000000,-3.000000,0.000000
1302872.767959,-4.000000,19.000000,19.000000,-5.000000,-5.000000,-3.000000,-25.000000,-29.000000
1302872.767967,5.000000,17.000000,1.000000,-35.000000,-9.000000,-5.000000,58.000000,57.000000
1302872.768582,-4.000000,-8.000000,26.000000,-45.000000,-23.000000,-11.000000,2.000000,-15.000000
1302872.768591,-3.000000,-6.000000,-26.000000,-55.000000,-18.000000,-9.000000,-40.000000,-19.000000
1302872.770168,35.000000,5.000000,11.000000,78.000000,4.000000,-4.000000,15.000000,28.000000
1302872.770178,-37.000000,-12.000000,15.000000,-64.000000,-28.000000,-12.000000,-10.000000,-12.000000
1302872.773638,-5.000000,0.000000,-4.000000,2.000000,18.000000,8.000000,-9.000000,-14.000000
1302872.773648,21.000000,10.000000,-23.000000,-27.000000,0.000000,10.000000,34.000000,21.000000
1302872.789089,-18.000000,-6.000000,-17.000000,-24.000000,-18.000000,-16.000000,-33.000000,-15.000000
1302872.789100,-6.000000,-4.000000,-4.000000,-45.000000,-9.000000,-10.000000,-14.000000,-10.000000
1302872.811333,2.000000,26.000000,58.000000,97.000000,36.000000,33.000000,25.000000,8.000000
1302872.811342,-33.000000,-38.000000,-42.000000,-21.000000,-38.000000,-57.000000,-31.000000,-13.000000
1302872.834093,-13.000000,-11.000000,-95.000000,-71.000000,-17.000000,13.000000,2.000000,-15.000000
1302872.834103,-23.000000,4.000000,51.000000,81.000000,10.000000,-7.000000,-13.000000,-15.000000
1302872.848882,19.000000,3.000000,-7.000000,-30.000000,-2.000000,2.000000,-14.000000,6.000000
1302872.848907,-21.000000,-43.000000,13.000000,-46.000000,-15.000000,1.000000,71.000000,14.000000
1302872.849776,14.000000,0.000000,-5.000000,7.000000,18.000000,8.000000,-17.000000,13.000000
1302872.849785,25.000000,27.000000,59.000000,67.000000,12.000000,4.000000,-29.000000,8.000000
1302872.850377,-5.000000,8.000000,-3.000000,23.000000,11.000000,7.000000,35.000000,12.000000
1302872.850390,-26.000000,-5.000000,51.000000,15.000000,-5.000000,-3.000000,-48.000000,-35.000000
1302872.852046,29.000000,7.000000,-2.000000,-22.000000,-17.000000,-17.000000,23.000000,15.000000
1302872.852057,-5.000000,-7.000000,-33.000000,-33.000000,-22.000000,-4.000000,-4.000000,-2.000000
1302872.871285,-6.000000,1.000000,-2.000000,5.000000,-14.000000,-12.000000,-50.000000,-20.000000
1302872.871319,-6.000000,-36.000000,-22.000000,44.000000,-14.000000,-25.000000,-6.000000,-3.000000
1302872.872444,-5.000000,37.000000,42.000000,-26.000000,-16.000000,-3.000000,5.000000,-1.000000
1302872.872470,5.000000,32.000000,42.000000,122.000000,48.000000,19.000000,-1.000000,5.000000
1302872.893737,-17.000000,11.000000,-3.000000,-40.000000,-18.000000,-13.000000,-15.000000,-13.000000
1302872.893747,0.000000,12.000000,19.000000,64.000000,-1.000000,-3.000000,-35.000000,-6.000000
1302872.894630,-7.000000,14.000000,2.000000,-16.000000,-10.000000,18.000000,49.000000,18.000000
1302872.894639,-2.000000,12.000000,-12.000000,-11.000000,-11.000000,-11.000000,-8.000000,-11.000000
1302872.908851,-19.000000,-9.000000,-26.000000,-76.000000,-25.000000,-7.000000,-81.000000,-26.000000
1302872.908871,20.000000,29.000000,17.000000,17.000000,14.000000,28.000000,99.000000,18.000000
1302872.931584,-10.000000,-23.000000,-13.000000,-5.000000,-30.000000,-40.000000,-26.000000,-9.000000
1302872.931595,0.000000,8.000000,25.000000,-50.000000,-23.000000,-10.000000,-43.000000,-24.000000
1302872.953687,-18.000000,-5.000000,-18.000000,5.000000,-21.000000,-12.000000,-24.000000,-26.000000
1302872.953698,8.000000,20.000000,-2.000000,-5.000000,0.000000,2.000000,14.000000,20.000000
1302872.954080,-1.000000,-20.000000,17.000000,15.000000,-7.000000,-15.000000,-32.000000,-9.000000
1302872.954107,10.000000,3.000000,-39.000000,-63.000000,-17.000000,-10.000000,-4.000000,-5.000000
1302872.955550,-13.000000,-9.000000,31.000000,-41.000000,-18.000000,-24.000000,-42.000000,-10.000000
1302872.955570,4.000000,-13.000000,-2.000000,26.000000,-4.000000,2.000000,22.000000,1.000000
1302872.956259,10.000000,8.000000,-47.000000,-25.000000,-5.000000,2.000000,-13.000000,-3.000000
1302872.956318,-5.000000,23.000000,87.000000,8.000000,0.000000,5.000000,-12.000000,-9.000000
1302872.969385,-3.000000,-3.000000,-17.000000,-68.000000,-28.000000,-8.000000,12.000000,6.000000
1302872.969396,-23.000000,-49.000000,-59.000000,-3.000000,3.000000,-4.000000,-11.000000,-10.000000
1302872.970166,-2.000000,22.000000,4.000000,0.000000,-3.000000,-7.000000,-30.000000,-3.000000
1302872.970175,-5.000000,-5.000000,-26.000000,22.000000,5.000000,-9.000000,-24.000000,-17.000000
1302873.013780,44.000000,23.000000,1.000000,-16.000000,8.000000,29.000000,70.000000,40.000000
1302873.013809,-15.000000,18.000000,30.000000,37.000000,6.000000,-7.000000,-3.000000,3.000000
1302873.029139,-18.000000,-18.000000,-28.000000,-17.000000,3.000000,19.000000,-4.000000,-18.000000
1302873.029149,28.000000,2.000000,9.000000,18.000000,-10.000000,-23.000000,-21.000000,-1.000000
1302873.051409,-1.000000,-10.000000,-9.000000,-4.000000,-13.000000,-6.000000,-15.000000,-2.000000
1302873.051445,-37.000000,-8.000000,-34.000000,16.000000,17.000000,7.000000,-3.000000,-14.000000
1302873.066343,20.000000,15.000000,5.000000,-22.000000,0.000000,11.000000,-6.000000,12.000000
1302873.066353,-17.000000,-7.000000,5.000000,7.000000,-18.000000,-8.000000,-1.000000,-10.000000
1302873.089214,36.000000,12.000000,-5.000000,3.000000,-3.000000,-4.000000,-2.000000,15.000000
1302873.089265,-19.000000,21.000000,13.000000,37.000000,17.000000,9.000000,0.000000,-2.000000
1302873.089837,-6.000000,-1.000000,-5.000000,-12.000000,8.000000,13.000000,-17.000000,-9.000000
1302873.089849,-11.000000,-14.000000,-79.000000,15.000000,-15.000000,-28.000000,-22.000000,-16.000000
1302873.090307,9.000000,15.000000,46.000000,26.000000,-5.000000,1.000000,-29.000000,-7.000000
1302873.090316,-4.000000,15.000000,21.000000,-2.000000,2.000000,9.000000,34.000000,12.000000
1302873.092257,12.000000,-4.000000,-9.000000,-15.000000,-8.000000,-7.000000,3.000000,5.000000
1302873.092274,-19.000000,-7.000000,18.000000,-40.000000,-10.000000,-18.000000,-20.000000,-15.000000
1302873.104236,28.000000,7.000000,39.000000,127.000000,34.000000,3.000000,3.000000,3.000000
1302873.104264,-9.000000,35.000000,-5.000000,73.000000,5.000000,4.000000,-14.000000,-9.000000
1302873.105023,-24.000000,-68.000000,4.000000,-41.000000,-14.000000,-5.000000,-9.000000,-3.000000
1302873.105051,-21.000000,-10.000000,4.000000,-9.000000,-23.000000,-19.000000,-23.000000,-21.000000
1302873.126596,23.000000,23.000000,23.000000,3.000000,-1.000000,19.000000,8.000000,9.000000
1302873.126606,30.000000,8.000000,-16.000000,-5.000000,-26.000000,-25.000000,10.000000,7.000000
1302873.127532,-12.000000,0.000000,46.000000,66.000000,37.000000,3.000000,-20.000000,-9.000000
1302873.127542,19.000000,-37.000000,-34.000000,-12.000000,6.000000,25.000000,30.000000,18.000000
1302873.163992,-15.000000,16.000000,-3.000000,32.000000,9.000000,-9.000000,-9.000000,-2.000000
1302873.164003,-5.000000,12.000000,23.000000,6.000000,-8.000000,-5.000000,35.000000,11.000000
1302873.171258,-19.000000,-7.000000,-3.000000,20.000000,-2.000000,-3.000000,-41.000000,-18.000000
1302873.171269,3.000000,16.000000,18.000000,127.000000,68.000000,33.000000,33.000000,12.000000
1302873.186322,-33.000000,-13.000000,6.000000,-24.000000,-20.000000,-15.000000,-11.000000,-8.000000
1302873.186333,13.000000,6.000000,-30.000000,-13.000000,2.000000,7.000000,-1.000000,10.000000
1302873.208762,12.000000,6.000000,15.000000,-40.000000,-14.000000,-20.000000,-22.000000,-13.000000
1302873.208791,-25.000000,-25.000000,-15.000000,-30.000000,-10.000000,9.000000,-4.000000,-18.000000
1302873.209789,-8.000000,32.000000,13.000000,51.000000,39.000000,18.000000,26.000000,11.000000
1302873.209797,1.000000,-14.000000,-15.000000,-28.000000,-38.000000,-43.000000,-5.000000,-10.000000
1302873.210518,4.000000,-3.000000,31.000000,15.000000,4.000000,-11.000000,-35.000000,-11.000000
1302873.210529,-17.000000,-5.000000,-42.000000,-16.000000,-2.000000,12.000000,7.000000,-5.000000
1302873.212134,-4.000000,9.000000,40.000000,37.000000,7.000000,1.000000,5.000000,-2.000000
1302873.212164,-4.000000,-3.000000,-19.000000,-18.000000,-4.000000,-3.000000,-10.000000,-3.000000
1302873.212796,-30.000000,-18.000000,-52.000000,-86.000000,-29.000000,-13.000000,-23.000000,-30.000000
1302873.212804,27.000000,7.000000,59.000000,127.000000,56.000000,32.000000,13.000000,11.000000
1302873.224182,19.000000,20.000000,-49.000000,-24.000000,-9.000000,-10.000000,-24.000000,3.000000
1302873.224192,-20.000000,-44.000000,25.000000,8.000000,-9.000000,4.000000,8.000000,-13.000000
1302873.225105,-17.000000,-34.000000,-21.000000,-12.000000,-16.000000,-15.000000,-16.000000,-2.000000
1302873.225114,3.000000,32.000000,12.000000,45.000000,14.000000,8.000000,1.000000,-1.000000
1302873.246857,-10.000000,-18.000000,13.000000,22.000000,-6.000000,-1.000000,-10.000000,-5.000000
1302873.246885,2.000000,8.000000,13.000000,-8.000000,-10.000000,-6.000000,20.000000,5.000000
1302873.247631,-17.000000,-24.000000,-36.000000,-16.000000,-12.000000,6.000000,-7.000000,-7.000000
1302873.247653,-16.000000,-23.000000,-32.000000,-76.000000,-42.000000,-38.000000,-16.000000,-11.000000
1302873.291596,-9.000000,-4.000000,14.000000,72.000000,2.000000,1.000000,-19.000000,-12.000000
1302873.291607,-10.000000,-7.000000,2.000000,19.000000,24.000000,-15.000000,-50.000000,-25.000000
1302873.306583,59.000000,43.000000,12.000000,15.000000,12.000000,27.000000,74.000000,21.000000
1302873.306594,-12.000000,-42.000000,7.000000,-11.000000,-6.000000,4.000000,23.000000,7.000000
1302873.328780,-4.000000,-4.000000,-9.000000,-22.000000,-17.000000,-25.000000,-26.000000,-12.000000
1302873.328790,-10.000000,9.000000,-7.000000,-21.000000,-11.000000,-3.000000,-13.000000,-9.000000
1302873.344192,2.000000,-2.000000,-12.000000,37.000000,8.000000,-8.000000,-27.000000,-12.000000
1302873.344211,-12.000000,-12.000000,2.000000,-3.000000,17.000000,11.000000,-8.000000,-1.000000
1302873.366751,-6.000000,-4.000000,-23.000000,25.000000,-9.000000,-22.000000,19.000000,11.000000
1302873.366766,11.000000,-4.000000,-6.000000,-29.000000,-8.000000,4.000000,21.000000,10.000000
1302873.367581,1.000000,-16.000000,-57.000000,-5.000000,-14.000000,-10.000000,-19.000000,-10.000000
1302873.367600,6.000000,23.000000,-10.000000,23.000000,-1.000000,5.000000,-19.000000,-10.000000
1302873.396587,-18.000000,-16.000000,-46.000000,-27.000000,-12.000000,9.000000,-4.000000,-5.000000
1302873.396598,-2.000000,0.000000,-10.000000,-71.000000,-19.000000,-24.000000,14.000000,-7.000000
1302873.441691,-34.000000,-13.000000,17.000000,107.000000,31.000000,11.000000,-3.000000,-11.000000
1302873.441704,-3.000000,-12.000000,-11.000000,-10.000000,-2.000000,-12.000000,-19.000000,-11.000000
1302873.449166,-5.000000,0.000000,11.000000,-13.000000,-17.000000,-12.000000,-3.000000,1.000000
1302873.449179,8.000000,4.000000,-15.000000,-19.000000,0.000000,4.000000,15.000000,7.000000
1302873.464102,-52.000000,-31.000000,49.000000,-3.000000,-9.000000,-5.000000,-23.000000,-9.000000
1302873.464112,-2.000000,-10.000000,-56.000000,-65.000000,-18.000000,6.000000,-19.000000,-11.000000
1302873.465467,19.000000,5.000000,23.000000,50.000000,23.000000,9.000000,15.000000,9.000000
1302873.465498,13.000000,-1.000000,-9.000000,-29.000000,-15.000000,-24.000000,-26.000000,-14.000000
1302873.466045,-19.000000,-6.000000,2.000000,-33.000000,-13.000000,-1.000000,23.000000,-11.000000
1302873.466053,8.000000,-12.000000,-8.000000,16.000000,2.000000,3.000000,5.000000,8.000000
1302873.486465,41.000000,60.000000,14.000000,57.000000,-10.000000,3.000000,44.000000,43.000000
1302873.486478,18.000000,-1.000000,2.000000,42.000000,33.000000,15.000000,-7.000000,-4.000000
1302873.508748,9.000000,-9.000000,15.000000,11.000000,-2.000000,-1.000000,2.000000,1.000000
1302873.508766,-25.000000,-24.000000,-20.000000,-30.000000,-3.000000,-12.000000,-22.000000,-7.000000
1302873.523851,2.000000,25.000000,19.000000,26.000000,-6.000000,1.000000,-26.000000,-12.000000
1302873.523866,29.000000,2.000000,-4.000000,-18.000000,11.000000,24.000000,30.000000,14.000000
1302873.546704,11.000000,2.000000,1.000000,5.000000,-12.000000,-17.000000,25.000000,15.000000
1302873.546715,-21.000000,-9.000000,3.000000,-25.000000,-10.000000,-2.000000,10.000000,-5.000000
1302873.547282,-10.000000,16.000000,-25.000000,-35.000000,-9.000000,-7.000000,-44.000000,-12.000000
1302873.547293,-6.000000,2.000000,7.000000,-18.000000,-10.000000,-4.000000,26.000000,-4.000000
1302873.548695,0.000000,-3.000000,31.000000,52.000000,31.000000,7.000000,-19.000000,-6.000000
1302873.548706,39.000000,1.000000,-11.000000,-14.000000,-3.000000,-7.000000,-16.000000,0.000000
1302873.549299,-23.000000,-15.000000,-6.000000,-9.000000,-3.000000,-1.000000,-4.000000,-7.000000
1302873.549332,-6.000000,-5.000000,-15.000000,-85.000000,-21.000000,-5.000000,-32.000000,-12.000000
1302873.569186,-9.000000,-14.000000,32.000000,57.000000,26.000000,12.000000,-10.000000,11.000000
1302873.569206,-17.000000,-31.000000,-33.000000,-14.000000,0.000000,11.000000,10.000000,-15.000000
1302873.569979,8.000000,1.000000,21.000000,68.000000,27.000000,-12.000000,5.000000,9.000000
1302873.569989,-13.000000,5.000000,57.000000,-88.000000,-27.000000,0.000000,-16.000000,-10.000000
1302873.577096,14.000000,-4.000000,-72.000000,-1.000000,3.000000,5.000000,20.000000,5.000000
1302873.577106,-20.000000,22.000000,60.000000,127.000000,34.000000,-1.000000,-26.000000,-12.000000
1302873.598815,4.000000,-7.000000,-21.000000,-9.000000,-26.000000,-8.000000,23.000000,31.000000
1302873.598835,-1.000000,25.000000,31.000000,20.000000,3.000000,5.000000,38.000000,-1.000000
1302873.599921,16.000000,-27.000000,-34.000000,25.000000,-9.000000,-16.000000,-23.000000,-8.000000
1302873.599930,-30.000000,-40.000000,17.000000,-30.000000,-18.000000,-4.000000,-12.000000,3.000000
1302873.606259,6.000000,9.000000,3.000000,9.000000,7.000000,1.000000,11.000000,12.000000
1302873.606268,-2.000000,-18.000000,-1.000000,35.000000,9.000000,-1.000000,-27.000000,-2.000000
1302873.643806,5.000000,-5.000000,45.000000,34.000000,0.000000,-3.000000,4.000000,3.000000
1302873.643816,1.000000,10.000000,-8.000000,-28.000000,-9.000000,-9.000000,-11.000000,-12.000000
1302873.658790,16.000000,-9.000000,-3.000000,-9.000000,6.000000,9.000000,5.000000,8.000000
1302873.658819,6.000000,-9.000000,0.000000,-19.000000,4.000000,9.000000,2.000000,-1.000000
1302873.681465,1.000000,-5.000000,-27.000000,-40.000000,-12.000000,-6.000000,-6.000000,-11.000000
1302873.681477,12.000000,-1.000000,42.000000,-1.000000,-6.000000,-10.000000,19.000000,14.000000
1302873.703831,-33.000000,-30.000000,-23.000000,-29.000000,-13.000000,3.000000,-40.000000,-22.000000
1302873.703860,14.000000,35.000000,6.000000,20.000000,1.000000,3.000000,26.000000,15.000000
1302873.704850,16.000000,21.000000,-19.000000,-14.000000,6.000000,11.000000,2.000000,9.000000
1302873.704859,1.000000,-5.000000,-16.000000,-30.000000,6.000000,-4.000000,-12.000000,-6.000000
1302873.705431,-4.000000,41.000000,35.000000,110.000000,26.000000,13.000000,-15.000000,-3.000000
1302873.705454,13.000000,5.000000,2.000000,58.000000,18.000000,5.000000,8.000000,-3.000000
1302873.706713,12.000000,-17.000000,-36.000000,-13.000000,0.000000,-13.000000,-5.000000,-6.000000
1302873.706740,12.000000,-5.000000,15.000000,16.000000,3.000000,12.000000,22.000000,19.000000
1302873.711226,23.000000,14.000000,4.000000,9.000000,18.000000,19.000000,-8.000000,2.000000
1302873.711235,0.000000,-21.000000,-70.000000,-66.000000,-35.000000,-19.000000,-19.000000,-7.000000
1302873.719457,-2.000000,21.000000,26.000000,11.000000,-2.000000,-16.000000,-26.000000,-10.000000
1302873.719467,39.000000,34.000000,51.000000,-13.000000,15.000000,13.000000,31.000000,18.000000
1302873.726334,1.000000,-15.000000,-31.000000,5.000000,10.000000,7.000000,-10.000000,-5.000000
1302873.726345,-11.000000,5.000000,11.000000,-23.000000,-22.000000,-4.000000,-33.000000,-12.000000
1302873.741289,2.000000,-6.000000,-37.000000,-5.000000,-8.000000,-16.000000,15.000000,-14.000000
1302873.741298,-3.000000,-6.000000,48.000000,-41.000000,2.000000,8.000000,11.000000,15.000000
1302873.763718,-32.000000,-19.000000,-17.000000,27.000000,10.000000,-7.000000,-14.000000,-11.000000
1302873.763728,18.000000,-3.000000,-2.000000,22.000000,5.000000,-1.000000,-17.000000,-11.000000
1302873.786242,-25.000000,-42.000000,-79.000000,-10.000000,-15.000000,-6.000000,-15.000000,-8.000000
1302873.786295,-25.000000,-11.000000,-5.000000,-123.000000,-19.000000,0.000000,-12.000000,-16.000000
1302873.793753,11.000000,20.000000,28.000000,-21.000000,-4.000000,-7.000000,-4.000000,11.000000
1302873.793764,19.000000,31.000000,7.000000,-33.000000,-1.000000,-3.000000,2.000000,7.000000
1302873.801106,-17.000000,-7.000000,-36.000000,-28.000000,-20.000000,-10.000000,-17.000000,-19.000000
1302873.801125,15.000000,-22.000000,-10.000000,7.000000,12.000000,18.000000,-9.000000,9.000000
1302873.801614,-12.000000,12.000000,5.000000,-2.000000,-24.000000,-23.000000,7.000000,-21.000000
1302873.801623,8.000000,14.000000,10.000000,6.000000,11.000000,17.000000,1.000000,13.000000
1302873.803185,7.000000,-39.000000,-28.000000,-14.000000,-23.000000,-18.000000,-10.000000,-4.000000
1302873.803200,-9.000000,12.000000,25.000000,41.000000,2.000000,-19.000000,-39.000000,-10.000000
1302873.816467,-5.000000,13.000000,-27.000000,-8.000000,-1.000000,1.000000,12.000000,-3.000000
1302873.816480,-20.000000,-55.000000,-4.000000,-51.000000,-22.000000,-16.000000,-38.000000,-24.000000
1302873.824401,-3.000000,-7.000000,-64.000000,-94.000000,-15.000000,3.000000,17.000000,-1.000000
1302873.824412,8.000000,-2.000000,-7.000000,-25.000000,-12.000000,-11.000000,-13.000000,-9.000000
1302873.846298,-9.000000,18.000000,2.000000,8.000000,16.000000,3.000000,-1.000000,2.000000
1302873.846328,-6.000000,-1.000000,-16.000000,-5.000000,12.000000,7.000000,-13.000000,-10.000000
1302873.861350,30.000000,17.000000,-32.000000,21.000000,9.000000,9.000000,26.000000,36.000000
1302873.861360,4.000000,11.000000,60.000000,62.000000,8.000000,-4.000000,-10.000000,-6.000000
1302873.869188,0.000000,1.000000,-4.000000,20.000000,27.000000,-1.000000,-14.000000,8.000000
1302873.869201,-19.000000,5.000000,-46.000000,-34.000000,-5.000000,6.000000,9.000000,-27.000000
1302873.883711,5.000000,-15.000000,-7.000000,-7.000000,-10.000000,2.000000,18.000000,4.000000
1302873.883721,-10.000000,-34.000000,-19.000000,-35.000000,-25.000000,-15.000000,-11.000000,17.000000
1302873.898655,25.000000,26.000000,31.000000,29.000000,13.000000,20.000000,45.000000,21.000000
1302873.898687,0.000000,-6.000000,-24.000000,-62.000000,-17.000000,11.000000,-27.000000,-14.000000
1302873.899666,-1.000000,19.000000,49.000000,86.000000,32.000000,-3.000000,-12.000000,-6.000000
1302873.899693,-5.000000,-19.000000,-28.000000,-21.000000,-12.000000,-9.000000,-17.000000,-9.000000
1302873.900367,-5.000000,-18.000000,-20.000000,28.000000,13.000000,0.000000,20.000000,6.000000
1302873.900375,1.000000,20.000000,33.000000,-60.000000,0.000000,16.000000,-18.000000,-3.000000
1302873.902045,-11.000000,-27.000000,52.000000,51.000000,-1.000000,-14.000000,8.000000,-8.000000
1302873.902053,8.000000,0.000000,-14.000000,-22.000000,-9.000000,1.000000,-28.000000,-16.000000
1302873.921697,-6.000000,-24.000000,-20.000000,-17.000000,20.000000,17.000000,37.000000,11.000000
1302873.921707,-7.000000,-25.000000,14.000000,5.000000,-3.000000,-11.000000,-10.000000,-5.000000
1302873.936283,16.000000,5.000000,43.000000,8.000000,3.000000,9.000000,9.000000,1.000000
1302873.936312,-11.000000,18.000000,20.000000,-11.000000,3.000000,-5.000000,-102.000000,-29.000000
1302873.943822,-13.000000,-16.000000,-11.000000,-83.000000,-30.000000,3.000000,96.000000,22.000000
1302873.943833,5.000000,-26.000000,21.000000,-19.000000,-5.000000,3.000000,20.000000,6.000000
1302873.966322,-4.000000,-3.000000,-16.000000,8.000000,4.000000,-7.000000,-19.000000,1.000000
1302873.966332,5.000000,-27.000000,-45.000000,-42.000000,-26.000000,-9.000000,-25.000000,-8.000000
1302873.973622,3.000000,31.000000,37.000000,-49.000000,-10.000000,-5.000000,-13.000000,3.000000
1302873.973640,1.000000,31.000000,60.000000,66.000000,37.000000,17.000000,12.000000,7.000000
1302873.996459,-3.000000,-35.000000,-72.000000,-56.000000,-31.000000,-21.000000,-19.000000,-17.000000
1302873.996470,-7.000000,12.000000,59.000000,127.000000,63.000000,6.000000,8.000000,2.000000
1302874.004107,-20.000000,-8.000000,-12.000000,-5.000000,-3.000000,4.000000,26.000000,-2.000000
1302874.004118,14.000000,-5.000000,-17.000000,5.000000,1.000000,0.000000,-6.000000,-4.000000
1302874.018853,12.000000,2.000000,45.000000,-51.000000,6.000000,3.000000,-13.000000,0.000000
1302874.018866,-15.000000,15.000000,-17.000000,127.000000,14.000000,0.000000,21.000000,3.000000
1302874.019227,16.000000,24.000000,-16.000000,-14.000000,-12.000000,-5.000000,-4.000000,-8.000000
1302874.019238,14.000000,-11.000000,49.000000,10.000000,12.000000,10.000000,50.000000,23.000000
1302874.020376,-47.000000,-14.000000,-28.000000,-35.000000,-17.000000,2.000000,-9.000000,-18.000000
1302874.020404,-10.000000,34.000000,13.000000,112.000000,7.000000,-10.000000,-31.000000,-8.000000
1302874.021217,-8.000000,7.000000,-21.000000,-10.000000,-12.000000,-16.000000,22.000000,2.000000
1302874.021228,10.000000,-28.000000,5.000000,55.000000,36.000000,-3.000000,-3.000000,-1.000000
1302874.041546,19.000000,-12.000000,-29.000000,-10.000000,-11.000000,-9.000000,-30.000000,6.000000
1302874.041556,-17.000000,-15.000000,-7.000000,-75.000000,-18.000000,-7.000000,0.000000,-30.000000
1302874.042547,22.000000,7.000000,-8.000000,-1.000000,9.000000,8.000000,7.000000,19.000000
1302874.042556,-6.000000,31.000000,59.000000,82.000000,22.000000,6.000000,19.000000,3.000000
1302874.049099,-16.000000,-22.000000,-15.000000,9.000000,-3.000000,1.000000,-9.000000,-5.000000
1302874.049110,6.000000,-10.000000,-2.000000,-43.000000,3.000000,6.000000,-18.000000,-8.000000
1302874.057239,9.000000,22.000000,14.000000,29.000000,-5.000000,-18.000000,2.000000,4.000000
1302874.057248,3.000000,-5.000000,-11.000000,-6.000000,-8.000000,-12.000000,-2.000000,3.000000
1302874.078886,3.000000,11.000000,28.000000,-15.000000,-9.000000,1.000000,6.000000,-1.000000
1302874.078915,0.000000,21.000000,21.000000,6.000000,5.000000,1.000000,-25.000000,-17.000000
1302874.101524,12.000000,-48.000000,-58.000000,-41.000000,-3.000000,2.000000,0.000000,8.000000
1302874.101549,18.000000,24.000000,80.000000,64.000000,4.000000,4.000000,46.000000,8.000000
1302874.108845,16.000000,11.000000,-56.000000,0.000000,1.000000,-8.000000,-9.000000,-5.000000
1302874.108863,-27.000000,-31.000000,-43.000000,-79.000000,-31.000000,-29.000000,-21.000000,-10.000000
1302874.139005,0.000000,8.000000,53.000000,127.000000,66.000000,23.000000,8.000000,3.000000
1302874.139018,6.000000,6.000000,-3.000000,-17.000000,-2.000000,7.000000,12.000000,22.000000
1302874.139533,2.000000,-12.000000,6.000000,-19.000000,1.000000,1.000000,-1.000000,3.000000
1302874.139541,-10.000000,14.000000,27.000000,127.000000,47.000000,2.000000,17.000000,3.000000
1302874.140347,-4.000000,-21.000000,47.000000,-5.000000,4.000000,-8.000000,-33.000000,-12.000000
1302874.140354,26.000000,22.000000,-11.000000,-12.000000,10.000000,17.000000,43.000000,16.000000
1302874.140943,0.000000,-6.000000,1.000000,60.000000,20.000000,8.000000,-11.000000,6.000000
1302874.140950,-7.000000,-11.000000,-43.000000,28.000000,-1.000000,-10.000000,-5.000000,-11.000000
1302874.153925,-12.000000,9.000000,-25.000000,20.000000,1.000000,9.000000,25.000000,16.000000
1302874.153989,19.000000,17.000000,22.000000,104.000000,24.000000,-3.000000,8.000000,24.000000
1302874.161535,-6.000000,-17.000000,13.000000,72.000000,8.000000,6.000000,20.000000,-11.000000
1302874.161546,-6.000000,2.000000,-42.000000,-33.000000,-8.000000,4.000000,-23.000000,-7.000000
1302874.176509,17.000000,9.000000,-2.000000,-28.000000,-11.000000,-9.000000,-2.000000,8.000000
1302874.176563,-1.000000,9.000000,5.000000,64.000000,19.000000,7.000000,-1.000000,-2.000000
1302874.177520,8.000000,13.000000,-3.000000,-31.000000,-2.000000,7.000000,-17.000000,-14.000000
1302874.177530,-1.000000,3.000000,15.000000,6.000000,6.000000,1.000000,3.000000,8.000000
1302874.198910,-9.000000,-10.000000,-19.000000,-12.000000,-1.000000,8.000000,-14.000000,-12.000000
1302874.198939,-10.000000,-9.000000,-8.000000,-49.000000,-15.000000,-5.000000,27.000000,6.000000
1302874.259050,-12.000000,-14.000000,8.000000,69.000000,17.000000,9.000000,-2.000000,-1.000000
1302874.259172,14.000000,16.000000,-14.000000,-38.000000,-15.000000,-13.000000,-9.000000,-5.000000
1302874.259517,-15.000000,30.000000,14.000000,71.000000,34.000000,9.000000,-57.000000,-13.000000
1302874.259551,-35.000000,-45.000000,-15.000000,-109.000000,-40.000000,-19.000000,-3.000000,-22.000000
1302874.260808,22.000000,52.000000,1.000000,45.000000,12.000000,-9.000000,31.000000,21.000000
1302874.260837,-14.000000,-7.000000,-22.000000,-29.000000,4.000000,17.000000,-23.000000,-16.000000
1302874.261622,-10.000000,5.000000,-25.000000,17.000000,11.000000,-12.000000,-8.000000,0.000000
1302874.261634,23.000000,-17.000000,2.000000,6.000000,-12.000000,-3.000000,-5.000000,3.000000
1302874.262995,-26.000000,8.000000,42.000000,-34.000000,11.000000,6.000000,-30.000000,-20.000000
1302874.263005,-8.000000,3.000000,-32.000000,-3.000000,16.000000,22.000000,28.000000,2.000000
1302874.273993,2.000000,-6.000000,-18.000000,-26.000000,-10.000000,4.000000,29.000000,9.000000
1302874.274042,15.000000,-7.000000,8.000000,127.000000,44.000000,12.000000,34.000000,22.000000
1302874.281386,3.000000,10.000000,65.000000,8.000000,4.000000,3.000000,-29.000000,-13.000000
1302874.281404,-3.000000,9.000000,-8.000000,-9.000000,9.000000,1.000000,15.000000,6.000000
1302874.296261,-1.000000,-8.000000,-31.000000,27.000000,7.000000,1.000000,29.000000,12.000000
1302874.296275,4.000000,5.000000,53.000000,-3.000000,-3.000000,-10.000000,-8.000000,-8.000000
1302874.326578,-10.000000,9.000000,-48.000000,-52.000000,-17.000000,-6.000000,-16.000000,-7.000000
1302874.326590,-18.000000,-10.000000,5.000000,26.000000,8.000000,2.000000,-7.000000,-2.000000
1302874.334000,-36.000000,-55.000000,8.000000,66.000000,17.000000,4.000000,-12.000000,-10.000000
1302874.334011,31.000000,2.000000,22.000000,105.000000,21.000000,10.000000,17.000000,4.000000
1302874.356455,10.000000,28.000000,2.000000,-53.000000,-20.000000,-13.000000,5.000000,-3.000000
1302874.356465,6.000000,11.000000,-35.000000,-37.000000,-8.000000,2.000000,-31.000000,-3.000000
1302874.378986,-12.000000,-3.000000,-37.000000,22.000000,0.000000,-21.000000,-5.000000,-4.000000
1302874.378998,27.000000,0.000000,39.000000,8.000000,9.000000,17.000000,14.000000,14.000000
1302874.379836,3.000000,34.000000,15.000000,5.000000,1.000000,-9.000000,-11.000000,0.000000
1302874.379847,-29.000000,-12.000000,39.000000,-80.000000,-22.000000,-5.000000,-46.000000,-20.000000
1302874.380444,9.000000,20.000000,-1.000000,-7.000000,8.000000,-7.000000,49.000000,11.000000
1302874.380452,-1.000000,-9.000000,-14.000000,-40.000000,-2.000000,10.000000,32.000000,26.000000
1302874.381740,-2.000000,0.000000,-8.000000,2.000000,-6.000000,3.000000,-17.000000,-8.000000
1302874.381749,10.000000,10.000000,-8.000000,2.000000,-9.000000,-1.000000,-14.000000,-7.000000
1302874.382533,1.000000,5.000000,12.000000,30.000000,16.000000,15.000000,36.000000,12.000000
1302874.382541,-1.000000,-14.000000,11.000000,-44.000000,-6.000000,-4.000000,-11.000000,-9.000000
1302874.401268,4.000000,-4.000000,3.000000,-18.000000,-16.000000,-14.000000,-10.000000,-6.000000
1302874.401278,-10.000000,-15.000000,-26.000000,-11.000000,-3.000000,0.000000,-21.000000,-13.000000
1302874.402635,15.000000,32.000000,11.000000,-30.000000,-16.000000,6.000000,19.000000,10.000000
1302874.402643,1.000000,-41.000000,15.000000,34.000000,7.000000,2.000000,13.000000,11.000000
1302874.408688,-16.000000,-6.000000,49.000000,-22.000000,-20.000000,-14.000000,-18.000000,2.000000
1302874.408697,-5.000000,-2.000000,22.000000,21.000000,10.000000,13.000000,37.000000,0.000000
1302874.431477,16.000000,9.000000,0.000000,4.000000,-1.000000,-13.000000,-55.000000,-9.000000
1302874.431488,8.000000,27.000000,-31.000000,24.000000,16.000000,9.000000,23.000000,1.000000
1302874.438877,-48.000000,-18.000000,35.000000,31.000000,15.000000,8.000000,4.000000,3.000000
1302874.438887,16.000000,22.000000,17.000000,39.000000,16.000000,9.000000,-7.000000,6.000000
1302874.476601,-12.000000,-2.000000,-3.000000,-33.000000,-12.000000,6.000000,-3.000000,-18.000000
1302874.476611,36.000000,-5.000000,-5.000000,-39.000000,-29.000000,-22.000000,28.000000,26.000000
1302874.491288,0.000000,21.000000,20.000000,80.000000,22.000000,3.000000,6.000000,8.000000
1302874.491298,-13.000000,3.000000,15.000000,-8.000000,-3.000000,0.000000,-20.000000,-10.000000
1302874.514064,-26.000000,0.000000,7.000000,-28.000000,-10.000000,4.000000,-17.000000,-2.000000
1302874.514088,15.000000,-11.000000,2.000000,-42.000000,-21.000000,-16.000000,-11.000000,2.000000
1302874.514516,14.000000,17.000000,-29.000000,58.000000,19.000000,2.000000,12.000000,-2.000000
1302874.514523,9.000000,-12.000000,-10.000000,-1.000000,16.000000,8.000000,-3.000000,6.000000
1302874.515353,10.000000,10.000000,21.000000,-26.000000,7.000000,16.000000,10.000000,1.000000
1302874.515360,7.000000,16.000000,-18.000000,-30.000000,-6.000000,-20.000000,-9.000000,-3.000000
1302874.515955,-21.000000,6.000000,8.000000,-29.000000,-16.000000,3.000000,-9.000000,-1.000000
1302874.515962,-4.000000,-33.000000,-8.000000,17.000000,10.000000,0.000000,-56.000000,-10.000000
1302874.516637,1.000000,-17.000000,-6.000000,-111.000000,-25.000000,-15.000000,-20.000000,-6.000000
1302874.516645,-3.000000,-17.000000,29.000000,19.000000,10.000000,-2.000000,-34.000000,-10.000000
1302874.521464,6.000000,24.000000,5.000000,-49.000000,-5.000000,15.000000,16.000000,5.000000
1302874.521475,5.000000,-21.000000,-61.000000,-42.000000,-20.000000,-17.000000,-44.000000,-8.000000
1302874.528851,-15.000000,-8.000000,-27.000000,-51.000000,-18.000000,0.000000,66.000000,9.000000
1302874.528891,4.000000,-15.000000,39.000000,13.000000,-5.000000,-14.000000,-16.000000,-3.000000
1302874.551252,-8.000000,9.000000,-24.000000,-69.000000,-2.000000,-1.000000,-39.000000,-27.000000
1302874.551263,-10.000000,6.000000,10.000000,44.000000,-5.000000,-6.000000,35.000000,15.000000
1302874.559060,-6.000000,-15.000000,11.000000,-31.000000,-9.000000,-8.000000,-4.000000,-8.000000
1302874.559086,-5.000000,11.000000,16.000000,-3.000000,-1.000000,-5.000000,-19.000000,-11.000000
1302874.596380,-4.000000,-22.000000,13.000000,55.000000,18.000000,16.000000,-10.000000,-5.000000
1302874.596390,-20.000000,-9.000000,4.000000,-35.000000,-32.000000,-15.000000,-20.000000,-9.000000
1302874.603717,-6.000000,-6.000000,-24.000000,-20.000000,-3.000000,-13.000000,-13.000000,-6.000000
1302874.603727,17.000000,13.000000,1.000000,22.000000,-4.000000,8.000000,10.000000,5.000000
1302874.619114,-3.000000,15.000000,40.000000,63.000000,26.000000,21.000000,19.000000,31.000000
1302874.619123,19.000000,4.000000,-50.000000,-27.000000,-5.000000,-2.000000,-2.000000,-4.000000
1302874.633865,-9.000000,12.000000,4.000000,-19.000000,-12.000000,-3.000000,5.000000,-3.000000
1302874.633889,-10.000000,-40.000000,-23.000000,-42.000000,-46.000000,-49.000000,-56.000000,-24.000000
1302874.649015,20.000000,17.000000,32.000000,121.000000,36.000000,19.000000,18.000000,4.000000
1302874.649026,-38.000000,-57.000000,-42.000000,-49.000000,-33.000000,-28.000000,-3.000000,0.000000
1302874.656508,-1.000000,24.000000,16.000000,75.000000,32.000000,18.000000,-9.000000,-5.000000
1302874.656520,7.000000,26.000000,41.000000,-15.000000,-10.000000,-3.000000,-13.000000,5.000000
1302874.657418,16.000000,-41.000000,-26.000000,-3.000000,4.000000,-7.000000,-39.000000,6.000000
1302874.657426,-20.000000,23.000000,19.000000,-11.000000,14.000000,10.000000,-13.000000,-20.000000
1302874.658526,4.000000,26.000000,-31.000000,-11.000000,-2.000000,0.000000,-4.000000,-5.000000
1302874.658534,4.000000,16.000000,66.000000,-7.000000,13.000000,3.000000,-4.000000,-7.000000
1302874.678884,-8.000000,-22.000000,-62.000000,21.000000,17.000000,10.000000,3.000000,5.000000
1302874.678904,-6.000000,23.000000,5.000000,0.000000,6.000000,-1.000000,-10.000000,2.000000
1302874.686170,-3.000000,17.000000,27.000000,-12.000000,0.000000,0.000000,-6.000000,-3.000000
1302874.686189,42.000000,2.000000,-27.000000,3.000000,-3.000000,-9.000000,13.000000,13.000000
1302874.709156,-22.000000,14.000000,54.000000,92.000000,29.000000,9.000000,-22.000000,-24.000000
1302874.709166,12.000000,11.000000,-10.000000,-22.000000,-18.000000,-8.000000,57.000000,21.000000
1302874.716627,-4.000000,-9.000000,4.000000,11.000000,-4.000000,-9.000000,-44.000000,-13.000000
1302874.716637,-25.000000,17.000000,7.000000,44.000000,16.000000,8.000000,-3.000000,-6.000000
1302874.768704,24.000000,8.000000,-40.000000,-16.000000,21.000000,15.000000,33.000000,19.000000
1302874.768728,23.000000,-19.000000,18.000000,34.000000,13.000000,-5.000000,-9.000000,16.000000
1302874.776375,-24.000000,-10.000000,-12.000000,-13.000000,7.000000,5.000000,-20.000000,-4.000000
1302874.776401,4.000000,12.000000,-35.000000,-23.000000,-8.000000,9.000000,2.000000,-11.000000
1302874.813859,-3.000000,2.000000,-18.000000,-73.000000,-40.000000,-33.000000,-9.000000,4.000000
1302874.813875,25.000000,43.000000,32.000000,29.000000,14.000000,16.000000,16.000000,19.000000
1302874.828671,1.000000,4.000000,1.000000,-15.000000,-2.000000,4.000000,-24.000000,-21.000000
1302874.828681,-15.000000,-18.000000,23.000000,-28.000000,-12.000000,3.000000,13.000000,10.000000
1302874.836643,10.000000,1.000000,-53.000000,-22.000000,-21.000000,-19.000000,-68.000000,-24.000000
1302874.836651,23.000000,26.000000,33.000000,60.000000,18.000000,12.000000,47.000000,19.000000
1302874.837248,-21.000000,-13.000000,31.000000,15.000000,14.000000,5.000000,25.000000,3.000000
1302874.837256,-5.000000,37.000000,-22.000000,22.000000,-11.000000,-16.000000,-23.000000,-15.000000
1302874.837894,1.000000,12.000000,23.000000,-4.000000,1.000000,24.000000,9.000000,-2.000000
1302874.837901,-4.000000,-12.000000,-33.000000,-12.000000,-8.000000,-28.000000,-10.000000,-1.000000
1302874.838479,-31.000000,-33.000000,-6.000000,44.000000,19.000000,-9.000000,-48.000000,-18.000000
1302874.838486,18.000000,31.000000,46.000000,15.000000,5.000000,-11.000000,-18.000000,-5.000000
1302874.839437,-10.000000,-1.000000,3.000000,-1.000000,-30.000000,-42.000000,-6.000000,4.000000
1302874.839445,10.000000,-27.000000,-13.000000,-25.000000,-5.000000,-6.000000,5.000000,-3.000000
1302874.843874,-8.000000,-12.000000,-11.000000,-32.000000,-9.000000,-13.000000,-28.000000,-13.000000
1302874.843884,-2.000000,5.000000,25.000000,73.000000,13.000000,10.000000,-13.000000,8.000000
1302874.851588,16.000000,-34.000000,-59.000000,-1.000000,0.000000,2.000000,17.000000,7.000000
1302874.851600,-8.000000,4.000000,43.000000,-19.000000,2.000000,9.000000,1.000000,-4.000000
1302874.881160,-26.000000,-20.000000,1.000000,-20.000000,-19.000000,-15.000000,-31.000000,-14.000000
1302874.881171,14.000000,21.000000,2.000000,1.000000,23.000000,12.000000,21.000000,18.000000
1302874.889041,-5.000000,-4.000000,0.000000,29.000000,11.000000,3.000000,1.000000,1.000000
1302874.889155,29.000000,16.000000,-6.000000,-1.000000,7.000000,-4.000000,-36.000000,1.000000
1302874.889869,-64.000000,-42.000000,-42.000000,-87.000000,-13.000000,13.000000,11.000000,-28.000000
1302874.889877,42.000000,29.000000,16.000000,5.000000,-17.000000,-15.000000,32.000000,38.000000
1302874.890616,-7.000000,-1.000000,-34.000000,14.000000,-5.000000,-15.000000,6.000000,-11.000000
1302874.890624,2.000000,-8.000000,-10.000000,-16.000000,0.000000,12.000000,12.000000,0.000000
1302874.911422,6.000000,5.000000,-55.000000,-3.000000,-8.000000,-6.000000,-26.000000,-3.000000
1302874.911432,-11.000000,5.000000,17.000000,57.000000,37.000000,16.000000,5.000000,-6.000000
1302874.933804,18.000000,6.000000,0.000000,-33.000000,-5.000000,13.000000,47.000000,18.000000
1302874.933815,6.000000,-5.000000,-40.000000,-20.000000,-5.000000,-19.000000,-21.000000,-5.000000
1302874.963688,-35.000000,3.000000,10.000000,1.000000,-17.000000,-10.000000,-25.000000,-13.000000
1302874.963697,-15.000000,1.000000,-21.000000,-32.000000,-10.000000,-9.000000,-36.000000,-12.000000
1302874.971222,16.000000,11.000000,-4.000000,26.000000,16.000000,-7.000000,-14.000000,-8.000000
1302874.971259,14.000000,0.000000,-10.000000,-28.000000,-7.000000,7.000000,84.000000,30.000000
1302874.972361,-22.000000,7.000000,-12.000000,-41.000000,-17.000000,-21.000000,-60.000000,-20.000000
1302874.972375,20.000000,-1.000000,11.000000,57.000000,31.000000,35.000000,4.000000,7.000000
1302874.972894,3.000000,16.000000,-15.000000,-18.000000,11.000000,23.000000,39.000000,16.000000
1302874.972932,-15.000000,3.000000,-10.000000,11.000000,13.000000,15.000000,-10.000000,-3.000000
1302874.974410,-15.000000,-8.000000,-7.000000,1.000000,5.000000,3.000000,-13.000000,-6.000000
1302874.974437,6.000000,7.000000,-48.000000,-18.000000,-19.000000,-2.000000,10.000000,-4.000000
1302874.987000,-3.000000,0.000000,22.000000,22.000000,6.000000,-4.000000,-7.000000,-4.000000
1302874.987009,-14.000000,-17.000000,-49.000000,-22.000000,1.000000,20.000000,17.000000,-2.000000
1302874.993901,-1.000000,8.000000,-16.000000,-41.000000,-15.000000,-18.000000,-16.000000,-2.000000
1302874.993912,7.000000,13.000000,38.000000,127.000000,64.000000,37.000000,32.000000,10.000000
1302875.008883,2.000000,-12.000000,19.000000,-31.000000,-18.000000,-17.000000,-4.000000,-2.000000
1302875.008937,24.000000,-13.000000,-53.000000,-61.000000,-24.000000,-16.000000,-34.000000,-5.000000
1302875.009452,-22.000000,16.000000,-4.000000,22.000000,12.000000,10.000000,10.000000,-7.000000
1302875.009467,0.000000,-36.000000,-9.000000,-22.000000,-13.000000,-8.000000,5.000000,0.000000
1302875.039208,-19.000000,-52.000000,-3.000000,-5.000000,-9.000000,-13.000000,-25.000000,-14.000000
1302875.039219,-3.000000,-3.000000,-40.000000,7.000000,-4.000000,-4.000000,-2.000000,2.000000
1302875.046695,31.000000,15.000000,5.000000,-13.000000,17.000000,29.000000,37.000000,26.000000
1302875.046711,8.000000,0.000000,13.000000,5.000000,-21.000000,-16.000000,-10.000000,1.000000
1302875.068755,-5.000000,-2.000000,-27.000000,-28.000000,-4.000000,-2.000000,-25.000000,-6.000000
1302875.068765,3.000000,7.000000,19.000000,-11.000000,8.000000,2.000000,-9.000000,-10.000000
1302875.076311,5.000000,-20.000000,-2.000000,114.000000,2.000000,-11.000000,-5.000000,-6.000000
1302875.076325,3.000000,1.000000,20.000000,89.000000,-1.000000,-8.000000,31.000000,17.000000
1302875.077313,-24.000000,-18.000000,16.000000,-10.000000,-11.000000,-14.000000,-94.000000,-30.000000
1302875.077321,-14.000000,-9.000000,-12.000000,-3.000000,-15.000000,-4.000000,69.000000,10.000000
1302875.077909,1.000000,-19.000000,-5.000000,-2.000000,5.000000,-3.000000,-25.000000,-6.000000
1302875.077917,-6.000000,-1.000000,19.000000,6.000000,3.000000,-2.000000,-2.000000,1.000000
1302875.091968,11.000000,19.000000,30.000000,59.000000,23.000000,11.000000,-15.000000,-6.000000
1302875.091976,-10.000000,-6.000000,-70.000000,-9.000000,0.000000,12.000000,-7.000000,-11.000000
1302875.092824,1.000000,-26.000000,-23.000000,34.000000,-12.000000,8.000000,63.000000,18.000000
1302875.092833,9.000000,31.000000,-12.000000,-9.000000,1.000000,3.000000,-7.000000,8.000000
1302875.106857,-27.000000,-15.000000,-9.000000,-60.000000,-4.000000,-12.000000,-15.000000,-16.000000
1302875.106895,-2.000000,33.000000,39.000000,127.000000,68.000000,20.000000,9.000000,13.000000
1302875.113556,14.000000,-82.000000,-46.000000,-59.000000,-7.000000,-2.000000,7.000000,-5.000000
1302875.113565,-14.000000,22.000000,51.000000,-16.000000,-8.000000,-3.000000,-1.000000,9.000000
1302875.121205,-5.000000,-9.000000,0.000000,-20.000000,-2.000000,-22.000000,-15.000000,-11.000000
1302875.121215,-9.000000,-2.000000,-27.000000,0.000000,2.000000,6.000000,15.000000,12.000000
1302875.128983,-9.000000,-21.000000,-45.000000,-3.000000,3.000000,8.000000,-1.000000,-4.000000
1302875.128995,-9.000000,2.000000,-17.000000,-1.000000,0.000000,8.000000,-34.000000,-8.000000
1302875.158870,-5.000000,30.000000,12.000000,31.000000,2.000000,-9.000000,48.000000,6.000000
1302875.158880,17.000000,-12.000000,-21.000000,-17.000000,9.000000,-3.000000,-3.000000,-4.000000
1302875.166524,7.000000,19.000000,52.000000,49.000000,17.000000,8.000000,14.000000,8.000000
1302875.166537,-20.000000,-21.000000,-19.000000,-52.000000,1.000000,-5.000000,-38.000000,-18.000000
1302875.188891,25.000000,44.000000,26.000000,-41.000000,10.000000,24.000000,54.000000,20.000000
1302875.188901,-17.000000,-41.000000,-72.000000,-35.000000,-9.000000,-8.000000,-30.000000,-24.000000
1302875.211552,-10.000000,23.000000,24.000000,7.000000,-3.000000,-13.000000,13.000000,25.000000
1302875.211564,4.000000,11.000000,17.000000,11.000000,7.000000,15.000000,23.000000,-5.000000
1302875.241353,-18.000000,-4.000000,-3.000000,-53.000000,-33.000000,-37.000000,-20.000000,-7.000000
1302875.241370,18.000000,-5.000000,1.000000,-13.000000,-1.000000,11.000000,-15.000000,-8.000000
1302875.264101,-20.000000,-6.000000,10.000000,-8.000000,14.000000,6.000000,50.000000,7.000000
1302875.264112,-25.000000,-32.000000,-6.000000,-23.000000,-8.000000,3.000000,5.000000,-1.000000
1302875.301257,-7.000000,28.000000,-11.000000,30.000000,12.000000,1.000000,-38.000000,-20.000000
1302875.301285,-8.000000,-14.000000,24.000000,35.000000,6.000000,11.000000,58.000000,11.000000
1302875.309037,3.000000,-10.000000,-21.000000,-39.000000,-8.000000,-7.000000,-6.000000,3.000000
1302875.309049,-14.000000,3.000000,33.000000,47.000000,30.000000,16.000000,-1.000000,-6.000000
1302875.323834,18.000000,1.000000,-34.000000,-39.000000,-12.000000,-6.000000,-35.000000,-12.000000
1302875.323843,-7.000000,16.000000,-9.000000,-10.000000,9.000000,3.000000,32.000000,3.000000
1302875.331331,3.000000,-10.000000,-8.000000,13.000000,10.000000,20.000000,17.000000,18.000000
1302875.331346,-10.000000,15.000000,93.000000,127.000000,46.000000,12.000000,-30.000000,-6.000000
1302875.331749,-5.000000,7.000000,-19.000000,-94.000000,-54.000000,-31.000000,-3.000000,-3.000000
1302875.331759,-9.000000,-4.000000,-48.000000,-13.000000,0.000000,4.000000,10.000000,-3.000000
1302875.332248,-15.000000,-1.000000,-20.000000,31.000000,-4.000000,-46.000000,-57.000000,-8.000000
1302875.332264,28.000000,1.000000,-8.000000,-43.000000,-10.000000,10.000000,29.000000,11.000000
1302875.332874,-1.000000,10.000000,-63.000000,-36.000000,-9.000000,-10.000000,-30.000000,-8.000000
1302875.332892,3.000000,19.000000,22.000000,127.000000,36.000000,14.000000,-12.000000,-8.000000
1302875.333487,7.000000,-6.000000,1.000000,-75.000000,-43.000000,3.000000,30.000000,13.000000
1302875.333497,-7.000000,-17.000000,-34.000000,-37.000000,-3.000000,-1.000000,31.000000,-3.000000
1302875.334320,-7.000000,16.000000,-4.000000,-25.000000,3.000000,14.000000,-44.000000,-20.000000
1302875.334329,6.000000,-16.000000,-77.000000,-35.000000,-14.000000,-28.000000,17.000000,-6.000000
1302875.346996,5.000000,-1.000000,33.000000,15.000000,4.000000,1.000000,58.000000,0.000000
1302875.347017,-5.000000,-31.000000,-62.000000,-31.000000,-14.000000,-18.000000,-19.000000,-3.000000
1302875.353970,-17.000000,22.000000,18.000000,59.000000,19.000000,8.000000,-12.000000,-9.000000
1302875.354007,0.000000,-12.000000,35.000000,10.000000,-3.000000,-10.000000,-59.000000,-18.000000
1302875.368770,6.000000,-7.000000,10.000000,-8.000000,6.000000,9.000000,34.000000,9.000000
1302875.368781,-19.000000,-10.000000,-16.000000,-23.000000,-30.000000,-27.000000,-53.000000,-20.000000
1302875.383934,-4.000000,-38.000000,12.000000,-6.000000,-6.000000,5.000000,44.000000,2.000000
1302875.383966,-3.000000,10.000000,1.000000,26.000000,20.000000,7.000000,-20.000000,-10.000000
1302875.406704,33.000000,9.000000,-55.000000,-46.000000,-12.000000,2.000000,-33.000000,8.000000
1302875.406717,-75.000000,-30.000000,58.000000,-10.000000,-23.000000,-22.000000,59.000000,-7.000000
1302875.428746,39.000000,18.000000,-29.000000,127.000000,62.000000,21.000000,-17.000000,0.000000
1302875.428756,20.000000,14.000000,16.000000,89.000000,36.000000,16.000000,30.000000,20.000000
1302875.451719,-7.000000,-4.000000,-49.000000,-24.000000,-6.000000,-3.000000,-13.000000,-6.000000
1302875.451732,-29.000000,-52.000000,-40.000000,-30.000000,-3.000000,-11.000000,-65.000000,-35.000000
1302875.466501,-5.000000,-4.000000,-1.000000,-20.000000,-28.000000,-21.000000,24.000000,3.000000
1302875.466513,-13.000000,-9.000000,9.000000,-23.000000,-7.000000,2.000000,30.000000,8.000000
1302875.467372,5.000000,-11.000000,-16.000000,-14.000000,-6.000000,-5.000000,-38.000000,-18.000000
1302875.467382,-14.000000,-32.000000,-41.000000,-16.000000,-20.000000,-13.000000,-4.000000,-2.000000
1302875.468008,7.000000,3.000000,-6.000000,24.000000,8.000000,-1.000000,-16.000000,-12.000000
1302875.468019,-25.000000,-28.000000,-44.000000,48.000000,10.000000,2.000000,-10.000000,-7.000000
1302875.468647,20.000000,-9.000000,-3.000000,1.000000,-24.000000,-16.000000,17.000000,1.000000
1302875.468657,28.000000,25.000000,46.000000,83.000000,36.000000,17.000000,13.000000,11.000000
1302875.470269,9.000000,8.000000,-28.000000,25.000000,-5.000000,-1.000000,-54.000000,-6.000000
1302875.470279,-7.000000,-8.000000,10.000000,57.000000,17.000000,24.000000,31.000000,-14.000000
1302875.488940,-12.000000,-57.000000,27.000000,8.000000,-3.000000,1.000000,19.000000,13.000000
1302875.488962,-8.000000,-9.000000,-69.000000,-23.000000,-17.000000,-17.000000,-43.000000,-12.000000
1302875.489938,8.000000,23.000000,-15.000000,-15.000000,3.000000,7.000000,28.000000,21.000000
1302875.489951,14.000000,24.000000,25.000000,70.000000,26.000000,15.000000,36.000000,-11.000000
1302875.511841,-8.000000,-9.000000,10.000000,-14.000000,-2.000000,-3.000000,-15.000000,-3.000000
1302875.511872,-2.000000,-17.000000,27.000000,-11.000000,-13.000000,-3.000000,-1.000000,2.000000
1302875.526278,18.000000,32.000000,-26.000000,-20.000000,-4.000000,-3.000000,4.000000,11.000000
1302875.526289,-15.000000,-9.000000,5.000000,58.000000,26.000000,5.000000,-50.000000,-22.000000
1302875.541724,0.000000,8.000000,-5.000000,-20.000000,-3.000000,-4.000000,-18.000000,-8.000000
1302875.541736,12.000000,17.000000,52.000000,127.000000,39.000000,9.000000,84.000000,22.000000
1302875.556382,-21.000000,-56.000000,-3.000000,-19.000000,-13.000000,-5.000000,-32.000000,-21.000000
1302875.556394,14.000000,36.000000,-11.000000,-39.000000,-7.000000,-3.000000,-7.000000,10.000000
1302875.563721,-11.000000,0.000000,-6.000000,1.000000,-13.000000,-12.000000,-10.000000,-12.000000
1302875.563731,-18.000000,-17.000000,70.000000,25.000000,-3.000000,6.000000,27.000000,-3.000000
1302875.601500,31.000000,30.000000,-17.000000,-19.000000,0.000000,-20.000000,-22.000000,10.000000
1302875.601517,-14.000000,2.000000,-9.000000,-31.000000,1.000000,15.000000,-24.000000,-23.000000
1302875.601810,22.000000,39.000000,-28.000000,-11.000000,-9.000000,-3.000000,63.000000,44.000000
1302875.601829,6.000000,-18.000000,20.000000,2.000000,27.000000,21.000000,-12.000000,-5.000000
1302875.603009,-47.000000,-68.000000,-20.000000,-9.000000,-3.000000,-14.000000,-65.000000,-24.000000
1302875.603019,-1.000000,-5.000000,-61.000000,-75.000000,-19.000000,1.000000,43.000000,-5.000000
1302875.603491,10.000000,21.000000,48.000000,87.000000,39.000000,5.000000,-24.000000,-4.000000
1302875.603499,-30.000000,-13.000000,30.000000,-8.000000,-5.000000,-2.000000,-30.000000,-27.000000
1302875.604148,-7.000000,-1.000000,-66.000000,-47.000000,-7.000000,9.000000,45.000000,32.000000
1302875.604157,-1.000000,35.000000,72.000000,-7.000000,-3.000000,-3.000000,40.000000,0.000000
1302875.605310,-2.000000,-18.000000,-14.000000,28.000000,24.000000,-2.000000,-4.000000,5.000000
1302875.605359,2.000000,7.000000,18.000000,10.000000,-3.000000,-4.000000,-60.000000,-7.000000
1302875.623883,13.000000,35.000000,-29.000000,-29.000000,0.000000,20.000000,49.000000,3.000000
1302875.623899,6.000000,9.000000,15.000000,12.000000,4.000000,-1.000000,32.000000,24.000000
1302875.639114,22.000000,-14.000000,-71.000000,-116.000000,-42.000000,-16.000000,-6.000000,-15.000000
1302875.639127,-49.000000,-33.000000,6.000000,10.000000,-16.000000,-5.000000,5.000000,-3.000000
1302875.646363,13.000000,24.000000,49.000000,22.000000,2.000000,5.000000,-1.000000,2.000000
1302875.646376,7.000000,16.000000,-2.000000,-3.000000,2.000000,1.000000,-16.000000,-2.000000
1302875.668547,2.000000,6.000000,40.000000,117.000000,17.000000,-1.000000,-17.000000,-11.000000
1302875.668557,11.000000,1.000000,-33.000000,-79.000000,-8.000000,10.000000,-25.000000,15.000000
1302875.683989,-1.000000,14.000000,15.000000,11.000000,-21.000000,-33.000000,23.000000,-24.000000
1302875.684000,29.000000,-12.000000,-13.000000,-12.000000,-5.000000,6.000000,-39.000000,8.000000
1302875.684811,-16.000000,-3.000000,-15.000000,-37.000000,-3.000000,-5.000000,11.000000,2.000000
1302875.684819,-7.000000,-24.000000,-4.000000,-3.000000,7.000000,-2.000000,-9.000000,1.000000
1302875.685367,-13.000000,-25.000000,12.000000,-8.000000,-2.000000,-13.000000,-45.000000,-29.000000
1302875.685376,-12.000000,-5.000000,-85.000000,48.000000,8.000000,-2.000000,-12.000000,-12.000000
1302875.687358,1.000000,18.000000,64.000000,-20.000000,-1.000000,8.000000,9.000000,-3.000000
1302875.687369,-7.000000,33.000000,11.000000,34.000000,18.000000,8.000000,14.000000,-1.000000
1302875.706280,27.000000,5.000000,7.000000,0.000000,5.000000,17.000000,62.000000,18.000000
1302875.706296,-40.000000,-65.000000,5.000000,-66.000000,-21.000000,-13.000000,-46.000000,-32.000000
1302875.707441,25.000000,18.000000,2.000000,38.000000,15.000000,-10.000000,53.000000,36.000000
1302875.707450,7.000000,0.000000,27.000000,11.000000,-2.000000,3.000000,-3.000000,9.000000
1302875.721477,-17.000000,-8.000000,-86.000000,-33.000000,-9.000000,5.000000,-9.000000,-8.000000
1302875.721489,7.000000,-2.000000,2.000000,1.000000,7.000000,-2.000000,-17.000000,-5.000000
1302875.729512,28.000000,38.000000,49.000000,24.000000,12.000000,5.000000,45.000000,12.000000
1302875.729521,-4.000000,-22.000000,-39.000000,-43.000000,-14.000000,-15.000000,-51.000000,-15.000000
1302875.744130,33.000000,43.000000,45.000000,57.000000,26.000000,19.000000,37.000000,25.000000
1302875.744140,-21.000000,-46.000000,24.000000,-2.000000,-11.000000,-15.000000,-15.000000,-9.000000
1302875.788928,-4.000000,-26.000000,-58.000000,-47.000000,-22.000000,-13.000000,-14.000000,-12.000000
1302875.788937,-27.000000,3.000000,6.000000,-26.000000,5.000000,12.000000,-99.000000,-25.000000
1302875.803669,1.000000,24.000000,29.000000,79.000000,-12.000000,-1.000000,124.000000,6.000000
1302875.803710,14.000000,-46.000000,-15.000000,-27.000000,-16.000000,-7.000000,-19.000000,6.000000
1302875.804698,-8.000000,6.000000,-47.000000,96.000000,1.000000,-13.000000,-36.000000,-18.000000
1302875.804718,6.000000,12.000000,57.000000,0.000000,13.000000,24.000000,3.000000,3.000000
1302875.805443,-17.000000,-7.000000,-69.000000,28.000000,19.000000,-2.000000,-8.000000,-7.000000
1302875.805461,3.000000,-40.000000,48.000000,-16.000000,1.000000,13.000000,41.000000,5.000000
1302875.806982,0.000000,8.000000,-7.000000,-54.000000,-17.000000,-7.000000,-21.000000,-10.000000
1302875.807009,20.000000,5.000000,17.000000,51.000000,8.000000,-4.000000,-38.000000,-24.000000
1302875.818922,11.000000,3.000000,-13.000000,24.000000,11.000000,4.000000,24.000000,8.000000
1302875.818935,-10.000000,9.000000,2.000000,35.000000,9.000000,5.000000,-15.000000,-6.000000
1302875.826398,-3.000000,9.000000,10.000000,-9.000000,-12.000000,-6.000000,-25.000000,-14.000000
1302875.826407,-14.000000,-18.000000,-6.000000,23.000000,2.000000,4.000000,-1.000000,-5.000000
1302875.841762,-12.000000,2.000000,0.000000,-13.000000,-22.000000,-13.000000,-5.000000,-4.000000
1302875.841796,15.000000,3.000000,-36.000000,-50.000000,-13.000000,0.000000,-5.000000,-5.000000
1302875.879138,39.000000,17.000000,81.000000,34.000000,3.000000,8.000000,-10.000000,10.000000
1302875.879152,6.000000,26.000000,-59.000000,-37.000000,-13.000000,-31.000000,-72.000000,-23.000000
1302875.886250,21.000000,25.000000,39.000000,60.000000,-1.000000,-9.000000,69.000000,12.000000
1302875.886260,1.000000,-38.000000,32.000000,49.000000,19.000000,-8.000000,-6.000000,13.000000
1302875.909002,-7.000000,-6.000000,8.000000,-6.000000,5.000000,0.000000,-15.000000,-10.000000
1302875.909025,-8.000000,7.000000,36.000000,-6.000000,-6.000000,-9.000000,-18.000000,-7.000000
1302875.916712,-1.000000,22.000000,13.000000,-17.000000,-4.000000,13.000000,-2.000000,1.000000
1302875.916725,-9.000000,-36.000000,-24.000000,-5.000000,-6.000000,-6.000000,2.000000,0.000000
1302875.931450,-8.000000,3.000000,-31.000000,-27.000000,3.000000,-5.000000,-65.000000,-12.000000
1302875.931460,7.000000,21.000000,24.000000,27.000000,3.000000,7.000000,102.000000,20.000000
1302875.938688,8.000000,-28.000000,17.000000,-6.000000,-10.000000,-16.000000,-39.000000,-15.000000
1302875.938698,-42.000000,-68.000000,-115.000000,-8.000000,-7.000000,-5.000000,-13.000000,-17.000000
1302875.946189,14.000000,24.000000,-5.000000,81.000000,27.000000,12.000000,5.000000,6.000000
1302875.946208,-10.000000,2.000000,10.000000,-51.000000,-14.000000,-4.000000,-20.000000,-12.000000
1302875.946803,8.000000,33.000000,19.000000,7.000000,-4.000000,-5.000000,10.000000,0.000000
1302875.946851,-19.000000,7.000000,-22.000000,-60.000000,-34.000000,-13.000000,-5.000000,6.000000
1302875.947275,8.000000,-19.000000,-44.000000,-68.000000,-17.000000,-17.000000,-17.000000,-1.000000
1302875.947302,12.000000,44.000000,81.000000,27.000000,-6.000000,9.000000,42.000000,8.000000
1302875.947939,10.000000,4.000000,0.000000,-8.000000,-2.000000,6.000000,-50.000000,-12.000000
1302875.947960,-51.000000,-25.000000,-47.000000,-21.000000,1.000000,13.000000,15.000000,-14.000000
1302875.949427,38.000000,-4.000000,26.000000,35.000000,4.000000,-19.000000,60.000000,42.000000
1302875.949463,-24.000000,-15.000000,-38.000000,-14.000000,2.000000,9.000000,-54.000000,-29.000000
1302875.953519,-15.000000,13.000000,46.000000,-10.000000,-14.000000,-10.000000,45.000000,1.000000
1302875.953547,2.000000,-12.000000,-6.000000,77.000000,9.000000,-4.000000,-27.000000,-8.000000
1302875.961299,1.000000,9.000000,59.000000,124.000000,36.000000,13.000000,-11.000000,1.000000
1302875.961309,-5.000000,13.000000,-54.000000,-48.000000,-1.000000,-1.000000,-32.000000,-26.000000
1302875.998676,12.000000,15.000000,55.000000,50.000000,18.000000,11.000000,38.000000,31.000000
1302875.998686,-42.000000,-24.000000,-11.000000,-31.000000,-20.000000,-13.000000,-2.000000,-13.000000
1302876.006683,-5.000000,0.000000,-47.000000,-64.000000,-21.000000,20.000000,-21.000000,-9.000000
1302876.006696,9.000000,10.000000,5.000000,20.000000,11.000000,-21.000000,22.000000,1.000000
1302876.043791,-6.000000,-14.000000,-13.000000,-3.000000,-1.000000,16.000000,33.000000,11.000000
1302876.043833,-10.000000,-7.000000,-26.000000,-105.000000,-40.000000,-27.000000,-36.000000,-18.000000
1302876.051331,-13.000000,46.000000,4.000000,19.000000,2.000000,-4.000000,-26.000000,-19.000000
1302876.051344,12.000000,6.000000,31.000000,-9.000000,-1.000000,-4.000000,-19.000000,0.000000
1302876.074234,-3.000000,-11.000000,9.000000,-12.000000,-10.000000,1.000000,-34.000000,-13.000000
1302876.074263,-8.000000,1.000000,-61.000000,-124.000000,-21.000000,1.000000,14.000000,-14.000000
1302876.074748,-9.000000,2.000000,29.000000,127.000000,60.000000,22.000000,19.000000,12.000000
1302876.074755,-5.000000,-21.000000,-30.000000,-29.000000,-10.000000,-23.000000,-34.000000,-10.000000
1302876.075660,-7.000000,0.000000,-37.000000,21.000000,13.000000,-15.000000,-42.000000,-27.000000
1302876.075670,-9.000000,1.000000,17.000000,-10.000000,12.000000,46.000000,127.000000,32.000000
1302876.082489,-1.000000,-6.000000,-19.000000,-15.000000,-16.000000,-7.000000,-6.000000,0.000000
1302876.082505,-20.000000,20.000000,-5.000000,-72.000000,-18.000000,-6.000000,-50.000000,-19.000000
1302876.104077,10.000000,-11.000000,-38.000000,-14.000000,-3.000000,-6.000000,64.000000,7.000000
1302876.104097,-7.000000,6.000000,14.000000,-24.000000,-5.000000,-5.000000,-29.000000,-14.000000
1302876.119065,-6.000000,6.000000,-15.000000,54.000000,4.000000,5.000000,24.000000,-1.000000
1302876.119075,-9.000000,-4.000000,17.000000,-6.000000,-7.000000,-11.000000,-72.000000,-34.000000
1302876.156620,14.000000,-22.000000,-2.000000,25.000000,7.000000,7.000000,82.000000,22.000000
1302876.156631,8.000000,22.000000,5.000000,9.000000,5.000000,3.000000,-12.000000,-6.000000
1302876.164096,-57.000000,-31.000000,60.000000,4.000000,6.000000,9.000000,-92.000000,-44.000000
1302876.164106,44.000000,10.000000,-22.000000,-42.000000,-40.000000,-22.000000,104.000000,37.000000
1302876.165237,-4.000000,-9.000000,37.000000,58.000000,28.000000,16.000000,-9.000000,-3.000000
1302876.165254,-16.000000,-4.000000,-6.000000,-109.000000,-37.000000,-34.000000,-128.000000,-34.000000
1302876.165624,-4.000000,29.000000,8.000000,60.000000,25.000000,38.000000,127.000000,2.000000
1302876.165651,10.000000,-14.000000,-4.000000,-18.000000,-9.000000,-18.000000,-72.000000,-14.000000
1302876.167196,-5.000000,11.000000,19.000000,-30.000000,-22.000000,-19.000000,34.000000,18.000000
1302876.167205,17.000000,-28.000000,-9.000000,24.000000,2.000000,-1.000000,-12.000000,7.000000
1302876.179296,29.000000,-5.000000,18.000000,-32.000000,0.000000,-4.000000,-10.000000,7.000000
1302876.179306,-5.000000,-9.000000,-105.000000,-69.000000,-33.000000,-29.000000,-11.000000,-8.000000
1302876.193812,5.000000,9.000000,2.000000,74.000000,31.000000,17.000000,2.000000,12.000000
1302876.193823,-17.000000,4.000000,10.000000,64.000000,-3.000000,0.000000,10.000000,-10.000000
1302876.202037,43.000000,27.000000,59.000000,10.000000,16.000000,21.000000,11.000000,11.000000
1302876.202047,-34.000000,-3.000000,-6.000000,-17.000000,-13.000000,-17.000000,-14.000000,-9.000000
1302876.209282,16.000000,-19.000000,-14.000000,-7.000000,3.000000,17.000000,62.000000,19.000000
1302876.209299,14.000000,0.000000,-51.000000,-13.000000,-12.000000,-21.000000,-66.000000,-16.000000
1302876.223986,-4.000000,-22.000000,-1.000000,-10.000000,-15.000000,-17.000000,-5.000000,-30.000000
1302876.223997,-19.000000,36.000000,-7.000000,-3.000000,-4.000000,3.000000,30.000000,40.000000
1302876.231167,18.000000,8.000000,37.000000,-47.000000,-3.000000,4.000000,16.000000,15.000000
1302876.231177,-5.000000,-15.000000,-28.000000,-32.000000,-14.000000,-10.000000,-54.000000,-16.000000
1302876.261595,5.000000,4.000000,26.000000,19.000000,22.000000,13.000000,11.000000,5.000000
1302876.261612,-12.000000,15.000000,-15.000000,82.000000,-9.000000,-8.000000,-30.000000,-13.000000
1302876.276216,1.000000,-20.000000,28.000000,-117.000000,-42.000000,-9.000000,18.000000,-1.000000
1302876.276225,-32.000000,-14.000000,-35.000000,-21.000000,-5.000000,-4.000000,-15.000000,-16.000000
1302876.277184,12.000000,1.000000,-25.000000,-23.000000,8.000000,2.000000,-8.000000,2.000000
1302876.277192,9.000000,-13.000000,31.000000,-32.000000,-5.000000,-11.000000,-12.000000,4.000000
1302876.278005,-21.000000,-15.000000,-41.000000,-5.000000,0.000000,2.000000,28.000000,-5.000000
1302876.278015,15.000000,31.000000,9.000000,-27.000000,-5.000000,-9.000000,-57.000000,3.000000
1302876.279484,-10.000000,-14.000000,-11.000000,20.000000,35.000000,18.000000,28.000000,-2.000000
1302876.279493,17.000000,7.000000,-28.000000,-9.000000,2.000000,4.000000,22.000000,13.000000
1302876.283696,-5.000000,-22.000000,-17.000000,-4.000000,2.000000,1.000000,13.000000,-2.000000
1302876.283706,4.000000,1.000000,27.000000,-47.000000,-30.000000,-24.000000,-26.000000,-7.000000
1302876.299583,-13.000000,-29.000000,-49.000000,-27.000000,-20.000000,-29.000000,-109.000000,-29.000000
1302876.299593,4.000000,40.000000,11.000000,25.000000,31.000000,29.000000,100.000000,24.000000
1302876.321805,-10.000000,-32.000000,-32.000000,37.000000,17.000000,2.000000,-1.000000,2.000000
1302876.321877,20.000000,8.000000,19.000000,-43.000000,-22.000000,-16.000000,-26.000000,4.000000
1302876.343779,-34.000000,-29.000000,26.000000,23.000000,-5.000000,-12.000000,-29.000000,-21.000000
1302876.343789,-8.000000,5.000000,7.000000,-5.000000,-5.000000,-11.000000,-62.000000,-20.000000
1302876.351628,13.000000,3.000000,-16.000000,1.000000,-2.000000,-4.000000,-13.000000,1.000000
1302876.351646,-14.000000,-4.000000,21.000000,-38.000000,-26.000000,10.000000,47.000000,10.000000
1302876.374310,27.000000,15.000000,-2.000000,8.000000,18.000000,16.000000,-50.000000,-7.000000
1302876.374345,-44.000000,22.000000,72.000000,-8.000000,-11.000000,-14.000000,52.000000,12.000000
1302876.381484,19.000000,-19.000000,-128.000000,-9.000000,7.000000,9.000000,-7.000000,2.000000
1302876.381501,11.000000,14.000000,55.000000,-4.000000,3.000000,-11.000000,-70.000000,-9.000000
1302876.396736,-2.000000,6.000000,79.000000,90.000000,53.000000,36.000000,52.000000,18.000000
1302876.396745,3.000000,-4.000000,-53.000000,11.000000,-1.000000,4.000000,-16.000000,2.000000
1302876.397401,-9.000000,0.000000,22.000000,-12.000000,12.000000,15.000000,-13.000000,-16.000000
1302876.397409,-1.000000,-1.000000,-40.000000,-40.000000,-24.000000,-9.000000,21.000000,13.000000
1302876.398650,28.000000,16.000000,-31.000000,114.000000,47.000000,12.000000,32.000000,20.000000
1302876.398658,9.000000,7.000000,24.000000,11.000000,1.000000,5.000000,4.000000,10.000000
1302876.399286,-7.000000,14.000000,42.000000,-7.000000,0.000000,-2.000000,2.000000,5.000000
1302876.399294,7.000000,23.000000,20.000000,-51.000000,-14.000000,-8.000000,-20.000000,-12.000000
1302876.419022,-21.000000,-47.000000,-21.000000,-25.000000,-7.000000,-9.000000,-13.000000,-15.000000
1302876.419154,3.000000,17.000000,-13.000000,25.000000,21.000000,5.000000,-5.000000,6.000000
1302876.420208,38.000000,47.000000,44.000000,79.000000,44.000000,24.000000,87.000000,44.000000
1302876.420223,-30.000000,-20.000000,15.000000,-26.000000,-18.000000,0.000000,-35.000000,-23.000000
1302876.433688,-34.000000,14.000000,-75.000000,-45.000000,1.000000,4.000000,-43.000000,-28.000000
1302876.433698,11.000000,-13.000000,12.000000,24.000000,10.000000,-5.000000,24.000000,8.000000
1302876.435226,15.000000,6.000000,-22.000000,-16.000000,6.000000,-9.000000,24.000000,14.000000
1302876.435238,-6.000000,-9.000000,-37.000000,-3.000000,-7.000000,-5.000000,-34.000000,-16.000000
1302876.456378,-10.000000,-6.000000,-12.000000,-41.000000,-20.000000,-8.000000,-23.000000,-16.000000
1302876.456400,-11.000000,-23.000000,-54.000000,-43.000000,-23.000000,-14.000000,-20.000000,-8.000000
1302876.493968,1.000000,0.000000,67.000000,-28.000000,-2.000000,5.000000,-31.000000,-4.000000
1302876.493978,-2.000000,27.000000,12.000000,30.000000,7.000000,-16.000000,20.000000,11.000000
1302876.501267,-53.000000,-51.000000,-52.000000,-61.000000,-39.000000,-31.000000,-59.000000,-44.000000
1302876.501299,45.000000,71.000000,80.000000,127.000000,42.000000,39.000000,127.000000,72.000000
1302876.539162,-24.000000,2.000000,-5.000000,-3.000000,0.000000,4.000000,0.000000,-1.000000
1302876.539172,24.000000,-5.000000,21.000000,-62.000000,-12.000000,15.000000,6.000000,4.000000
1302876.553840,-4.000000,5.000000,-33.000000,-52.000000,-25.000000,-10.000000,21.000000,7.000000
1302876.553870,7.000000,-14.000000,-50.000000,-42.000000,-10.000000,2.000000,-23.000000,-6.000000
1302876.591817,1.000000,16.000000,94.000000,33.000000,4.000000,1.000000,7.000000,3.000000
1302876.591836,26.000000,15.000000,-14.000000,-28.000000,-11.000000,0.000000,-27.000000,5.000000
1302876.598877,-41.000000,-10.000000,-41.000000,-64.000000,-27.000000,-20.000000,-58.000000,-42.000000
1302876.598895,24.000000,46.000000,70.000000,1.000000,-10.000000,0.000000,108.000000,37.000000
1302876.624486,4.000000,29.000000,-11.000000,75.000000,25.000000,-2.000000,-7.000000,5.000000
1302876.624517,-9.000000,-9.000000,-17.000000,-30.000000,-14.000000,-7.000000,19.000000,2.000000
1302876.629039,-2.000000,14.000000,7.000000,-22.000000,1.000000,2.000000,33.000000,6.000000
1302876.629071,-11.000000,-6.000000,-58.000000,59.000000,15.000000,6.000000,-11.000000,-11.000000
1302876.637053,10.000000,16.000000,-10.000000,-16.000000,-9.000000,-8.000000,22.000000,13.000000
1302876.637080,-8.000000,23.000000,62.000000,33.000000,9.000000,12.000000,-4.000000,6.000000
1302876.651238,-1.000000,-1.000000,-39.000000,-7.000000,-2.000000,2.000000,-20.000000,-18.000000
1302876.651267,2.000000,-3.000000,11.000000,-3.000000,-11.000000,-22.000000,12.000000,14.000000
1302876.659239,20.000000,4.000000,51.000000,40.000000,8.000000,7.000000,5.000000,16.000000
1302876.659268,0.000000,-10.000000,-37.000000,-47.000000,-11.000000,11.000000,34.000000,12.000000
1302876.673989,-42.000000,-49.000000,-11.000000,-4.000000,-11.000000,-10.000000,-28.000000,-14.000000
1302876.674000,24.000000,19.000000,-17.000000,-54.000000,-9.000000,-12.000000,-1.000000,-13.000000
1302876.675324,7.000000,-16.000000,26.000000,83.000000,33.000000,22.000000,33.000000,15.000000
1302876.675334,-12.000000,2.000000,12.000000,9.000000,10.000000,2.000000,12.000000,0.000000
1302876.696436,4.000000,-24.000000,-46.000000,-14.000000,-11.000000,-6.000000,-23.000000,-9.000000
1302876.696448,-8.000000,10.000000,38.000000,-15.000000,-6.000000,-2.000000,-2.000000,-11.000000
1302876.718989,17.000000,0.000000,8.000000,4.000000,28.000000,23.000000,17.000000,16.000000
1302876.719000,20.000000,0.000000,42.000000,26.000000,1.000000,-7.000000,-4.000000,-2.000000
1302876.733812,30.000000,18.000000,-22.000000,3.000000,20.000000,12.000000,-2.000000,11.000000
1302876.733832,16.000000,2.000000,-18.000000,-16.000000,-9.000000,-2.000000,64.000000,35.000000
1302876.734847,-8.000000,5.000000,35.000000,53.000000,8.000000,3.000000,-15.000000,-16.000000
1302876.734857,9.000000,18.000000,10.000000,13.000000,11.000000,9.000000,47.000000,42.000000
1302876.735529,-7.000000,-6.000000,-7.000000,-68.000000,-3.000000,-3.000000,-9.000000,-8.000000
1302876.735544,-6.000000,17.000000,-6.000000,75.000000,8.000000,-3.000000,-1.000000,6.000000
1302876.737160,-2.000000,12.000000,11.000000,19.000000,13.000000,-3.000000,-4.000000,-9.000000
1302876.737196,28.000000,21.000000,11.000000,-10.000000,-1.000000,12.000000,28.000000,17.000000
1302876.748803,-10.000000,-15.000000,39.000000,-23.000000,-19.000000,-29.000000,-128.000000,-23.000000
1302876.748814,1.000000,-14.000000,-36.000000,34.000000,-9.000000,8.000000,127.000000,-3.000000
1302876.756773,-32.000000,-19.000000,-20.000000,-20.000000,3.000000,-11.000000,-36.000000,-19.000000
1302876.756802,-13.000000,-7.000000,-23.000000,-37.000000,-4.000000,6.000000,-40.000000,-12.000000
1302876.771723,19.000000,20.000000,48.000000,36.000000,-3.000000,-16.000000,-13.000000,3.000000
1302876.771744,-5.000000,-11.000000,-20.000000,-26.000000,-8.000000,-10.000000,-1.000000,4.000000
1302876.779274,-16.000000,-19.000000,-24.000000,-43.000000,0.000000,5.000000,-64.000000,-25.000000
1302876.779302,23.000000,34.000000,20.000000,127.000000,15.000000,18.000000,53.000000,32.000000
1302876.786328,16.000000,22.000000,38.000000,83.000000,9.000000,8.000000,6.000000,9.000000
1302876.786345,-15.000000,3.000000,8.000000,-33.000000,-12.000000,-1.000000,-28.000000,-16.000000
1302876.816396,-5.000000,-8.000000,-59.000000,-28.000000,-3.000000,-7.000000,5.000000,0.000000
1302876.816406,21.000000,-6.000000,38.000000,27.000000,18.000000,16.000000,22.000000,16.000000
1302876.831358,-21.000000,14.000000,-34.000000,-41.000000,-15.000000,-4.000000,-7.000000,-5.000000
1302876.831368,35.000000,16.000000,7.000000,3.000000,3.000000,1.000000,-17.000000,-6.000000
1302876.854484,-32.000000,-33.000000,-9.000000,-7.000000,8.000000,11.000000,-9.000000,-12.000000
1302876.854494,8.000000,21.000000,-29.000000,-22.000000,-14.000000,-12.000000,32.000000,14.000000
1302876.854613,8.000000,-3.000000,37.000000,3.000000,-7.000000,3.000000,-3.000000,11.000000
1302876.854618,-40.000000,-7.000000,-7.000000,-30.000000,-11.000000,-6.000000,-32.000000,-45.000000
1302876.855408,44.000000,31.000000,6.000000,98.000000,37.000000,43.000000,127.000000,71.000000
1302876.855415,-4.000000,-8.000000,21.000000,27.000000,-3.000000,-14.000000,-20.000000,1.000000
1302876.856052,-12.000000,-31.000000,-32.000000,-49.000000,-13.000000,-7.000000,-38.000000,-17.000000
1302876.856059,17.000000,29.000000,33.000000,46.000000,23.000000,4.000000,-6.000000,1.000000
1302876.858041,29.000000,30.000000,2.000000,-4.000000,-3.000000,-2.000000,17.000000,25.000000
1302876.858058,21.000000,43.000000,30.000000,111.000000,48.000000,6.000000,39.000000,11.000000
1302876.876366,15.000000,-21.000000,25.000000,5.000000,5.000000,-1.000000,1.000000,10.000000
1302876.876377,-3.000000,8.000000,-14.000000,-24.000000,-1.000000,4.000000,-18.000000,-19.000000
1302876.914256,-2.000000,9.000000,-6.000000,19.000000,17.000000,3.000000,-16.000000,-9.000000
1302876.914266,0.000000,1.000000,65.000000,58.000000,16.000000,21.000000,54.000000,19.000000
1302876.928969,-4.000000,-5.000000,-21.000000,13.000000,2.000000,-5.000000,-6.000000,-9.000000
1302876.928986,-1.000000,3.000000,-12.000000,-43.000000,9.000000,16.000000,13.000000,10.000000
1302876.944084,18.000000,1.000000,-61.000000,21.000000,14.000000,1.000000,13.000000,25.000000
1302876.944095,-14.000000,-2.000000,-53.000000,-27.000000,2.000000,8.000000,31.000000,1.000000
1302876.951627,30.000000,13.000000,32.000000,-49.000000,-26.000000,-6.000000,-9.000000,9.000000
1302876.951638,-9.000000,44.000000,64.000000,127.000000,72.000000,13.000000,0.000000,-1.000000
1302876.989013,-1.000000,-24.000000,17.000000,-21.000000,-15.000000,-22.000000,7.000000,5.000000
1302876.989025,5.000000,9.000000,6.000000,-25.000000,-15.000000,-3.000000,-10.000000,-5.000000
1302876.989595,-5.000000,15.000000,-5.000000,-15.000000,-14.000000,-13.000000,-27.000000,-9.000000
1302876.989603,-1.000000,1.000000,-69.000000,-72.000000,-25.000000,5.000000,-13.000000,-10.000000
1302876.989983,-4.000000,20.000000,8.000000,-16.000000,-12.000000,-7.000000,-22.000000,-11.000000
1302876.989991,6.000000,8.000000,1.000000,-18.000000,23.000000,25.000000,8.000000,12.000000
1302876.991050,11.000000,22.000000,4.000000,12.000000,-6.000000,-6.000000,-11.000000,-1.000000
1302876.991062,2.000000,-13.000000,-11.000000,14.000000,12.000000,5.000000,56.000000,24.000000
1302876.992125,45.000000,28.000000,-13.000000,-6.000000,1.000000,4.000000,0.000000,7.000000
1302876.992133,-23.000000,-6.000000,39.000000,18.000000,5.000000,0.000000,-14.000000,-8.000000
1302876.992617,3.000000,-2.000000,6.000000,-38.000000,-4.000000,3.000000,-17.000000,-6.000000
1302876.992624,2.000000,2.000000,-22.000000,-9.000000,-3.000000,0.000000,50.000000,-2.000000
1302876.997061,0.000000,9.000000,62.000000,19.000000,-3.000000,4.000000,-33.000000,-3.000000
1302876.997070,21.000000,-11.000000,16.000000,22.000000,-9.000000,-20.000000,-26.000000,-6.000000
1302877.011254,12.000000,36.000000,-17.000000,9.000000,-4.000000,6.000000,38.000000,22.000000
1302877.011265,-13.000000,-15.000000,9.000000,32.000000,0.000000,-4.000000,-28.000000,-16.000000
1302877.026259,3.000000,16.000000,-48.000000,2.000000,11.000000,5.000000,-26.000000,8.000000
1302877.026284,25.000000,34.000000,28.000000,34.000000,40.000000,63.000000,68.000000,26.000000
1302877.033837,-4.000000,-11.000000,0.000000,-16.000000,-14.000000,-21.000000,22.000000,3.000000
1302877.033848,3.000000,-27.000000,8.000000,-10.000000,6.000000,11.000000,-9.000000,2.000000
1302877.071489,2.000000,14.000000,5.000000,-2.000000,1.000000,4.000000,-13.000000,-3.000000
1302877.071509,-8.000000,12.000000,35.000000,12.000000,12.000000,9.000000,-34.000000,-20.000000
1302877.093849,4.000000,8.000000,19.000000,17.000000,3.000000,9.000000,82.000000,15.000000
1302877.093860,-12.000000,-40.000000,-11.000000,-23.000000,-8.000000,2.000000,0.000000,19.000000
1302877.108812,0.000000,10.000000,-40.000000,-48.000000,-22.000000,-24.000000,-54.000000,-8.000000
1302877.108824,13.000000,32.000000,54.000000,56.000000,31.000000,29.000000,30.000000,8.000000
1302877.109239,10.000000,-4.000000,-12.000000,-14.000000,-9.000000,-10.000000,-21.000000,-11.000000
1302877.109249,-6.000000,6.000000,-108.000000,-93.000000,-44.000000,-21.000000,-30.000000,-11.000000
1302877.110622,30.000000,43.000000,43.000000,19.000000,30.000000,38.000000,36.000000,12.000000
1302877.110643,-3.000000,-9.000000,15.000000,-20.000000,-27.000000,-24.000000,34.000000,19.000000
1302877.111713,-7.000000,-1.000000,-2.000000,-7.000000,-1.000000,-6.000000,-12.000000,-3.000000
1302877.111735,1.000000,-14.000000,-32.000000,-50.000000,-17.000000,-9.000000,-27.000000,-7.000000
1302877.112523,-9.000000,-2.000000,10.000000,62.000000,19.000000,2.000000,10.000000,-4.000000
1302877.112543,-19.000000,-50.000000,-17.000000,-32.000000,-16.000000,-16.000000,-14.000000,-27.000000
1302877.132082,-1.000000,7.000000,-51.000000,-26.000000,7.000000,8.000000,23.000000,8.000000
1302877.132124,38.000000,42.000000,72.000000,54.000000,26.000000,1.000000,18.000000,23.000000
1302877.154731,-18.000000,-50.000000,-52.000000,-9.000000,-1.000000,7.000000,-23.000000,-12.000000
1302877.154779,-9.000000,10.000000,-3.000000,-13.000000,-14.000000,-6.000000,-30.000000,-13.000000
1302877.191759,-21.000000,-4.000000,-21.000000,-48.000000,-8.000000,8.000000,-11.000000,-15.000000
1302877.191786,37.000000,11.000000,-14.000000,-27.000000,8.000000,-19.000000,14.000000,17.000000
1302877.207424,10.000000,0.000000,33.000000,17.000000,5.000000,8.000000,3.000000,2.000000
1302877.207453,-11.000000,-12.000000,-43.000000,-24.000000,-12.000000,-4.000000,-34.000000,-11.000000
1302877.221403,-3.000000,9.000000,44.000000,-13.000000,-7.000000,-11.000000,22.000000,4.000000
1302877.221418,7.000000,-1.000000,12.000000,-8.000000,-15.000000,7.000000,26.000000,9.000000
1302877.229055,1.000000,1.000000,27.000000,-29.000000,-27.000000,-18.000000,-23.000000,-4.000000
1302877.229086,11.000000,10.000000,14.000000,23.000000,13.000000,6.000000,16.000000,3.000000
1302877.251724,17.000000,32.000000,2.000000,7.000000,7.000000,2.000000,-70.000000,-13.000000
1302877.251733,-3.000000,7.000000,41.000000,59.000000,5.000000,-14.000000,43.000000,17.000000
1302877.252898,5.000000,35.000000,34.000000,-25.000000,-10.000000,-2.000000,16.000000,1.000000
1302877.252925,-1.000000,-13.000000,-27.000000,-29.000000,-16.000000,-11.000000,-15.000000,-3.000000
1302877.253605,2.000000,0.000000,-27.000000,-7.000000,-1.000000,-5.000000,-17.000000,-3.000000
1302877.253633,-11.000000,-21.000000,-63.000000,-33.000000,2.000000,10.000000,33.000000,17.000000
1302877.255105,1.000000,28.000000,44.000000,10.000000,33.000000,13.000000,2.000000,4.000000
1302877.255113,3.000000,-24.000000,-97.000000,-26.000000,4.000000,8.000000,-24.000000,-14.000000
1302877.266452,6.000000,8.000000,32.000000,15.000000,-6.000000,-14.000000,22.000000,11.000000
1302877.266529,15.000000,6.000000,-9.000000,5.000000,22.000000,17.000000,0.000000,0.000000
1302877.273756,5.000000,13.000000,1.000000,-41.000000,-17.000000,-4.000000,31.000000,37.000000
1302877.273776,-31.000000,6.000000,-3.000000,-17.000000,-6.000000,4.000000,11.000000,-36.000000
1302877.296329,-14.000000,-6.000000,50.000000,17.000000,17.000000,9.000000,-2.000000,-13.000000
1302877.296340,17.000000,8.000000,-19.000000,-23.000000,-11.000000,4.000000,25.000000,-8.000000
1302877.304017,-8.000000,5.000000,16.000000,7.000000,12.000000,0.000000,-54.000000,-13.000000
1302877.304028,-26.000000,-10.000000,3.000000,-16.000000,-3.000000,2.000000,-12.000000,-23.000000
1302877.326314,-1.000000,20.000000,10.000000,43.000000,12.000000,2.000000,5.000000,0.000000
1302877.326324,11.000000,-29.000000,-29.000000,-7.000000,2.000000,-3.000000,7.000000,23.000000
1302877.334314,-11.000000,6.000000,-81.000000,-79.000000,-28.000000,-11.000000,-15.000000,-18.000000
1302877.334344,-6.000000,-5.000000,23.000000,19.000000,20.000000,2.000000,-11.000000,0.000000
1302877.371745,-2.000000,26.000000,68.000000,17.000000,-1.000000,-8.000000,-27.000000,-13.000000
1302877.371775,-11.000000,-12.000000,-76.000000,-45.000000,-29.000000,-14.000000,-14.000000,-16.000000
1302877.372223,24.000000,3.000000,3.000000,40.000000,27.000000,9.000000,14.000000,8.000000
1302877.372249,-14.000000,13.000000,-35.000000,-17.000000,-7.000000,-5.000000,-12.000000,6.000000
1302877.373666,-13.000000,11.000000,2.000000,-32.000000,-4.000000,18.000000,-2.000000,-13.000000
1302877.373688,3.000000,10.000000,-11.000000,-12.000000,-4.000000,-8.000000,2.000000,13.000000
1302877.374394,20.000000,13.000000,-29.000000,27.000000,0.000000,-17.000000,9.000000,13.000000
1302877.374414,-5.000000,-37.000000,-51.000000,-40.000000,-16.000000,-4.000000,0.000000,-4.000000
1302877.386534,-5.000000,-6.000000,2.000000,47.000000,30.000000,9.000000,7.000000,-3.000000
1302877.386545,3.000000,-7.000000,-12.000000,15.000000,9.000000,2.000000,-5.000000,-7.000000
1302877.394114,-11.000000,5.000000,-1.000000,-16.000000,-19.000000,-10.000000,-30.000000,-18.000000
1302877.394125,14.000000,23.000000,40.000000,-16.000000,-13.000000,4.000000,34.000000,14.000000
1302877.417009,-8.000000,-56.000000,-51.000000,1.000000,6.000000,-2.000000,-3.000000,-3.000000
1302877.417050,-33.000000,-5.000000,-21.000000,-16.000000,-12.000000,-9.000000,-35.000000,-28.000000
1302877.424741,11.000000,-20.000000,-21.000000,0.000000,-7.000000,2.000000,21.000000,1.000000
1302877.424774,-19.000000,-28.000000,-18.000000,-21.000000,-4.000000,1.000000,4.000000,-10.000000
1302877.454811,2.000000,-3.000000,28.000000,-12.000000,-2.000000,-1.000000,-54.000000,-13.000000
1302877.454836,13.000000,44.000000,30.000000,34.000000,-3.000000,-2.000000,47.000000,-6.000000
1302877.462374,24.000000,-27.000000,-2.000000,-11.000000,7.000000,9.000000,37.000000,37.000000
1302877.462415,-6.000000,-9.000000,-4.000000,12.000000,11.000000,-10.000000,-38.000000,-4.000000
1302877.484249,-14.000000,13.000000,-21.000000,8.000000,2.000000,-3.000000,2.000000,-3.000000
1302877.484286,-10.000000,-11.000000,-29.000000,-31.000000,-11.000000,6.000000,-48.000000,-14.000000
1302877.485017,-16.000000,11.000000,-25.000000,-27.000000,-19.000000,-33.000000,-14.000000,-16.000000
1302877.485029,6.000000,-14.000000,9.000000,101.000000,39.000000,14.000000,34.000000,2.000000
1302877.485951,15.000000,1.000000,-11.000000,-26.000000,-10.000000,-2.000000,-18.000000,-6.000000
1302877.485974,-25.000000,-11.000000,-14.000000,-49.000000,-3.000000,12.000000,-12.000000,-13.000000
1302877.486512,-10.000000,-9.000000,13.000000,-20.000000,-20.000000,-11.000000,9.000000,8.000000
1302877.486527,-18.000000,-38.000000,-5.000000,-8.000000,10.000000,10.000000,-13.000000,-11.000000
1302877.491684,-9.000000,-9.000000,-12.000000,-19.000000,-11.000000,-8.000000,-14.000000,-12.000000
1302877.491769,-6.000000,16.000000,127.000000,3.000000,8.000000,2.000000,-26.000000,-5.000000
1302877.506588,10.000000,-8.000000,-68.000000,40.000000,18.000000,18.000000,50.000000,11.000000
1302877.506603,6.000000,19.000000,14.000000,27.000000,15.000000,0.000000,-11.000000,-4.000000
1302877.529035,-26.000000,-20.000000,30.000000,-12.000000,19.000000,-5.000000,-59.000000,-29.000000
1302877.529046,34.000000,23.000000,-44.000000,-46.000000,-2.000000,20.000000,28.000000,8.000000
1302877.551143,10.000000,-5.000000,-8.000000,76.000000,36.000000,0.000000,42.000000,32.000000
1302877.551153,-5.000000,-7.000000,-31.000000,-7.000000,-13.000000,-3.000000,22.000000,-5.000000
1302877.558988,0.000000,-18.000000,-13.000000,-28.000000,-12.000000,-15.000000,-37.000000,-17.000000
1302877.559008,31.000000,44.000000,49.000000,35.000000,2.000000,0.000000,-16.000000,8.000000
1302877.566619,-13.000000,-1.000000,-22.000000,-47.000000,-23.000000,-11.000000,25.000000,13.000000
1302877.566648,-4.000000,-10.000000,8.000000,-8.000000,-9.000000,-8.000000,-9.000000,-9.000000
1302877.567258,-6.000000,8.000000,-9.000000,24.000000,13.000000,2.000000,-14.000000,-7.000000
1302877.567286,4.000000,-13.000000,-37.000000,24.000000,1.000000,-1.000000,-8.000000,-6.000000
1302877.568515,-2.000000,10.000000,-5.000000,-38.000000,-5.000000,11.000000,-33.000000,-10.000000
1302877.568536,25.000000,8.000000,-60.000000,14.000000,2.000000,1.000000,63.000000,19.000000
1302877.569339,-16.000000,-4.000000,69.000000,47.000000,11.000000,5.000000,24.000000,12.000000
1302877.569347,-25.000000,-27.000000,-65.000000,-94.000000,-43.000000,-31.000000,-53.000000,-22.000000
1302877.589287,8.000000,22.000000,31.000000,81.000000,20.000000,7.000000,-5.000000,-16.000000
1302877.589297,0.000000,23.000000,30.000000,-21.000000,3.000000,20.000000,-5.000000,11.000000
1302877.590318,39.000000,24.000000,-49.000000,-5.000000,-22.000000,-16.000000,45.000000,9.000000
1302877.590335,-20.000000,-30.000000,-36.000000,-37.000000,-19.000000,-11.000000,-38.000000,-25.000000
1302877.611283,-31.000000,-9.000000,-21.000000,13.000000,10.000000,11.000000,42.000000,9.000000
1302877.611313,37.000000,22.000000,-43.000000,19.000000,6.000000,4.000000,-79.000000,-22.000000
1302877.626310,16.000000,8.000000,29.000000,17.000000,10.000000,17.000000,120.000000,28.000000
1302877.626320,6.000000,22.000000,-2.000000,0.000000,5.000000,-7.000000,-16.000000,-5.000000
1302877.656332,-17.000000,-1.000000,43.000000,28.000000,0.000000,6.000000,-13.000000,-9.000000
1302877.656362,14.000000,9.000000,-20.000000,94.000000,34.000000,11.000000,0.000000,6.000000
1302877.664093,-1.000000,-1.000000,-4.000000,26.000000,-1.000000,-3.000000,-3.000000,5.000000
1302877.664105,-7.000000,-6.000000,-10.000000,-88.000000,-10.000000,9.000000,11.000000,-1.000000
1302877.686349,-15.000000,-9.000000,-28.000000,-94.000000,-27.000000,-11.000000,-61.000000,-34.000000
1302877.686360,9.000000,18.000000,5.000000,85.000000,32.000000,27.000000,104.000000,35.000000
1302877.708884,3.000000,6.000000,21.000000,-5.000000,0.000000,-7.000000,48.000000,38.000000
1302877.708893,9.000000,-10.000000,1.000000,-23.000000,-10.000000,-3.000000,25.000000,16.000000
1302877.709722,43.000000,19.000000,-12.000000,-50.000000,-11.000000,-7.000000,-17.000000,14.000000
1302877.709743,0.000000,16.000000,39.000000,52.000000,19.000000,16.000000,25.000000,2.000000
1302877.711167,-61.000000,-26.000000,-26.000000,-49.000000,-26.000000,-12.000000,-53.000000,-23.000000
1302877.711192,38.000000,12.000000,-8.000000,-25.000000,-3.000000,-11.000000,84.000000,15.000000
1302877.711864,4.000000,-19.000000,-69.000000,1.000000,8.000000,6.000000,28.000000,17.000000
1302877.711914,-9.000000,3.000000,-18.000000,-50.000000,10.000000,0.000000,-61.000000,-15.000000
1302877.712736,37.000000,2.000000,11.000000,105.000000,33.000000,26.000000,89.000000,32.000000
1302877.712744,6.000000,0.000000,-23.000000,-21.000000,0.000000,6.000000,31.000000,20.000000
1302877.732231,-17.000000,-8.000000,-106.000000,-69.000000,-18.000000,-14.000000,-6.000000,-8.000000
1302877.732259,8.000000,31.000000,92.000000,84.000000,-5.000000,-3.000000,-8.000000,-5.000000
1302877.732609,-9.000000,-42.000000,-89.000000,-27.000000,-8.000000,-4.000000,-8.000000,-10.000000
1302877.732617,0.000000,0.000000,4.000000,21.000000,6.000000,1.000000,10.000000,8.000000
1302877.738994,19.000000,16.000000,40.000000,-9.000000,0.000000,2.000000,4.000000,6.000000
1302877.739002,-4.000000,-17.000000,-37.000000,4.000000,2.000000,-9.000000,-21.000000,-5.000000
1302877.746430,-21.000000,22.000000,38.000000,-12.000000,-9.000000,2.000000,-5.000000,-8.000000
1302877.746455,34.000000,16.000000,41.000000,60.000000,16.000000,3.000000,4.000000,11.000000
1302877.769071,2.000000,7.000000,-31.000000,-13.000000,1.000000,12.000000,8.000000,2.000000
1302877.769084,-49.000000,-69.000000,-7.000000,-8.000000,-26.000000,-20.000000,21.000000,-7.000000
1302877.783953,-7.000000,-7.000000,47.000000,-20.000000,-3.000000,-8.000000,-41.000000,-20.000000
1302877.783973,-22.000000,-12.000000,-43.000000,-48.000000,-21.000000,-4.000000,12.000000,-13.000000
1302877.821534,54.000000,31.000000,7.000000,3.000000,-5.000000,4.000000,32.000000,48.000000
1302877.821545,-6.000000,19.000000,-23.000000,31.000000,22.000000,9.000000,-34.000000,-3.000000
1302877.828899,27.000000,-3.000000,-21.000000,-30.000000,-6.000000,9.000000,7.000000,-14.000000
1302877.828910,1.000000,-4.000000,20.000000,-20.000000,-18.000000,-11.000000,-12.000000,-7.000000
1302877.844139,-17.000000,-9.000000,-12.000000,-86.000000,-20.000000,-6.000000,-51.000000,-18.000000
1302877.844158,6.000000,37.000000,68.000000,81.000000,-1.000000,-22.000000,8.000000,2.000000
1302877.844872,23.000000,-29.000000,-8.000000,-69.000000,-17.000000,0.000000,25.000000,18.000000
1302877.844890,-7.000000,4.000000,-14.000000,-28.000000,-11.000000,0.000000,-18.000000,-10.000000
1302877.845981,8.000000,-1.000000,-6.000000,-6.000000,5.000000,9.000000,9.000000,1.000000
1302877.845990,24.000000,19.000000,-20.000000,14.000000,14.000000,7.000000,30.000000,5.000000
1302877.866543,-4.000000,25.000000,12.000000,62.000000,29.000000,8.000000,-20.000000,-20.000000
1302877.866554,-15.000000,-10.000000,-75.000000,-39.000000,-15.000000,-14.000000,-18.000000,-7.000000
1302877.888612,-15.000000,-24.000000,25.000000,-44.000000,-3.000000,7.000000,-2.000000,0.000000
1302877.888632,26.000000,47.000000,41.000000,75.000000,12.000000,-1.000000,-13.000000,-2.000000
1302877.904079,-23.000000,-41.000000,-22.000000,-44.000000,-17.000000,-7.000000,-18.000000,-4.000000
1302877.904089,-9.000000,-5.000000,13.000000,42.000000,6.000000,-10.000000,11.000000,0.000000
1302877.933670,12.000000,-37.000000,11.000000,34.000000,10.000000,5.000000,6.000000,8.000000
1302877.933679,11.000000,1.000000,-61.000000,-69.000000,-32.000000,-29.000000,-22.000000,3.000000
1302877.941043,-11.000000,-10.000000,-4.000000,26.000000,12.000000,-7.000000,-13.000000,-10.000000
1302877.941054,6.000000,-2.000000,6.000000,27.000000,19.000000,15.000000,-34.000000,0.000000
1302877.942252,-3.000000,20.000000,1.000000,6.000000,-5.000000,-1.000000,40.000000,-6.000000
1302877.942282,-3.000000,-10.000000,-26.000000,-50.000000,-26.000000,-19.000000,-13.000000,-5.000000
1302877.943062,-15.000000,-5.000000,35.000000,36.000000,19.000000,12.000000,2.000000,0.000000
1302877.943089,10.000000,2.000000,18.000000,42.000000,9.000000,10.000000,26.000000,8.000000
1302877.943643,-14.000000,16.000000,17.000000,-27.000000,-15.000000,-9.000000,-6.000000,2.000000
1302877.943656,-21.000000,-20.000000,7.000000,54.000000,-4.000000,-8.000000,-36.000000,-24.000000
1302877.944309,22.000000,25.000000,7.000000,57.000000,10.000000,-3.000000,-10.000000,-4.000000
1302877.944318,-14.000000,-24.000000,44.000000,-8.000000,-7.000000,-6.000000,-36.000000,-11.000000
1302877.948739,-5.000000,7.000000,-7.000000,-28.000000,9.000000,23.000000,66.000000,20.000000
1302877.948748,-4.000000,16.000000,11.000000,51.000000,29.000000,1.000000,-2.000000,1.000000
1302877.964912,9.000000,-15.000000,-19.000000,-61.000000,-15.000000,-14.000000,-23.000000,-5.000000
1302877.964920,6.000000,18.000000,-11.000000,8.000000,6.000000,3.000000,21.000000,10.000000
1302877.978867,21.000000,-13.000000,-22.000000,-4.000000,5.000000,-2.000000,14.000000,8.000000
1302877.978881,21.000000,18.000000,23.000000,0.000000,-16.000000,-11.000000,2.000000,9.000000
1302878.009142,-21.000000,-4.000000,0.000000,1.000000,2.000000,13.000000,51.000000,2.000000
1302878.009154,6.000000,-3.000000,-29.000000,-49.000000,-13.000000,5.000000,-54.000000,-25.000000
1302878.016467,14.000000,-7.000000,2.000000,-16.000000,-5.000000,-2.000000,41.000000,21.000000
1302878.016477,-10.000000,-15.000000,-13.000000,43.000000,-1.000000,-29.000000,-31.000000,-16.000000
1302878.038837,-37.000000,-2.000000,18.000000,-10.000000,-3.000000,-2.000000,2.000000,-7.000000
1302878.038847,2.000000,-14.000000,-50.000000,-86.000000,-30.000000,-12.000000,-13.000000,-4.000000
1302878.046526,-5.000000,-4.000000,31.000000,5.000000,6.000000,5.000000,0.000000,1.000000
1302878.046538,31.000000,6.000000,27.000000,29.000000,5.000000,5.000000,-5.000000,3.000000
1302878.047362,-27.000000,2.000000,13.000000,-1.000000,5.000000,8.000000,-16.000000,-7.000000
1302878.047370,5.000000,-6.000000,5.000000,-14.000000,-12.000000,-12.000000,0.000000,4.000000
1302878.047954,35.000000,6.000000,-29.000000,-16.000000,-3.000000,7.000000,40.000000,23.000000
1302878.047962,-39.000000,-33.000000,38.000000,-17.000000,-1.000000,2.000000,20.000000,-10.000000
1302878.049954,-2.000000,19.000000,4.000000,12.000000,0.000000,1.000000,-17.000000,-3.000000
1302878.049965,-4.000000,-21.000000,11.000000,-36.000000,-11.000000,0.000000,-15.000000,-10.000000
1302878.061969,-12.000000,-68.000000,-24.000000,17.000000,-2.000000,7.000000,31.000000,25.000000
1302878.061978,-30.000000,-40.000000,31.000000,10.000000,-5.000000,-5.000000,-33.000000,-23.000000
1302878.083693,-23.000000,-1.000000,-73.000000,-42.000000,-13.000000,-16.000000,-55.000000,-6.000000
1302878.083739,47.000000,6.000000,0.000000,-8.000000,3.000000,13.000000,12.000000,2.000000
1302878.084962,-6.000000,-6.000000,-84.000000,-32.000000,-14.000000,6.000000,25.000000,19.000000
1302878.084971,10.000000,27.000000,33.000000,-7.000000,11.000000,-1.000000,-59.000000,-10.000000
1302878.099124,-26.000000,-11.000000,-17.000000,-11.000000,-33.000000,-27.000000,16.000000,-26.000000
1302878.099135,44.000000,1.000000,-15.000000,19.000000,18.000000,21.000000,49.000000,32.000000
1302878.121337,-42.000000,-27.000000,15.000000,-66.000000,-28.000000,-16.000000,-23.000000,-21.000000
1302878.121348,-17.000000,-60.000000,-20.000000,57.000000,25.000000,-1.000000,-12.000000,-7.000000
1302878.136582,-14.000000,15.000000,21.000000,69.000000,19.000000,0.000000,-64.000000,-29.000000
1302878.136592,20.000000,7.000000,-11.000000,-10.000000,-1.000000,16.000000,64.000000,16.000000
1302878.158752,-20.000000,-23.000000,-46.000000,-18.000000,-8.000000,-12.000000,1.000000,-2.000000
1302878.158762,2.000000,-22.000000,-28.000000,-6.000000,-11.000000,-7.000000,-23.000000,-10.000000
1302878.166220,21.000000,3.000000,11.000000,-13.000000,0.000000,15.000000,-7.000000,2.000000
1302878.166232,-14.000000,-20.000000,-33.000000,-47.000000,-26.000000,-11.000000,-25.000000,-8.000000
1302878.167270,-1.000000,-8.000000,16.000000,-36.000000,-7.000000,-6.000000,2.000000,-1.000000
1302878.167305,10.000000,-3.000000,-22.000000,15.000000,-2.000000,3.000000,-17.000000,1.000000
1302878.167839,1.000000,-18.000000,-16.000000,-4.000000,11.000000,11.000000,-3.000000,-4.000000
1302878.167847,-3.000000,2.000000,-52.000000,-44.000000,-18.000000,-5.000000,50.000000,11.000000
1302878.169446,5.000000,-6.000000,19.000000,21.000000,21.000000,24.000000,18.000000,25.000000
1302878.169460,-30.000000,-11.000000,-56.000000,-37.000000,-22.000000,-17.000000,-52.000000,-27.000000
1302878.173572,29.000000,12.000000,28.000000,17.000000,5.000000,-3.000000,-4.000000,2.000000
1302878.173581,-36.000000,-8.000000,-29.000000,-6.000000,-22.000000,-17.000000,10.000000,6.000000
1302878.203656,-16.000000,-24.000000,-18.000000,-13.000000,-9.000000,-2.000000,-3.000000,-10.000000
1302878.203673,2.000000,11.000000,3.000000,32.000000,10.000000,-1.000000,-2.000000,0.000000
1302878.204045,37.000000,3.000000,35.000000,17.000000,20.000000,19.000000,-9.000000,15.000000
1302878.204053,-10.000000,10.000000,-23.000000,1.000000,7.000000,-4.000000,-33.000000,-4.000000
1302878.205550,4.000000,-2.000000,0.000000,10.000000,0.000000,6.000000,19.000000,4.000000
1302878.205569,-13.000000,-9.000000,-58.000000,11.000000,-2.000000,-6.000000,-19.000000,-17.000000
1302878.218858,6.000000,5.000000,-45.000000,-45.000000,-22.000000,-18.000000,-9.000000,0.000000
1302878.218868,20.000000,21.000000,16.000000,-42.000000,5.000000,19.000000,32.000000,14.000000
1302878.233924,1.000000,-9.000000,29.000000,-3.000000,-8.000000,-3.000000,-3.000000,0.000000
1302878.233935,-1.000000,-8.000000,-57.000000,18.000000,8.000000,6.000000,-40.000000,-9.000000
1302878.263909,16.000000,38.000000,89.000000,-9.000000,-1.000000,-10.000000,43.000000,13.000000
1302878.263930,-16.000000,-14.000000,-30.000000,11.000000,-10.000000,-8.000000,-8.000000,7.000000
1302878.264679,-21.000000,-14.000000,-14.000000,10.000000,7.000000,-6.000000,-41.000000,-22.000000
1302878.264688,-2.000000,9.000000,-27.000000,7.000000,11.000000,17.000000,13.000000,17.000000
1302878.265364,-1.000000,-1.000000,-22.000000,-36.000000,-8.000000,-18.000000,10.000000,3.000000
1302878.265373,-11.000000,-16.000000,20.000000,-48.000000,-26.000000,-7.000000,-24.000000,-9.000000
1302878.266969,-8.000000,-18.000000,13.000000,-10.000000,-16.000000,-8.000000,5.000000,3.000000
1302878.266978,-24.000000,5.000000,-27.000000,-14.000000,-9.000000,-18.000000,-100.000000,-24.000000
1302878.270962,-13.000000,5.000000,28.000000,-25.000000,-12.000000,-1.000000,93.000000,-1.000000
1302878.270971,-8.000000,-20.000000,-42.000000,-5.000000,2.000000,-4.000000,-52.000000,-12.000000
1302878.287059,22.000000,22.000000,-15.000000,23.000000,10.000000,8.000000,-14.000000,-8.000000
1302878.287068,-29.000000,-27.000000,-6.000000,-5.000000,-28.000000,-27.000000,-58.000000,-18.000000
1302878.294110,3.000000,10.000000,-18.000000,-32.000000,-24.000000,-12.000000,11.000000,-7.000000
1302878.294134,-27.000000,-33.000000,6.000000,-5.000000,9.000000,-6.000000,-59.000000,-20.000000
1302878.301270,-9.000000,-37.000000,-48.000000,-103.000000,-51.000000,-23.000000,34.000000,-4.000000
1302878.301298,9.000000,7.000000,36.000000,15.000000,4.000000,-12.000000,-22.000000,-13.000000
1302878.316271,-12.000000,28.000000,-21.000000,-46.000000,-24.000000,-8.000000,-15.000000,-8.000000
1302878.316300,16.000000,32.000000,24.000000,99.000000,54.000000,22.000000,-7.000000,8.000000
1302878.323652,-3.000000,-20.000000,-16.000000,-20.000000,-28.000000,-25.000000,-35.000000,-19.000000
1302878.323661,-1.000000,-2.000000,-35.000000,-59.000000,-2.000000,9.000000,21.000000,-5.000000
1302878.331602,6.000000,-2.000000,-38.000000,-13.000000,-13.000000,-7.000000,20.000000,14.000000
1302878.331613,-29.000000,3.000000,17.000000,41.000000,1.000000,-1.000000,-8.000000,-9.000000
1302878.361361,-10.000000,-15.000000,15.000000,-8.000000,-10.000000,-12.000000,-6.000000,-5.000000
1302878.361372,0.000000,-8.000000,2.000000,-59.000000,-15.000000,-5.000000,-24.000000,0.000000
1302878.376695,-6.000000,13.000000,-7.000000,49.000000,16.000000,-3.000000,7.000000,-3.000000
1302878.376708,13.000000,21.000000,23.000000,2.000000,-16.000000,-6.000000,14.000000,6.000000
1302878.384251,21.000000,-6.000000,-2.000000,56.000000,21.000000,9.000000,26.000000,16.000000
1302878.384265,-12.000000,13.000000,27.000000,-25.000000,8.000000,0.000000,-20.000000,-9.000000
1302878.384901,-24.000000,-28.000000,3.000000,-14.000000,-8.000000,7.000000,-23.000000,-16.000000
1302878.384911,-7.000000,7.000000,15.000000,10.000000,-10.000000,-17.000000,24.000000,-6.000000
1302878.386523,-6.000000,-33.000000,-30.000000,-54.000000,-22.000000,-8.000000,10.000000,1.000000
1302878.386533,4.000000,-2.000000,-8.000000,-74.000000,-23.000000,-14.000000,-30.000000,-16.000000
1302878.398895,-6.000000,13.000000,-13.000000,-10.000000,6.000000,15.000000,12.000000,14.000000
1302878.398911,-11.000000,-17.000000,-32.000000,-30.000000,-14.000000,2.000000,18.000000,25.000000
1302878.413758,-13.000000,-61.000000,55.000000,7.000000,-4.000000,-17.000000,-25.000000,-23.000000
1302878.413787,14.000000,23.000000,4.000000,46.000000,22.000000,22.000000,24.000000,18.000000
1302878.421315,19.000000,-24.000000,-12.000000,-48.000000,-19.000000,-7.000000,23.000000,16.000000
1302878.421325,-28.000000,0.000000,79.000000,65.000000,10.000000,0.000000,-37.000000,-16.000000
1302878.436867,-1.000000,0.000000,-17.000000,12.000000,3.000000,14.000000,29.000000,2.000000
1302878.436908,7.000000,-4.000000,18.000000,-8.000000,-8.000000,-8.000000,-55.000000,-32.000000
1302878.443872,30.000000,16.000000,-37.000000,-24.000000,-10.000000,-14.000000,9.000000,29.000000
1302878.443920,-45.000000,-40.000000,-23.000000,-16.000000,-12.000000,0.000000,59.000000,0.000000
1302878.488891,4.000000,0.000000,59.000000,-2.000000,10.000000,-5.000000,-9.000000,-2.000000
1302878.488928,2.000000,4.000000,-26.000000,-42.000000,-5.000000,6.000000,-26.000000,-10.000000
1302878.496460,9.000000,11.000000,-3.000000,11.000000,-6.000000,-3.000000,12.000000,11.000000
1302878.496471,-18.000000,-21.000000,-16.000000,28.000000,10.000000,-1.000000,-15.000000,-8.000000
1302878.518714,15.000000,16.000000,60.000000,12.000000,-7.000000,-7.000000,-5.000000,-1.000000
1302878.518747,34.000000,-2.000000,44.000000,100.000000,24.000000,20.000000,15.000000,13.000000
1302878.519267,-16.000000,-7.000000,-9.000000,-30.000000,-27.000000,-33.000000,-46.000000,-14.000000
1302878.519293,0.000000,13.000000,-4.000000,1.000000,21.000000,16.000000,50.000000,28.000000
1302878.521217,-4.000000,14.000000,11.000000,28.000000,19.000000,19.000000,5.000000,5.000000
1302878.521225,-4.000000,-48.000000,-73.000000,15.000000,-3.000000,11.000000,74.000000,30.000000
1302878.521816,1.000000,24.000000,-39.000000,-12.000000,-9.000000,-8.000000,-11.000000,-8.000000
1302878.521844,-6.000000,23.000000,59.000000,127.000000,33.000000,19.000000,-26.000000,-7.000000
1302878.522914,38.000000,19.000000,15.000000,33.000000,1.000000,-6.000000,-6.000000,-4.000000
1302878.522945,-50.000000,-20.000000,-13.000000,17.000000,6.000000,-4.000000,-7.000000,-9.000000
1302878.541421,-4.000000,11.000000,-7.000000,-37.000000,-16.000000,-13.000000,-9.000000,-2.000000
1302878.541460,-5.000000,-1.000000,8.000000,-9.000000,-5.000000,3.000000,5.000000,4.000000
1302878.542922,37.000000,-9.000000,-41.000000,-81.000000,-14.000000,1.000000,10.000000,13.000000
1302878.542937,-22.000000,-17.000000,-6.000000,3.000000,2.000000,6.000000,12.000000,-5.000000
1302878.563640,-17.000000,8.000000,36.000000,2.000000,8.000000,7.000000,-6.000000,-6.000000
1302878.563651,22.000000,27.000000,-9.000000,-31.000000,-20.000000,-24.000000,-27.000000,-3.000000
1302878.565037,-17.000000,-36.000000,5.000000,30.000000,18.000000,-12.000000,-52.000000,-31.000000
1302878.565044,-9.000000,-22.000000,-37.000000,-48.000000,-22.000000,3.000000,59.000000,29.000000
1302878.571300,-27.000000,12.000000,28.000000,92.000000,34.000000,20.000000,29.000000,10.000000
1302878.571329,21.000000,17.000000,-69.000000,-8.000000,8.000000,6.000000,-6.000000,-2.000000
1302878.594177,-15.000000,1.000000,22.000000,54.000000,21.000000,15.000000,11.000000,3.000000
1302878.594194,13.000000,-7.000000,-4.000000,-32.000000,-28.000000,-21.000000,-15.000000,0.000000
1302878.601465,-13.000000,-5.000000,8.000000,-11.000000,-16.000000,-10.000000,-25.000000,-13.000000
1302878.601496,12.000000,23.000000,5.000000,-21.000000,-9.000000,13.000000,32.000000,12.000000
1302878.616992,-10.000000,-13.000000,17.000000,52.000000,30.000000,18.000000,0.000000,-6.000000
1302878.617002,6.000000,-16.000000,-45.000000,-40.000000,-21.000000,-25.000000,-3.000000,9.000000
1302878.638686,3.000000,1.000000,17.000000,6.000000,-15.000000,-10.000000,-12.000000,-11.000000
1302878.638696,-31.000000,18.000000,-1.000000,-26.000000,-10.000000,1.000000,-1.000000,-4.000000
1302878.661514,5.000000,29.000000,46.000000,-2.000000,2.000000,1.000000,-6.000000,-9.000000
1302878.661526,2.000000,0.000000,-56.000000,-29.000000,-2.000000,2.000000,-13.000000,-2.000000
1302878.676311,4.000000,12.000000,19.000000,46.000000,-1.000000,-19.000000,-1.000000,-5.000000
1302878.676331,-13.000000,14.000000,21.000000,35.000000,8.000000,9.000000,23.000000,19.000000
1302878.677233,5.000000,-8.000000,-26.000000,-8.000000,-2.000000,-2.000000,-10.000000,-8.000000
1302878.677260,2.000000,-6.000000,-20.000000,-3.000000,-12.000000,-8.000000,-14.000000,-8.000000
1302878.677880,2.000000,21.000000,7.000000,-25.000000,3.000000,0.000000,-24.000000,-8.000000
1302878.677907,-10.000000,-10.000000,-5.000000,-29.000000,-13.000000,-6.000000,13.000000,-8.000000
1302878.679315,-6.000000,-5.000000,-20.000000,-17.000000,-6.000000,-9.000000,-22.000000,-10.000000
1302878.679330,29.000000,41.000000,15.000000,19.000000,16.000000,10.000000,-4.000000,9.000000
1302878.683691,-18.000000,-75.000000,4.000000,-69.000000,-34.000000,-9.000000,-36.000000,-25.000000
1302878.683700,7.000000,-7.000000,-40.000000,57.000000,25.000000,-9.000000,16.000000,15.000000
1302878.691210,27.000000,13.000000,98.000000,49.000000,7.000000,4.000000,39.000000,-1.000000
1302878.691226,-4.000000,-19.000000,-61.000000,11.000000,5.000000,-1.000000,-26.000000,-6.000000
1302878.714244,19.000000,22.000000,-17.000000,-53.000000,-18.000000,-19.000000,-3.000000,19.000000
1302878.714352,0.000000,15.000000,-35.000000,-14.000000,-6.000000,0.000000,26.000000,9.000000
1302878.721462,-4.000000,-18.000000,-40.000000,16.000000,3.000000,-3.000000,-24.000000,-10.000000
1302878.721472,3.000000,7.000000,17.000000,-31.000000,-8.000000,-10.000000,-47.000000,-6.000000
1302878.758835,-37.000000,-4.000000,7.000000,53.000000,8.000000,9.000000,26.000000,-20.000000
1302878.758845,13.000000,-9.000000,5.000000,5.000000,4.000000,0.000000,-44.000000,-17.000000
1302878.773854,-36.000000,-18.000000,-25.000000,7.000000,-4.000000,10.000000,90.000000,18.000000
1302878.773889,55.000000,25.000000,30.000000,125.000000,37.000000,-5.000000,1.000000,31.000000
1302878.774807,-28.000000,-5.000000,0.000000,-25.000000,-11.000000,-11.000000,-21.000000,-17.000000
1302878.774822,-3.000000,-22.000000,-116.000000,-22.000000,-1.000000,2.000000,-6.000000,-11.000000
1302878.775397,16.000000,21.000000,10.000000,-15.000000,-9.000000,-4.000000,-13.000000,-1.000000
1302878.775405,-18.000000,-35.000000,-4.000000,-37.000000,-14.000000,-3.000000,-11.000000,7.000000
1302878.776711,-3.000000,18.000000,3.000000,31.000000,8.000000,7.000000,-23.000000,-12.000000
1302878.776719,-20.000000,-4.000000,-5.000000,-29.000000,-16.000000,-21.000000,31.000000,-15.000000
1302878.777593,-22.000000,-1.000000,-26.000000,-94.000000,-41.000000,-10.000000,-28.000000,-10.000000
1302878.777601,6.000000,12.000000,-4.000000,-34.000000,10.000000,0.000000,9.000000,2.000000
1302878.781051,-13.000000,-56.000000,-20.000000,58.000000,10.000000,10.000000,-12.000000,-4.000000
1302878.781060,57.000000,37.000000,54.000000,-2.000000,-10.000000,-19.000000,38.000000,37.000000
1302878.796416,-1.000000,5.000000,-9.000000,2.000000,-10.000000,-3.000000,-36.000000,-14.000000
1302878.796451,-4.000000,-45.000000,-59.000000,-24.000000,-9.000000,-5.000000,34.000000,21.000000
1302878.818959,-2.000000,5.000000,55.000000,-21.000000,-9.000000,-1.000000,-12.000000,-5.000000
1302878.818980,-24.000000,-18.000000,-40.000000,23.000000,18.000000,1.000000,-20.000000,-19.000000
1302878.841671,1.000000,-4.000000,27.000000,-4.000000,0.000000,2.000000,1.000000,1.000000
1302878.841683,-9.000000,0.000000,4.000000,-13.000000,6.000000,0.000000,-7.000000,-9.000000
1302878.871345,-21.000000,-13.000000,-59.000000,-83.000000,-26.000000,-10.000000,-55.000000,-13.000000
1302878.871356,-11.000000,30.000000,62.000000,127.000000,50.000000,-4.000000,87.000000,15.000000
1302878.871593,-2.000000,-36.000000,2.000000,10.000000,19.000000,6.000000,33.000000,28.000000
1302878.871620,16.000000,3.000000,-22.000000,-20.000000,-11.000000,-4.000000,-16.000000,2.000000
1302878.873024,-44.000000,-41.000000,5.000000,-7.000000,6.000000,3.000000,11.000000,-1.000000
1302878.873046,9.000000,-10.000000,2.000000,-20.000000,-10.000000,-6.000000,-22.000000,-14.000000
1302878.873678,-3.000000,-8.000000,8.000000,-8.000000,0.000000,12.000000,-23.000000,-15.000000
1302878.873690,-6.000000,-12.000000,-25.000000,5.000000,-9.000000,-17.000000,17.000000,3.000000
1302878.874319,-11.000000,-20.000000,16.000000,19.000000,11.000000,-3.000000,-10.000000,-9.000000
1302878.874330,1.000000,15.000000,17.000000,-29.000000,-34.000000,-17.000000,-25.000000,-12.000000
1302878.874953,-29.000000,-2.000000,-43.000000,4.000000,17.000000,15.000000,12.000000,1.000000
1302878.874961,22.000000,2.000000,92.000000,62.000000,15.000000,16.000000,13.000000,11.000000
1302878.878546,-23.000000,41.000000,45.000000,-43.000000,-20.000000,-15.000000,-10.000000,-24.000000
1302878.878573,-5.000000,-33.000000,-38.000000,-33.000000,-7.000000,-3.000000,-10.000000,3.000000
1302878.894241,-18.000000,-3.000000,-8.000000,-17.000000,-11.000000,-7.000000,-10.000000,-9.000000
1302878.894255,5.000000,5.000000,-22.000000,6.000000,-13.000000,-19.000000,-1.000000,7.000000
1302878.908873,-24.000000,-8.000000,-13.000000,0.000000,-6.000000,-2.000000,-12.000000,-13.000000
1302878.908891,15.000000,3.000000,16.000000,6.000000,4.000000,9.000000,-30.000000,1.000000
1302878.916127,8.000000,34.000000,31.000000,71.000000,43.000000,37.000000,38.000000,30.000000
1302878.916137,7.000000,-5.000000,-16.000000,-7.000000,-25.000000,-6.000000,57.000000,0.000000
1302878.931603,-2.000000,-12.000000,0.000000,7.000000,-1.000000,-3.000000,10.000000,11.000000
1302878.931614,6.000000,-12.000000,13.000000,4.000000,5.000000,1.000000,-23.000000,-8.000000
1302878.954175,-20.000000,-15.000000,-40.000000,-88.000000,-11.000000,-9.000000,-45.000000,-22.000000
1302878.954187,-12.000000,26.000000,-3.000000,51.000000,14.000000,18.000000,2.000000,11.000000
1302878.976501,4.000000,-10.000000,-31.000000,-46.000000,-11.000000,-14.000000,15.000000,-14.000000
1302878.976512,10.000000,25.000000,24.000000,45.000000,4.000000,3.000000,20.000000,6.000000
1302878.991353,-1.000000,-8.000000,-6.000000,-4.000000,9.000000,24.000000,-18.000000,-12.000000
1302878.991370,-2.000000,11.000000,25.000000,-21.000000,-22.000000,-32.000000,-20.000000,-10.000000
1302878.992348,-2.000000,-21.000000,-49.000000,-32.000000,-13.000000,-9.000000,-21.000000,-10.000000
1302878.992357,-14.000000,37.000000,5.000000,18.000000,15.000000,11.000000,-3.000000,0.000000
1302878.992984,2.000000,7.000000,3.000000,-10.000000,-5.000000,11.000000,-7.000000,-2.000000
1302878.992992,-16.000000,-31.000000,-22.000000,-43.000000,-13.000000,-19.000000,-39.000000,-22.000000
1302878.994445,8.000000,-12.000000,-7.000000,-39.000000,-20.000000,-9.000000,35.000000,4.000000
1302878.994456,17.000000,19.000000,-11.000000,-92.000000,-16.000000,18.000000,59.000000,23.000000
1302878.995220,6.000000,-4.000000,13.000000,9.000000,-7.000000,-9.000000,-22.000000,0.000000
1302878.995239,0.000000,-10.000000,7.000000,-9.000000,2.000000,-5.000000,-29.000000,-23.000000
1302878.998861,-50.000000,-29.000000,-12.000000,-8.000000,-3.000000,8.000000,-13.000000,-12.000000
1302878.998897,-1.000000,-10.000000,-7.000000,-48.000000,-21.000000,-6.000000,14.000000,3.000000
1302879.013810,3.000000,12.000000,-13.000000,21.000000,3.000000,-1.000000,-6.000000,-7.000000
1302879.013823,-18.000000,-19.000000,20.000000,35.000000,4.000000,-8.000000,-31.000000,-1.000000
1302879.036641,50.000000,36.000000,15.000000,32.000000,26.000000,22.000000,44.000000,16.000000
1302879.036652,-16.000000,-34.000000,-25.000000,-43.000000,-27.000000,-30.000000,-17.000000,-5.000000
1302879.051401,-18.000000,-11.000000,-21.000000,-101.000000,-43.000000,-24.000000,-18.000000,-12.000000
1302879.051414,27.000000,36.000000,36.000000,50.000000,21.000000,18.000000,9.000000,17.000000
1302879.066231,0.000000,-2.000000,3.000000,-7.000000,6.000000,13.000000,-8.000000,-1.000000
1302879.066254,-27.000000,-47.000000,-26.000000,-48.000000,-30.000000,-20.000000,-32.000000,-23.000000
1302879.073929,37.000000,51.000000,36.000000,28.000000,4.000000,-2.000000,68.000000,36.000000
1302879.073940,-2.000000,-32.000000,-41.000000,-26.000000,-20.000000,-2.000000,-24.000000,-27.000000
1302879.119085,-11.000000,-32.000000,-31.000000,-40.000000,-12.000000,5.000000,8.000000,1.000000
1302879.119096,-22.000000,26.000000,14.000000,18.000000,11.000000,-5.000000,-51.000000,-11.000000
1302879.148662,-15.000000,-9.000000,4.000000,50.000000,16.000000,19.000000,83.000000,10.000000
1302879.148679,-6.000000,-37.000000,-17.000000,-99.000000,-29.000000,-26.000000,-36.000000,-4.000000
1302879.149147,25.000000,14.000000,17.000000,21.000000,-3.000000,4.000000,22.000000,7.000000
1302879.149165,20.000000,-11.000000,13.000000,-31.000000,0.000000,-1.000000,-14.000000,-2.000000
1302879.150325,-62.000000,-15.000000,-19.000000,-50.000000,5.000000,-4.000000,-42.000000,-28.000000
1302879.150334,55.000000,15.000000,-26.000000,17.000000,1.000000,-21.000000,13.000000,17.000000
1302879.171298,-14.000000,-14.000000,-41.000000,-21.000000,-19.000000,-18.000000,-44.000000,-16.000000
1302879.171308,24.000000,10.000000,20.000000,39.000000,9.000000,-3.000000,12.000000,16.000000
1302879.193909,-2.000000,6.000000,-6.000000,-15.000000,7.000000,2.000000,0.000000,9.000000
1302879.193935,-2.000000,11.000000,6.000000,16.000000,6.000000,-2.000000,-20.000000,-11.000000
1302879.216542,8.000000,17.000000,24.000000,-10.000000,1.000000,1.000000,7.000000,-5.000000
1302879.216553,11.000000,-14.000000,-26.000000,23.000000,4.000000,17.000000,23.000000,16.000000
1302879.231216,-4.000000,-16.000000,-23.000000,-92.000000,-24.000000,-15.000000,-21.000000,-7.000000
1302879.231226,-17.000000,-2.000000,22.000000,13.000000,29.000000,16.000000,-13.000000,-24.000000
1302879.232335,16.000000,17.000000,-19.000000,-46.000000,-42.000000,-27.000000,20.000000,27.000000
1302879.232354,-1.000000,-13.000000,-1.000000,-24.000000,-14.000000,16.000000,67.000000,23.000000
1302879.233077,15.000000,-4.000000,17.000000,-16.000000,-6.000000,-7.000000,-20.000000,-4.000000
1302879.233092,-7.000000,15.000000,1.000000,-5.000000,8.000000,7.000000,-17.000000,-12.000000
1302879.234302,-41.000000,-45.000000,21.000000,-24.000000,-9.000000,-8.000000,-49.000000,-14.000000
1302879.234311,-4.000000,-8.000000,-41.000000,-57.000000,-21.000000,-13.000000,2.000000,-6.000000
1302879.253694,-15.000000,-13.000000,19.000000,51.000000,6.000000,5.000000,-29.000000,-5.000000
1302879.253723,-8.000000,-34.000000,-71.000000,-51.000000,-22.000000,-22.000000,-36.000000,-15.000000
1302879.254889,36.000000,10.000000,-1.000000,-30.000000,-35.000000,-9.000000,18.000000,21.000000
1302879.254915,24.000000,52.000000,63.000000,45.000000,28.000000,18.000000,40.000000,21.000000
1302879.269087,-8.000000,2.000000,-34.000000,-5.000000,0.000000,11.000000,10.000000,-14.000000
1302879.269138,5.000000,-1.000000,45.000000,3.000000,-6.000000,-7.000000,9.000000,10.000000
1302879.291358,-37.000000,-16.000000,-58.000000,3.000000,14.000000,3.000000,-58.000000,-24.000000
1302879.291369,14.000000,-14.000000,36.000000,127.000000,40.000000,19.000000,73.000000,16.000000
1302879.314053,10.000000,-2.000000,40.000000,-17.000000,-7.000000,-14.000000,-29.000000,-9.000000
1302879.314068,-12.000000,2.000000,-30.000000,-23.000000,-8.000000,-11.000000,-33.000000,-9.000000
1302879.336370,2.000000,11.000000,1.000000,-39.000000,-15.000000,7.000000,-4.000000,-26.000000
1302879.336391,-8.000000,-6.000000,-8.000000,45.000000,6.000000,3.000000,37.000000,15.000000
1302879.351622,-2.000000,11.000000,11.000000,6.000000,-20.000000,-10.000000,-14.000000,-14.000000
1302879.351632,17.000000,-1.000000,-61.000000,36.000000,16.000000,5.000000,-11.000000,12.000000
1302879.373710,-4.000000,8.000000,40.000000,17.000000,15.000000,-1.000000,-21.000000,-17.000000
1302879.373743,23.000000,7.000000,25.000000,22.000000,11.000000,8.000000,27.000000,17.000000
1302879.374129,-39.000000,-19.000000,-45.000000,-7.000000,-10.000000,-12.000000,-10.000000,-3.000000
1302879.374137,34.000000,18.000000,-2.000000,13.000000,19.000000,17.000000,11.000000,-5.000000
1302879.375371,0.000000,33.000000,47.000000,127.000000,32.000000,10.000000,-20.000000,-8.000000
1302879.375391,15.000000,31.000000,-15.000000,-11.000000,12.000000,18.000000,-21.000000,-10.000000
1302879.376780,-7.000000,0.000000,-29.000000,-12.000000,-7.000000,-18.000000,-74.000000,-29.000000
1302879.376800,-4.000000,17.000000,-30.000000,-103.000000,-38.000000,-1.000000,56.000000,11.000000
1302879.404069,-6.000000,26.000000,1.000000,-10.000000,-3.000000,4.000000,34.000000,5.000000
1302879.404080,33.000000,8.000000,-41.000000,-62.000000,2.000000,4.000000,1.000000,10.000000
1302879.426450,-25.000000,2.000000,33.000000,10.000000,0.000000,-5.000000,10.000000,-3.000000
1302879.426481,24.000000,-4.000000,35.000000,-12.000000,-17.000000,-5.000000,0.000000,5.000000
1302879.433733,-21.000000,-11.000000,-40.000000,3.000000,4.000000,5.000000,-13.000000,-13.000000
1302879.433756,-13.000000,-12.000000,-38.000000,-5.000000,-12.000000,-12.000000,-22.000000,-12.000000
1302879.471392,23.000000,14.000000,3.000000,-25.000000,-6.000000,6.000000,29.000000,10.000000
1302879.471403,-43.000000,-37.000000,-28.000000,-20.000000,5.000000,-1.000000,-23.000000,-10.000000
1302879.471739,-15.000000,-7.000000,-8.000000,2.000000,-14.000000,-15.000000,-34.000000,-20.000000
1302879.471747,1.000000,22.000000,-7.000000,-16.000000,6.000000,24.000000,71.000000,11.000000
1302879.473643,5.000000,-11.000000,0.000000,31.000000,-1.000000,-9.000000,10.000000,4.000000
1302879.473661,-12.000000,-9.000000,-28.000000,-22.000000,2.000000,-6.000000,-58.000000,-37.000000
1302879.473869,9.000000,13.000000,22.000000,23.000000,-4.000000,1.000000,58.000000,27.000000
