# participant_id: P7
# gesture: medium
# trial_number: 1
# stream_name: Myo_EMG
# stream_type: emg
# timestamp: 20260420_151112
# samples: 5470
# duration_sec: 30.502
# nominal_sample_rate: 200.0
# effective_sample_rate: 179.30
#
timestamp,emg_1,emg_2,emg_3,emg_4,emg_5,emg_6,emg_7,emg_8
1302564.373547,-21.000000,-11.000000,14.000000,-31.000000,0.000000,-9.000000,-27.000000,-15.000000
1302564.373556,24.000000,31.000000,-20.000000,20.000000,15.000000,-1.000000,-25.000000,1.000000
1302564.380926,11.000000,37.000000,66.000000,21.000000,8.000000,6.000000,-60.000000,-11.000000
1302564.380961,-21.000000,-29.000000,0.000000,-18.000000,-9.000000,-9.000000,65.000000,0.000000
1302564.388817,5.000000,-46.000000,-43.000000,-33.000000,-30.000000,-15.000000,-11.000000,26.000000
1302564.388833,-16.000000,4.000000,6.000000,-10.000000,-14.000000,-13.000000,-34.000000,-26.000000
1302564.389339,2.000000,7.000000,18.000000,3.000000,3.000000,-7.000000,-35.000000,-9.000000
1302564.389367,5.000000,24.000000,50.000000,39.000000,-9.000000,22.000000,33.000000,9.000000
1302564.390543,-10.000000,-24.000000,-46.000000,-8.000000,7.000000,-8.000000,0.000000,-12.000000
1302564.390552,10.000000,38.000000,25.000000,44.000000,33.000000,21.000000,-21.000000,13.000000
1302564.391403,-3.000000,-21.000000,-48.000000,-80.000000,-55.000000,-39.000000,-31.000000,3.000000
1302564.391444,-15.000000,7.000000,14.000000,43.000000,6.000000,-2.000000,6.000000,-7.000000
1302564.395727,-2.000000,-20.000000,-26.000000,-13.000000,4.000000,-1.000000,-28.000000,-10.000000
1302564.395737,-19.000000,-26.000000,8.000000,-17.000000,-3.000000,4.000000,-25.000000,-5.000000
1302564.410796,-5.000000,9.000000,63.000000,-36.000000,-52.000000,-7.000000,56.000000,7.000000
1302564.410806,22.000000,21.000000,-24.000000,44.000000,30.000000,22.000000,0.000000,17.000000
1302564.433508,1.000000,-6.000000,13.000000,12.000000,2.000000,-8.000000,-32.000000,-31.000000
1302564.433518,29.000000,30.000000,15.000000,15.000000,65.000000,26.000000,-37.000000,17.000000
1302564.440917,-10.000000,-5.000000,-4.000000,6.000000,-34.000000,-11.000000,31.000000,-14.000000
1302564.440966,19.000000,-10.000000,-23.000000,-24.000000,27.000000,3.000000,45.000000,24.000000
1302564.456314,0.000000,16.000000,69.000000,83.000000,45.000000,17.000000,0.000000,-12.000000
1302564.456367,-22.000000,-44.000000,-24.000000,-36.000000,-17.000000,-3.000000,-35.000000,-22.000000
1302564.463787,0.000000,37.000000,-5.000000,-49.000000,-45.000000,-14.000000,-24.000000,6.000000
1302564.463797,-12.000000,-12.000000,45.000000,17.000000,-14.000000,-2.000000,-21.000000,-31.000000
1302564.478318,11.000000,31.000000,41.000000,-30.000000,-9.000000,19.000000,40.000000,42.000000
1302564.478328,9.000000,-5.000000,-57.000000,-36.000000,-25.000000,-15.000000,-12.000000,-6.000000
1302564.485676,-17.000000,-22.000000,-18.000000,-7.000000,6.000000,-12.000000,-26.000000,-35.000000
1302564.485691,2.000000,5.000000,10.000000,-1.000000,5.000000,-9.000000,12.000000,-4.000000
1302564.493440,3.000000,24.000000,35.000000,37.000000,12.000000,3.000000,-18.000000,-4.000000
1302564.493451,-8.000000,-15.000000,-26.000000,-13.000000,-18.000000,-17.000000,8.000000,-12.000000
1302564.508837,15.000000,-11.000000,-5.000000,-26.000000,-8.000000,4.000000,56.000000,21.000000
1302564.508856,-11.000000,8.000000,26.000000,15.000000,-10.000000,-9.000000,-27.000000,-14.000000
1302564.509575,-7.000000,19.000000,-11.000000,-7.000000,-28.000000,-10.000000,-7.000000,-13.000000
1302564.509584,-8.000000,-13.000000,-23.000000,-5.000000,3.000000,1.000000,-19.000000,-1.000000
1302564.510085,-10.000000,3.000000,-22.000000,-16.000000,-1.000000,20.000000,0.000000,-19.000000
1302564.510094,8.000000,4.000000,25.000000,51.000000,44.000000,2.000000,17.000000,21.000000
1302564.515913,-1.000000,26.000000,64.000000,0.000000,11.000000,2.000000,-9.000000,-12.000000
1302564.515932,-1.000000,-37.000000,-16.000000,-60.000000,-62.000000,-23.000000,3.000000,-10.000000
1302564.523328,13.000000,27.000000,-32.000000,-1.000000,17.000000,-2.000000,-12.000000,11.000000
1302564.523338,-33.000000,-33.000000,6.000000,28.000000,20.000000,-7.000000,-17.000000,-41.000000
1302564.546031,25.000000,-3.000000,-16.000000,-9.000000,-26.000000,17.000000,82.000000,68.000000
1302564.546043,9.000000,36.000000,15.000000,19.000000,3.000000,-2.000000,-31.000000,-6.000000
1302564.568702,-20.000000,-24.000000,18.000000,24.000000,10.000000,2.000000,-26.000000,-25.000000
1302564.568721,-10.000000,-25.000000,-49.000000,-4.000000,-9.000000,-9.000000,-34.000000,0.000000
1302564.591079,-3.000000,-8.000000,-8.000000,-38.000000,-21.000000,-12.000000,55.000000,16.000000
1302564.591090,-7.000000,-31.000000,5.000000,-2.000000,21.000000,18.000000,5.000000,-9.000000
1302564.598431,-10.000000,-37.000000,-95.000000,-57.000000,-62.000000,-41.000000,-12.000000,-41.000000
1302564.598442,-6.000000,6.000000,18.000000,-11.000000,3.000000,26.000000,-4.000000,-13.000000
1302564.613180,35.000000,11.000000,49.000000,28.000000,27.000000,38.000000,127.000000,114.000000
1302564.613212,2.000000,-16.000000,-22.000000,53.000000,40.000000,-4.000000,-34.000000,-10.000000
1302564.613734,-26.000000,26.000000,17.000000,15.000000,36.000000,-1.000000,-69.000000,-51.000000
1302564.613750,11.000000,22.000000,29.000000,-7.000000,6.000000,24.000000,34.000000,19.000000
1302564.614911,6.000000,9.000000,6.000000,6.000000,4.000000,-8.000000,-27.000000,-9.000000
1302564.614919,-20.000000,-28.000000,-54.000000,-3.000000,19.000000,2.000000,-36.000000,-26.000000
1302564.615541,-15.000000,-24.000000,14.000000,-61.000000,-44.000000,-18.000000,10.000000,-5.000000
1302564.615550,-4.000000,-4.000000,33.000000,33.000000,1.000000,3.000000,15.000000,-8.000000
1302564.616446,19.000000,-15.000000,-10.000000,18.000000,2.000000,-5.000000,-7.000000,19.000000
1302564.616455,-27.000000,-24.000000,-46.000000,-73.000000,-59.000000,-21.000000,-52.000000,-24.000000
1302564.628451,32.000000,29.000000,3.000000,85.000000,26.000000,24.000000,102.000000,-25.000000
1302564.628464,-2.000000,-38.000000,-23.000000,-10.000000,2.000000,-12.000000,-51.000000,2.000000
1302564.650913,-7.000000,-26.000000,-35.000000,-81.000000,6.000000,16.000000,-28.000000,4.000000
1302564.650994,30.000000,78.000000,102.000000,-23.000000,-29.000000,20.000000,42.000000,35.000000
1302564.665822,-4.000000,-6.000000,-25.000000,-9.000000,-14.000000,-8.000000,-5.000000,-4.000000
1302564.665851,3.000000,-1.000000,1.000000,-20.000000,-10.000000,0.000000,-18.000000,-3.000000
1302564.688536,3.000000,3.000000,2.000000,3.000000,9.000000,-5.000000,4.000000,2.000000
1302564.688547,-22.000000,-24.000000,-54.000000,-19.000000,-21.000000,-13.000000,-91.000000,-30.000000
1302564.710760,21.000000,33.000000,83.000000,53.000000,52.000000,30.000000,127.000000,49.000000
1302564.710770,-15.000000,-29.000000,-90.000000,-30.000000,-23.000000,-27.000000,-69.000000,2.000000
1302564.726478,-3.000000,-7.000000,12.000000,28.000000,37.000000,13.000000,6.000000,-27.000000
1302564.726489,22.000000,56.000000,20.000000,127.000000,111.000000,37.000000,21.000000,41.000000
1302564.727035,-8.000000,-24.000000,-27.000000,-64.000000,-48.000000,-34.000000,-30.000000,-4.000000
1302564.727043,2.000000,18.000000,-30.000000,24.000000,-7.000000,21.000000,-16.000000,-15.000000
1302564.728167,-21.000000,-19.000000,-30.000000,-16.000000,-5.000000,-8.000000,-9.000000,-9.000000
1302564.728175,-4.000000,-22.000000,-4.000000,-43.000000,-24.000000,3.000000,36.000000,5.000000
1302564.728796,2.000000,18.000000,29.000000,-23.000000,-25.000000,4.000000,33.000000,10.000000
1302564.728804,-22.000000,-30.000000,23.000000,46.000000,23.000000,-3.000000,-29.000000,-19.000000
1302564.729688,34.000000,12.000000,-23.000000,24.000000,2.000000,23.000000,92.000000,62.000000
1302564.729696,3.000000,12.000000,4.000000,2.000000,9.000000,5.000000,-21.000000,11.000000
1302564.733559,-13.000000,9.000000,12.000000,-14.000000,-13.000000,15.000000,-8.000000,-27.000000
1302564.733570,-14.000000,-17.000000,4.000000,-34.000000,-16.000000,-8.000000,-10.000000,3.000000
1302564.763390,27.000000,44.000000,28.000000,27.000000,-17.000000,-13.000000,-21.000000,-21.000000
1302564.763401,-12.000000,-7.000000,51.000000,-51.000000,-15.000000,1.000000,0.000000,-11.000000
1302564.764371,0.000000,40.000000,104.000000,24.000000,-37.000000,13.000000,9.000000,25.000000
1302564.764380,-3.000000,-12.000000,-46.000000,16.000000,13.000000,5.000000,53.000000,-7.000000
1302564.765241,23.000000,1.000000,11.000000,51.000000,9.000000,18.000000,18.000000,21.000000
1302564.765251,-13.000000,19.000000,9.000000,22.000000,10.000000,14.000000,-27.000000,-10.000000
1302564.801038,-5.000000,-20.000000,-19.000000,-123.000000,-69.000000,-24.000000,-12.000000,-10.000000
1302564.801056,-1.000000,-28.000000,-45.000000,-22.000000,6.000000,3.000000,42.000000,8.000000
1302564.808523,-17.000000,-40.000000,-28.000000,-9.000000,2.000000,0.000000,-4.000000,24.000000
1302564.808547,-15.000000,-7.000000,-24.000000,-11.000000,-14.000000,-1.000000,-48.000000,-36.000000
1302564.831275,2.000000,-9.000000,0.000000,-11.000000,4.000000,3.000000,14.000000,-3.000000
1302564.831303,5.000000,13.000000,-11.000000,-27.000000,-17.000000,-29.000000,-56.000000,-13.000000
1302564.846160,-17.000000,7.000000,-15.000000,27.000000,34.000000,13.000000,24.000000,-8.000000
1302564.846177,21.000000,-16.000000,-46.000000,0.000000,-7.000000,10.000000,31.000000,6.000000
1302564.868483,-2.000000,-13.000000,-17.000000,60.000000,19.000000,3.000000,-25.000000,16.000000
1302564.868494,-19.000000,-29.000000,23.000000,-18.000000,-18.000000,-16.000000,-42.000000,-26.000000
1302564.883923,-7.000000,-1.000000,-43.000000,11.000000,7.000000,9.000000,-18.000000,-17.000000
1302564.883940,10.000000,-33.000000,-11.000000,-73.000000,-59.000000,-28.000000,0.000000,55.000000
1302564.906136,19.000000,1.000000,-17.000000,58.000000,37.000000,29.000000,55.000000,-11.000000
1302564.906147,0.000000,15.000000,30.000000,2.000000,5.000000,-10.000000,-9.000000,6.000000
1302564.928548,2.000000,9.000000,-42.000000,-56.000000,-14.000000,4.000000,85.000000,39.000000
1302564.928637,16.000000,1.000000,4.000000,-17.000000,3.000000,-5.000000,-30.000000,4.000000
1302564.943631,-14.000000,-11.000000,11.000000,38.000000,23.000000,6.000000,-17.000000,-11.000000
1302564.943642,28.000000,68.000000,49.000000,-16.000000,-4.000000,16.000000,-41.000000,2.000000
1302564.950917,-6.000000,-39.000000,-43.000000,-20.000000,-2.000000,4.000000,35.000000,-14.000000
1302564.950928,-10.000000,-5.000000,-7.000000,0.000000,6.000000,-5.000000,-16.000000,1.000000
1302564.958676,-3.000000,-3.000000,-12.000000,0.000000,4.000000,1.000000,-10.000000,-10.000000
1302564.958695,-12.000000,-3.000000,24.000000,44.000000,19.000000,1.000000,-50.000000,-20.000000
1302564.965838,15.000000,60.000000,105.000000,51.000000,16.000000,10.000000,85.000000,39.000000
1302564.965848,17.000000,-4.000000,-17.000000,4.000000,24.000000,31.000000,45.000000,45.000000
1302564.968387,-14.000000,-12.000000,7.000000,-27.000000,-33.000000,-5.000000,-9.000000,12.000000
1302564.968402,15.000000,-2.000000,-34.000000,17.000000,19.000000,-3.000000,-46.000000,-15.000000
1302564.969740,-11.000000,-21.000000,-42.000000,-66.000000,-47.000000,-37.000000,9.000000,-18.000000
1302564.969748,47.000000,70.000000,51.000000,116.000000,102.000000,53.000000,75.000000,67.000000
1302564.988218,-15.000000,-21.000000,-18.000000,-3.000000,-7.000000,-9.000000,-20.000000,-7.000000
1302564.988230,-14.000000,-12.000000,-14.000000,-3.000000,-25.000000,-11.000000,-77.000000,-13.000000
1302564.989904,2.000000,13.000000,0.000000,-56.000000,-55.000000,21.000000,23.000000,-41.000000
1302564.989940,14.000000,-39.000000,-24.000000,41.000000,53.000000,17.000000,90.000000,71.000000
1302565.003497,-4.000000,17.000000,-1.000000,5.000000,11.000000,4.000000,-28.000000,1.000000
1302565.003514,-14.000000,-17.000000,-3.000000,-11.000000,-22.000000,-17.000000,-45.000000,-36.000000
1302565.018895,1.000000,37.000000,20.000000,-21.000000,-18.000000,-9.000000,-2.000000,12.000000
1302565.018908,-5.000000,-29.000000,-56.000000,-52.000000,-15.000000,8.000000,1.000000,5.000000
1302565.026315,4.000000,20.000000,112.000000,90.000000,29.000000,23.000000,-5.000000,20.000000
1302565.026325,-15.000000,-3.000000,82.000000,5.000000,-15.000000,-12.000000,10.000000,-16.000000
1302565.040705,21.000000,29.000000,45.000000,-43.000000,-27.000000,16.000000,49.000000,40.000000
1302565.040714,-7.000000,-28.000000,-59.000000,-22.000000,9.000000,-3.000000,0.000000,-3.000000
1302565.048328,3.000000,7.000000,-23.000000,-10.000000,1.000000,-7.000000,-59.000000,-10.000000
1302565.048336,-24.000000,-32.000000,-10.000000,-53.000000,-31.000000,-6.000000,12.000000,-54.000000
1302565.078387,24.000000,25.000000,-7.000000,89.000000,85.000000,35.000000,70.000000,55.000000
1302565.078405,-1.000000,16.000000,22.000000,-14.000000,-18.000000,-12.000000,-25.000000,-8.000000
1302565.078841,-6.000000,-7.000000,5.000000,1.000000,-18.000000,-12.000000,-47.000000,-27.000000
1302565.078876,-10.000000,0.000000,1.000000,-20.000000,-19.000000,-8.000000,-18.000000,-9.000000
1302565.080226,1.000000,-11.000000,-26.000000,-10.000000,-33.000000,-23.000000,39.000000,-7.000000
1302565.080240,-8.000000,-30.000000,-30.000000,-14.000000,-12.000000,13.000000,5.000000,27.000000
1302565.080995,-16.000000,9.000000,-10.000000,-13.000000,-11.000000,-13.000000,-86.000000,-39.000000
1302565.081004,-3.000000,-11.000000,35.000000,19.000000,14.000000,17.000000,77.000000,22.000000
1302565.100957,42.000000,49.000000,29.000000,11.000000,16.000000,8.000000,10.000000,10.000000
1302565.100969,-4.000000,0.000000,-11.000000,39.000000,19.000000,-2.000000,-35.000000,-1.000000
1302565.101592,6.000000,-2.000000,9.000000,9.000000,11.000000,4.000000,19.000000,22.000000
1302565.101600,-2.000000,-17.000000,-15.000000,-27.000000,-12.000000,-6.000000,-28.000000,-3.000000
1302565.109033,-17.000000,-18.000000,-37.000000,-64.000000,-34.000000,-34.000000,-32.000000,-33.000000
1302565.109043,13.000000,17.000000,48.000000,56.000000,48.000000,19.000000,13.000000,14.000000
1302565.123667,-6.000000,8.000000,-10.000000,4.000000,-2.000000,-19.000000,-24.000000,-8.000000
1302565.123683,-7.000000,-21.000000,0.000000,-19.000000,-4.000000,5.000000,-42.000000,-42.000000
1302565.160894,13.000000,30.000000,25.000000,66.000000,58.000000,-1.000000,96.000000,28.000000
1302565.160905,13.000000,-7.000000,-27.000000,23.000000,47.000000,22.000000,-62.000000,37.000000
1302565.168543,-12.000000,1.000000,11.000000,-14.000000,-9.000000,-14.000000,30.000000,-13.000000
1302565.168560,-9.000000,2.000000,5.000000,-4.000000,-20.000000,5.000000,-23.000000,7.000000
1302565.206354,7.000000,17.000000,30.000000,-27.000000,-34.000000,-25.000000,8.000000,35.000000
1302565.206364,-5.000000,2.000000,55.000000,58.000000,22.000000,19.000000,50.000000,21.000000
1302565.206762,-2.000000,27.000000,13.000000,-25.000000,-45.000000,-6.000000,-16.000000,13.000000
1302565.206771,6.000000,-19.000000,-8.000000,-9.000000,-22.000000,-2.000000,-2.000000,-21.000000
1302565.207461,-10.000000,-22.000000,-16.000000,-93.000000,-69.000000,-13.000000,-4.000000,-11.000000
1302565.207469,8.000000,27.000000,23.000000,-7.000000,14.000000,-3.000000,-2.000000,-1.000000
1302565.208184,-1.000000,-15.000000,-22.000000,-6.000000,-10.000000,-5.000000,-10.000000,-8.000000
1302565.208192,-2.000000,-16.000000,-10.000000,-46.000000,-16.000000,-2.000000,18.000000,19.000000
1302565.209713,-5.000000,-22.000000,-58.000000,3.000000,-3.000000,-23.000000,-53.000000,-8.000000
1302565.209723,7.000000,34.000000,85.000000,-38.000000,-50.000000,-7.000000,-3.000000,-11.000000
1302565.220856,-4.000000,9.000000,-10.000000,-12.000000,-1.000000,-8.000000,-35.000000,-20.000000
1302565.220885,-6.000000,2.000000,3.000000,-19.000000,-2.000000,1.000000,-29.000000,3.000000
1302565.229022,-15.000000,-53.000000,-82.000000,-45.000000,-9.000000,-4.000000,7.000000,-31.000000
1302565.229065,23.000000,42.000000,28.000000,127.000000,119.000000,36.000000,74.000000,75.000000
1302565.235794,7.000000,24.000000,28.000000,1.000000,-1.000000,4.000000,8.000000,7.000000
1302565.235803,-25.000000,2.000000,-6.000000,-23.000000,-22.000000,-12.000000,-20.000000,-21.000000
1302565.280882,16.000000,-6.000000,-40.000000,-27.000000,2.000000,11.000000,9.000000,16.000000
1302565.280901,3.000000,-16.000000,-4.000000,12.000000,1.000000,-9.000000,31.000000,-10.000000
1302565.288591,8.000000,7.000000,-8.000000,16.000000,11.000000,9.000000,12.000000,45.000000
1302565.288602,-15.000000,-10.000000,-8.000000,-50.000000,-42.000000,13.000000,-42.000000,-21.000000
1302565.303249,-8.000000,-3.000000,9.000000,-19.000000,5.000000,-27.000000,9.000000,-7.000000
1302565.303259,24.000000,43.000000,56.000000,60.000000,66.000000,31.000000,35.000000,43.000000
1302565.303730,-9.000000,-37.000000,-15.000000,-44.000000,2.000000,-9.000000,-14.000000,-21.000000
1302565.303739,2.000000,-4.000000,21.000000,-1.000000,-8.000000,-7.000000,-5.000000,-14.000000
1302565.304990,3.000000,2.000000,0.000000,-51.000000,-27.000000,-6.000000,-57.000000,-12.000000
1302565.305000,25.000000,11.000000,-24.000000,-18.000000,-21.000000,-4.000000,63.000000,33.000000
1302565.305905,-18.000000,-30.000000,-72.000000,-26.000000,2.000000,-2.000000,-34.000000,-17.000000
1302565.305922,-11.000000,5.000000,23.000000,-4.000000,-28.000000,-24.000000,1.000000,-4.000000
1302565.311530,11.000000,10.000000,-39.000000,-4.000000,2.000000,5.000000,-37.000000,9.000000
1302565.311544,-21.000000,-23.000000,0.000000,-114.000000,-52.000000,-57.000000,-69.000000,-79.000000
1302565.318521,28.000000,14.000000,1.000000,30.000000,11.000000,34.000000,111.000000,55.000000
1302565.318552,-15.000000,-3.000000,-20.000000,-10.000000,7.000000,16.000000,-91.000000,-43.000000
1302565.341449,21.000000,0.000000,-2.000000,-8.000000,-7.000000,-4.000000,74.000000,13.000000
1302565.341459,-13.000000,-8.000000,-37.000000,50.000000,37.000000,13.000000,-12.000000,-1.000000
1302565.342099,3.000000,9.000000,64.000000,4.000000,3.000000,2.000000,-8.000000,-7.000000
1302565.342106,-12.000000,-1.000000,-22.000000,-40.000000,-33.000000,-32.000000,-34.000000,-17.000000
1302565.356697,10.000000,-5.000000,37.000000,66.000000,42.000000,18.000000,17.000000,13.000000
1302565.356804,3.000000,8.000000,-21.000000,18.000000,-16.000000,4.000000,-1.000000,-2.000000
1302565.363747,5.000000,-14.000000,-13.000000,-2.000000,7.000000,9.000000,27.000000,39.000000
1302565.363768,-22.000000,-9.000000,-39.000000,-34.000000,-10.000000,-8.000000,-23.000000,-15.000000
1302565.385856,15.000000,21.000000,11.000000,73.000000,13.000000,17.000000,-3.000000,7.000000
1302565.385866,4.000000,12.000000,79.000000,36.000000,18.000000,-13.000000,13.000000,-6.000000
1302565.401201,-15.000000,-24.000000,-43.000000,-43.000000,-19.000000,-9.000000,14.000000,24.000000
1302565.401212,0.000000,-4.000000,3.000000,31.000000,22.000000,5.000000,15.000000,-11.000000
1302565.416188,10.000000,8.000000,12.000000,0.000000,6.000000,14.000000,3.000000,27.000000
1302565.416218,-3.000000,-3.000000,-4.000000,-11.000000,-10.000000,-14.000000,-3.000000,-20.000000
1302565.416734,-18.000000,-25.000000,-4.000000,-10.000000,-3.000000,1.000000,-38.000000,-9.000000
1302565.416742,14.000000,-19.000000,-35.000000,-14.000000,5.000000,-10.000000,22.000000,22.000000
1302565.418266,2.000000,13.000000,40.000000,77.000000,41.000000,3.000000,-12.000000,4.000000
1302565.418294,-7.000000,17.000000,-6.000000,-5.000000,14.000000,11.000000,73.000000,-19.000000
1302565.419047,18.000000,-5.000000,-33.000000,-17.000000,-2.000000,-19.000000,-23.000000,8.000000
1302565.419061,7.000000,55.000000,80.000000,-13.000000,-10.000000,2.000000,-11.000000,-6.000000
1302565.432113,0.000000,7.000000,9.000000,12.000000,-14.000000,-4.000000,-27.000000,-20.000000
1302565.432124,3.000000,-16.000000,-22.000000,-38.000000,-37.000000,-17.000000,35.000000,19.000000
1302565.438816,-22.000000,-49.000000,-49.000000,10.000000,28.000000,-4.000000,-12.000000,-9.000000
1302565.438831,-7.000000,5.000000,22.000000,-7.000000,-14.000000,-3.000000,-7.000000,-3.000000
1302565.460951,-16.000000,-34.000000,5.000000,-15.000000,-29.000000,-12.000000,-38.000000,-29.000000
1302565.460979,26.000000,31.000000,-7.000000,-31.000000,-11.000000,1.000000,47.000000,15.000000
1302565.483673,-12.000000,-21.000000,7.000000,-20.000000,5.000000,-1.000000,-13.000000,-12.000000
1302565.483685,1.000000,20.000000,18.000000,-15.000000,-15.000000,-15.000000,-47.000000,-7.000000
1302565.505884,-13.000000,-40.000000,-36.000000,-18.000000,-18.000000,-38.000000,-50.000000,-20.000000
1302565.505900,9.000000,54.000000,57.000000,20.000000,-18.000000,38.000000,44.000000,2.000000
1302565.513313,13.000000,-26.000000,-74.000000,12.000000,15.000000,-4.000000,83.000000,44.000000
1302565.513340,5.000000,25.000000,91.000000,21.000000,-1.000000,-3.000000,-25.000000,3.000000
1302565.558415,1.000000,4.000000,30.000000,-21.000000,-9.000000,25.000000,-32.000000,-5.000000
1302565.558444,10.000000,27.000000,3.000000,-118.000000,-98.000000,-22.000000,-20.000000,18.000000
1302565.565827,-16.000000,-28.000000,-11.000000,21.000000,2.000000,7.000000,54.000000,-30.000000
1302565.565836,-5.000000,-6.000000,-21.000000,-19.000000,-34.000000,-21.000000,-8.000000,0.000000
1302565.580731,-10.000000,-10.000000,4.000000,20.000000,-2.000000,1.000000,-48.000000,-16.000000
1302565.580742,1.000000,13.000000,-8.000000,-8.000000,-5.000000,-4.000000,107.000000,10.000000
1302565.581897,19.000000,14.000000,-39.000000,-11.000000,12.000000,15.000000,2.000000,-1.000000
1302565.581907,-14.000000,-14.000000,-19.000000,27.000000,28.000000,-22.000000,-49.000000,-24.000000
1302565.582573,-20.000000,-33.000000,-39.000000,-23.000000,-5.000000,4.000000,-4.000000,-3.000000
1302565.582581,5.000000,37.000000,2.000000,34.000000,44.000000,9.000000,-22.000000,0.000000
1302565.583410,-15.000000,-23.000000,-55.000000,-12.000000,3.000000,9.000000,-10.000000,-4.000000
1302565.583419,-3.000000,-5.000000,20.000000,16.000000,9.000000,-7.000000,-36.000000,-12.000000
1302565.618568,-12.000000,20.000000,33.000000,25.000000,10.000000,-4.000000,-51.000000,-11.000000
1302565.618579,5.000000,-7.000000,-40.000000,-26.000000,-5.000000,-10.000000,42.000000,-16.000000
1302565.633353,1.000000,-12.000000,11.000000,33.000000,9.000000,11.000000,-35.000000,-3.000000
1302565.633377,-5.000000,4.000000,10.000000,-37.000000,-38.000000,-17.000000,8.000000,-4.000000
1302565.655734,6.000000,8.000000,5.000000,-3.000000,17.000000,31.000000,48.000000,5.000000
1302565.655763,15.000000,9.000000,-4.000000,-18.000000,-15.000000,-1.000000,-43.000000,-7.000000
1302565.678589,-16.000000,-24.000000,-14.000000,-19.000000,-8.000000,-9.000000,28.000000,17.000000
1302565.678626,-8.000000,16.000000,31.000000,82.000000,15.000000,14.000000,-21.000000,-8.000000
1302565.679495,-11.000000,-7.000000,-80.000000,-42.000000,-24.000000,-17.000000,-35.000000,-25.000000
1302565.679530,40.000000,54.000000,127.000000,24.000000,-20.000000,3.000000,54.000000,20.000000
1302565.680455,-23.000000,-20.000000,0.000000,-115.000000,-88.000000,-26.000000,15.000000,18.000000
1302565.680483,12.000000,-10.000000,-16.000000,2.000000,-4.000000,22.000000,43.000000,5.000000
1302565.681492,-3.000000,0.000000,-7.000000,27.000000,14.000000,4.000000,0.000000,-5.000000
1302565.681501,-10.000000,-33.000000,-37.000000,9.000000,27.000000,3.000000,18.000000,18.000000
1302565.693930,9.000000,21.000000,60.000000,-16.000000,9.000000,-8.000000,-51.000000,-3.000000
1302565.693978,8.000000,11.000000,-25.000000,-3.000000,7.000000,16.000000,73.000000,4.000000
1302565.700916,-5.000000,-43.000000,-40.000000,87.000000,17.000000,-8.000000,-48.000000,8.000000
1302565.700933,6.000000,-5.000000,23.000000,-23.000000,-14.000000,5.000000,38.000000,5.000000
1302565.723640,-7.000000,1.000000,-61.000000,-4.000000,8.000000,-9.000000,-31.000000,-19.000000
1302565.723651,12.000000,11.000000,85.000000,11.000000,-14.000000,34.000000,-8.000000,26.000000
1302565.738551,6.000000,3.000000,-20.000000,-2.000000,0.000000,1.000000,59.000000,11.000000
1302565.738568,12.000000,-3.000000,18.000000,4.000000,8.000000,4.000000,37.000000,42.000000
1302565.776161,-6.000000,3.000000,14.000000,9.000000,10.000000,-2.000000,-20.000000,-11.000000
1302565.776173,-5.000000,-25.000000,-56.000000,-21.000000,5.000000,-13.000000,-74.000000,-22.000000
1302565.783583,6.000000,48.000000,75.000000,89.000000,21.000000,-15.000000,45.000000,19.000000
1302565.783594,-30.000000,-77.000000,-65.000000,-15.000000,-3.000000,-5.000000,-28.000000,-41.000000
1302565.798851,15.000000,-12.000000,-27.000000,-24.000000,-26.000000,-13.000000,5.000000,22.000000
1302565.798896,2.000000,-5.000000,-2.000000,-14.000000,-7.000000,17.000000,44.000000,6.000000
1302565.799401,-6.000000,-13.000000,-36.000000,-22.000000,-31.000000,-8.000000,-40.000000,-6.000000
1302565.799410,-15.000000,3.000000,48.000000,45.000000,28.000000,16.000000,35.000000,-13.000000
1302565.800679,-6.000000,-12.000000,-16.000000,45.000000,27.000000,15.000000,0.000000,-3.000000
1302565.800706,8.000000,22.000000,11.000000,1.000000,-15.000000,-18.000000,-23.000000,-21.000000
1302565.802254,25.000000,-6.000000,3.000000,-9.000000,3.000000,-3.000000,32.000000,23.000000
1302565.802263,-10.000000,5.000000,24.000000,62.000000,37.000000,8.000000,-25.000000,-18.000000
1302565.821484,-3.000000,-12.000000,-52.000000,-62.000000,-47.000000,-5.000000,-35.000000,-2.000000
1302565.821499,0.000000,-5.000000,15.000000,71.000000,24.000000,-7.000000,70.000000,-16.000000
1302565.822145,1.000000,-17.000000,-51.000000,-14.000000,0.000000,-11.000000,-33.000000,17.000000
1302565.822155,-9.000000,-32.000000,-42.000000,-14.000000,-17.000000,-9.000000,-26.000000,-11.000000
1302565.843488,-3.000000,4.000000,-12.000000,-15.000000,-27.000000,-4.000000,24.000000,15.000000
1302565.843506,-23.000000,2.000000,16.000000,2.000000,-3.000000,-7.000000,-18.000000,-25.000000
1302565.850647,33.000000,33.000000,32.000000,0.000000,10.000000,17.000000,8.000000,7.000000
1302565.850656,2.000000,-11.000000,-26.000000,11.000000,-3.000000,-5.000000,32.000000,14.000000
1302565.874071,-21.000000,-26.000000,-41.000000,-21.000000,-10.000000,4.000000,-21.000000,-32.000000
1302565.874101,-2.000000,8.000000,10.000000,-15.000000,-28.000000,3.000000,13.000000,-5.000000
1302565.880835,4.000000,-1.000000,17.000000,34.000000,18.000000,2.000000,4.000000,-5.000000
1302565.880845,5.000000,11.000000,7.000000,8.000000,21.000000,-5.000000,-9.000000,-22.000000
1302565.910861,0.000000,-34.000000,-35.000000,3.000000,-11.000000,18.000000,91.000000,62.000000
1302565.910872,-26.000000,-5.000000,13.000000,-16.000000,-9.000000,-22.000000,-52.000000,-28.000000
1302565.911574,-1.000000,4.000000,-16.000000,-35.000000,-17.000000,7.000000,-26.000000,-13.000000
1302565.911583,12.000000,5.000000,52.000000,-1.000000,55.000000,20.000000,39.000000,32.000000
1302565.912587,-11.000000,22.000000,-4.000000,-12.000000,8.000000,2.000000,-5.000000,-7.000000
1302565.912603,0.000000,-14.000000,37.000000,-6.000000,-14.000000,-17.000000,-48.000000,-10.000000
1302565.913351,2.000000,-2.000000,-40.000000,-13.000000,31.000000,-2.000000,34.000000,3.000000
1302565.913359,-6.000000,-35.000000,5.000000,32.000000,38.000000,12.000000,1.000000,16.000000
1302565.915084,-3.000000,21.000000,-5.000000,0.000000,22.000000,30.000000,3.000000,1.000000
1302565.915095,-1.000000,-27.000000,-59.000000,-58.000000,-68.000000,-42.000000,-14.000000,-14.000000
1302565.918626,-12.000000,-1.000000,84.000000,11.000000,-3.000000,11.000000,-14.000000,-28.000000
1302565.918637,10.000000,-4.000000,16.000000,-20.000000,-5.000000,-18.000000,20.000000,30.000000
1302565.948448,19.000000,2.000000,-3.000000,11.000000,1.000000,11.000000,43.000000,9.000000
1302565.948459,-28.000000,-12.000000,14.000000,9.000000,0.000000,-4.000000,-43.000000,-12.000000
1302565.956069,13.000000,48.000000,80.000000,35.000000,27.000000,11.000000,1.000000,-23.000000
1302565.956080,17.000000,18.000000,11.000000,21.000000,5.000000,21.000000,78.000000,53.000000
1302565.978415,-4.000000,-17.000000,-41.000000,-20.000000,-9.000000,-16.000000,-66.000000,-15.000000
1302565.978464,-10.000000,7.000000,39.000000,-9.000000,52.000000,40.000000,65.000000,13.000000
1302565.985837,-26.000000,-49.000000,-72.000000,-4.000000,-1.000000,-17.000000,-9.000000,-11.000000
1302565.985848,20.000000,15.000000,21.000000,25.000000,21.000000,9.000000,15.000000,27.000000
1302566.000895,-4.000000,-8.000000,-42.000000,-32.000000,-24.000000,-22.000000,-14.000000,-11.000000
1302566.000906,-16.000000,-10.000000,13.000000,7.000000,-6.000000,1.000000,-15.000000,-11.000000
1302566.016159,-16.000000,-14.000000,-26.000000,-26.000000,-14.000000,9.000000,-16.000000,9.000000
1302566.016182,19.000000,37.000000,26.000000,0.000000,-5.000000,-6.000000,30.000000,-1.000000
1302566.038749,10.000000,-10.000000,-9.000000,0.000000,8.000000,12.000000,29.000000,16.000000
1302566.038770,-2.000000,16.000000,1.000000,34.000000,-6.000000,2.000000,-24.000000,-1.000000
1302566.039354,25.000000,32.000000,10.000000,3.000000,-18.000000,-11.000000,66.000000,1.000000
1302566.039383,-7.000000,-2.000000,30.000000,22.000000,22.000000,17.000000,-14.000000,-1.000000
1302566.040674,0.000000,1.000000,10.000000,25.000000,10.000000,-13.000000,-19.000000,-7.000000
1302566.040702,3.000000,-14.000000,-31.000000,2.000000,12.000000,12.000000,-20.000000,-42.000000
1302566.041252,-10.000000,7.000000,37.000000,33.000000,20.000000,-15.000000,0.000000,-2.000000
1302566.041279,4.000000,19.000000,17.000000,-15.000000,-16.000000,3.000000,-1.000000,-8.000000
1302566.053976,4.000000,7.000000,8.000000,29.000000,27.000000,5.000000,-6.000000,3.000000
1302566.053985,-5.000000,19.000000,9.000000,-18.000000,-17.000000,3.000000,23.000000,1.000000
1302566.061007,18.000000,32.000000,46.000000,-29.000000,-38.000000,14.000000,-12.000000,21.000000
1302566.061017,-11.000000,-20.000000,-5.000000,2.000000,-10.000000,-7.000000,18.000000,-28.000000
1302566.098339,-1.000000,-17.000000,-46.000000,-59.000000,-38.000000,-17.000000,-16.000000,11.000000
1302566.098350,2.000000,15.000000,-36.000000,61.000000,45.000000,9.000000,15.000000,10.000000
1302566.106046,3.000000,-2.000000,19.000000,-17.000000,-13.000000,-24.000000,-74.000000,-21.000000
1302566.106061,-21.000000,-91.000000,-84.000000,5.000000,48.000000,14.000000,24.000000,6.000000
1302566.120853,23.000000,54.000000,82.000000,19.000000,15.000000,10.000000,16.000000,1.000000
1302566.120864,6.000000,-1.000000,-5.000000,-40.000000,-17.000000,5.000000,-19.000000,2.000000
1302566.128550,-6.000000,5.000000,-17.000000,-3.000000,2.000000,-2.000000,-50.000000,-8.000000
1302566.128589,-3.000000,5.000000,7.000000,-20.000000,-13.000000,-7.000000,68.000000,14.000000
1302566.150925,-3.000000,23.000000,-33.000000,50.000000,38.000000,7.000000,-42.000000,-8.000000
1302566.150935,32.000000,9.000000,-37.000000,-50.000000,-19.000000,15.000000,16.000000,29.000000
1302566.173613,3.000000,6.000000,-18.000000,-41.000000,-33.000000,-21.000000,16.000000,24.000000
1302566.173623,-5.000000,-8.000000,-14.000000,-8.000000,-9.000000,2.000000,3.000000,-15.000000
1302566.196283,8.000000,27.000000,-30.000000,-9.000000,17.000000,13.000000,0.000000,36.000000
1302566.196309,-11.000000,8.000000,41.000000,-24.000000,-21.000000,8.000000,-6.000000,-16.000000
1302566.218556,0.000000,6.000000,39.000000,12.000000,17.000000,-7.000000,1.000000,2.000000
1302566.218576,-6.000000,0.000000,-38.000000,-2.000000,11.000000,-5.000000,9.000000,-6.000000
1302566.248450,-7.000000,-16.000000,-9.000000,57.000000,24.000000,-2.000000,-10.000000,-6.000000
1302566.248459,-17.000000,3.000000,9.000000,13.000000,1.000000,-8.000000,-37.000000,-1.000000
1302566.255904,-12.000000,-6.000000,-54.000000,-14.000000,-23.000000,-12.000000,32.000000,-49.000000
1302566.255929,2.000000,7.000000,-28.000000,18.000000,19.000000,-3.000000,16.000000,26.000000
1302566.263735,27.000000,21.000000,-57.000000,8.000000,16.000000,26.000000,109.000000,22.000000
1302566.263750,-8.000000,-4.000000,6.000000,4.000000,16.000000,11.000000,-19.000000,-7.000000
1302566.271168,-8.000000,6.000000,-7.000000,-15.000000,-6.000000,1.000000,17.000000,-11.000000
1302566.271227,17.000000,16.000000,25.000000,54.000000,36.000000,34.000000,50.000000,24.000000
1302566.272501,4.000000,3.000000,-30.000000,-44.000000,-21.000000,-6.000000,-45.000000,-16.000000
1302566.272509,1.000000,-30.000000,-13.000000,11.000000,-20.000000,-15.000000,63.000000,11.000000
1302566.273953,11.000000,9.000000,48.000000,49.000000,46.000000,26.000000,4.000000,38.000000
1302566.273962,-3.000000,-1.000000,-18.000000,-16.000000,-1.000000,-8.000000,-72.000000,-12.000000
1302566.278292,4.000000,-8.000000,6.000000,-22.000000,-3.000000,5.000000,98.000000,7.000000
1302566.278302,20.000000,18.000000,-41.000000,17.000000,21.000000,11.000000,-40.000000,4.000000
1302566.294137,-1.000000,24.000000,34.000000,50.000000,30.000000,-8.000000,7.000000,7.000000
1302566.294146,-26.000000,-37.000000,-5.000000,-7.000000,-13.000000,-10.000000,-26.000000,-27.000000
1302566.316051,-1.000000,-34.000000,-50.000000,-9.000000,21.000000,5.000000,-27.000000,-13.000000
1302566.316071,1.000000,33.000000,85.000000,-20.000000,-9.000000,-6.000000,17.000000,3.000000
1302566.338585,-6.000000,2.000000,3.000000,53.000000,13.000000,4.000000,-54.000000,-25.000000
1302566.338596,-4.000000,3.000000,25.000000,49.000000,22.000000,-8.000000,54.000000,-7.000000
1302566.346233,-4.000000,-31.000000,-34.000000,-57.000000,-8.000000,-1.000000,-30.000000,1.000000
1302566.346267,-11.000000,-16.000000,-35.000000,-26.000000,-6.000000,6.000000,7.000000,3.000000
1302566.375943,12.000000,13.000000,104.000000,27.000000,-15.000000,-4.000000,-13.000000,3.000000
1302566.375974,9.000000,11.000000,4.000000,-19.000000,9.000000,4.000000,-14.000000,8.000000
1302566.376639,-8.000000,21.000000,6.000000,-19.000000,0.000000,4.000000,5.000000,-2.000000
1302566.376659,-1.000000,-7.000000,-9.000000,-20.000000,-17.000000,-24.000000,-8.000000,-2.000000
1302566.377506,-1.000000,1.000000,-2.000000,20.000000,3.000000,3.000000,-4.000000,-10.000000
1302566.377516,11.000000,10.000000,20.000000,1.000000,21.000000,17.000000,21.000000,19.000000
1302566.378383,4.000000,-13.000000,7.000000,-28.000000,-19.000000,10.000000,5.000000,15.000000
1302566.378393,-17.000000,-3.000000,-19.000000,-17.000000,-4.000000,-13.000000,-17.000000,2.000000
1302566.379732,16.000000,26.000000,-24.000000,34.000000,32.000000,-6.000000,-61.000000,-19.000000
1302566.379741,-13.000000,18.000000,61.000000,3.000000,-25.000000,21.000000,62.000000,23.000000
1302566.391189,3.000000,-53.000000,-80.000000,42.000000,51.000000,4.000000,39.000000,55.000000
1302566.391301,-1.000000,2.000000,-14.000000,-98.000000,-70.000000,-17.000000,-58.000000,-14.000000
1302566.392710,1.000000,1.000000,-27.000000,26.000000,59.000000,26.000000,36.000000,-4.000000
1302566.392742,1.000000,7.000000,102.000000,-5.000000,2.000000,-24.000000,-9.000000,10.000000
1302566.398382,-2.000000,6.000000,-30.000000,14.000000,15.000000,4.000000,-19.000000,-16.000000
1302566.398396,-21.000000,-19.000000,16.000000,-69.000000,-58.000000,-19.000000,8.000000,-11.000000
1302566.413623,-6.000000,-13.000000,-52.000000,-17.000000,-17.000000,7.000000,-15.000000,0.000000
1302566.413674,12.000000,6.000000,-17.000000,23.000000,-14.000000,-21.000000,0.000000,-11.000000
1302566.428515,-11.000000,-1.000000,-28.000000,-4.000000,6.000000,-4.000000,21.000000,-9.000000
1302566.428547,5.000000,-8.000000,-5.000000,28.000000,19.000000,21.000000,25.000000,40.000000
1302566.466058,14.000000,12.000000,-20.000000,-10.000000,-10.000000,-7.000000,-21.000000,-3.000000
1302566.466070,9.000000,25.000000,43.000000,42.000000,35.000000,12.000000,24.000000,20.000000
1302566.473526,-7.000000,1.000000,6.000000,-26.000000,-31.000000,-7.000000,-41.000000,-20.000000
1302566.473580,-22.000000,-57.000000,-43.000000,-17.000000,8.000000,-13.000000,-3.000000,-21.000000
1302566.488834,0.000000,-14.000000,5.000000,-35.000000,-18.000000,-7.000000,34.000000,-22.000000
1302566.488848,3.000000,11.000000,7.000000,60.000000,75.000000,47.000000,17.000000,45.000000
1302566.489492,-5.000000,-16.000000,-33.000000,-54.000000,-59.000000,-72.000000,-65.000000,-35.000000
1302566.489509,7.000000,-24.000000,5.000000,23.000000,18.000000,19.000000,50.000000,6.000000
1302566.491288,7.000000,-5.000000,-80.000000,-35.000000,-30.000000,-16.000000,5.000000,12.000000
1302566.491351,2.000000,5.000000,42.000000,68.000000,34.000000,12.000000,-22.000000,-13.000000
1302566.492142,-5.000000,7.000000,6.000000,-79.000000,-6.000000,-16.000000,-32.000000,-12.000000
1302566.492157,5.000000,3.000000,-22.000000,-7.000000,0.000000,2.000000,-22.000000,4.000000
1302566.503669,-8.000000,1.000000,24.000000,42.000000,42.000000,-9.000000,30.000000,-3.000000
1302566.503680,9.000000,-19.000000,-1.000000,-69.000000,-30.000000,1.000000,33.000000,29.000000
1302566.511459,11.000000,49.000000,-4.000000,8.000000,16.000000,9.000000,-31.000000,-25.000000
1302566.511468,-7.000000,-32.000000,-57.000000,-29.000000,-1.000000,-2.000000,65.000000,31.000000
1302566.525881,-1.000000,9.000000,21.000000,-44.000000,-27.000000,-6.000000,-9.000000,-14.000000
1302566.525891,7.000000,14.000000,-19.000000,43.000000,25.000000,15.000000,29.000000,33.000000
1302566.533975,-8.000000,6.000000,22.000000,-11.000000,-23.000000,-22.000000,-59.000000,-29.000000
1302566.534012,1.000000,-16.000000,-26.000000,-1.000000,20.000000,19.000000,35.000000,8.000000
1302566.540863,0.000000,11.000000,72.000000,43.000000,-4.000000,1.000000,9.000000,-10.000000
1302566.540877,-11.000000,-4.000000,-39.000000,-32.000000,-30.000000,-38.000000,-28.000000,-17.000000
1302566.555789,-11.000000,-30.000000,-27.000000,34.000000,42.000000,2.000000,2.000000,-8.000000
1302566.555805,10.000000,3.000000,-57.000000,-53.000000,-8.000000,7.000000,0.000000,-1.000000
1302566.570999,-16.000000,-12.000000,7.000000,-26.000000,-23.000000,-20.000000,-47.000000,-5.000000
1302566.571027,9.000000,-30.000000,17.000000,51.000000,15.000000,21.000000,39.000000,-4.000000
1302566.615782,11.000000,10.000000,-3.000000,71.000000,39.000000,4.000000,16.000000,38.000000
1302566.615808,-14.000000,-5.000000,8.000000,-33.000000,-27.000000,-17.000000,-24.000000,-5.000000
1302566.616415,-1.000000,-13.000000,-2.000000,11.000000,9.000000,1.000000,-4.000000,-22.000000
1302566.616423,-2.000000,16.000000,-21.000000,-39.000000,-32.000000,24.000000,38.000000,24.000000
1302566.617471,2.000000,-11.000000,-1.000000,19.000000,-16.000000,-9.000000,1.000000,-18.000000
1302566.617479,-5.000000,-33.000000,-73.000000,-21.000000,-11.000000,-14.000000,-15.000000,15.000000
1302566.618227,-6.000000,8.000000,7.000000,54.000000,79.000000,18.000000,-29.000000,-29.000000
1302566.618235,2.000000,4.000000,19.000000,-37.000000,-25.000000,-13.000000,2.000000,1.000000
1302566.623287,-7.000000,8.000000,-1.000000,-10.000000,2.000000,-10.000000,-37.000000,-21.000000
1302566.623316,15.000000,14.000000,19.000000,-19.000000,5.000000,16.000000,-10.000000,8.000000
1302566.631707,-12.000000,-21.000000,-32.000000,-23.000000,-21.000000,-22.000000,-16.000000,-13.000000
1302566.631760,4.000000,30.000000,38.000000,108.000000,47.000000,15.000000,-11.000000,-5.000000
1302566.653235,0.000000,17.000000,-8.000000,-20.000000,0.000000,9.000000,29.000000,9.000000
1302566.653246,17.000000,8.000000,-30.000000,-3.000000,13.000000,1.000000,-27.000000,7.000000
1302566.668581,2.000000,-3.000000,-15.000000,-17.000000,-4.000000,-11.000000,21.000000,-17.000000
1302566.668610,16.000000,30.000000,20.000000,54.000000,21.000000,27.000000,30.000000,37.000000
1302566.676120,-3.000000,-25.000000,-48.000000,-9.000000,-1.000000,-2.000000,-15.000000,1.000000
1302566.676175,-1.000000,-6.000000,-20.000000,-21.000000,-12.000000,-11.000000,-12.000000,-3.000000
1302566.690763,-17.000000,-17.000000,8.000000,9.000000,10.000000,18.000000,-10.000000,-36.000000
1302566.690777,10.000000,7.000000,-20.000000,-53.000000,-37.000000,-27.000000,-26.000000,-5.000000
1302566.705761,-3.000000,11.000000,3.000000,77.000000,48.000000,17.000000,59.000000,12.000000
1302566.705792,12.000000,12.000000,-10.000000,7.000000,-6.000000,8.000000,-28.000000,2.000000
1302566.736208,-12.000000,19.000000,25.000000,17.000000,5.000000,-7.000000,16.000000,-8.000000
1302566.736274,10.000000,-39.000000,-55.000000,-86.000000,-55.000000,-21.000000,18.000000,-5.000000
1302566.743335,14.000000,16.000000,20.000000,63.000000,68.000000,9.000000,-26.000000,0.000000
1302566.743344,-19.000000,28.000000,22.000000,-48.000000,-34.000000,-11.000000,-13.000000,-17.000000
1302566.765915,-18.000000,-34.000000,54.000000,-16.000000,-27.000000,5.000000,10.000000,3.000000
1302566.765944,-2.000000,-22.000000,-26.000000,-30.000000,-39.000000,-9.000000,1.000000,-5.000000
1302566.788318,7.000000,17.000000,24.000000,6.000000,-5.000000,0.000000,-18.000000,9.000000
1302566.788328,9.000000,11.000000,-29.000000,11.000000,30.000000,7.000000,9.000000,-1.000000
1302566.789294,17.000000,49.000000,-3.000000,0.000000,0.000000,8.000000,93.000000,18.000000
1302566.789314,19.000000,-18.000000,-50.000000,5.000000,10.000000,-1.000000,31.000000,47.000000
1302566.790032,-11.000000,-11.000000,15.000000,-23.000000,-23.000000,-4.000000,-30.000000,-15.000000
1302566.790045,-5.000000,24.000000,69.000000,48.000000,-6.000000,1.000000,-39.000000,-3.000000
1302566.790637,12.000000,16.000000,-67.000000,-47.000000,1.000000,-11.000000,25.000000,6.000000
1302566.790679,12.000000,21.000000,30.000000,56.000000,31.000000,-2.000000,-13.000000,-17.000000
1302566.792140,12.000000,-10.000000,-7.000000,100.000000,63.000000,32.000000,76.000000,43.000000
1302566.792153,-13.000000,-5.000000,-3.000000,-42.000000,-41.000000,-23.000000,-49.000000,-43.000000
1302566.803228,-8.000000,-7.000000,-13.000000,-27.000000,-13.000000,-24.000000,-30.000000,-5.000000
1302566.803257,19.000000,-10.000000,-16.000000,-10.000000,-1.000000,-15.000000,-19.000000,-13.000000
1302566.810761,17.000000,58.000000,105.000000,-6.000000,-10.000000,1.000000,6.000000,10.000000
1302566.810790,-19.000000,-38.000000,-19.000000,2.000000,-8.000000,-5.000000,19.000000,-10.000000
1302566.825778,-14.000000,24.000000,11.000000,-7.000000,-7.000000,-4.000000,-20.000000,-15.000000
1302566.825792,0.000000,-6.000000,-10.000000,-20.000000,-36.000000,-7.000000,-5.000000,-3.000000
1302566.833503,2.000000,-27.000000,-44.000000,-128.000000,-76.000000,-1.000000,27.000000,0.000000
1302566.833526,-7.000000,17.000000,125.000000,35.000000,38.000000,34.000000,-15.000000,-7.000000
1302566.848315,3.000000,-15.000000,-60.000000,-37.000000,-39.000000,-48.000000,17.000000,11.000000
1302566.848343,-10.000000,-19.000000,-19.000000,-28.000000,9.000000,-5.000000,-36.000000,-4.000000
1302566.870918,-15.000000,2.000000,-16.000000,-39.000000,-23.000000,-17.000000,-81.000000,-24.000000
1302566.870942,4.000000,7.000000,-16.000000,26.000000,18.000000,5.000000,70.000000,20.000000
1302566.885923,-23.000000,-17.000000,17.000000,39.000000,-20.000000,14.000000,-9.000000,-6.000000
1302566.885938,27.000000,17.000000,0.000000,-19.000000,17.000000,5.000000,29.000000,-7.000000
1302566.908555,-16.000000,17.000000,8.000000,-21.000000,-18.000000,-21.000000,-47.000000,18.000000
1302566.908566,17.000000,19.000000,45.000000,-34.000000,-22.000000,-3.000000,20.000000,-3.000000
1302566.930931,-10.000000,-47.000000,-24.000000,-2.000000,-4.000000,2.000000,19.000000,19.000000
1302566.930960,-1.000000,-15.000000,-15.000000,31.000000,24.000000,-12.000000,9.000000,-19.000000
1302566.955793,7.000000,-4.000000,0.000000,-14.000000,-24.000000,-4.000000,-6.000000,6.000000
1302566.955809,3.000000,17.000000,35.000000,22.000000,-4.000000,11.000000,-15.000000,-11.000000
1302566.961160,6.000000,9.000000,11.000000,-12.000000,-2.000000,8.000000,42.000000,-17.000000
1302566.961170,-2.000000,-5.000000,-44.000000,26.000000,18.000000,-1.000000,-15.000000,-3.000000
1302566.983350,13.000000,38.000000,50.000000,-3.000000,-31.000000,2.000000,-13.000000,3.000000
1302566.983367,-40.000000,-55.000000,-46.000000,9.000000,14.000000,0.000000,-23.000000,-19.000000
1302566.983993,0.000000,6.000000,53.000000,20.000000,7.000000,-5.000000,55.000000,1.000000
1302566.984063,15.000000,7.000000,-70.000000,-17.000000,-26.000000,-1.000000,-19.000000,48.000000
1302566.984748,-5.000000,8.000000,67.000000,59.000000,36.000000,25.000000,3.000000,-13.000000
1302566.984760,-5.000000,-15.000000,-42.000000,-90.000000,-48.000000,-13.000000,-16.000000,-8.000000
1302566.985111,4.000000,37.000000,-7.000000,9.000000,11.000000,15.000000,43.000000,40.000000
1302566.985127,-21.000000,-19.000000,-11.000000,0.000000,-1.000000,-5.000000,-31.000000,-35.000000
1302566.986258,1.000000,37.000000,24.000000,-2.000000,-14.000000,6.000000,6.000000,15.000000
1302566.986267,16.000000,9.000000,6.000000,26.000000,-10.000000,9.000000,28.000000,45.000000
1302566.987273,-25.000000,-29.000000,9.000000,-13.000000,-6.000000,-30.000000,-30.000000,-35.000000
1302566.987282,12.000000,-7.000000,-47.000000,-80.000000,-27.000000,19.000000,79.000000,17.000000
1302567.006222,1.000000,8.000000,-67.000000,34.000000,26.000000,-22.000000,0.000000,6.000000
1302567.006238,-3.000000,8.000000,-13.000000,48.000000,22.000000,7.000000,-47.000000,-20.000000
1302567.020963,7.000000,0.000000,-4.000000,-29.000000,-37.000000,-33.000000,-31.000000,-17.000000
1302567.020973,10.000000,49.000000,74.000000,6.000000,18.000000,38.000000,75.000000,43.000000
1302567.043577,18.000000,-20.000000,-32.000000,-5.000000,8.000000,-23.000000,42.000000,33.000000
1302567.043586,-5.000000,-28.000000,4.000000,22.000000,6.000000,5.000000,-74.000000,-19.000000
1302567.050949,-1.000000,-5.000000,24.000000,-4.000000,-17.000000,-8.000000,-17.000000,-8.000000
1302567.050978,-1.000000,-17.000000,-48.000000,-28.000000,-1.000000,10.000000,38.000000,5.000000
1302567.065906,24.000000,12.000000,3.000000,-22.000000,-27.000000,15.000000,-4.000000,15.000000
1302567.065924,10.000000,39.000000,36.000000,50.000000,26.000000,8.000000,-18.000000,-14.000000
1302567.073682,-14.000000,-10.000000,3.000000,6.000000,9.000000,-2.000000,14.000000,-12.000000
1302567.073697,-15.000000,-8.000000,-25.000000,31.000000,-15.000000,-6.000000,-45.000000,-38.000000
1302567.088688,9.000000,7.000000,-7.000000,7.000000,3.000000,8.000000,17.000000,38.000000
1302567.088698,-9.000000,-9.000000,-28.000000,-23.000000,-22.000000,-35.000000,-42.000000,-14.000000
1302567.089319,3.000000,-10.000000,32.000000,43.000000,7.000000,-22.000000,32.000000,19.000000
1302567.089337,-1.000000,14.000000,23.000000,40.000000,61.000000,44.000000,-7.000000,-19.000000
1302567.090798,0.000000,-1.000000,26.000000,10.000000,-6.000000,-7.000000,82.000000,2.000000
1302567.090812,9.000000,-3.000000,-47.000000,1.000000,8.000000,6.000000,-15.000000,7.000000
1302567.091549,-1.000000,1.000000,19.000000,0.000000,-25.000000,-4.000000,-68.000000,-7.000000
1302567.091563,-1.000000,12.000000,50.000000,-45.000000,-60.000000,2.000000,51.000000,-17.000000
1302567.103454,3.000000,-15.000000,-37.000000,2.000000,56.000000,24.000000,-20.000000,19.000000
1302567.103468,20.000000,34.000000,37.000000,-26.000000,-63.000000,-19.000000,-19.000000,1.000000
1302567.103949,-2.000000,-14.000000,-19.000000,0.000000,6.000000,1.000000,60.000000,19.000000
1302567.103959,-4.000000,2.000000,7.000000,-9.000000,4.000000,13.000000,-19.000000,-15.000000
1302567.111094,3.000000,-12.000000,16.000000,-50.000000,-45.000000,-11.000000,-29.000000,-7.000000
1302567.111107,8.000000,47.000000,46.000000,77.000000,40.000000,36.000000,47.000000,31.000000
1302567.125801,30.000000,12.000000,-16.000000,-35.000000,-9.000000,-20.000000,46.000000,8.000000
1302567.125822,-15.000000,-25.000000,-27.000000,-39.000000,-16.000000,-9.000000,-43.000000,-7.000000
1302567.148677,11.000000,5.000000,14.000000,3.000000,44.000000,5.000000,-3.000000,-5.000000
1302567.148690,3.000000,17.000000,43.000000,20.000000,10.000000,15.000000,30.000000,24.000000
1302567.163657,9.000000,-12.000000,-26.000000,12.000000,24.000000,20.000000,52.000000,28.000000
1302567.163670,1.000000,-9.000000,-23.000000,-13.000000,-4.000000,-10.000000,-24.000000,5.000000
1302567.178612,-7.000000,-1.000000,-97.000000,-39.000000,-11.000000,-30.000000,-16.000000,-8.000000
1302567.178624,15.000000,43.000000,41.000000,62.000000,34.000000,24.000000,22.000000,-1.000000
1302567.185835,5.000000,6.000000,-41.000000,-18.000000,42.000000,27.000000,18.000000,15.000000
1302567.185865,-22.000000,-40.000000,-66.000000,-49.000000,-25.000000,-14.000000,-37.000000,-22.000000
1302567.208945,0.000000,29.000000,60.000000,10.000000,4.000000,-3.000000,-2.000000,13.000000
1302567.208955,24.000000,30.000000,-15.000000,-1.000000,-10.000000,13.000000,21.000000,13.000000
1302567.209450,-17.000000,-37.000000,28.000000,3.000000,8.000000,-6.000000,-3.000000,11.000000
1302567.209458,-3.000000,23.000000,20.000000,-17.000000,-9.000000,-5.000000,-27.000000,-18.000000
1302567.210646,-2.000000,5.000000,28.000000,-4.000000,-4.000000,-5.000000,-68.000000,-16.000000
1302567.210654,-8.000000,-29.000000,-51.000000,-14.000000,-10.000000,-24.000000,-2.000000,-13.000000
1302567.211362,3.000000,0.000000,-4.000000,-16.000000,-22.000000,-1.000000,82.000000,8.000000
1302567.211373,8.000000,-2.000000,-16.000000,41.000000,28.000000,20.000000,28.000000,52.000000
1302567.223357,-13.000000,-17.000000,-14.000000,-43.000000,-30.000000,-27.000000,-47.000000,-21.000000
1302567.223386,10.000000,61.000000,85.000000,127.000000,127.000000,40.000000,-21.000000,-22.000000
1302567.223774,4.000000,12.000000,-19.000000,-28.000000,-29.000000,12.000000,34.000000,-2.000000
1302567.223802,-8.000000,-39.000000,4.000000,0.000000,-1.000000,-10.000000,-11.000000,-10.000000
1302567.230891,-8.000000,-42.000000,-54.000000,-21.000000,0.000000,-13.000000,-27.000000,-3.000000
1302567.230920,-10.000000,11.000000,-20.000000,4.000000,-23.000000,-19.000000,16.000000,-23.000000
1302567.283495,4.000000,-11.000000,17.000000,-53.000000,-51.000000,-7.000000,53.000000,44.000000
1302567.283528,22.000000,18.000000,16.000000,53.000000,71.000000,23.000000,-7.000000,7.000000
1302567.306005,1.000000,-1.000000,-9.000000,41.000000,59.000000,16.000000,-1.000000,4.000000
1302567.306015,-11.000000,-5.000000,48.000000,-7.000000,2.000000,-10.000000,-15.000000,-8.000000
1302567.321340,-2.000000,-11.000000,-2.000000,-27.000000,-36.000000,-8.000000,-29.000000,1.000000
1302567.321358,-8.000000,10.000000,26.000000,-12.000000,-15.000000,17.000000,37.000000,0.000000
1302567.322170,5.000000,-2.000000,-32.000000,2.000000,19.000000,-6.000000,-9.000000,-4.000000
1302567.322193,-18.000000,11.000000,39.000000,-4.000000,-25.000000,-16.000000,-11.000000,-1.000000
1302567.322553,10.000000,-7.000000,-62.000000,-3.000000,17.000000,12.000000,55.000000,20.000000
1302567.322561,-1.000000,2.000000,5.000000,19.000000,-1.000000,-7.000000,-20.000000,15.000000
1302567.323667,4.000000,14.000000,32.000000,104.000000,87.000000,10.000000,-48.000000,-7.000000
1302567.323698,-6.000000,-8.000000,18.000000,-53.000000,-60.000000,-2.000000,19.000000,-12.000000
1302567.324080,-1.000000,-10.000000,-24.000000,-55.000000,-10.000000,0.000000,-30.000000,2.000000
1302567.324087,-3.000000,12.000000,-21.000000,8.000000,10.000000,1.000000,19.000000,5.000000
1302567.324789,-11.000000,0.000000,16.000000,-4.000000,-7.000000,-5.000000,-33.000000,-8.000000
1302567.324802,-13.000000,-18.000000,-16.000000,-88.000000,-68.000000,-27.000000,-2.000000,-20.000000
1302567.336335,15.000000,33.000000,3.000000,55.000000,50.000000,19.000000,29.000000,22.000000
1302567.336363,12.000000,5.000000,-25.000000,-12.000000,-5.000000,-9.000000,15.000000,-10.000000
1302567.343051,-4.000000,-14.000000,-8.000000,-12.000000,-19.000000,-7.000000,-34.000000,-27.000000
1302567.343059,10.000000,-3.000000,-24.000000,3.000000,10.000000,-12.000000,5.000000,2.000000
1302567.358582,0.000000,9.000000,10.000000,-2.000000,2.000000,5.000000,-66.000000,-22.000000
1302567.358593,-19.000000,-25.000000,-20.000000,-15.000000,-18.000000,-3.000000,77.000000,6.000000
1302567.366069,-16.000000,-36.000000,-71.000000,-16.000000,9.000000,-31.000000,-115.000000,-9.000000
1302567.366081,40.000000,96.000000,127.000000,41.000000,0.000000,36.000000,127.000000,20.000000
1302567.388555,20.000000,-12.000000,-37.000000,-29.000000,-12.000000,15.000000,1.000000,61.000000
1302567.388574,-9.000000,4.000000,-8.000000,-11.000000,2.000000,-8.000000,-44.000000,4.000000
1302567.403543,-17.000000,-2.000000,10.000000,-44.000000,-52.000000,0.000000,-14.000000,-15.000000
1302567.403554,-5.000000,1.000000,41.000000,39.000000,33.000000,-5.000000,-3.000000,-13.000000
1302567.433310,1.000000,10.000000,-33.000000,-2.000000,21.000000,7.000000,-21.000000,12.000000
1302567.433321,-5.000000,11.000000,26.000000,-24.000000,-30.000000,-7.000000,39.000000,-12.000000
1302567.440987,9.000000,-15.000000,32.000000,19.000000,3.000000,9.000000,11.000000,22.000000
1302567.440997,-19.000000,-13.000000,-9.000000,-26.000000,-14.000000,-12.000000,-28.000000,-13.000000
1302567.455811,8.000000,2.000000,-24.000000,-33.000000,-11.000000,8.000000,7.000000,19.000000
1302567.455820,-1.000000,20.000000,30.000000,20.000000,19.000000,4.000000,56.000000,16.000000
1302567.463447,1.000000,17.000000,0.000000,1.000000,3.000000,15.000000,27.000000,-8.000000
1302567.463458,0.000000,-30.000000,-3.000000,-3.000000,-7.000000,-20.000000,-28.000000,4.000000
1302567.500879,-14.000000,-15.000000,12.000000,-3.000000,-16.000000,-10.000000,-19.000000,-37.000000
1302567.500889,12.000000,-12.000000,-52.000000,-118.000000,-43.000000,-13.000000,-30.000000,19.000000
1302567.515985,4.000000,26.000000,64.000000,58.000000,41.000000,17.000000,48.000000,-21.000000
1302567.516015,-2.000000,-26.000000,-81.000000,-26.000000,-18.000000,-25.000000,-78.000000,-4.000000
1302567.523861,14.000000,7.000000,58.000000,-18.000000,-52.000000,14.000000,56.000000,4.000000
1302567.523882,-14.000000,-44.000000,-25.000000,4.000000,13.000000,6.000000,18.000000,3.000000
1302567.531255,-6.000000,18.000000,38.000000,-30.000000,-47.000000,-20.000000,-30.000000,-15.000000
1302567.531281,-2.000000,-1.000000,-17.000000,5.000000,23.000000,2.000000,-15.000000,-3.000000
1302567.538312,-17.000000,4.000000,-16.000000,-3.000000,3.000000,11.000000,-89.000000,-37.000000
1302567.538322,21.000000,-24.000000,-27.000000,-39.000000,-42.000000,-44.000000,100.000000,39.000000
1302567.545899,7.000000,9.000000,-5.000000,-19.000000,-2.000000,18.000000,123.000000,51.000000
1302567.545909,5.000000,-2.000000,8.000000,-5.000000,-22.000000,-11.000000,-26.000000,-3.000000
1302567.553341,-13.000000,-19.000000,-5.000000,-21.000000,-16.000000,4.000000,-4.000000,-25.000000
1302567.553351,14.000000,1.000000,-30.000000,-6.000000,2.000000,-4.000000,22.000000,15.000000
1302567.560656,-14.000000,2.000000,54.000000,0.000000,-5.000000,-5.000000,-16.000000,-12.000000
1302567.560673,-2.000000,-33.000000,-52.000000,-48.000000,-1.000000,-6.000000,-2.000000,17.000000
1302567.561574,17.000000,38.000000,27.000000,41.000000,57.000000,21.000000,17.000000,-3.000000
1302567.561596,-16.000000,-37.000000,-33.000000,19.000000,10.000000,-9.000000,-7.000000,-11.000000
1302567.561952,-18.000000,-24.000000,-10.000000,-14.000000,-34.000000,-10.000000,-79.000000,-19.000000
1302567.561963,20.000000,13.000000,31.000000,38.000000,-48.000000,12.000000,127.000000,-23.000000
1302567.563218,-1.000000,-9.000000,-77.000000,-14.000000,5.000000,-5.000000,-32.000000,7.000000
1302567.563246,-8.000000,-9.000000,-9.000000,-32.000000,-8.000000,-17.000000,-43.000000,-15.000000
1302567.563998,2.000000,26.000000,38.000000,54.000000,34.000000,25.000000,18.000000,1.000000
1302567.564015,-24.000000,-46.000000,-74.000000,-24.000000,5.000000,-16.000000,-84.000000,-38.000000
1302567.575780,18.000000,33.000000,41.000000,-44.000000,-37.000000,11.000000,110.000000,52.000000
1302567.575824,1.000000,-39.000000,-27.000000,60.000000,36.000000,7.000000,-20.000000,8.000000
1302567.583202,-6.000000,-5.000000,8.000000,31.000000,19.000000,-8.000000,-15.000000,3.000000
1302567.583230,-17.000000,7.000000,22.000000,-15.000000,-12.000000,10.000000,5.000000,-41.000000
1302567.598600,11.000000,-9.000000,-64.000000,4.000000,13.000000,-7.000000,42.000000,52.000000
1302567.598611,-5.000000,12.000000,-23.000000,13.000000,-4.000000,-29.000000,-85.000000,-33.000000
1302567.606112,13.000000,15.000000,41.000000,-25.000000,-20.000000,12.000000,46.000000,6.000000
1302567.606124,-15.000000,-36.000000,-68.000000,-2.000000,-4.000000,-1.000000,-20.000000,7.000000
1302567.620792,-3.000000,31.000000,62.000000,15.000000,24.000000,12.000000,-11.000000,-12.000000
1302567.620802,-6.000000,-28.000000,-8.000000,39.000000,67.000000,19.000000,54.000000,11.000000
1302567.643579,-4.000000,10.000000,22.000000,-42.000000,-30.000000,-26.000000,-100.000000,-11.000000
1302567.643591,9.000000,19.000000,19.000000,77.000000,68.000000,23.000000,72.000000,29.000000
1302567.658428,-7.000000,-19.000000,11.000000,8.000000,6.000000,4.000000,31.000000,-1.000000
1302567.658439,-12.000000,-16.000000,-58.000000,-23.000000,-13.000000,-5.000000,-30.000000,-22.000000
1302567.666278,1.000000,9.000000,20.000000,-31.000000,-9.000000,2.000000,-3.000000,-13.000000
1302567.666290,4.000000,-25.000000,-66.000000,-13.000000,-23.000000,-25.000000,-21.000000,-13.000000
1302567.680743,-5.000000,-7.000000,-9.000000,-55.000000,-43.000000,17.000000,-24.000000,-2.000000
1302567.680754,3.000000,5.000000,-24.000000,16.000000,50.000000,6.000000,-12.000000,-5.000000
1302567.681234,0.000000,4.000000,26.000000,17.000000,13.000000,4.000000,13.000000,-7.000000
1302567.681262,-2.000000,-36.000000,-10.000000,-14.000000,14.000000,17.000000,7.000000,5.000000
1302567.682515,-16.000000,-7.000000,43.000000,-3.000000,-14.000000,-16.000000,-4.000000,7.000000
1302567.682525,4.000000,-10.000000,-27.000000,2.000000,-1.000000,2.000000,1.000000,-3.000000
1302567.683343,-6.000000,8.000000,6.000000,9.000000,17.000000,20.000000,-35.000000,25.000000
1302567.683352,14.000000,16.000000,7.000000,19.000000,-13.000000,-9.000000,76.000000,-3.000000
1302567.703441,18.000000,26.000000,56.000000,50.000000,-7.000000,13.000000,-1.000000,0.000000
1302567.703470,-1.000000,-23.000000,-22.000000,6.000000,9.000000,0.000000,21.000000,7.000000
1302567.718583,-8.000000,-2.000000,-21.000000,-16.000000,-10.000000,-16.000000,-35.000000,-11.000000
1302567.718596,-7.000000,14.000000,42.000000,63.000000,28.000000,9.000000,-22.000000,-6.000000
1302567.741040,5.000000,11.000000,-5.000000,10.000000,1.000000,13.000000,29.000000,-5.000000
1302567.741051,-9.000000,-15.000000,-42.000000,-27.000000,1.000000,-6.000000,-49.000000,-19.000000
1302567.748706,8.000000,12.000000,-3.000000,30.000000,33.000000,0.000000,16.000000,6.000000
1302567.748718,13.000000,17.000000,17.000000,21.000000,28.000000,17.000000,36.000000,20.000000
1302567.763756,-15.000000,-10.000000,3.000000,-97.000000,-56.000000,-14.000000,-45.000000,0.000000
1302567.763775,-2.000000,-14.000000,-30.000000,16.000000,24.000000,20.000000,25.000000,-30.000000
1302567.778373,2.000000,-18.000000,-14.000000,-7.000000,-11.000000,-18.000000,5.000000,29.000000
1302567.778383,21.000000,-12.000000,-6.000000,17.000000,0.000000,13.000000,43.000000,19.000000
1302567.786624,7.000000,-2.000000,-25.000000,-19.000000,-1.000000,-2.000000,-39.000000,1.000000
1302567.786634,-28.000000,-15.000000,6.000000,-15.000000,-8.000000,-13.000000,-73.000000,-15.000000
1302567.787037,2.000000,-9.000000,-37.000000,5.000000,1.000000,3.000000,88.000000,-10.000000
1302567.787044,11.000000,-7.000000,-46.000000,7.000000,4.000000,-13.000000,31.000000,31.000000
1302567.788168,-3.000000,10.000000,37.000000,14.000000,-3.000000,1.000000,-43.000000,-8.000000
1302567.788302,14.000000,21.000000,10.000000,42.000000,21.000000,20.000000,19.000000,33.000000
1302567.788936,2.000000,-40.000000,-3.000000,-56.000000,-57.000000,-14.000000,7.000000,-16.000000
1302567.788944,1.000000,34.000000,83.000000,110.000000,41.000000,19.000000,-15.000000,3.000000
1302567.793616,1.000000,-28.000000,-55.000000,-21.000000,12.000000,6.000000,-10.000000,2.000000
1302567.793626,-1.000000,26.000000,35.000000,104.000000,48.000000,-35.000000,5.000000,-36.000000
1302567.815836,-4.000000,-12.000000,-22.000000,28.000000,32.000000,21.000000,31.000000,18.000000
1302567.815846,-11.000000,-22.000000,-49.000000,-26.000000,-19.000000,-21.000000,-2.000000,-4.000000
1302567.816978,4.000000,20.000000,97.000000,13.000000,-11.000000,-6.000000,6.000000,-6.000000
1302567.816987,-5.000000,11.000000,55.000000,52.000000,41.000000,-4.000000,-41.000000,-25.000000
1302567.823139,-22.000000,-44.000000,-27.000000,2.000000,32.000000,20.000000,18.000000,13.000000
1302567.823168,-3.000000,19.000000,-2.000000,-3.000000,-6.000000,-4.000000,-27.000000,-17.000000
1302567.853505,0.000000,-28.000000,-15.000000,-98.000000,-69.000000,-15.000000,12.000000,3.000000
1302567.853524,-1.000000,13.000000,25.000000,3.000000,13.000000,0.000000,-29.000000,-20.000000
1302567.860923,11.000000,-26.000000,-31.000000,-14.000000,-15.000000,-11.000000,12.000000,14.000000
1302567.860933,-16.000000,-24.000000,-40.000000,-67.000000,-42.000000,-35.000000,-25.000000,-38.000000
1302567.890898,6.000000,-12.000000,-60.000000,-57.000000,-21.000000,-6.000000,12.000000,-7.000000
1302567.890910,15.000000,4.000000,85.000000,24.000000,3.000000,6.000000,31.000000,18.000000
1302567.898158,-9.000000,-16.000000,-36.000000,3.000000,4.000000,-14.000000,-37.000000,-18.000000
1302567.898172,-10.000000,1.000000,-21.000000,-43.000000,-22.000000,4.000000,-22.000000,-16.000000
1302567.899298,-12.000000,-5.000000,-9.000000,38.000000,6.000000,-6.000000,-74.000000,-10.000000
1302567.899314,-2.000000,-6.000000,-10.000000,-9.000000,-2.000000,11.000000,50.000000,-5.000000
1302567.900067,18.000000,-13.000000,-54.000000,36.000000,20.000000,10.000000,47.000000,36.000000
1302567.900085,-4.000000,14.000000,-3.000000,-35.000000,-26.000000,4.000000,0.000000,26.000000
1302567.901489,-4.000000,-6.000000,-17.000000,13.000000,8.000000,-1.000000,-35.000000,-13.000000
1302567.901498,20.000000,18.000000,-14.000000,17.000000,14.000000,26.000000,9.000000,20.000000
1302567.913376,-3.000000,-8.000000,17.000000,-5.000000,-4.000000,-6.000000,11.000000,-7.000000
1302567.913395,-3.000000,24.000000,29.000000,19.000000,-2.000000,0.000000,-30.000000,-15.000000
1302567.914497,-15.000000,-53.000000,-8.000000,34.000000,20.000000,0.000000,45.000000,-16.000000
1302567.914505,20.000000,10.000000,-6.000000,-27.000000,-7.000000,10.000000,24.000000,43.000000
1302567.935790,-21.000000,-34.000000,-15.000000,58.000000,18.000000,-5.000000,-2.000000,-7.000000
1302567.935800,1.000000,13.000000,10.000000,13.000000,-4.000000,8.000000,12.000000,2.000000
1302567.937090,-28.000000,-6.000000,-16.000000,-27.000000,19.000000,14.000000,-41.000000,-21.000000
1302567.937098,19.000000,-2.000000,-4.000000,-11.000000,19.000000,4.000000,82.000000,25.000000
1302567.943690,-4.000000,-17.000000,13.000000,-14.000000,-8.000000,-6.000000,-4.000000,6.000000
1302567.943700,-4.000000,6.000000,11.000000,42.000000,12.000000,3.000000,-31.000000,-4.000000
1302567.958414,-12.000000,-14.000000,11.000000,-47.000000,-65.000000,-14.000000,17.000000,-1.000000
1302567.958443,6.000000,23.000000,6.000000,27.000000,33.000000,19.000000,27.000000,26.000000
1302567.995895,-1.000000,-17.000000,-30.000000,-11.000000,-6.000000,-13.000000,-22.000000,-4.000000
1302567.995926,-22.000000,-10.000000,-41.000000,-36.000000,-3.000000,-13.000000,-128.000000,-48.000000
1302568.003387,27.000000,51.000000,106.000000,111.000000,59.000000,47.000000,127.000000,36.000000
1302568.003430,4.000000,-6.000000,-29.000000,-6.000000,3.000000,-18.000000,-38.000000,3.000000
1302568.018587,-17.000000,-10.000000,-39.000000,-44.000000,-21.000000,-9.000000,-54.000000,-27.000000
1302568.018598,18.000000,33.000000,89.000000,24.000000,-7.000000,-9.000000,-2.000000,-12.000000
1302568.040951,3.000000,-10.000000,-17.000000,4.000000,28.000000,18.000000,-2.000000,1.000000
1302568.040965,-1.000000,4.000000,-21.000000,-23.000000,-5.000000,-10.000000,-14.000000,-16.000000
1302568.063579,2.000000,-5.000000,10.000000,-73.000000,-37.000000,-10.000000,-35.000000,12.000000
1302568.063590,3.000000,35.000000,13.000000,114.000000,73.000000,21.000000,14.000000,13.000000
1302568.071017,3.000000,-23.000000,-78.000000,35.000000,48.000000,13.000000,36.000000,-6.000000
1302568.071028,-10.000000,-5.000000,25.000000,4.000000,-7.000000,-11.000000,-17.000000,-9.000000
1302568.071932,-2.000000,0.000000,8.000000,-9.000000,-30.000000,-19.000000,-86.000000,-36.000000
1302568.071942,-9.000000,-10.000000,-51.000000,-12.000000,-13.000000,-6.000000,69.000000,4.000000
1302568.072535,40.000000,23.000000,24.000000,30.000000,7.000000,20.000000,68.000000,54.000000
1302568.072543,-21.000000,10.000000,17.000000,22.000000,15.000000,1.000000,-56.000000,-26.000000
1302568.073259,-4.000000,3.000000,-1.000000,-27.000000,12.000000,18.000000,50.000000,0.000000
1302568.073267,0.000000,-7.000000,14.000000,-3.000000,-8.000000,-19.000000,-11.000000,16.000000
1302568.078518,-7.000000,-8.000000,0.000000,-26.000000,-20.000000,-25.000000,-32.000000,-11.000000
1302568.078545,14.000000,-13.000000,-44.000000,-48.000000,-39.000000,9.000000,63.000000,24.000000
1302568.093729,-6.000000,6.000000,-4.000000,16.000000,8.000000,-12.000000,-6.000000,-10.000000
1302568.093803,7.000000,17.000000,-1.000000,10.000000,10.000000,6.000000,-46.000000,-6.000000
1302568.094587,-40.000000,-65.000000,-67.000000,-80.000000,-53.000000,-39.000000,4.000000,-25.000000
1302568.094595,22.000000,41.000000,59.000000,127.000000,35.000000,31.000000,14.000000,-4.000000
1302568.116442,-14.000000,-33.000000,-58.000000,-10.000000,4.000000,-10.000000,-27.000000,-9.000000
1302568.116452,13.000000,19.000000,-15.000000,-12.000000,-17.000000,15.000000,70.000000,26.000000
1302568.117208,1.000000,-8.000000,11.000000,37.000000,40.000000,13.000000,1.000000,31.000000
1302568.117216,-9.000000,-15.000000,-22.000000,-35.000000,-32.000000,-38.000000,-38.000000,-19.000000
1302568.131431,-1.000000,29.000000,35.000000,61.000000,66.000000,36.000000,-64.000000,-9.000000
1302568.131452,3.000000,16.000000,-20.000000,-4.000000,-9.000000,-17.000000,66.000000,-2.000000
1302568.138411,-11.000000,-35.000000,-36.000000,-49.000000,-40.000000,-30.000000,-59.000000,4.000000
1302568.138422,2.000000,15.000000,-18.000000,26.000000,22.000000,4.000000,16.000000,-5.000000
1302568.153620,-23.000000,-19.000000,6.000000,11.000000,-1.000000,-19.000000,-96.000000,-38.000000
1302568.153649,13.000000,46.000000,38.000000,-64.000000,-43.000000,31.000000,105.000000,41.000000
1302568.154520,-5.000000,-59.000000,-2.000000,48.000000,23.000000,3.000000,62.000000,67.000000
1302568.154547,-21.000000,-37.000000,-13.000000,-10.000000,-9.000000,-27.000000,-71.000000,-29.000000
1302568.176276,16.000000,35.000000,28.000000,-18.000000,-9.000000,20.000000,36.000000,8.000000
1302568.176286,-3.000000,8.000000,23.000000,1.000000,-3.000000,-1.000000,-28.000000,-1.000000
1302568.191036,-9.000000,-11.000000,-44.000000,-8.000000,-16.000000,-9.000000,0.000000,-1.000000
1302568.191046,9.000000,9.000000,27.000000,26.000000,12.000000,0.000000,3.000000,-19.000000
1302568.206143,3.000000,23.000000,36.000000,-13.000000,-1.000000,-20.000000,4.000000,19.000000
1302568.206156,15.000000,26.000000,27.000000,16.000000,15.000000,29.000000,56.000000,31.000000
1302568.213673,3.000000,37.000000,68.000000,33.000000,36.000000,22.000000,12.000000,6.000000
1302568.213685,11.000000,0.000000,-8.000000,57.000000,27.000000,1.000000,-49.000000,-7.000000
1302568.235931,-35.000000,0.000000,63.000000,-48.000000,-33.000000,-10.000000,15.000000,-44.000000
1302568.235941,9.000000,-7.000000,-37.000000,7.000000,-6.000000,2.000000,51.000000,44.000000
1302568.250858,-19.000000,-28.000000,-50.000000,-51.000000,-41.000000,-11.000000,-58.000000,-15.000000
1302568.250868,-8.000000,11.000000,-1.000000,21.000000,28.000000,17.000000,18.000000,-41.000000
1302568.274134,13.000000,17.000000,26.000000,-12.000000,-6.000000,-8.000000,23.000000,53.000000
1302568.274158,-4.000000,-22.000000,-26.000000,-6.000000,1.000000,-23.000000,-11.000000,-1.000000
1302568.274465,20.000000,35.000000,53.000000,74.000000,88.000000,26.000000,28.000000,15.000000
1302568.274476,-10.000000,12.000000,5.000000,-29.000000,-19.000000,-3.000000,-30.000000,-21.000000
1302568.275866,-1.000000,22.000000,47.000000,-26.000000,-39.000000,1.000000,9.000000,-20.000000
1302568.275884,1.000000,-41.000000,-84.000000,-2.000000,9.000000,-13.000000,-7.000000,15.000000
1302568.276390,0.000000,31.000000,81.000000,2.000000,5.000000,7.000000,-18.000000,-9.000000
1302568.276411,-18.000000,-23.000000,-14.000000,-2.000000,-5.000000,-27.000000,-30.000000,-17.000000
1302568.277461,7.000000,26.000000,27.000000,-7.000000,-9.000000,16.000000,14.000000,29.000000
1302568.277474,5.000000,-7.000000,-30.000000,-5.000000,12.000000,-29.000000,-76.000000,-15.000000
1302568.318562,-15.000000,15.000000,28.000000,3.000000,0.000000,20.000000,79.000000,1.000000
1302568.318577,22.000000,-28.000000,-55.000000,-10.000000,10.000000,8.000000,64.000000,27.000000
1302568.325787,0.000000,34.000000,21.000000,5.000000,19.000000,10.000000,-50.000000,-17.000000
1302568.325797,-6.000000,12.000000,36.000000,4.000000,-23.000000,-7.000000,-18.000000,-16.000000
1302568.340906,12.000000,42.000000,62.000000,127.000000,95.000000,30.000000,12.000000,17.000000
1302568.340922,4.000000,-6.000000,-17.000000,-14.000000,-24.000000,-11.000000,-23.000000,-17.000000
1302568.348663,14.000000,-3.000000,-19.000000,9.000000,-2.000000,-14.000000,0.000000,17.000000
1302568.348676,-17.000000,-19.000000,-17.000000,-59.000000,5.000000,9.000000,0.000000,2.000000
1302568.370658,17.000000,35.000000,22.000000,14.000000,4.000000,10.000000,32.000000,-60.000000
1302568.370682,3.000000,-30.000000,-12.000000,-3.000000,10.000000,-12.000000,34.000000,30.000000
1302568.371349,-19.000000,0.000000,-3.000000,-4.000000,4.000000,9.000000,-83.000000,-35.000000
1302568.371393,33.000000,37.000000,-18.000000,37.000000,19.000000,-17.000000,64.000000,24.000000
1302568.372379,-13.000000,-17.000000,6.000000,16.000000,1.000000,11.000000,-7.000000,-10.000000
1302568.372388,6.000000,18.000000,20.000000,12.000000,10.000000,3.000000,15.000000,15.000000
1302568.373328,-9.000000,-30.000000,-54.000000,2.000000,4.000000,-1.000000,-9.000000,8.000000
1302568.373347,-10.000000,-50.000000,7.000000,17.000000,6.000000,20.000000,-4.000000,13.000000
1302568.393345,-13.000000,0.000000,-18.000000,-60.000000,-12.000000,-23.000000,-121.000000,-28.000000
1302568.393356,7.000000,-7.000000,-13.000000,-8.000000,-5.000000,2.000000,127.000000,39.000000
1302568.394600,8.000000,10.000000,-18.000000,-6.000000,1.000000,-7.000000,-8.000000,-9.000000
1302568.394609,-6.000000,21.000000,38.000000,14.000000,29.000000,18.000000,-49.000000,-50.000000
1302568.395276,22.000000,19.000000,19.000000,33.000000,-3.000000,-49.000000,47.000000,39.000000
1302568.395283,3.000000,-39.000000,-51.000000,-15.000000,-7.000000,-8.000000,-3.000000,5.000000
1302568.416141,12.000000,42.000000,51.000000,25.000000,22.000000,15.000000,-28.000000,-20.000000
1302568.416154,-26.000000,-14.000000,4.000000,8.000000,2.000000,6.000000,-15.000000,-15.000000
1302568.430913,12.000000,-5.000000,-3.000000,-26.000000,-45.000000,-26.000000,-27.000000,-5.000000
1302568.430937,-21.000000,-18.000000,-45.000000,1.000000,17.000000,10.000000,6.000000,-22.000000
1302568.445765,6.000000,58.000000,40.000000,41.000000,9.000000,14.000000,45.000000,23.000000
1302568.445810,5.000000,-73.000000,-56.000000,-5.000000,-3.000000,-8.000000,-5.000000,9.000000
1302568.453554,-15.000000,2.000000,10.000000,-16.000000,-16.000000,-23.000000,-39.000000,-33.000000
1302568.453565,2.000000,-37.000000,-7.000000,1.000000,11.000000,2.000000,20.000000,18.000000
1302568.475763,2.000000,43.000000,39.000000,2.000000,-9.000000,7.000000,-53.000000,-19.000000
1302568.475774,-13.000000,-45.000000,-9.000000,-1.000000,27.000000,24.000000,26.000000,-17.000000
1302568.490834,-6.000000,-20.000000,-6.000000,-59.000000,-118.000000,-19.000000,25.000000,32.000000
1302568.490850,7.000000,0.000000,-43.000000,-14.000000,5.000000,10.000000,5.000000,1.000000
1302568.491721,21.000000,20.000000,70.000000,23.000000,13.000000,8.000000,-8.000000,12.000000
1302568.491731,-14.000000,-16.000000,-37.000000,-48.000000,-38.000000,-27.000000,18.000000,-48.000000
1302568.492365,-3.000000,-9.000000,-21.000000,46.000000,16.000000,9.000000,37.000000,31.000000
1302568.492376,8.000000,9.000000,0.000000,4.000000,5.000000,-1.000000,-23.000000,-12.000000
1302568.493967,-30.000000,-39.000000,-75.000000,-34.000000,-18.000000,-2.000000,0.000000,-16.000000
1302568.493983,22.000000,33.000000,44.000000,86.000000,28.000000,7.000000,22.000000,52.000000
1302568.498239,-6.000000,0.000000,-22.000000,7.000000,12.000000,4.000000,-2.000000,-21.000000
1302568.498248,-4.000000,-10.000000,-34.000000,-10.000000,-10.000000,-20.000000,-9.000000,-13.000000
1302568.513775,-8.000000,-12.000000,23.000000,50.000000,13.000000,2.000000,-51.000000,-11.000000
1302568.513803,8.000000,7.000000,-21.000000,-70.000000,-18.000000,15.000000,57.000000,11.000000
1302568.514580,-8.000000,-25.000000,-3.000000,-15.000000,10.000000,7.000000,20.000000,20.000000
1302568.514609,-4.000000,1.000000,18.000000,-8.000000,-14.000000,-24.000000,-6.000000,-23.000000
1302568.551234,8.000000,-11.000000,-41.000000,-4.000000,5.000000,10.000000,14.000000,28.000000
1302568.551245,-11.000000,10.000000,-3.000000,-9.000000,-7.000000,23.000000,-15.000000,-5.000000
1302568.558240,23.000000,14.000000,-29.000000,-56.000000,-43.000000,-50.000000,-15.000000,-4.000000
1302568.558250,-12.000000,-8.000000,62.000000,29.000000,7.000000,-3.000000,-25.000000,-19.000000
1302568.588212,6.000000,9.000000,-9.000000,1.000000,6.000000,12.000000,21.000000,-4.000000
1302568.588222,6.000000,-19.000000,-48.000000,-24.000000,-23.000000,10.000000,37.000000,35.000000
1302568.595776,3.000000,41.000000,43.000000,15.000000,10.000000,0.000000,-8.000000,-3.000000
1302568.595786,-1.000000,-14.000000,-16.000000,-40.000000,-29.000000,-15.000000,-3.000000,-25.000000
1302568.596840,-19.000000,-26.000000,-29.000000,-8.000000,4.000000,-9.000000,-1.000000,-6.000000
1302568.596848,11.000000,22.000000,51.000000,64.000000,34.000000,29.000000,6.000000,28.000000
1302568.597471,1.000000,-11.000000,-39.000000,-33.000000,-7.000000,-5.000000,-2.000000,-15.000000
1302568.597479,7.000000,-12.000000,2.000000,-12.000000,-20.000000,3.000000,30.000000,12.000000
1302568.598806,-9.000000,-2.000000,-13.000000,-51.000000,-31.000000,-11.000000,-22.000000,-20.000000
1302568.598814,-18.000000,-22.000000,21.000000,1.000000,-7.000000,-11.000000,-25.000000,-14.000000
1302568.599674,-3.000000,11.000000,-54.000000,-28.000000,-17.000000,2.000000,18.000000,4.000000
1302568.599683,40.000000,26.000000,79.000000,127.000000,127.000000,20.000000,70.000000,95.000000
1302568.611757,-9.000000,-23.000000,-47.000000,-18.000000,-5.000000,-6.000000,-37.000000,-17.000000
1302568.611786,-11.000000,-17.000000,-65.000000,-35.000000,-8.000000,-14.000000,-41.000000,-33.000000
1302568.618527,0.000000,23.000000,69.000000,46.000000,20.000000,29.000000,17.000000,21.000000
1302568.618544,19.000000,25.000000,21.000000,9.000000,4.000000,-1.000000,44.000000,10.000000
1302568.626696,-24.000000,-9.000000,18.000000,19.000000,17.000000,-4.000000,-102.000000,-36.000000
1302568.626705,8.000000,-8.000000,-47.000000,-25.000000,-7.000000,2.000000,90.000000,0.000000
1302568.633563,-5.000000,-10.000000,24.000000,-10.000000,-33.000000,-10.000000,-41.000000,-1.000000
1302568.633573,25.000000,54.000000,74.000000,-13.000000,-13.000000,25.000000,30.000000,56.000000
1302568.656105,-6.000000,-24.000000,-61.000000,-16.000000,5.000000,-17.000000,34.000000,-6.000000
1302568.656135,11.000000,-1.000000,17.000000,63.000000,39.000000,10.000000,13.000000,25.000000
1302568.670976,-5.000000,17.000000,24.000000,-46.000000,-29.000000,9.000000,-7.000000,-20.000000
1302568.670987,-15.000000,-20.000000,-67.000000,-29.000000,3.000000,-11.000000,-29.000000,-20.000000
1302568.693604,-36.000000,-45.000000,2.000000,-5.000000,-7.000000,-21.000000,-113.000000,-38.000000
1302568.693619,13.000000,19.000000,23.000000,9.000000,24.000000,31.000000,127.000000,14.000000
1302568.708427,-1.000000,-20.000000,7.000000,7.000000,-13.000000,-10.000000,-18.000000,-9.000000
1302568.708441,-1.000000,-14.000000,-28.000000,-42.000000,-32.000000,-3.000000,9.000000,27.000000
1302568.730768,-13.000000,8.000000,18.000000,-14.000000,-5.000000,-10.000000,-14.000000,-30.000000
1302568.730797,31.000000,45.000000,57.000000,33.000000,19.000000,37.000000,52.000000,73.000000
1302568.746079,-21.000000,-48.000000,-21.000000,-38.000000,-29.000000,-23.000000,-38.000000,-22.000000
1302568.746091,-15.000000,9.000000,-16.000000,34.000000,-1.000000,-14.000000,12.000000,-9.000000
1302568.746881,7.000000,16.000000,19.000000,8.000000,13.000000,-3.000000,-8.000000,-1.000000
1302568.746889,-11.000000,-23.000000,-41.000000,-37.000000,-30.000000,-27.000000,4.000000,-16.000000
1302568.747411,1.000000,-10.000000,-29.000000,27.000000,59.000000,29.000000,-17.000000,-5.000000
1302568.747418,-21.000000,-14.000000,-34.000000,-23.000000,-36.000000,-54.000000,-95.000000,-2.000000
1302568.748857,0.000000,10.000000,-3.000000,54.000000,26.000000,-24.000000,-52.000000,-26.000000
1302568.748869,-5.000000,30.000000,43.000000,-47.000000,-50.000000,28.000000,-2.000000,25.000000
1302568.768798,7.000000,18.000000,74.000000,0.000000,12.000000,19.000000,36.000000,2.000000
1302568.768809,-1.000000,-28.000000,51.000000,-2.000000,-12.000000,-14.000000,16.000000,7.000000
1302568.791024,27.000000,31.000000,25.000000,127.000000,100.000000,46.000000,72.000000,25.000000
1302568.791048,8.000000,5.000000,-19.000000,15.000000,30.000000,-5.000000,-15.000000,13.000000
1302568.813325,-37.000000,-14.000000,28.000000,-50.000000,-41.000000,7.000000,-71.000000,-35.000000
1302568.813335,10.000000,-57.000000,-45.000000,-10.000000,-13.000000,-6.000000,73.000000,13.000000
1302568.828949,-9.000000,14.000000,-18.000000,-9.000000,17.000000,1.000000,-8.000000,11.000000
1302568.828958,-2.000000,20.000000,37.000000,48.000000,-29.000000,15.000000,-11.000000,3.000000
1302568.829408,-25.000000,-32.000000,-23.000000,-36.000000,-24.000000,-3.000000,-17.000000,-1.000000
1302568.829416,4.000000,0.000000,-45.000000,-22.000000,-4.000000,-19.000000,39.000000,11.000000
1302568.830638,0.000000,17.000000,27.000000,10.000000,-9.000000,-7.000000,-20.000000,-3.000000
1302568.830645,-3.000000,18.000000,16.000000,31.000000,16.000000,-8.000000,-7.000000,-10.000000
1302568.831230,8.000000,36.000000,-22.000000,41.000000,46.000000,0.000000,-10.000000,18.000000
1302568.831238,-31.000000,-59.000000,32.000000,-28.000000,-36.000000,-3.000000,-4.000000,-1.000000
1302568.836056,-6.000000,-9.000000,0.000000,-4.000000,0.000000,-26.000000,5.000000,8.000000
1302568.836068,3.000000,14.000000,-2.000000,-16.000000,-33.000000,1.000000,-12.000000,1.000000
1302568.851468,-5.000000,-33.000000,-64.000000,-37.000000,-5.000000,-8.000000,-24.000000,-19.000000
1302568.851489,-17.000000,19.000000,115.000000,96.000000,48.000000,1.000000,-86.000000,-20.000000
1302568.873451,14.000000,9.000000,-16.000000,-15.000000,-16.000000,13.000000,123.000000,15.000000
1302568.873463,-9.000000,-28.000000,-57.000000,0.000000,-7.000000,-13.000000,-23.000000,10.000000
1302568.874851,-14.000000,-3.000000,-4.000000,17.000000,33.000000,4.000000,-100.000000,-29.000000
1302568.874862,5.000000,-19.000000,25.000000,-32.000000,-38.000000,21.000000,127.000000,57.000000
1302568.888780,3.000000,-16.000000,-101.000000,-29.000000,2.000000,-13.000000,-39.000000,18.000000
1302568.888793,-22.000000,-2.000000,35.000000,14.000000,-12.000000,-24.000000,-51.000000,-45.000000
1302568.903515,24.000000,16.000000,-54.000000,-42.000000,-1.000000,-9.000000,-6.000000,23.000000
1302568.903543,17.000000,18.000000,33.000000,63.000000,23.000000,21.000000,26.000000,21.000000
1302568.910817,-21.000000,-42.000000,-16.000000,37.000000,29.000000,11.000000,11.000000,-17.000000
1302568.910845,-2.000000,-5.000000,-14.000000,-15.000000,-7.000000,-13.000000,-19.000000,-16.000000
1302568.926123,-13.000000,9.000000,31.000000,-19.000000,-10.000000,-6.000000,-9.000000,-26.000000
1302568.926134,42.000000,36.000000,47.000000,120.000000,83.000000,18.000000,15.000000,23.000000
1302568.948478,-54.000000,-91.000000,-31.000000,-1.000000,-5.000000,3.000000,-54.000000,-37.000000
1302568.948502,27.000000,12.000000,-31.000000,-24.000000,4.000000,-21.000000,81.000000,11.000000
1302568.963811,-11.000000,-25.000000,-20.000000,-12.000000,2.000000,-20.000000,-30.000000,-12.000000
1302568.963829,25.000000,-15.000000,-4.000000,53.000000,50.000000,16.000000,7.000000,14.000000
1302568.964250,-27.000000,8.000000,42.000000,20.000000,-9.000000,-2.000000,-22.000000,-15.000000
1302568.964259,0.000000,8.000000,22.000000,1.000000,0.000000,6.000000,-22.000000,-1.000000
1302568.965637,-20.000000,-14.000000,-28.000000,-29.000000,-17.000000,-2.000000,-11.000000,-29.000000
1302568.965647,-13.000000,-31.000000,4.000000,-20.000000,-66.000000,-27.000000,-41.000000,-10.000000
1302568.966235,9.000000,25.000000,62.000000,-33.000000,-17.000000,43.000000,42.000000,-23.000000
1302568.966243,9.000000,-7.000000,-79.000000,81.000000,61.000000,8.000000,81.000000,52.000000
1302568.970759,-8.000000,-18.000000,8.000000,-50.000000,-85.000000,-9.000000,-50.000000,-16.000000
1302568.970788,19.000000,30.000000,73.000000,41.000000,30.000000,-4.000000,-9.000000,-21.000000
1302568.986130,-19.000000,-14.000000,-43.000000,-24.000000,-24.000000,-9.000000,-11.000000,-14.000000
1302568.986259,2.000000,14.000000,3.000000,-9.000000,7.000000,-13.000000,6.000000,16.000000
1302568.987097,-5.000000,3.000000,-24.000000,-11.000000,1.000000,2.000000,-28.000000,-14.000000
1302568.987105,16.000000,6.000000,31.000000,21.000000,12.000000,3.000000,27.000000,18.000000
1302569.000878,-6.000000,-20.000000,-18.000000,-50.000000,-28.000000,-8.000000,4.000000,-4.000000
1302569.000907,22.000000,17.000000,-40.000000,-11.000000,-5.000000,-10.000000,-5.000000,13.000000
1302569.023589,-22.000000,-22.000000,19.000000,3.000000,2.000000,-1.000000,21.000000,-17.000000
1302569.023600,-15.000000,-45.000000,-38.000000,-41.000000,-34.000000,14.000000,18.000000,9.000000
1302569.030822,-7.000000,13.000000,-13.000000,44.000000,28.000000,3.000000,-62.000000,-34.000000
1302569.030833,16.000000,13.000000,24.000000,27.000000,28.000000,7.000000,75.000000,11.000000
1302569.053096,6.000000,15.000000,72.000000,-10.000000,16.000000,-6.000000,-12.000000,-2.000000
1302569.053136,0.000000,7.000000,54.000000,15.000000,8.000000,31.000000,15.000000,25.000000
1302569.053562,12.000000,1.000000,-62.000000,-19.000000,-24.000000,-25.000000,-88.000000,2.000000
1302569.053571,-5.000000,13.000000,39.000000,-5.000000,-9.000000,9.000000,69.000000,-14.000000
1302569.055248,-3.000000,7.000000,6.000000,-5.000000,-18.000000,-2.000000,-15.000000,2.000000
1302569.055257,-7.000000,-6.000000,-22.000000,-42.000000,-24.000000,-9.000000,-24.000000,-14.000000
1302569.060909,-31.000000,-30.000000,-46.000000,-8.000000,-28.000000,-16.000000,-28.000000,-32.000000
1302569.060920,17.000000,33.000000,74.000000,47.000000,35.000000,13.000000,23.000000,27.000000
1302569.069093,8.000000,22.000000,-31.000000,12.000000,20.000000,-9.000000,-41.000000,9.000000
1302569.069103,-18.000000,-28.000000,-13.000000,27.000000,-6.000000,-27.000000,-39.000000,-42.000000
1302569.075990,19.000000,1.000000,-41.000000,13.000000,16.000000,11.000000,99.000000,74.000000
1302569.076001,20.000000,29.000000,-22.000000,-49.000000,-36.000000,-8.000000,-30.000000,-4.000000
1302569.091495,-10.000000,2.000000,-19.000000,12.000000,25.000000,21.000000,13.000000,3.000000
1302569.091504,2.000000,-25.000000,53.000000,26.000000,-5.000000,0.000000,4.000000,9.000000
1302569.105639,-13.000000,-36.000000,-34.000000,-30.000000,-22.000000,-9.000000,-12.000000,-27.000000
1302569.105672,1.000000,0.000000,42.000000,-17.000000,1.000000,27.000000,2.000000,24.000000
1302569.106906,-2.000000,46.000000,61.000000,8.000000,-18.000000,-9.000000,40.000000,2.000000
1302569.106914,-2.000000,22.000000,-4.000000,19.000000,3.000000,-6.000000,-30.000000,-24.000000
1302569.121216,-13.000000,-38.000000,-4.000000,-15.000000,-11.000000,-9.000000,-8.000000,3.000000
1302569.121243,37.000000,42.000000,56.000000,43.000000,32.000000,50.000000,41.000000,6.000000
1302569.150856,12.000000,30.000000,30.000000,11.000000,-21.000000,-35.000000,-55.000000,-3.000000
1302569.150867,-34.000000,-42.000000,-21.000000,9.000000,6.000000,-14.000000,2.000000,-17.000000
1302569.166057,47.000000,36.000000,48.000000,90.000000,95.000000,25.000000,4.000000,-3.000000
1302569.166068,2.000000,38.000000,5.000000,14.000000,7.000000,27.000000,39.000000,39.000000
1302569.181257,-15.000000,-2.000000,-9.000000,13.000000,-14.000000,-18.000000,8.000000,4.000000
1302569.181268,-19.000000,-13.000000,12.000000,-9.000000,-8.000000,-4.000000,-47.000000,-49.000000
1302569.181755,30.000000,72.000000,33.000000,4.000000,-5.000000,0.000000,-27.000000,6.000000
1302569.181763,-20.000000,-45.000000,-91.000000,-45.000000,-17.000000,-5.000000,74.000000,23.000000
1302569.183252,-4.000000,14.000000,47.000000,2.000000,-14.000000,12.000000,-36.000000,-5.000000
1302569.183287,-4.000000,21.000000,-4.000000,-19.000000,-7.000000,-16.000000,-31.000000,-20.000000
1302569.184085,24.000000,23.000000,1.000000,60.000000,23.000000,4.000000,-62.000000,-8.000000
1302569.184094,19.000000,33.000000,-33.000000,-20.000000,-7.000000,2.000000,84.000000,7.000000
1302569.188884,-5.000000,-6.000000,76.000000,23.000000,-1.000000,-8.000000,-56.000000,-6.000000
1302569.188912,-8.000000,-14.000000,-40.000000,-37.000000,-16.000000,-5.000000,-11.000000,-6.000000
1302569.203418,12.000000,18.000000,-37.000000,6.000000,29.000000,15.000000,39.000000,19.000000
1302569.203431,5.000000,14.000000,-3.000000,-20.000000,1.000000,-7.000000,16.000000,1.000000
1302569.225778,-17.000000,-5.000000,8.000000,-4.000000,-44.000000,-30.000000,-42.000000,-19.000000
1302569.225799,-3.000000,-16.000000,5.000000,4.000000,-12.000000,-40.000000,-56.000000,3.000000
1302569.226281,26.000000,33.000000,27.000000,24.000000,6.000000,30.000000,63.000000,27.000000
1302569.226294,-8.000000,6.000000,62.000000,-7.000000,32.000000,30.000000,16.000000,35.000000
1302569.227816,28.000000,32.000000,-13.000000,-18.000000,-13.000000,-16.000000,15.000000,14.000000
1302569.227830,7.000000,16.000000,-46.000000,-24.000000,-29.000000,-5.000000,6.000000,17.000000
1302569.241049,-6.000000,4.000000,104.000000,35.000000,-13.000000,-1.000000,-9.000000,-37.000000
1302569.241074,12.000000,33.000000,13.000000,-1.000000,5.000000,10.000000,28.000000,36.000000
1302569.263448,9.000000,25.000000,-4.000000,31.000000,44.000000,10.000000,5.000000,-8.000000
1302569.263458,-31.000000,-102.000000,-11.000000,0.000000,-5.000000,-12.000000,-17.000000,-14.000000
1302569.278533,-6.000000,27.000000,43.000000,-8.000000,4.000000,21.000000,-22.000000,-16.000000
1302569.278553,-17.000000,-50.000000,-33.000000,-36.000000,-34.000000,-40.000000,20.000000,-8.000000
1302569.301053,0.000000,-50.000000,-20.000000,59.000000,45.000000,18.000000,2.000000,17.000000
1302569.301064,17.000000,76.000000,-2.000000,-25.000000,-21.000000,-14.000000,-61.000000,-29.000000
1302569.308451,3.000000,10.000000,64.000000,31.000000,-6.000000,12.000000,49.000000,7.000000
1302569.308461,15.000000,10.000000,-28.000000,2.000000,15.000000,3.000000,-27.000000,5.000000
1302569.330837,-36.000000,-41.000000,-23.000000,0.000000,-12.000000,-12.000000,19.000000,-6.000000
1302569.330865,56.000000,40.000000,-4.000000,-4.000000,-12.000000,1.000000,-16.000000,27.000000
1302569.346062,-26.000000,-26.000000,-57.000000,-29.000000,-2.000000,-19.000000,-80.000000,-13.000000
1302569.346074,3.000000,9.000000,-20.000000,-1.000000,1.000000,-32.000000,13.000000,7.000000
1302569.346914,-32.000000,15.000000,33.000000,-8.000000,-24.000000,-10.000000,-48.000000,-8.000000
1302569.346925,29.000000,5.000000,-23.000000,24.000000,12.000000,12.000000,80.000000,-10.000000
1302569.347478,-4.000000,-8.000000,17.000000,-11.000000,-34.000000,-8.000000,-13.000000,9.000000
1302569.347486,-21.000000,15.000000,25.000000,-19.000000,4.000000,-26.000000,-107.000000,-32.000000
1302569.349387,-9.000000,21.000000,36.000000,4.000000,6.000000,2.000000,-36.000000,-37.000000
1302569.349398,8.000000,25.000000,58.000000,78.000000,38.000000,-3.000000,32.000000,25.000000
1302569.368473,8.000000,28.000000,-6.000000,-14.000000,-21.000000,-38.000000,-45.000000,-20.000000
1302569.368508,19.000000,13.000000,17.000000,-6.000000,17.000000,9.000000,7.000000,-2.000000
1302569.391134,-9.000000,0.000000,12.000000,24.000000,0.000000,-15.000000,-5.000000,-25.000000
1302569.391148,-13.000000,-27.000000,-16.000000,26.000000,9.000000,12.000000,48.000000,23.000000
1302569.398655,2.000000,15.000000,36.000000,-60.000000,-48.000000,-13.000000,-23.000000,-1.000000
1302569.398668,-7.000000,-14.000000,-16.000000,5.000000,4.000000,-12.000000,-18.000000,-1.000000
1302569.413387,-7.000000,-20.000000,-15.000000,-40.000000,-13.000000,-25.000000,-128.000000,-43.000000
1302569.413405,22.000000,23.000000,-34.000000,-28.000000,-36.000000,41.000000,127.000000,11.000000
1302569.428345,3.000000,-25.000000,-28.000000,60.000000,38.000000,-9.000000,-7.000000,-6.000000
1302569.428366,-1.000000,-9.000000,-2.000000,-2.000000,-11.000000,-26.000000,-51.000000,-8.000000
1302569.429258,-12.000000,-2.000000,-22.000000,-34.000000,-27.000000,-13.000000,-9.000000,-10.000000
1302569.429275,-15.000000,-74.000000,-31.000000,-21.000000,-28.000000,10.000000,-5.000000,-45.000000
1302569.429848,0.000000,-12.000000,-7.000000,-7.000000,5.000000,12.000000,29.000000,18.000000
1302569.429856,-2.000000,7.000000,4.000000,-6.000000,-8.000000,0.000000,-3.000000,-9.000000
1302569.431375,-14.000000,-7.000000,15.000000,28.000000,14.000000,-3.000000,-35.000000,-9.000000
1302569.431383,9.000000,14.000000,54.000000,92.000000,38.000000,24.000000,90.000000,29.000000
1302569.443453,4.000000,21.000000,-19.000000,-10.000000,9.000000,11.000000,-1.000000,13.000000
1302569.443464,-23.000000,-22.000000,22.000000,11.000000,-26.000000,13.000000,-11.000000,-34.000000
1302569.450856,17.000000,20.000000,2.000000,28.000000,-9.000000,8.000000,72.000000,57.000000
1302569.450867,-17.000000,-34.000000,-34.000000,-19.000000,4.000000,7.000000,-13.000000,16.000000
1302569.458274,-7.000000,23.000000,-5.000000,11.000000,24.000000,16.000000,-34.000000,-35.000000
1302569.458344,-15.000000,-36.000000,-66.000000,-33.000000,-19.000000,-42.000000,11.000000,28.000000
1302569.473365,9.000000,14.000000,-1.000000,38.000000,40.000000,20.000000,38.000000,11.000000
1302569.473375,-4.000000,37.000000,13.000000,-23.000000,14.000000,-3.000000,-11.000000,36.000000
1302569.480811,4.000000,10.000000,33.000000,-5.000000,-15.000000,17.000000,17.000000,-3.000000
1302569.480821,5.000000,-13.000000,-41.000000,22.000000,20.000000,4.000000,-16.000000,-6.000000
1302569.503578,-30.000000,-68.000000,-20.000000,24.000000,13.000000,-6.000000,-70.000000,-5.000000
1302569.503601,2.000000,-8.000000,-32.000000,-55.000000,-39.000000,-16.000000,55.000000,-6.000000
1302569.510976,6.000000,-30.000000,-46.000000,-26.000000,9.000000,12.000000,-6.000000,22.000000
1302569.510993,-18.000000,16.000000,0.000000,49.000000,52.000000,-10.000000,-107.000000,-37.000000
1302569.541531,53.000000,59.000000,112.000000,127.000000,106.000000,44.000000,127.000000,23.000000
1302569.541557,-3.000000,-38.000000,-64.000000,-22.000000,-9.000000,-8.000000,-35.000000,0.000000
1302569.555851,-2.000000,20.000000,27.000000,-9.000000,0.000000,-1.000000,-35.000000,-15.000000
1302569.555866,-19.000000,8.000000,30.000000,-5.000000,-6.000000,6.000000,-6.000000,-6.000000
1302569.563633,-2.000000,2.000000,-36.000000,14.000000,34.000000,11.000000,-56.000000,-4.000000
1302569.563643,-6.000000,3.000000,-30.000000,-1.000000,-6.000000,-4.000000,43.000000,-7.000000
1302569.564283,4.000000,8.000000,-9.000000,43.000000,-2.000000,-10.000000,10.000000,8.000000
1302569.564293,7.000000,-23.000000,2.000000,48.000000,42.000000,-3.000000,-25.000000,-7.000000
1302569.565676,-15.000000,-37.000000,-51.000000,-24.000000,-32.000000,-25.000000,30.000000,22.000000
1302569.565695,13.000000,37.000000,23.000000,-3.000000,18.000000,-2.000000,-66.000000,6.000000
1302569.566207,2.000000,15.000000,35.000000,-27.000000,-48.000000,29.000000,104.000000,52.000000
1302569.566215,-11.000000,-22.000000,-47.000000,37.000000,31.000000,3.000000,-11.000000,0.000000
1302569.578426,12.000000,-3.000000,1.000000,-22.000000,-30.000000,-12.000000,2.000000,-27.000000
1302569.578439,-7.000000,-2.000000,7.000000,0.000000,1.000000,6.000000,-14.000000,-14.000000
1302569.579127,-2.000000,-4.000000,5.000000,-33.000000,-25.000000,2.000000,5.000000,-1.000000
1302569.579135,9.000000,21.000000,78.000000,95.000000,55.000000,21.000000,21.000000,13.000000
1302569.600974,0.000000,-10.000000,-58.000000,-19.000000,-1.000000,-10.000000,-23.000000,-7.000000
1302569.600984,-25.000000,11.000000,16.000000,-34.000000,-18.000000,-5.000000,-20.000000,-11.000000
1302569.608507,-6.000000,-1.000000,70.000000,-11.000000,9.000000,7.000000,4.000000,-12.000000
1302569.608529,27.000000,9.000000,-37.000000,5.000000,31.000000,-20.000000,-81.000000,-36.000000
1302569.645857,-5.000000,24.000000,36.000000,65.000000,20.000000,26.000000,125.000000,29.000000
1302569.645868,-16.000000,-74.000000,-87.000000,1.000000,24.000000,18.000000,-16.000000,14.000000
1302569.660963,-10.000000,6.000000,-9.000000,-5.000000,-22.000000,-22.000000,-29.000000,-17.000000
1302569.660996,21.000000,50.000000,79.000000,0.000000,-5.000000,-3.000000,-33.000000,18.000000
1302569.661959,-16.000000,-22.000000,-48.000000,-22.000000,-26.000000,-5.000000,-21.000000,-46.000000
1302569.661968,-4.000000,-22.000000,-46.000000,11.000000,14.000000,4.000000,-12.000000,-2.000000
1302569.662710,2.000000,9.000000,98.000000,41.000000,-11.000000,9.000000,41.000000,5.000000
1302569.662719,-3.000000,-6.000000,-39.000000,-13.000000,-14.000000,0.000000,-10.000000,1.000000
1302569.663878,7.000000,19.000000,40.000000,100.000000,86.000000,18.000000,4.000000,11.000000
1302569.663894,1.000000,-16.000000,-38.000000,-92.000000,-79.000000,-23.000000,-14.000000,-2.000000
1302569.664776,18.000000,26.000000,14.000000,5.000000,22.000000,22.000000,-21.000000,-20.000000
1302569.664804,10.000000,-28.000000,-33.000000,-20.000000,-14.000000,-6.000000,69.000000,44.000000
1302569.669332,5.000000,0.000000,8.000000,31.000000,26.000000,6.000000,-11.000000,8.000000
1302569.669345,-18.000000,-26.000000,-67.000000,-39.000000,-12.000000,-12.000000,21.000000,-4.000000
1302569.683319,-5.000000,-8.000000,47.000000,4.000000,-5.000000,3.000000,-32.000000,-30.000000
1302569.683331,7.000000,-9.000000,22.000000,4.000000,-26.000000,-9.000000,-5.000000,7.000000
1302569.705994,9.000000,13.000000,-41.000000,-60.000000,-22.000000,-3.000000,-13.000000,-2.000000
1302569.706004,-9.000000,-10.000000,-14.000000,-43.000000,-18.000000,-4.000000,-17.000000,-8.000000
1302569.728429,0.000000,7.000000,0.000000,-40.000000,-16.000000,-34.000000,-95.000000,-10.000000
1302569.728439,12.000000,-15.000000,-20.000000,2.000000,4.000000,8.000000,80.000000,6.000000
1302569.743574,-4.000000,-11.000000,-1.000000,-6.000000,-7.000000,4.000000,20.000000,2.000000
1302569.743595,3.000000,-21.000000,-52.000000,-7.000000,-4.000000,-22.000000,-42.000000,-1.000000
1302569.758726,-22.000000,-7.000000,-10.000000,-27.000000,-10.000000,-7.000000,-3.000000,-17.000000
1302569.758743,-8.000000,2.000000,-46.000000,-14.000000,6.000000,5.000000,-12.000000,-2.000000
1302569.781031,-13.000000,-12.000000,64.000000,17.000000,16.000000,0.000000,-27.000000,-15.000000
1302569.781055,10.000000,-11.000000,-51.000000,-65.000000,-3.000000,-21.000000,-17.000000,0.000000
1302569.781403,18.000000,42.000000,84.000000,52.000000,26.000000,22.000000,47.000000,24.000000
1302569.781425,-8.000000,-48.000000,-64.000000,-10.000000,-9.000000,-12.000000,-21.000000,6.000000
1302569.782643,-17.000000,-37.000000,-26.000000,-60.000000,-40.000000,-19.000000,-26.000000,-20.000000
1302569.782654,-20.000000,-10.000000,-42.000000,-39.000000,-37.000000,-42.000000,-112.000000,-29.000000
1302569.783382,34.000000,49.000000,127.000000,65.000000,46.000000,46.000000,127.000000,16.000000
1302569.783405,-6.000000,-24.000000,-1.000000,14.000000,18.000000,4.000000,-18.000000,11.000000
1302569.784292,1.000000,4.000000,-30.000000,-24.000000,3.000000,-6.000000,-74.000000,-9.000000
1302569.784301,-22.000000,-1.000000,0.000000,-30.000000,-30.000000,-20.000000,-30.000000,-26.000000
1302569.796394,10.000000,25.000000,14.000000,-11.000000,3.000000,6.000000,24.000000,6.000000
1302569.796403,-5.000000,6.000000,24.000000,-25.000000,-38.000000,-16.000000,-61.000000,3.000000
1302569.803107,-20.000000,-95.000000,-56.000000,-20.000000,-22.000000,-7.000000,18.000000,-10.000000
1302569.803116,12.000000,16.000000,-14.000000,-8.000000,-11.000000,-20.000000,-37.000000,-7.000000
1302569.818412,-5.000000,10.000000,-34.000000,62.000000,38.000000,18.000000,27.000000,5.000000
1302569.818425,-2.000000,-12.000000,17.000000,30.000000,11.000000,6.000000,-5.000000,-2.000000
1302569.819201,-10.000000,18.000000,18.000000,-25.000000,-17.000000,-21.000000,22.000000,26.000000
1302569.819210,11.000000,8.000000,-31.000000,30.000000,8.000000,7.000000,21.000000,21.000000
1302569.856060,12.000000,19.000000,59.000000,-23.000000,-46.000000,-10.000000,-44.000000,-1.000000
1302569.856072,-8.000000,-20.000000,-55.000000,-33.000000,-4.000000,13.000000,28.000000,-21.000000
1302569.863577,-1.000000,-19.000000,-17.000000,21.000000,25.000000,0.000000,1.000000,29.000000
1302569.863589,20.000000,-19.000000,-12.000000,10.000000,-12.000000,22.000000,-5.000000,15.000000
1302569.885845,-2.000000,-7.000000,77.000000,24.000000,6.000000,-25.000000,-37.000000,-13.000000
1302569.885874,-8.000000,-2.000000,-67.000000,-43.000000,-31.000000,-1.000000,24.000000,-17.000000
1302569.901068,33.000000,45.000000,-13.000000,-41.000000,-23.000000,7.000000,-6.000000,21.000000
1302569.901108,-20.000000,-45.000000,4.000000,28.000000,-9.000000,10.000000,31.000000,1.000000
1302569.901925,17.000000,22.000000,-3.000000,-29.000000,-13.000000,-19.000000,-14.000000,-1.000000
1302569.901933,-5.000000,8.000000,16.000000,-24.000000,-18.000000,-6.000000,-34.000000,-8.000000
1302569.902522,-17.000000,-17.000000,25.000000,-11.000000,0.000000,2.000000,9.000000,-7.000000
1302569.902530,10.000000,17.000000,18.000000,1.000000,-20.000000,-2.000000,18.000000,13.000000
1302569.903711,-19.000000,-53.000000,-42.000000,-33.000000,1.000000,-2.000000,-53.000000,16.000000
1302569.903718,12.000000,40.000000,6.000000,11.000000,6.000000,17.000000,98.000000,21.000000
1302569.904675,-7.000000,-15.000000,40.000000,28.000000,-2.000000,-1.000000,-42.000000,-25.000000
1302569.904683,3.000000,-4.000000,-28.000000,-17.000000,-8.000000,1.000000,41.000000,40.000000
1302569.938550,5.000000,21.000000,30.000000,21.000000,26.000000,29.000000,-7.000000,-17.000000
1302569.938570,3.000000,-43.000000,-11.000000,-2.000000,-23.000000,-21.000000,53.000000,48.000000
1302569.945732,-4.000000,-4.000000,-90.000000,-2.000000,-1.000000,8.000000,-20.000000,-13.000000
1302569.945742,-6.000000,0.000000,-6.000000,-20.000000,-9.000000,-7.000000,-21.000000,-20.000000
1302569.983523,3.000000,-10.000000,-45.000000,7.000000,-10.000000,-13.000000,-44.000000,-10.000000
1302569.983540,2.000000,-2.000000,14.000000,41.000000,53.000000,-9.000000,0.000000,-10.000000
1302569.998416,31.000000,17.000000,-12.000000,16.000000,48.000000,24.000000,54.000000,16.000000
1302569.998426,-2.000000,-3.000000,-5.000000,2.000000,12.000000,-7.000000,-24.000000,-15.000000
1302570.013328,-2.000000,1.000000,-43.000000,-2.000000,-17.000000,-16.000000,-45.000000,1.000000
1302570.013338,7.000000,45.000000,84.000000,119.000000,72.000000,28.000000,51.000000,-12.000000
1302570.020748,9.000000,-13.000000,-89.000000,-57.000000,-56.000000,-14.000000,37.000000,29.000000
1302570.020762,-14.000000,-45.000000,7.000000,21.000000,8.000000,-13.000000,-50.000000,-29.000000
1302570.036268,18.000000,-32.000000,-77.000000,-40.000000,-40.000000,-33.000000,-2.000000,18.000000
1302570.036277,-7.000000,-5.000000,64.000000,25.000000,21.000000,-1.000000,-57.000000,-19.000000
1302570.036958,-5.000000,-20.000000,56.000000,75.000000,55.000000,18.000000,-2.000000,-4.000000
1302570.036969,-10.000000,-3.000000,-15.000000,-19.000000,-19.000000,-23.000000,-52.000000,-8.000000
1302570.037461,15.000000,33.000000,32.000000,-13.000000,-3.000000,4.000000,25.000000,26.000000
1302570.037468,-17.000000,-8.000000,-35.000000,20.000000,6.000000,12.000000,-16.000000,-13.000000
1302570.038162,14.000000,7.000000,-1.000000,-2.000000,15.000000,10.000000,43.000000,17.000000
1302570.038170,-6.000000,19.000000,13.000000,1.000000,-8.000000,-6.000000,-46.000000,-22.000000
1302570.059175,-13.000000,-19.000000,-28.000000,-30.000000,-12.000000,8.000000,-11.000000,-12.000000
1302570.059256,2.000000,26.000000,56.000000,3.000000,5.000000,5.000000,11.000000,16.000000
1302570.080906,-8.000000,-23.000000,-47.000000,-33.000000,-10.000000,-1.000000,-21.000000,-15.000000
1302570.080921,1.000000,1.000000,2.000000,-1.000000,-9.000000,-4.000000,-3.000000,5.000000
1302570.096150,-1.000000,10.000000,36.000000,-47.000000,-44.000000,-17.000000,-6.000000,-5.000000
1302570.096162,-3.000000,-15.000000,-71.000000,-37.000000,-5.000000,-11.000000,-21.000000,-24.000000
1302570.133198,-8.000000,16.000000,113.000000,61.000000,20.000000,-1.000000,-12.000000,19.000000
1302570.133208,16.000000,24.000000,-45.000000,-49.000000,-14.000000,21.000000,87.000000,12.000000
1302570.133719,12.000000,4.000000,5.000000,106.000000,79.000000,11.000000,-19.000000,17.000000
1302570.133726,-10.000000,-3.000000,46.000000,34.000000,1.000000,15.000000,22.000000,-1.000000
1302570.134917,5.000000,3.000000,4.000000,-24.000000,4.000000,9.000000,-27.000000,7.000000
1302570.134925,9.000000,-9.000000,-30.000000,30.000000,22.000000,-5.000000,-18.000000,-9.000000
1302570.135577,11.000000,14.000000,-2.000000,16.000000,-3.000000,25.000000,43.000000,36.000000
1302570.135584,-24.000000,-38.000000,4.000000,-27.000000,1.000000,16.000000,-36.000000,-25.000000
1302570.136316,27.000000,28.000000,19.000000,16.000000,25.000000,0.000000,48.000000,24.000000
1302570.136324,7.000000,-24.000000,-45.000000,-17.000000,-8.000000,3.000000,8.000000,12.000000
1302570.137199,-4.000000,-6.000000,12.000000,-44.000000,-52.000000,2.000000,-37.000000,-48.000000
1302570.137207,8.000000,-9.000000,15.000000,35.000000,42.000000,15.000000,127.000000,56.000000
1302570.141026,-3.000000,24.000000,39.000000,-20.000000,-4.000000,-7.000000,-31.000000,-13.000000
1302570.141037,-8.000000,-9.000000,10.000000,-1.000000,1.000000,-15.000000,-68.000000,-35.000000
1302570.156622,-13.000000,-7.000000,-56.000000,-25.000000,-11.000000,-11.000000,-23.000000,12.000000
1302570.156636,5.000000,-14.000000,49.000000,-5.000000,-62.000000,21.000000,62.000000,20.000000
1302570.163426,15.000000,15.000000,15.000000,3.000000,8.000000,4.000000,18.000000,20.000000
1302570.163449,-5.000000,-5.000000,-15.000000,-20.000000,-16.000000,-17.000000,-32.000000,-3.000000
1302570.178432,-2.000000,1.000000,-26.000000,-59.000000,-33.000000,-4.000000,-17.000000,-14.000000
1302570.178444,16.000000,29.000000,19.000000,89.000000,54.000000,13.000000,15.000000,25.000000
1302570.200881,-2.000000,-30.000000,-46.000000,-16.000000,-24.000000,-6.000000,-29.000000,-18.000000
1302570.200891,-4.000000,9.000000,42.000000,-8.000000,0.000000,-1.000000,25.000000,16.000000
1302570.223255,-11.000000,-31.000000,-46.000000,-6.000000,-2.000000,12.000000,9.000000,3.000000
1302570.223283,1.000000,19.000000,-30.000000,-23.000000,-31.000000,-23.000000,-59.000000,-22.000000
1302570.231146,18.000000,-1.000000,14.000000,17.000000,21.000000,4.000000,84.000000,31.000000
1302570.231159,-1.000000,25.000000,21.000000,6.000000,2.000000,7.000000,-25.000000,-18.000000
1302570.260982,-4.000000,12.000000,-11.000000,-36.000000,-14.000000,-14.000000,-70.000000,-28.000000
1302570.261016,24.000000,16.000000,-9.000000,48.000000,-4.000000,2.000000,75.000000,25.000000
1302570.261513,2.000000,-4.000000,43.000000,-3.000000,1.000000,20.000000,37.000000,31.000000
1302570.261541,-14.000000,-8.000000,-23.000000,-32.000000,-21.000000,-15.000000,-88.000000,-25.000000
1302570.262726,-12.000000,-48.000000,-84.000000,-101.000000,-33.000000,-14.000000,66.000000,-8.000000
1302570.262735,-2.000000,19.000000,54.000000,14.000000,11.000000,-1.000000,-79.000000,-12.000000
1302570.263241,18.000000,41.000000,8.000000,-10.000000,-6.000000,15.000000,1.000000,-21.000000
1302570.263248,-13.000000,-60.000000,9.000000,-6.000000,11.000000,15.000000,70.000000,38.000000
1302570.264824,-7.000000,-8.000000,-24.000000,-25.000000,-27.000000,-17.000000,-33.000000,-1.000000
1302570.264988,-5.000000,15.000000,-38.000000,-42.000000,-39.000000,-5.000000,-38.000000,-24.000000
1302570.275988,-16.000000,3.000000,-54.000000,-13.000000,-21.000000,-35.000000,-15.000000,-7.000000
1302570.275997,-23.000000,-25.000000,16.000000,-70.000000,-67.000000,-26.000000,-69.000000,-29.000000
1302570.283394,12.000000,8.000000,-12.000000,-25.000000,1.000000,-9.000000,53.000000,35.000000
1302570.283407,-4.000000,27.000000,63.000000,69.000000,31.000000,19.000000,36.000000,12.000000
1302570.290939,1.000000,-15.000000,-41.000000,-13.000000,-10.000000,-45.000000,-10.000000,-17.000000
1302570.290953,-11.000000,8.000000,14.000000,34.000000,3.000000,6.000000,-14.000000,-3.000000
1302570.298737,-6.000000,-17.000000,-23.000000,-13.000000,1.000000,13.000000,34.000000,10.000000
1302570.298781,-10.000000,13.000000,15.000000,-2.000000,7.000000,-5.000000,-77.000000,-18.000000
1302570.320731,-4.000000,9.000000,-31.000000,-21.000000,-34.000000,-27.000000,30.000000,-10.000000
1302570.320741,3.000000,-6.000000,17.000000,69.000000,71.000000,31.000000,11.000000,10.000000
1302570.335979,-10.000000,-7.000000,-4.000000,-25.000000,-12.000000,-24.000000,-21.000000,-21.000000
1302570.335999,30.000000,16.000000,29.000000,66.000000,60.000000,34.000000,78.000000,54.000000
1302570.358336,-5.000000,-4.000000,-33.000000,-26.000000,8.000000,-5.000000,-30.000000,-19.000000
1302570.358357,-3.000000,25.000000,73.000000,-69.000000,-50.000000,15.000000,-41.000000,-4.000000
1302570.373335,1.000000,-7.000000,-37.000000,-4.000000,2.000000,-35.000000,21.000000,0.000000
1302570.373351,-5.000000,-18.000000,-17.000000,5.000000,2.000000,1.000000,-11.000000,-3.000000
1302570.374447,-4.000000,6.000000,-26.000000,-10.000000,4.000000,-5.000000,-38.000000,-30.000000
1302570.374457,-13.000000,-8.000000,12.000000,-128.000000,-116.000000,4.000000,9.000000,5.000000
1302570.375075,-5.000000,-8.000000,33.000000,20.000000,12.000000,5.000000,12.000000,2.000000
1302570.375085,1.000000,-12.000000,-24.000000,-1.000000,-7.000000,-9.000000,40.000000,0.000000
1302570.376649,-4.000000,-20.000000,-12.000000,6.000000,13.000000,-4.000000,-22.000000,6.000000
1302570.376659,-22.000000,-19.000000,-41.000000,-6.000000,-2.000000,-14.000000,-37.000000,-18.000000
1302570.395721,9.000000,7.000000,42.000000,20.000000,15.000000,0.000000,-5.000000,-2.000000
1302570.395739,4.000000,13.000000,-67.000000,-34.000000,-11.000000,20.000000,48.000000,34.000000
1302570.397090,0.000000,-15.000000,17.000000,9.000000,20.000000,3.000000,22.000000,3.000000
1302570.397105,-18.000000,-13.000000,-5.000000,-17.000000,-24.000000,-14.000000,-105.000000,-1.000000
1302570.413305,-19.000000,-25.000000,-23.000000,-11.000000,-15.000000,-12.000000,-51.000000,-3.000000
1302570.413318,2.000000,-37.000000,-13.000000,-27.000000,-9.000000,-4.000000,-18.000000,-30.000000
1302570.413367,14.000000,-3.000000,-32.000000,-23.000000,-5.000000,17.000000,80.000000,22.000000
1302570.413372,10.000000,9.000000,22.000000,-7.000000,-28.000000,1.000000,54.000000,32.000000
1302570.418668,21.000000,38.000000,60.000000,-2.000000,-11.000000,6.000000,30.000000,45.000000
1302570.418681,-7.000000,11.000000,-93.000000,-66.000000,-59.000000,-31.000000,-68.000000,-16.000000
1302570.440794,-6.000000,-12.000000,29.000000,19.000000,-8.000000,-2.000000,4.000000,-14.000000
1302570.440811,-3.000000,-19.000000,-4.000000,-1.000000,5.000000,-8.000000,3.000000,-11.000000
1302570.478921,4.000000,17.000000,-22.000000,-18.000000,1.000000,1.000000,-4.000000,9.000000
1302570.479024,-1.000000,3.000000,10.000000,-78.000000,-84.000000,-6.000000,23.000000,-13.000000
1302570.500792,-6.000000,15.000000,17.000000,-5.000000,13.000000,-4.000000,-12.000000,-17.000000
1302570.500820,14.000000,13.000000,30.000000,25.000000,10.000000,1.000000,13.000000,39.000000
1302570.516163,-4.000000,13.000000,40.000000,-7.000000,-11.000000,6.000000,-22.000000,-5.000000
1302570.516175,-1.000000,-6.000000,-33.000000,-12.000000,-17.000000,-28.000000,10.000000,-14.000000
1302570.516975,7.000000,10.000000,-25.000000,-60.000000,-52.000000,-12.000000,17.000000,-6.000000
1302570.516983,-24.000000,-25.000000,35.000000,21.000000,-6.000000,-3.000000,-15.000000,-8.000000
1302570.517476,24.000000,36.000000,0.000000,4.000000,18.000000,18.000000,-43.000000,-19.000000
1302570.517483,-6.000000,-29.000000,-57.000000,-34.000000,-17.000000,-22.000000,80.000000,1.000000
1302570.518193,22.000000,21.000000,28.000000,79.000000,6.000000,10.000000,-14.000000,0.000000
1302570.518201,-21.000000,-15.000000,1.000000,2.000000,-1.000000,1.000000,-7.000000,-21.000000
1302570.518980,-14.000000,-24.000000,26.000000,-29.000000,-52.000000,-52.000000,-27.000000,-14.000000
1302570.518987,16.000000,0.000000,-15.000000,-15.000000,9.000000,12.000000,12.000000,7.000000
1302570.530781,-5.000000,-7.000000,-21.000000,-9.000000,2.000000,-3.000000,-8.000000,-18.000000
1302570.530798,-10.000000,-9.000000,-3.000000,-3.000000,-9.000000,-6.000000,-6.000000,15.000000
1302570.553652,-2.000000,5.000000,15.000000,2.000000,-9.000000,-19.000000,-11.000000,-17.000000
1302570.553665,1.000000,19.000000,-28.000000,-69.000000,-37.000000,-18.000000,-24.000000,1.000000
1302570.561148,-15.000000,-23.000000,2.000000,32.000000,22.000000,-1.000000,-29.000000,-11.000000
1302570.561161,-7.000000,-14.000000,-18.000000,-97.000000,-53.000000,5.000000,6.000000,-22.000000
1302570.576112,15.000000,-17.000000,-10.000000,17.000000,0.000000,-18.000000,5.000000,9.000000
1302570.576128,-4.000000,16.000000,19.000000,-39.000000,-13.000000,6.000000,0.000000,-14.000000
1302570.583557,5.000000,4.000000,-14.000000,-52.000000,-24.000000,-4.000000,-5.000000,1.000000
1302570.583573,-14.000000,-35.000000,-83.000000,-44.000000,-12.000000,-12.000000,-30.000000,-12.000000
1302570.613983,-29.000000,-16.000000,-11.000000,48.000000,15.000000,5.000000,-12.000000,-28.000000
1302570.614014,10.000000,25.000000,-12.000000,-23.000000,-7.000000,0.000000,18.000000,9.000000
1302570.628546,3.000000,-4.000000,0.000000,-3.000000,-11.000000,-4.000000,-16.000000,6.000000
1302570.628556,-18.000000,-44.000000,-16.000000,-44.000000,-17.000000,1.000000,10.000000,-17.000000
1302570.651074,0.000000,10.000000,10.000000,-22.000000,-11.000000,-13.000000,-34.000000,43.000000
1302570.651085,-3.000000,-3.000000,38.000000,35.000000,12.000000,20.000000,48.000000,-14.000000
1302570.658544,6.000000,5.000000,-21.000000,9.000000,9.000000,21.000000,61.000000,44.000000
1302570.658555,8.000000,7.000000,-10.000000,-12.000000,-3.000000,-7.000000,-19.000000,-2.000000
1302570.688421,-5.000000,5.000000,27.000000,25.000000,10.000000,6.000000,-17.000000,-10.000000
1302570.688431,-20.000000,-44.000000,-47.000000,7.000000,28.000000,-10.000000,-28.000000,-18.000000
1302570.695913,10.000000,-1.000000,25.000000,84.000000,54.000000,14.000000,45.000000,-5.000000
1302570.695923,4.000000,-45.000000,-79.000000,-48.000000,-12.000000,-11.000000,-11.000000,2.000000
1302570.710817,7.000000,31.000000,65.000000,85.000000,53.000000,16.000000,-9.000000,-6.000000
1302570.710828,-3.000000,-6.000000,-37.000000,-42.000000,-40.000000,0.000000,-34.000000,-17.000000
1302570.718353,0.000000,16.000000,1.000000,-86.000000,-57.000000,-14.000000,9.000000,38.000000
1302570.718363,-6.000000,1.000000,3.000000,1.000000,9.000000,13.000000,37.000000,-11.000000
1302570.734295,24.000000,38.000000,38.000000,46.000000,22.000000,15.000000,14.000000,22.000000
1302570.734413,11.000000,12.000000,10.000000,23.000000,19.000000,10.000000,-42.000000,-6.000000
1302570.734651,-23.000000,9.000000,102.000000,27.000000,-7.000000,-3.000000,-19.000000,-24.000000
1302570.734667,17.000000,-12.000000,-77.000000,-14.000000,-6.000000,-14.000000,-28.000000,0.000000
1302570.735126,4.000000,28.000000,46.000000,69.000000,31.000000,6.000000,0.000000,-21.000000
1302570.735152,-1.000000,-25.000000,-6.000000,-14.000000,8.000000,1.000000,46.000000,37.000000
1302570.735838,-10.000000,-13.000000,-5.000000,5.000000,-3.000000,1.000000,-15.000000,-10.000000
1302570.735865,-12.000000,-20.000000,-36.000000,-31.000000,-9.000000,-8.000000,-19.000000,-8.000000
1302570.736622,1.000000,-6.000000,36.000000,9.000000,5.000000,-3.000000,18.000000,-6.000000
1302570.736650,10.000000,4.000000,-58.000000,-18.000000,-9.000000,13.000000,34.000000,18.000000
1302570.748376,0.000000,-41.000000,-55.000000,33.000000,-28.000000,-19.000000,-11.000000,18.000000
1302570.748404,-5.000000,16.000000,61.000000,-4.000000,2.000000,-4.000000,-68.000000,-24.000000
1302570.755929,-1.000000,-9.000000,-45.000000,-26.000000,-16.000000,-10.000000,91.000000,34.000000
1302570.755958,29.000000,41.000000,44.000000,-1.000000,-43.000000,25.000000,50.000000,41.000000
1302570.778588,-11.000000,-45.000000,-56.000000,-19.000000,4.000000,5.000000,-25.000000,-18.000000
1302570.778605,5.000000,38.000000,66.000000,8.000000,-6.000000,-5.000000,22.000000,26.000000
1302570.793726,-19.000000,-16.000000,-30.000000,-24.000000,-9.000000,-3.000000,-29.000000,-15.000000
1302570.793750,5.000000,-12.000000,-44.000000,8.000000,-5.000000,-14.000000,-33.000000,-10.000000
1302570.838592,-7.000000,-9.000000,-11.000000,-15.000000,16.000000,9.000000,36.000000,-10.000000
1302570.838603,3.000000,-14.000000,-35.000000,-12.000000,-9.000000,13.000000,38.000000,41.000000
1302570.846078,3.000000,-7.000000,-56.000000,3.000000,-12.000000,-18.000000,-27.000000,-6.000000
1302570.846089,3.000000,13.000000,27.000000,17.000000,-1.000000,7.000000,-29.000000,-3.000000
1302570.853937,-4.000000,-7.000000,-43.000000,-62.000000,-24.000000,-12.000000,3.000000,-9.000000
1302570.853955,4.000000,-3.000000,1.000000,75.000000,30.000000,-1.000000,-3.000000,-6.000000
1302570.854422,4.000000,-13.000000,10.000000,14.000000,-6.000000,-13.000000,-46.000000,-9.000000
1302570.854440,-7.000000,-5.000000,-60.000000,-23.000000,-1.000000,-2.000000,-21.000000,18.000000
1302570.854938,6.000000,-26.000000,21.000000,-20.000000,-25.000000,1.000000,34.000000,-3.000000
1302570.854946,-6.000000,5.000000,-7.000000,14.000000,14.000000,-10.000000,14.000000,-17.000000
1302570.855683,19.000000,-9.000000,-9.000000,-8.000000,-17.000000,0.000000,19.000000,37.000000
1302570.855692,1.000000,-4.000000,-31.000000,1.000000,3.000000,5.000000,-11.000000,-6.000000
1302570.856560,7.000000,-8.000000,-6.000000,10.000000,-9.000000,0.000000,-16.000000,-21.000000
1302570.856575,28.000000,66.000000,56.000000,127.000000,96.000000,35.000000,28.000000,46.000000
1302570.860857,-8.000000,-15.000000,-56.000000,-52.000000,-3.000000,-16.000000,-3.000000,-35.000000
1302570.860880,0.000000,-5.000000,49.000000,85.000000,89.000000,22.000000,-29.000000,-8.000000
1302570.875817,-1.000000,21.000000,39.000000,-1.000000,-1.000000,-10.000000,33.000000,-3.000000
1302570.875849,9.000000,-8.000000,-16.000000,9.000000,15.000000,9.000000,2.000000,21.000000
1302570.891106,-29.000000,-59.000000,-83.000000,-58.000000,-17.000000,-58.000000,-39.000000,-27.000000
1302570.891116,14.000000,45.000000,74.000000,85.000000,50.000000,9.000000,-79.000000,-12.000000
1302570.913459,-21.000000,3.000000,7.000000,-25.000000,-26.000000,3.000000,75.000000,-2.000000
1302570.913470,9.000000,-12.000000,-86.000000,-5.000000,25.000000,-2.000000,-3.000000,18.000000
1302570.928579,-8.000000,4.000000,59.000000,13.000000,4.000000,-4.000000,-37.000000,-30.000000
1302570.928590,-9.000000,1.000000,-3.000000,-8.000000,-9.000000,2.000000,0.000000,30.000000
1302570.950829,7.000000,0.000000,15.000000,-16.000000,-17.000000,-5.000000,-29.000000,-15.000000
1302570.950839,1.000000,10.000000,2.000000,37.000000,13.000000,11.000000,15.000000,-19.000000
1302570.951164,29.000000,32.000000,12.000000,29.000000,5.000000,-20.000000,-2.000000,28.000000
1302570.951172,10.000000,3.000000,43.000000,-26.000000,-49.000000,19.000000,53.000000,23.000000
1302570.952470,-7.000000,19.000000,57.000000,121.000000,79.000000,30.000000,20.000000,-3.000000
1302570.952486,13.000000,1.000000,-14.000000,-8.000000,14.000000,-7.000000,-22.000000,7.000000
1302570.953257,11.000000,-9.000000,37.000000,-38.000000,-29.000000,23.000000,24.000000,2.000000
1302570.953265,-6.000000,19.000000,-39.000000,4.000000,1.000000,-4.000000,28.000000,14.000000
1302570.965929,-29.000000,-53.000000,-3.000000,19.000000,54.000000,17.000000,-15.000000,-20.000000
1302570.965958,22.000000,66.000000,38.000000,54.000000,53.000000,13.000000,44.000000,4.000000
1302570.974064,-39.000000,-33.000000,-63.000000,-7.000000,9.000000,0.000000,-58.000000,-35.000000
1302570.974093,22.000000,39.000000,22.000000,89.000000,36.000000,-26.000000,-19.000000,33.000000
1302570.988327,8.000000,-9.000000,6.000000,8.000000,-16.000000,-12.000000,66.000000,3.000000
1302570.988339,10.000000,-18.000000,-40.000000,-16.000000,4.000000,-4.000000,-29.000000,14.000000
1302570.996248,-18.000000,-11.000000,-35.000000,-38.000000,-40.000000,-26.000000,-60.000000,-24.000000
1302570.996273,-6.000000,-19.000000,2.000000,-7.000000,0.000000,13.000000,45.000000,-1.000000
1302571.010870,-1.000000,12.000000,41.000000,2.000000,-20.000000,-13.000000,-44.000000,-15.000000
1302571.010885,-9.000000,5.000000,22.000000,13.000000,6.000000,-13.000000,2.000000,-14.000000
1302571.048456,4.000000,45.000000,54.000000,20.000000,55.000000,47.000000,-21.000000,7.000000
1302571.048467,-12.000000,-35.000000,-57.000000,-49.000000,-1.000000,-20.000000,15.000000,-14.000000
1302571.071165,5.000000,40.000000,103.000000,48.000000,1.000000,-3.000000,-53.000000,0.000000
1302571.071177,-7.000000,-22.000000,-28.000000,2.000000,-19.000000,-28.000000,-41.000000,-27.000000
1302571.093422,-6.000000,-51.000000,0.000000,-38.000000,-64.000000,-3.000000,71.000000,6.000000
1302571.093440,0.000000,1.000000,-38.000000,-5.000000,8.000000,-7.000000,-21.000000,15.000000
1302571.094357,-6.000000,3.000000,36.000000,-10.000000,5.000000,-8.000000,-31.000000,-15.000000
1302571.094376,-7.000000,-23.000000,11.000000,12.000000,34.000000,7.000000,-10.000000,-13.000000
1302571.094972,-9.000000,-7.000000,-37.000000,-71.000000,-30.000000,-7.000000,-26.000000,-11.000000
1302571.094998,8.000000,8.000000,-12.000000,28.000000,35.000000,6.000000,34.000000,22.000000
1302571.096353,-13.000000,-18.000000,-16.000000,-12.000000,-8.000000,-19.000000,-4.000000,-8.000000
1302571.096373,10.000000,-31.000000,-43.000000,-20.000000,-26.000000,4.000000,32.000000,43.000000
1302571.108926,-22.000000,-32.000000,-16.000000,-110.000000,-21.000000,-10.000000,-32.000000,-13.000000
1302571.108942,9.000000,10.000000,15.000000,-7.000000,12.000000,5.000000,27.000000,5.000000
1302571.115758,-19.000000,-14.000000,-33.000000,5.000000,7.000000,-12.000000,-31.000000,-30.000000
1302571.115767,22.000000,11.000000,-1.000000,-19.000000,-34.000000,-18.000000,25.000000,32.000000
1302571.130997,-23.000000,-43.000000,-25.000000,-22.000000,-8.000000,-2.000000,-14.000000,-16.000000
1302571.131007,-13.000000,15.000000,4.000000,-15.000000,6.000000,-1.000000,-39.000000,-15.000000
1302571.145777,6.000000,-18.000000,-35.000000,-45.000000,-42.000000,2.000000,23.000000,0.000000
1302571.145787,12.000000,23.000000,26.000000,57.000000,78.000000,29.000000,84.000000,24.000000
1302571.183846,1.000000,-4.000000,-7.000000,-6.000000,10.000000,0.000000,-29.000000,14.000000
1302571.183861,13.000000,3.000000,-7.000000,-17.000000,-29.000000,-33.000000,-31.000000,-7.000000
1302571.191165,-13.000000,-23.000000,-37.000000,4.000000,11.000000,9.000000,17.000000,4.000000
1302571.191182,-25.000000,12.000000,31.000000,7.000000,-2.000000,-2.000000,-43.000000,-32.000000
1302571.206003,15.000000,7.000000,33.000000,22.000000,3.000000,12.000000,45.000000,48.000000
