# participant_id: P12
# gesture: medium
# trial_number: 2
# stream_name: Myo_EMG
# stream_type: emg
# timestamp: 20260420_180116
# samples: 5718
# duration_sec: 30.690
# nominal_sample_rate: 200.0
# effective_sample_rate: 186.28
#
timestamp,emg_1,emg_2,emg_3,emg_4,emg_5,emg_6,emg_7,emg_8
1312768.057007,-63.000000,-33.000000,-4.000000,7.000000,-40.000000,-5.000000,15.000000,14.000000
1312768.057017,4.000000,1.000000,20.000000,20.000000,24.000000,-1.000000,0.000000,-22.000000
1312768.057658,32.000000,29.000000,20.000000,4.000000,-10.000000,5.000000,-2.000000,-1.000000
1312768.057667,-31.000000,-26.000000,-49.000000,-18.000000,-7.000000,-5.000000,20.000000,18.000000
1312768.058904,18.000000,44.000000,-3.000000,-6.000000,-16.000000,2.000000,5.000000,9.000000
1312768.058913,7.000000,3.000000,-2.000000,-2.000000,12.000000,3.000000,-3.000000,-7.000000
1312768.059815,-4.000000,-12.000000,24.000000,17.000000,3.000000,0.000000,2.000000,-4.000000
1312768.059823,3.000000,-7.000000,36.000000,-13.000000,-13.000000,1.000000,-8.000000,-2.000000
1312768.079353,22.000000,13.000000,-51.000000,-26.000000,-11.000000,-16.000000,6.000000,9.000000
1312768.079488,-5.000000,-22.000000,-9.000000,-13.000000,-3.000000,-14.000000,7.000000,10.000000
1312768.079729,-15.000000,29.000000,30.000000,13.000000,-1.000000,-2.000000,-20.000000,-19.000000
1312768.079738,38.000000,-10.000000,-13.000000,-12.000000,-1.000000,5.000000,1.000000,-8.000000
1312768.094117,-21.000000,23.000000,84.000000,4.000000,-20.000000,-13.000000,-23.000000,-39.000000
1312768.094127,24.000000,2.000000,36.000000,47.000000,18.000000,17.000000,46.000000,75.000000
1312768.102004,4.000000,48.000000,-7.000000,-32.000000,-16.000000,-9.000000,-20.000000,-35.000000
1312768.102037,-20.000000,-11.000000,-67.000000,-19.000000,29.000000,3.000000,-9.000000,-16.000000
1312768.117095,42.000000,37.000000,108.000000,-40.000000,-36.000000,-10.000000,10.000000,23.000000
1312768.117122,-44.000000,-12.000000,-71.000000,-8.000000,18.000000,11.000000,-6.000000,-18.000000
1312768.117600,6.000000,-10.000000,-5.000000,-16.000000,-16.000000,-12.000000,-7.000000,-27.000000
1312768.117630,10.000000,-11.000000,-8.000000,2.000000,12.000000,2.000000,-17.000000,34.000000
1312768.139464,-8.000000,16.000000,23.000000,-38.000000,-6.000000,-8.000000,37.000000,20.000000
1312768.139484,-9.000000,0.000000,25.000000,46.000000,0.000000,2.000000,-7.000000,-20.000000
1312768.154370,16.000000,-22.000000,-32.000000,-22.000000,-11.000000,3.000000,-13.000000,9.000000
1312768.154399,-49.000000,17.000000,-54.000000,-13.000000,-12.000000,-6.000000,-8.000000,-13.000000
1312768.176932,55.000000,32.000000,11.000000,-3.000000,-11.000000,-10.000000,-39.000000,-3.000000
1312768.176989,23.000000,-21.000000,6.000000,-13.000000,-9.000000,-3.000000,32.000000,24.000000
1312768.199237,-26.000000,-22.000000,-17.000000,-56.000000,-26.000000,-14.000000,8.000000,6.000000
1312768.199247,13.000000,-3.000000,-35.000000,22.000000,14.000000,11.000000,-15.000000,-18.000000
1312768.221834,-38.000000,-5.000000,20.000000,-12.000000,-20.000000,-22.000000,-25.000000,-14.000000
1312768.221864,44.000000,15.000000,22.000000,8.000000,8.000000,8.000000,34.000000,43.000000
1312768.236634,3.000000,-2.000000,26.000000,-17.000000,13.000000,-1.000000,-9.000000,-20.000000
1312768.236643,-7.000000,-8.000000,-4.000000,-1.000000,-1.000000,-12.000000,-7.000000,-16.000000
1312768.237686,-4.000000,9.000000,-73.000000,-4.000000,-1.000000,7.000000,4.000000,-4.000000
1312768.237708,-7.000000,-18.000000,1.000000,36.000000,11.000000,0.000000,2.000000,4.000000
1312768.238290,10.000000,-4.000000,16.000000,-1.000000,1.000000,7.000000,1.000000,2.000000
1312768.238311,-12.000000,4.000000,-28.000000,-12.000000,-4.000000,-1.000000,-4.000000,-4.000000
1312768.238860,-4.000000,28.000000,-3.000000,-6.000000,2.000000,-3.000000,-2.000000,-8.000000
1312768.238881,2.000000,-7.000000,8.000000,5.000000,5.000000,3.000000,9.000000,8.000000
1312768.239521,33.000000,20.000000,26.000000,11.000000,1.000000,0.000000,13.000000,12.000000
1312768.239542,15.000000,-2.000000,-48.000000,-25.000000,-11.000000,-12.000000,-20.000000,-11.000000
1312768.240390,-27.000000,2.000000,14.000000,-2.000000,-6.000000,-1.000000,-2.000000,-8.000000
1312768.240411,21.000000,-45.000000,-19.000000,9.000000,2.000000,2.000000,25.000000,31.000000
1312768.251959,-5.000000,22.000000,-46.000000,-2.000000,-7.000000,2.000000,18.000000,44.000000
1312768.251972,10.000000,9.000000,30.000000,-5.000000,2.000000,8.000000,4.000000,-23.000000
1312768.259344,8.000000,20.000000,2.000000,-19.000000,-27.000000,-7.000000,4.000000,21.000000
1312768.259355,10.000000,5.000000,-12.000000,-11.000000,6.000000,4.000000,-14.000000,-8.000000
1312768.296985,-8.000000,5.000000,74.000000,-1.000000,24.000000,3.000000,-8.000000,-21.000000
1312768.297014,-4.000000,-4.000000,-42.000000,-3.000000,-7.000000,-5.000000,-26.000000,-82.000000
1312768.319255,-9.000000,-11.000000,-26.000000,8.000000,-1.000000,9.000000,17.000000,69.000000
1312768.319265,-12.000000,-15.000000,-26.000000,-22.000000,-11.000000,-24.000000,-11.000000,-13.000000
1312768.320139,22.000000,35.000000,-21.000000,1.000000,2.000000,-3.000000,-9.000000,-8.000000
1312768.320146,-11.000000,-20.000000,-11.000000,26.000000,-10.000000,1.000000,-5.000000,-14.000000
1312768.320857,4.000000,-2.000000,-7.000000,-12.000000,-16.000000,-8.000000,-4.000000,-5.000000
1312768.320876,-15.000000,10.000000,31.000000,25.000000,27.000000,6.000000,-4.000000,-9.000000
1312768.322040,1.000000,-8.000000,13.000000,-33.000000,-17.000000,2.000000,6.000000,1.000000
1312768.322048,-15.000000,7.000000,20.000000,28.000000,6.000000,4.000000,30.000000,32.000000
1312768.323047,45.000000,22.000000,-1.000000,7.000000,8.000000,11.000000,22.000000,48.000000
1312768.323065,1.000000,-48.000000,-2.000000,-23.000000,-16.000000,-6.000000,-12.000000,-26.000000
1312768.334469,-13.000000,-15.000000,-37.000000,21.000000,4.000000,-3.000000,-13.000000,-1.000000
1312768.334482,17.000000,19.000000,16.000000,-13.000000,-5.000000,6.000000,17.000000,-3.000000
1312768.341939,-27.000000,-21.000000,7.000000,2.000000,-11.000000,0.000000,12.000000,28.000000
1312768.341952,24.000000,23.000000,-57.000000,-47.000000,-18.000000,1.000000,-4.000000,-5.000000
1312768.379479,-70.000000,-36.000000,-11.000000,60.000000,10.000000,-14.000000,-8.000000,-8.000000
1312768.379490,43.000000,36.000000,22.000000,23.000000,25.000000,2.000000,-21.000000,-20.000000
1312768.394417,-4.000000,-48.000000,-34.000000,-5.000000,-3.000000,3.000000,29.000000,28.000000
1312768.394446,4.000000,0.000000,15.000000,-44.000000,-23.000000,1.000000,-12.000000,-12.000000
1312768.416736,-31.000000,-20.000000,-1.000000,1.000000,-2.000000,-7.000000,-6.000000,-6.000000
1312768.416746,9.000000,9.000000,27.000000,13.000000,-3.000000,-4.000000,-5.000000,-6.000000
1312768.432158,-8.000000,-25.000000,11.000000,5.000000,5.000000,4.000000,-10.000000,-7.000000
1312768.432186,15.000000,2.000000,-34.000000,-23.000000,1.000000,-5.000000,-10.000000,-3.000000
1312768.454611,-47.000000,-8.000000,78.000000,27.000000,-9.000000,0.000000,-7.000000,-56.000000
1312768.454620,4.000000,8.000000,-37.000000,6.000000,20.000000,-10.000000,21.000000,98.000000
1312768.455892,32.000000,-6.000000,-18.000000,35.000000,2.000000,6.000000,4.000000,37.000000
1312768.455910,1.000000,-18.000000,28.000000,31.000000,-1.000000,18.000000,11.000000,-8.000000
1312768.457308,-32.000000,-5.000000,-33.000000,10.000000,0.000000,3.000000,-26.000000,-20.000000
1312768.457330,45.000000,9.000000,7.000000,6.000000,-2.000000,-6.000000,-3.000000,9.000000
1312768.477296,-1.000000,-40.000000,16.000000,-12.000000,-13.000000,-8.000000,-19.000000,-20.000000
1312768.477305,31.000000,-3.000000,-25.000000,-37.000000,-7.000000,8.000000,-13.000000,-13.000000
1312768.478052,6.000000,34.000000,-64.000000,-34.000000,-6.000000,-12.000000,21.000000,23.000000
1312768.478060,5.000000,-5.000000,17.000000,79.000000,10.000000,10.000000,3.000000,8.000000
1312768.499410,-14.000000,-14.000000,34.000000,-18.000000,-17.000000,5.000000,-3.000000,-8.000000
1312768.499422,18.000000,34.000000,-20.000000,-22.000000,-4.000000,-10.000000,-34.000000,-12.000000
1312768.514321,-24.000000,-31.000000,37.000000,-14.000000,12.000000,-4.000000,-13.000000,-10.000000
1312768.514391,10.000000,23.000000,15.000000,-14.000000,-20.000000,-3.000000,12.000000,4.000000
1312768.536843,27.000000,4.000000,47.000000,-15.000000,-6.000000,3.000000,3.000000,12.000000
1312768.536855,-19.000000,-4.000000,-41.000000,-12.000000,-10.000000,-2.000000,-10.000000,-10.000000
1312768.551926,8.000000,-20.000000,39.000000,15.000000,2.000000,0.000000,23.000000,-15.000000
1312768.551940,-40.000000,30.000000,49.000000,27.000000,1.000000,0.000000,-22.000000,14.000000
1312768.553067,34.000000,-21.000000,21.000000,-4.000000,15.000000,10.000000,22.000000,29.000000
1312768.553087,-9.000000,-26.000000,39.000000,-20.000000,-12.000000,-1.000000,7.000000,-2.000000
1312768.553535,24.000000,18.000000,-19.000000,-2.000000,9.000000,3.000000,-15.000000,-20.000000
1312768.553544,31.000000,12.000000,-27.000000,22.000000,-1.000000,1.000000,23.000000,33.000000
1312768.554821,0.000000,-34.000000,6.000000,-38.000000,-14.000000,3.000000,7.000000,4.000000
1312768.554846,-33.000000,-6.000000,-17.000000,-7.000000,19.000000,7.000000,-8.000000,-61.000000
1312768.555647,15.000000,1.000000,7.000000,34.000000,17.000000,10.000000,-6.000000,53.000000
1312768.555655,16.000000,12.000000,-5.000000,-44.000000,-20.000000,0.000000,-27.000000,-20.000000
1312768.559811,-3.000000,-25.000000,5.000000,-22.000000,-14.000000,-2.000000,18.000000,18.000000
1312768.559819,14.000000,3.000000,42.000000,26.000000,4.000000,4.000000,1.000000,-20.000000
1312768.574203,-12.000000,7.000000,-81.000000,14.000000,26.000000,-1.000000,20.000000,33.000000
1312768.574232,-16.000000,-11.000000,-4.000000,-10.000000,-7.000000,-1.000000,-5.000000,-16.000000
1312768.597172,-2.000000,-14.000000,25.000000,8.000000,-8.000000,3.000000,1.000000,3.000000
1312768.597181,-1.000000,3.000000,-31.000000,-6.000000,8.000000,4.000000,3.000000,-4.000000
1312768.598188,-3.000000,-4.000000,26.000000,-23.000000,-24.000000,-13.000000,-7.000000,-3.000000
1312768.598197,1.000000,19.000000,26.000000,35.000000,-2.000000,-7.000000,-9.000000,-17.000000
1312768.619111,-10.000000,0.000000,12.000000,4.000000,1.000000,-1.000000,12.000000,11.000000
1312768.619122,-37.000000,-12.000000,-70.000000,-70.000000,-22.000000,-14.000000,-27.000000,-25.000000
1312768.634576,61.000000,23.000000,-37.000000,34.000000,14.000000,15.000000,13.000000,45.000000
1312768.634587,-11.000000,-15.000000,15.000000,-7.000000,-18.000000,-24.000000,18.000000,14.000000
1312768.656730,-6.000000,7.000000,7.000000,-4.000000,10.000000,13.000000,3.000000,-19.000000
1312768.656743,18.000000,21.000000,14.000000,-4.000000,-5.000000,-16.000000,-36.000000,0.000000
1312768.657271,31.000000,0.000000,-26.000000,-15.000000,-15.000000,-15.000000,-6.000000,5.000000
1312768.657290,-14.000000,21.000000,40.000000,2.000000,2.000000,2.000000,0.000000,-15.000000
1312768.658290,-8.000000,-47.000000,-19.000000,26.000000,0.000000,3.000000,12.000000,13.000000
1312768.658299,-4.000000,18.000000,56.000000,5.000000,-8.000000,0.000000,-1.000000,-12.000000
1312768.659321,4.000000,-11.000000,-45.000000,-8.000000,-1.000000,0.000000,-8.000000,-23.000000
1312768.659338,-12.000000,32.000000,12.000000,32.000000,20.000000,8.000000,-23.000000,-32.000000
1312768.672096,8.000000,13.000000,-76.000000,-5.000000,-7.000000,-9.000000,16.000000,42.000000
1312768.672105,18.000000,8.000000,45.000000,12.000000,12.000000,-1.000000,-7.000000,-8.000000
1312768.672883,0.000000,15.000000,15.000000,-19.000000,-12.000000,4.000000,21.000000,11.000000
1312768.672891,19.000000,-9.000000,-24.000000,73.000000,15.000000,-5.000000,-21.000000,-22.000000
1312768.694227,-1.000000,15.000000,28.000000,-4.000000,2.000000,0.000000,-19.000000,-28.000000
1312768.694238,8.000000,11.000000,-21.000000,-20.000000,-1.000000,7.000000,29.000000,40.000000
1312768.694705,-25.000000,-29.000000,-28.000000,-30.000000,-18.000000,-21.000000,-20.000000,-24.000000
1312768.694715,17.000000,14.000000,32.000000,32.000000,20.000000,10.000000,-18.000000,-27.000000
1312768.709766,17.000000,36.000000,-10.000000,-34.000000,-18.000000,-1.000000,12.000000,17.000000
1312768.709784,0.000000,-22.000000,-27.000000,-27.000000,-16.000000,-7.000000,6.000000,-1.000000
1312768.710413,-71.000000,-46.000000,-64.000000,-25.000000,-11.000000,-6.000000,-5.000000,-11.000000
1312768.710421,61.000000,36.000000,118.000000,111.000000,63.000000,15.000000,-4.000000,7.000000
1312768.754256,-49.000000,-37.000000,-45.000000,-15.000000,-13.000000,-12.000000,-1.000000,-17.000000
1312768.754267,20.000000,95.000000,28.000000,3.000000,2.000000,-6.000000,4.000000,11.000000
1312768.769332,-4.000000,-25.000000,-42.000000,12.000000,15.000000,14.000000,-10.000000,-8.000000
1312768.769342,-21.000000,-40.000000,-37.000000,-36.000000,-16.000000,-23.000000,-31.000000,-32.000000
1312768.777340,30.000000,19.000000,38.000000,-34.000000,-8.000000,-7.000000,7.000000,3.000000
1312768.777349,1.000000,46.000000,4.000000,67.000000,52.000000,24.000000,27.000000,32.000000
1312768.777889,14.000000,-3.000000,3.000000,-27.000000,-3.000000,-5.000000,8.000000,34.000000
1312768.777897,-11.000000,-15.000000,1.000000,35.000000,-12.000000,-3.000000,-21.000000,-41.000000
1312768.778929,-50.000000,-2.000000,27.000000,-16.000000,-13.000000,-7.000000,-15.000000,-22.000000
1312768.778937,34.000000,8.000000,18.000000,-19.000000,-1.000000,12.000000,39.000000,53.000000
1312768.780173,-8.000000,25.000000,-39.000000,-15.000000,-8.000000,7.000000,-12.000000,-31.000000
1312768.780184,0.000000,0.000000,19.000000,56.000000,22.000000,1.000000,-5.000000,-1.000000
1312768.814168,2.000000,5.000000,-61.000000,-32.000000,-34.000000,-13.000000,-11.000000,-9.000000
1312768.814178,30.000000,-23.000000,12.000000,-23.000000,-2.000000,-3.000000,-2.000000,-5.000000
1312768.814577,-12.000000,1.000000,30.000000,20.000000,21.000000,5.000000,-16.000000,1.000000
1312768.814585,1.000000,18.000000,30.000000,41.000000,7.000000,-3.000000,-3.000000,-1.000000
1312768.815788,53.000000,10.000000,-27.000000,-17.000000,-3.000000,-12.000000,19.000000,-10.000000
1312768.815795,-26.000000,-15.000000,-26.000000,-7.000000,3.000000,4.000000,-27.000000,2.000000
1312768.816720,-8.000000,37.000000,38.000000,-5.000000,-4.000000,-11.000000,-26.000000,-24.000000
1312768.816728,4.000000,-1.000000,-21.000000,-4.000000,-2.000000,5.000000,-5.000000,-2.000000
1312768.829757,-7.000000,-12.000000,-10.000000,-5.000000,-3.000000,1.000000,15.000000,4.000000
1312768.829765,3.000000,51.000000,-2.000000,-28.000000,-9.000000,8.000000,17.000000,-5.000000
1312768.830485,-20.000000,-27.000000,28.000000,34.000000,1.000000,-13.000000,-36.000000,-31.000000
1312768.830492,0.000000,-8.000000,-17.000000,1.000000,13.000000,4.000000,5.000000,17.000000
1312768.874381,0.000000,-9.000000,-10.000000,-3.000000,-5.000000,5.000000,-6.000000,-30.000000
1312768.874413,-13.000000,8.000000,-30.000000,-5.000000,3.000000,1.000000,16.000000,35.000000
1312768.889006,-51.000000,-22.000000,3.000000,-22.000000,11.000000,-7.000000,-23.000000,-12.000000
1312768.889019,13.000000,4.000000,1.000000,6.000000,10.000000,5.000000,-20.000000,-9.000000
1312768.890219,-9.000000,0.000000,3.000000,17.000000,8.000000,-2.000000,9.000000,5.000000
1312768.890228,5.000000,7.000000,-23.000000,-25.000000,-17.000000,-6.000000,13.000000,8.000000
1312768.890889,-8.000000,-1.000000,27.000000,8.000000,4.000000,5.000000,-19.000000,-20.000000
1312768.890900,15.000000,12.000000,-44.000000,-7.000000,-20.000000,-3.000000,2.000000,-2.000000
1312768.892361,-23.000000,-48.000000,16.000000,8.000000,8.000000,0.000000,15.000000,40.000000
1312768.892381,30.000000,15.000000,-37.000000,3.000000,6.000000,9.000000,3.000000,-3.000000
1312768.912514,14.000000,-11.000000,5.000000,41.000000,-14.000000,9.000000,6.000000,-13.000000
1312768.912541,-3.000000,-18.000000,7.000000,-17.000000,-4.000000,-9.000000,-6.000000,10.000000
1312768.913158,-45.000000,-13.000000,-15.000000,-1.000000,-2.000000,5.000000,2.000000,-20.000000
1312768.913165,-28.000000,-6.000000,-14.000000,-16.000000,-15.000000,-13.000000,-6.000000,-1.000000
1312768.934176,7.000000,14.000000,12.000000,-15.000000,11.000000,3.000000,-18.000000,-35.000000
1312768.934191,-5.000000,21.000000,30.000000,34.000000,11.000000,22.000000,49.000000,50.000000
1312768.934749,4.000000,1.000000,127.000000,-2.000000,-4.000000,-13.000000,-23.000000,-14.000000
1312768.934758,5.000000,19.000000,-50.000000,-29.000000,-13.000000,-8.000000,-42.000000,-36.000000
1312768.949452,5.000000,6.000000,6.000000,6.000000,7.000000,16.000000,38.000000,31.000000
1312768.949461,6.000000,24.000000,23.000000,1.000000,-1.000000,3.000000,10.000000,11.000000
1312768.950279,-8.000000,-19.000000,-25.000000,-13.000000,-10.000000,-14.000000,-15.000000,-9.000000
1312768.950288,-20.000000,-31.000000,-24.000000,-21.000000,-14.000000,-2.000000,-17.000000,-17.000000
1312768.964426,32.000000,21.000000,7.000000,12.000000,6.000000,5.000000,14.000000,10.000000
1312768.964437,-22.000000,-44.000000,-40.000000,-30.000000,-11.000000,-5.000000,-3.000000,3.000000
1312768.971896,29.000000,22.000000,-20.000000,21.000000,4.000000,-1.000000,-8.000000,-15.000000
1312768.971930,3.000000,2.000000,30.000000,9.000000,1.000000,-4.000000,-10.000000,22.000000
1312768.994290,-3.000000,-1.000000,60.000000,41.000000,8.000000,7.000000,12.000000,0.000000
1312768.994308,-4.000000,-47.000000,-99.000000,-13.000000,24.000000,-10.000000,-29.000000,-38.000000
1312769.009256,-10.000000,14.000000,-21.000000,2.000000,7.000000,3.000000,0.000000,4.000000
1312769.009267,14.000000,5.000000,-16.000000,-26.000000,-17.000000,-1.000000,4.000000,10.000000
1312769.046780,5.000000,-5.000000,33.000000,49.000000,-5.000000,6.000000,28.000000,6.000000
1312769.046809,-26.000000,-19.000000,-9.000000,-20.000000,-13.000000,-21.000000,-57.000000,-39.000000
1312769.054245,-2.000000,-10.000000,41.000000,60.000000,14.000000,7.000000,34.000000,47.000000
1312769.054274,22.000000,3.000000,0.000000,13.000000,3.000000,18.000000,10.000000,17.000000
1312769.055198,19.000000,8.000000,19.000000,-7.000000,-1.000000,0.000000,5.000000,-14.000000
1312769.055206,11.000000,-7.000000,-16.000000,-10.000000,-7.000000,-3.000000,4.000000,5.000000
1312769.055930,-17.000000,2.000000,-17.000000,-31.000000,-22.000000,-17.000000,-14.000000,-33.000000
1312769.055938,-22.000000,-8.000000,16.000000,7.000000,7.000000,7.000000,-1.000000,13.000000
1312769.057341,-39.000000,-48.000000,2.000000,2.000000,3.000000,4.000000,4.000000,23.000000
1312769.057349,-17.000000,13.000000,2.000000,-19.000000,-2.000000,1.000000,1.000000,-1.000000
1312769.070107,-25.000000,-11.000000,-12.000000,20.000000,-13.000000,-1.000000,-7.000000,-25.000000
1312769.070116,7.000000,5.000000,0.000000,-13.000000,1.000000,-1.000000,5.000000,19.000000
1312769.070480,25.000000,24.000000,7.000000,56.000000,14.000000,12.000000,-1.000000,-10.000000
1312769.070507,-42.000000,-17.000000,16.000000,-15.000000,-6.000000,-12.000000,-8.000000,-12.000000
1312769.099373,-19.000000,-20.000000,4.000000,16.000000,-9.000000,-6.000000,2.000000,-13.000000
1312769.099383,9.000000,0.000000,-9.000000,-15.000000,-22.000000,-10.000000,3.000000,19.000000
1312769.107059,-26.000000,-16.000000,35.000000,32.000000,23.000000,7.000000,9.000000,-20.000000
1312769.107070,13.000000,-31.000000,-31.000000,-5.000000,-5.000000,-16.000000,-5.000000,28.000000
1312769.129187,-11.000000,-17.000000,-11.000000,-48.000000,-29.000000,-23.000000,-20.000000,-10.000000
1312769.129211,17.000000,-33.000000,-52.000000,-11.000000,-4.000000,-2.000000,-24.000000,-42.000000
1312769.151657,-45.000000,-7.000000,54.000000,22.000000,-28.000000,-6.000000,3.000000,16.000000
1312769.151673,13.000000,-7.000000,-27.000000,-17.000000,-9.000000,-3.000000,4.000000,-5.000000
1312769.152658,-11.000000,7.000000,-13.000000,-39.000000,-13.000000,-22.000000,-18.000000,-14.000000
1312769.152666,5.000000,12.000000,-10.000000,-1.000000,1.000000,3.000000,0.000000,-21.000000
1312769.153330,13.000000,-22.000000,4.000000,4.000000,14.000000,3.000000,7.000000,26.000000
1312769.153338,-19.000000,23.000000,67.000000,37.000000,5.000000,3.000000,-2.000000,2.000000
1312769.154852,-15.000000,-8.000000,-9.000000,-6.000000,-2.000000,-5.000000,-7.000000,-13.000000
1312769.154859,23.000000,14.000000,18.000000,6.000000,1.000000,5.000000,2.000000,-32.000000
1312769.155624,-10.000000,-3.000000,-50.000000,-61.000000,-12.000000,-15.000000,-16.000000,10.000000
1312769.155646,24.000000,23.000000,78.000000,20.000000,5.000000,3.000000,9.000000,30.000000
1312769.167265,10.000000,-12.000000,24.000000,-6.000000,-14.000000,-4.000000,-25.000000,-44.000000
1312769.167275,-7.000000,-16.000000,-78.000000,9.000000,10.000000,3.000000,11.000000,13.000000
1312769.174149,-3.000000,43.000000,5.000000,-17.000000,2.000000,-9.000000,-9.000000,6.000000
1312769.174159,-12.000000,-6.000000,10.000000,28.000000,-4.000000,2.000000,-5.000000,-5.000000
1312769.189740,11.000000,-2.000000,25.000000,-6.000000,15.000000,1.000000,-7.000000,-17.000000
1312769.189749,-1.000000,0.000000,18.000000,-6.000000,-1.000000,-8.000000,-3.000000,4.000000
1312769.196946,19.000000,9.000000,-2.000000,-14.000000,-12.000000,3.000000,0.000000,1.000000
1312769.196957,-13.000000,-22.000000,-1.000000,38.000000,25.000000,6.000000,16.000000,27.000000
1312769.226780,8.000000,6.000000,-27.000000,-10.000000,-4.000000,12.000000,5.000000,-3.000000
1312769.226799,14.000000,12.000000,4.000000,11.000000,4.000000,-1.000000,-20.000000,-23.000000
1312769.249458,-16.000000,-7.000000,-1.000000,5.000000,-4.000000,11.000000,14.000000,18.000000
1312769.249472,63.000000,42.000000,3.000000,-13.000000,4.000000,-5.000000,-19.000000,-25.000000
1312769.250346,18.000000,-7.000000,37.000000,2.000000,-3.000000,5.000000,23.000000,31.000000
1312769.250357,-31.000000,3.000000,68.000000,1.000000,-3.000000,-5.000000,-10.000000,-12.000000
1312769.250938,-21.000000,-73.000000,-37.000000,36.000000,14.000000,-3.000000,-18.000000,-15.000000
1312769.250948,-42.000000,8.000000,21.000000,-16.000000,-19.000000,0.000000,3.000000,-8.000000
1312769.252310,18.000000,8.000000,58.000000,24.000000,1.000000,-11.000000,5.000000,14.000000
1312769.252321,36.000000,-5.000000,4.000000,-8.000000,-11.000000,-6.000000,9.000000,29.000000
1312769.253110,23.000000,7.000000,-17.000000,5.000000,4.000000,1.000000,-16.000000,-42.000000
1312769.253119,-32.000000,-22.000000,-27.000000,12.000000,18.000000,5.000000,3.000000,9.000000
1312769.265004,24.000000,37.000000,4.000000,-20.000000,-12.000000,-4.000000,6.000000,11.000000
1312769.265014,32.000000,-34.000000,21.000000,21.000000,18.000000,7.000000,6.000000,3.000000
1312769.271981,-29.000000,-9.000000,-36.000000,-54.000000,-16.000000,-5.000000,-22.000000,-42.000000
1312769.271994,21.000000,14.000000,-41.000000,2.000000,5.000000,-3.000000,26.000000,-13.000000
1312769.279731,-21.000000,8.000000,-16.000000,2.000000,-4.000000,6.000000,2.000000,63.000000
1312769.279741,-33.000000,-28.000000,33.000000,-9.000000,-2.000000,-7.000000,0.000000,-27.000000
1312769.309347,21.000000,2.000000,-62.000000,17.000000,10.000000,6.000000,-11.000000,-7.000000
1312769.309357,6.000000,-3.000000,-20.000000,2.000000,-1.000000,2.000000,-10.000000,-23.000000
1312769.331713,-4.000000,-11.000000,-7.000000,-16.000000,-6.000000,-3.000000,7.000000,20.000000
1312769.331723,-6.000000,-4.000000,94.000000,9.000000,-2.000000,-4.000000,1.000000,-11.000000
1312769.347031,4.000000,11.000000,-19.000000,-51.000000,-22.000000,-6.000000,-8.000000,-14.000000
1312769.347045,-5.000000,-3.000000,2.000000,106.000000,40.000000,1.000000,3.000000,14.000000
1312769.369743,13.000000,11.000000,-19.000000,-26.000000,-5.000000,9.000000,16.000000,15.000000
1312769.369756,32.000000,-4.000000,-6.000000,34.000000,-1.000000,-21.000000,-9.000000,5.000000
1312769.370234,-2.000000,-3.000000,-43.000000,-13.000000,-2.000000,6.000000,1.000000,1.000000
1312769.370272,-23.000000,-33.000000,40.000000,-32.000000,-18.000000,-12.000000,-21.000000,-36.000000
1312769.371409,-7.000000,9.000000,66.000000,6.000000,-5.000000,4.000000,8.000000,26.000000
1312769.371418,4.000000,8.000000,-5.000000,0.000000,-4.000000,-2.000000,12.000000,17.000000
1312769.372299,18.000000,-4.000000,6.000000,5.000000,9.000000,6.000000,6.000000,1.000000
1312769.372318,-12.000000,-27.000000,-36.000000,-18.000000,-17.000000,-13.000000,-34.000000,-26.000000
1312769.384784,-9.000000,-7.000000,14.000000,38.000000,29.000000,6.000000,10.000000,6.000000
1312769.384812,-12.000000,-1.000000,3.000000,23.000000,-1.000000,-2.000000,-11.000000,-42.000000
1312769.391977,46.000000,-10.000000,-21.000000,-16.000000,-17.000000,-2.000000,20.000000,21.000000
1312769.391988,-53.000000,-16.000000,7.000000,-4.000000,-7.000000,-1.000000,-19.000000,-10.000000
1312769.399967,-3.000000,-33.000000,-23.000000,-18.000000,-1.000000,-6.000000,-14.000000,-14.000000
1312769.399976,-14.000000,-36.000000,-14.000000,-10.000000,-10.000000,3.000000,19.000000,7.000000
1312769.429204,11.000000,33.000000,-4.000000,-8.000000,-9.000000,-11.000000,-16.000000,3.000000
1312769.429214,-25.000000,-3.000000,30.000000,-35.000000,-23.000000,-4.000000,-4.000000,-3.000000
1312769.444451,-26.000000,-19.000000,-24.000000,-25.000000,-7.000000,-13.000000,-12.000000,-17.000000
1312769.444464,21.000000,20.000000,5.000000,30.000000,7.000000,3.000000,-6.000000,-16.000000
1312769.445039,-13.000000,3.000000,41.000000,3.000000,2.000000,10.000000,8.000000,2.000000
1312769.445049,0.000000,-12.000000,-12.000000,-36.000000,-4.000000,-22.000000,-17.000000,2.000000
1312769.446455,-6.000000,-3.000000,-16.000000,14.000000,-3.000000,0.000000,7.000000,36.000000
1312769.446468,17.000000,2.000000,-50.000000,-5.000000,-2.000000,10.000000,37.000000,5.000000
1312769.451969,26.000000,12.000000,22.000000,-6.000000,-5.000000,-16.000000,-23.000000,2.000000
1312769.451981,-23.000000,-9.000000,-5.000000,-15.000000,-10.000000,-10.000000,-19.000000,-10.000000
1312769.504410,23.000000,-20.000000,-76.000000,41.000000,27.000000,1.000000,3.000000,-9.000000
1312769.504427,-38.000000,4.000000,74.000000,84.000000,19.000000,10.000000,24.000000,36.000000
1312769.511410,23.000000,-33.000000,-20.000000,-22.000000,-10.000000,-5.000000,-7.000000,-3.000000
1312769.511418,-16.000000,-13.000000,30.000000,-7.000000,-14.000000,-3.000000,6.000000,11.000000
1312769.512801,-12.000000,3.000000,-37.000000,-20.000000,9.000000,15.000000,25.000000,-5.000000
1312769.512815,18.000000,-3.000000,3.000000,47.000000,19.000000,-7.000000,-8.000000,9.000000
1312769.513382,8.000000,16.000000,4.000000,16.000000,4.000000,-2.000000,-21.000000,-21.000000
1312769.513433,6.000000,2.000000,-21.000000,-22.000000,-5.000000,-3.000000,28.000000,40.000000
1312769.514773,14.000000,12.000000,1.000000,-42.000000,3.000000,-6.000000,4.000000,-10.000000
1312769.514781,-32.000000,-30.000000,-13.000000,47.000000,-5.000000,-2.000000,-10.000000,11.000000
1312769.527298,9.000000,-16.000000,-22.000000,0.000000,-4.000000,-1.000000,22.000000,34.000000
1312769.527326,15.000000,56.000000,-3.000000,63.000000,14.000000,0.000000,-2.000000,-3.000000
1312769.542318,-6.000000,-9.000000,-1.000000,-2.000000,-6.000000,12.000000,-9.000000,-28.000000
1312769.542347,24.000000,-15.000000,-105.000000,-27.000000,-3.000000,-18.000000,11.000000,23.000000
1312769.543123,6.000000,4.000000,70.000000,11.000000,-2.000000,-3.000000,-14.000000,-4.000000
1312769.543139,-26.000000,-8.000000,7.000000,-3.000000,-12.000000,-1.000000,5.000000,-12.000000
1312769.549966,-11.000000,-7.000000,-6.000000,5.000000,1.000000,-1.000000,-33.000000,-13.000000
1312769.549977,17.000000,16.000000,3.000000,3.000000,-4.000000,6.000000,24.000000,21.000000
1312769.587026,7.000000,6.000000,0.000000,12.000000,3.000000,13.000000,19.000000,23.000000
1312769.587037,11.000000,17.000000,29.000000,-27.000000,-11.000000,-11.000000,-4.000000,0.000000
1312769.594290,0.000000,10.000000,-13.000000,4.000000,13.000000,10.000000,-10.000000,-10.000000
1312769.594300,-28.000000,-49.000000,-29.000000,-5.000000,9.000000,-5.000000,-5.000000,-4.000000
1312769.609079,34.000000,27.000000,38.000000,-2.000000,-20.000000,-11.000000,10.000000,7.000000
1312769.609145,-29.000000,-13.000000,-11.000000,80.000000,30.000000,16.000000,4.000000,-15.000000
1312769.609498,27.000000,11.000000,31.000000,-5.000000,-13.000000,-5.000000,-12.000000,-1.000000
1312769.609519,9.000000,-2.000000,-82.000000,-19.000000,-4.000000,-5.000000,-10.000000,6.000000
1312769.610931,-14.000000,18.000000,15.000000,-36.000000,-8.000000,15.000000,17.000000,15.000000
1312769.610953,9.000000,-38.000000,-1.000000,42.000000,37.000000,3.000000,-7.000000,-9.000000
1312769.611796,11.000000,35.000000,3.000000,-2.000000,2.000000,4.000000,-33.000000,-47.000000
1312769.611804,-37.000000,-24.000000,0.000000,20.000000,7.000000,6.000000,47.000000,28.000000
1312769.632127,4.000000,7.000000,-41.000000,-47.000000,-26.000000,-13.000000,-30.000000,-26.000000
1312769.632140,3.000000,4.000000,-16.000000,0.000000,-19.000000,-10.000000,-18.000000,40.000000
1312769.646774,4.000000,19.000000,-14.000000,26.000000,7.000000,10.000000,4.000000,11.000000
1312769.646785,1.000000,9.000000,51.000000,-5.000000,2.000000,-3.000000,24.000000,-8.000000
1312769.662480,-9.000000,-13.000000,-40.000000,-8.000000,-9.000000,1.000000,-6.000000,-24.000000
1312769.662490,3.000000,8.000000,-24.000000,-69.000000,-22.000000,-7.000000,-5.000000,5.000000
1312769.669256,13.000000,16.000000,84.000000,101.000000,38.000000,11.000000,8.000000,-14.000000
1312769.669266,-39.000000,-29.000000,-32.000000,-17.000000,-13.000000,-12.000000,-29.000000,-6.000000
1312769.684342,-13.000000,-13.000000,0.000000,-19.000000,3.000000,-11.000000,0.000000,26.000000
1312769.684359,14.000000,5.000000,11.000000,63.000000,0.000000,-1.000000,14.000000,1.000000
1312769.706714,16.000000,22.000000,57.000000,8.000000,0.000000,6.000000,-7.000000,-12.000000
1312769.706729,-26.000000,-21.000000,-72.000000,-36.000000,5.000000,-2.000000,-16.000000,-21.000000
1312769.729649,2.000000,29.000000,-3.000000,36.000000,10.000000,1.000000,-6.000000,-15.000000
1312769.729662,-1.000000,-6.000000,0.000000,-4.000000,7.000000,6.000000,20.000000,22.000000
1312769.744224,30.000000,-2.000000,11.000000,4.000000,1.000000,8.000000,-3.000000,20.000000
1312769.744243,-2.000000,2.000000,16.000000,33.000000,-3.000000,-4.000000,-13.000000,7.000000
1312769.745199,-15.000000,-10.000000,-3.000000,-9.000000,11.000000,5.000000,-6.000000,-11.000000
1312769.745208,-4.000000,5.000000,22.000000,0.000000,-4.000000,11.000000,10.000000,-12.000000
1312769.745867,-23.000000,-5.000000,-11.000000,-29.000000,-14.000000,-18.000000,-27.000000,-32.000000
1312769.745887,20.000000,0.000000,20.000000,22.000000,23.000000,13.000000,17.000000,31.000000
1312769.746491,-3.000000,-47.000000,-26.000000,-11.000000,0.000000,-3.000000,-10.000000,14.000000
1312769.746510,-14.000000,5.000000,5.000000,-30.000000,-9.000000,-5.000000,12.000000,10.000000
1312769.747919,12.000000,-1.000000,-15.000000,10.000000,-2.000000,-5.000000,-11.000000,-18.000000
1312769.747927,45.000000,24.000000,-17.000000,37.000000,18.000000,9.000000,16.000000,7.000000
1312769.759184,-59.000000,-28.000000,28.000000,-12.000000,0.000000,-2.000000,-29.000000,-28.000000
1312769.759211,-4.000000,-13.000000,-9.000000,-12.000000,-6.000000,-4.000000,32.000000,56.000000
1312769.767603,7.000000,14.000000,4.000000,-8.000000,-6.000000,-20.000000,-23.000000,-36.000000
1312769.767633,3.000000,-2.000000,32.000000,-7.000000,-10.000000,0.000000,6.000000,5.000000
1312769.782179,-20.000000,-25.000000,24.000000,37.000000,23.000000,2.000000,-29.000000,-35.000000
1312769.782210,26.000000,29.000000,-25.000000,3.000000,-1.000000,-2.000000,14.000000,16.000000
1312769.804213,16.000000,-10.000000,-2.000000,-14.000000,-10.000000,-4.000000,-6.000000,3.000000
1312769.804224,1.000000,2.000000,1.000000,20.000000,10.000000,0.000000,-7.000000,-13.000000
1312769.812096,-32.000000,-8.000000,9.000000,-9.000000,-5.000000,0.000000,10.000000,-20.000000
1312769.812125,19.000000,11.000000,10.000000,-45.000000,-22.000000,-11.000000,-10.000000,13.000000
1312769.826846,-1.000000,-7.000000,-77.000000,3.000000,17.000000,-5.000000,10.000000,25.000000
1312769.826875,67.000000,17.000000,23.000000,3.000000,9.000000,13.000000,11.000000,0.000000
1312769.841871,6.000000,-21.000000,-34.000000,-14.000000,-15.000000,-23.000000,-11.000000,5.000000
1312769.841887,-11.000000,36.000000,40.000000,-8.000000,7.000000,4.000000,13.000000,7.000000
1312769.864945,-33.000000,-67.000000,-110.000000,-20.000000,8.000000,4.000000,11.000000,20.000000
1312769.864954,60.000000,35.000000,29.000000,23.000000,20.000000,6.000000,4.000000,31.000000
1312769.865494,-18.000000,-19.000000,7.000000,-8.000000,0.000000,-9.000000,-10.000000,-41.000000
1312769.865501,-5.000000,13.000000,14.000000,-2.000000,3.000000,15.000000,6.000000,26.000000
1312769.866463,3.000000,-21.000000,23.000000,-21.000000,4.000000,-8.000000,1.000000,-8.000000
1312769.866471,-45.000000,-12.000000,-20.000000,-15.000000,-7.000000,-5.000000,-12.000000,-22.000000
1312769.867156,-4.000000,0.000000,19.000000,36.000000,50.000000,19.000000,3.000000,1.000000
1312769.867164,42.000000,15.000000,1.000000,1.000000,9.000000,0.000000,-16.000000,15.000000
1312769.879023,-1.000000,-9.000000,-79.000000,3.000000,-9.000000,7.000000,5.000000,-20.000000
1312769.879033,-26.000000,-2.000000,1.000000,3.000000,5.000000,-8.000000,-41.000000,-58.000000
1312769.886900,-2.000000,-7.000000,6.000000,25.000000,5.000000,0.000000,30.000000,39.000000
1312769.886921,-6.000000,-5.000000,10.000000,0.000000,-5.000000,4.000000,-9.000000,-7.000000
1312769.901738,-3.000000,-1.000000,6.000000,-3.000000,12.000000,9.000000,-6.000000,-16.000000
1312769.901748,3.000000,27.000000,-17.000000,-21.000000,-12.000000,-9.000000,-8.000000,-21.000000
1312769.924674,27.000000,-60.000000,24.000000,32.000000,22.000000,9.000000,21.000000,6.000000
1312769.924685,28.000000,20.000000,-9.000000,11.000000,-30.000000,-17.000000,-12.000000,29.000000
1312769.939141,-6.000000,11.000000,19.000000,1.000000,-3.000000,-3.000000,-9.000000,-13.000000
1312769.939164,-4.000000,11.000000,-12.000000,-30.000000,2.000000,3.000000,23.000000,18.000000
1312769.961831,14.000000,10.000000,-41.000000,-43.000000,-22.000000,-8.000000,-7.000000,-16.000000
1312769.961841,-35.000000,7.000000,11.000000,-3.000000,-13.000000,10.000000,-4.000000,-13.000000
1312769.962391,14.000000,-6.000000,44.000000,10.000000,9.000000,-3.000000,-4.000000,0.000000
1312769.962399,1.000000,-5.000000,55.000000,9.000000,2.000000,7.000000,-8.000000,-17.000000
1312769.963289,-39.000000,-16.000000,-63.000000,-39.000000,-30.000000,-19.000000,-3.000000,-35.000000
1312769.963297,11.000000,-20.000000,-71.000000,-39.000000,-21.000000,-12.000000,-4.000000,58.000000
1312769.963949,-4.000000,8.000000,127.000000,27.000000,22.000000,5.000000,-21.000000,-22.000000
1312769.963957,-7.000000,-25.000000,-45.000000,-28.000000,-14.000000,-3.000000,-2.000000,-6.000000
1312769.965874,2.000000,-7.000000,-32.000000,-9.000000,2.000000,2.000000,-9.000000,-12.000000
1312769.965883,-52.000000,-21.000000,27.000000,-4.000000,-5.000000,-5.000000,8.000000,12.000000
1312769.984309,48.000000,25.000000,14.000000,-25.000000,-12.000000,-8.000000,-24.000000,-22.000000
1312769.984326,-15.000000,-32.000000,-50.000000,52.000000,3.000000,4.000000,-3.000000,-5.000000
1312769.985413,0.000000,-15.000000,27.000000,-32.000000,-16.000000,-11.000000,-15.000000,-27.000000
1312769.985432,-85.000000,5.000000,9.000000,-44.000000,-21.000000,-8.000000,-7.000000,2.000000
1312769.999662,18.000000,-27.000000,8.000000,38.000000,-2.000000,20.000000,32.000000,40.000000
1312769.999695,-22.000000,-7.000000,-29.000000,20.000000,3.000000,-8.000000,-52.000000,-98.000000
1312770.007068,28.000000,-13.000000,11.000000,-15.000000,-5.000000,1.000000,43.000000,90.000000
1312770.007078,-2.000000,-18.000000,20.000000,2.000000,-5.000000,0.000000,-11.000000,-32.000000
1312770.021965,-1.000000,12.000000,-44.000000,7.000000,10.000000,-1.000000,-26.000000,-11.000000
1312770.021990,-8.000000,4.000000,-30.000000,-4.000000,2.000000,0.000000,3.000000,17.000000
1312770.044122,14.000000,41.000000,52.000000,12.000000,3.000000,5.000000,22.000000,8.000000
1312770.044137,-15.000000,-47.000000,-44.000000,-19.000000,-11.000000,-26.000000,-23.000000,-10.000000
1312770.059686,-14.000000,2.000000,-48.000000,21.000000,-1.000000,-6.000000,4.000000,3.000000
1312770.059700,21.000000,10.000000,29.000000,10.000000,24.000000,24.000000,7.000000,-8.000000
1312770.067253,-35.000000,6.000000,-1.000000,-13.000000,-9.000000,-16.000000,-23.000000,-3.000000
1312770.067270,11.000000,-26.000000,-14.000000,-25.000000,-8.000000,1.000000,40.000000,5.000000
1312770.067949,-15.000000,13.000000,19.000000,33.000000,-8.000000,2.000000,-42.000000,-47.000000
1312770.067970,17.000000,-37.000000,17.000000,0.000000,-6.000000,1.000000,11.000000,32.000000
1312770.069202,0.000000,-1.000000,-19.000000,-1.000000,2.000000,2.000000,-4.000000,8.000000
1312770.069210,10.000000,15.000000,-19.000000,-5.000000,5.000000,6.000000,-12.000000,-6.000000
1312770.074054,-7.000000,-11.000000,-75.000000,-28.000000,-13.000000,-5.000000,7.000000,16.000000
1312770.074062,29.000000,0.000000,76.000000,102.000000,25.000000,9.000000,7.000000,12.000000
1312770.082181,6.000000,15.000000,41.000000,-27.000000,9.000000,6.000000,8.000000,-24.000000
1312770.082190,-36.000000,-16.000000,-57.000000,-9.000000,-26.000000,-7.000000,-28.000000,-23.000000
1312770.096888,10.000000,7.000000,7.000000,20.000000,24.000000,-7.000000,-20.000000,-8.000000
1312770.096902,-27.000000,11.000000,-17.000000,-42.000000,-20.000000,-3.000000,8.000000,-12.000000
1312770.104485,12.000000,-4.000000,26.000000,41.000000,18.000000,8.000000,11.000000,7.000000
1312770.104499,-13.000000,5.000000,31.000000,23.000000,2.000000,7.000000,22.000000,40.000000
1312770.119224,-5.000000,10.000000,3.000000,-16.000000,-14.000000,-12.000000,-17.000000,-25.000000
1312770.119238,-9.000000,-12.000000,-9.000000,-8.000000,2.000000,2.000000,-11.000000,-16.000000
1312770.142023,-2.000000,2.000000,-1.000000,-3.000000,-9.000000,5.000000,0.000000,-3.000000
1312770.142036,11.000000,13.000000,10.000000,0.000000,-4.000000,-9.000000,-10.000000,-9.000000
1312770.156786,7.000000,13.000000,-11.000000,-34.000000,-5.000000,-3.000000,-15.000000,-17.000000
1312770.156798,-2.000000,-34.000000,-14.000000,57.000000,33.000000,1.000000,32.000000,29.000000
1312770.179106,-19.000000,17.000000,14.000000,9.000000,-6.000000,-7.000000,-27.000000,4.000000
1312770.179124,30.000000,6.000000,-11.000000,21.000000,25.000000,20.000000,50.000000,42.000000
1312770.179625,-5.000000,-7.000000,38.000000,16.000000,25.000000,-4.000000,-11.000000,-13.000000
1312770.179634,-22.000000,-8.000000,-38.000000,-12.000000,-11.000000,-2.000000,-3.000000,-21.000000
1312770.180776,15.000000,-16.000000,-11.000000,2.000000,-2.000000,9.000000,2.000000,-17.000000
1312770.180786,-20.000000,14.000000,14.000000,-8.000000,7.000000,1.000000,15.000000,8.000000
1312770.181430,-9.000000,-6.000000,-14.000000,18.000000,4.000000,-10.000000,-37.000000,-21.000000
1312770.181438,18.000000,9.000000,-33.000000,-6.000000,14.000000,-1.000000,9.000000,20.000000
1312770.202077,3.000000,7.000000,39.000000,14.000000,2.000000,0.000000,-5.000000,-8.000000
1312770.202111,3.000000,3.000000,-3.000000,10.000000,19.000000,3.000000,-5.000000,-6.000000
1312770.202578,-54.000000,-20.000000,9.000000,-50.000000,-18.000000,0.000000,9.000000,8.000000
1312770.202587,10.000000,-24.000000,11.000000,27.000000,0.000000,-3.000000,2.000000,-17.000000
1312770.203944,-25.000000,10.000000,0.000000,39.000000,33.000000,-1.000000,-17.000000,-22.000000
1312770.203967,-37.000000,-53.000000,-11.000000,-29.000000,-20.000000,-9.000000,3.000000,1.000000
1312770.217020,1.000000,-12.000000,9.000000,9.000000,8.000000,6.000000,-14.000000,-33.000000
1312770.217034,50.000000,38.000000,-21.000000,-20.000000,-1.000000,11.000000,33.000000,78.000000
1312770.224528,-40.000000,-17.000000,45.000000,20.000000,20.000000,9.000000,-8.000000,-19.000000
1312770.224559,32.000000,7.000000,-3.000000,-18.000000,-11.000000,-4.000000,-11.000000,-12.000000
1312770.239095,0.000000,3.000000,-15.000000,4.000000,10.000000,9.000000,32.000000,56.000000
1312770.239106,4.000000,-23.000000,-25.000000,8.000000,-1.000000,-9.000000,-2.000000,-1.000000
1312770.262074,-7.000000,-5.000000,6.000000,-1.000000,-10.000000,0.000000,-20.000000,-37.000000
1312770.262099,-5.000000,-2.000000,-13.000000,-14.000000,-1.000000,2.000000,26.000000,13.000000
1312770.276871,-17.000000,-11.000000,20.000000,-20.000000,1.000000,0.000000,-14.000000,-10.000000
1312770.276881,3.000000,-21.000000,-7.000000,42.000000,9.000000,0.000000,-10.000000,-8.000000
1312770.299087,13.000000,8.000000,-37.000000,-34.000000,-17.000000,-6.000000,-13.000000,-28.000000
1312770.299098,20.000000,6.000000,79.000000,2.000000,9.000000,-2.000000,7.000000,25.000000
1312770.306945,-9.000000,10.000000,-81.000000,25.000000,29.000000,4.000000,-1.000000,-11.000000
1312770.306974,-3.000000,7.000000,-17.000000,8.000000,-14.000000,-4.000000,2.000000,-1.000000
1312770.336847,29.000000,27.000000,19.000000,2.000000,16.000000,3.000000,-8.000000,-4.000000
1312770.336875,5.000000,-6.000000,21.000000,3.000000,-4.000000,-1.000000,1.000000,3.000000
1312770.359075,-19.000000,-36.000000,-30.000000,-6.000000,-5.000000,23.000000,9.000000,1.000000
1312770.359087,-14.000000,7.000000,-17.000000,6.000000,9.000000,-28.000000,-4.000000,47.000000
1312770.360485,-3.000000,-29.000000,4.000000,2.000000,0.000000,6.000000,18.000000,18.000000
1312770.360517,2.000000,8.000000,3.000000,-10.000000,-10.000000,0.000000,-11.000000,-22.000000
1312770.361155,-14.000000,-11.000000,-4.000000,-9.000000,-9.000000,-5.000000,-16.000000,-53.000000
1312770.361179,39.000000,11.000000,6.000000,1.000000,6.000000,6.000000,5.000000,21.000000
1312770.362182,9.000000,-4.000000,7.000000,-20.000000,-18.000000,-7.000000,-21.000000,-11.000000
1312770.362194,-17.000000,4.000000,27.000000,32.000000,40.000000,11.000000,13.000000,-3.000000
1312770.374545,15.000000,40.000000,-14.000000,-12.000000,-27.000000,-14.000000,-1.000000,-3.000000
1312770.374561,-8.000000,-5.000000,-47.000000,-1.000000,35.000000,4.000000,-9.000000,8.000000
1312770.381885,30.000000,58.000000,40.000000,-5.000000,-11.000000,4.000000,50.000000,54.000000
1312770.381916,-13.000000,10.000000,-21.000000,-8.000000,-7.000000,-6.000000,-22.000000,-38.000000
1312770.396666,-9.000000,-27.000000,7.000000,-14.000000,-15.000000,-6.000000,-15.000000,-15.000000
1312770.396676,-7.000000,1.000000,4.000000,5.000000,6.000000,3.000000,-3.000000,-16.000000
1312770.419297,7.000000,9.000000,13.000000,3.000000,-10.000000,-9.000000,-7.000000,-14.000000
1312770.419307,-31.000000,-11.000000,0.000000,-57.000000,-15.000000,-4.000000,-11.000000,-3.000000
1312770.434277,42.000000,-4.000000,3.000000,50.000000,24.000000,-2.000000,5.000000,23.000000
1312770.434310,-58.000000,-8.000000,-5.000000,12.000000,-10.000000,-2.000000,1.000000,-9.000000
1312770.434830,-13.000000,2.000000,33.000000,-6.000000,1.000000,-3.000000,-9.000000,-16.000000
1312770.434838,7.000000,-1.000000,5.000000,9.000000,15.000000,5.000000,9.000000,6.000000
1312770.435871,-30.000000,-71.000000,1.000000,-13.000000,-7.000000,-6.000000,-12.000000,-16.000000
1312770.435879,7.000000,10.000000,-1.000000,-11.000000,-15.000000,-1.000000,9.000000,8.000000
1312770.436787,17.000000,16.000000,2.000000,-6.000000,1.000000,-5.000000,-1.000000,4.000000
1312770.436796,-12.000000,-57.000000,-40.000000,38.000000,-3.000000,-1.000000,-2.000000,-6.000000
1312770.442471,16.000000,27.000000,-17.000000,-9.000000,-11.000000,-6.000000,-9.000000,-17.000000
1312770.442502,7.000000,7.000000,37.000000,-8.000000,-6.000000,9.000000,10.000000,15.000000
1312770.456590,-36.000000,22.000000,5.000000,-17.000000,-2.000000,-15.000000,-15.000000,-37.000000
1312770.456604,21.000000,1.000000,-8.000000,47.000000,2.000000,0.000000,-17.000000,13.000000
1312770.479442,10.000000,-9.000000,3.000000,18.000000,1.000000,-1.000000,13.000000,33.000000
1312770.479464,20.000000,-27.000000,-19.000000,37.000000,14.000000,11.000000,13.000000,8.000000
1312770.479841,-30.000000,-14.000000,12.000000,-29.000000,-18.000000,7.000000,-10.000000,-50.000000
1312770.479851,2.000000,7.000000,8.000000,43.000000,33.000000,8.000000,-1.000000,29.000000
1312770.494113,8.000000,-8.000000,36.000000,-41.000000,-4.000000,2.000000,11.000000,19.000000
1312770.494123,-5.000000,29.000000,-4.000000,25.000000,7.000000,5.000000,14.000000,-9.000000
1312770.501551,2.000000,-20.000000,31.000000,-20.000000,-16.000000,-4.000000,-9.000000,-1.000000
1312770.501560,9.000000,38.000000,23.000000,-1.000000,-4.000000,2.000000,-11.000000,-20.000000
1312770.517084,-8.000000,10.000000,-42.000000,-13.000000,-9.000000,-6.000000,1.000000,8.000000
1312770.517114,-6.000000,-9.000000,-34.000000,-30.000000,-17.000000,-15.000000,-7.000000,-6.000000
1312770.539239,3.000000,-5.000000,29.000000,25.000000,14.000000,0.000000,-6.000000,-8.000000
1312770.539250,33.000000,17.000000,-2.000000,6.000000,2.000000,3.000000,-2.000000,-8.000000
1312770.553981,-31.000000,-33.000000,-9.000000,19.000000,2.000000,6.000000,2.000000,11.000000
1312770.553994,20.000000,50.000000,17.000000,-13.000000,-8.000000,3.000000,24.000000,22.000000
1312770.554595,-8.000000,-5.000000,-84.000000,-21.000000,4.000000,-10.000000,2.000000,-3.000000
1312770.554611,-3.000000,-8.000000,111.000000,47.000000,1.000000,-2.000000,-6.000000,-21.000000
1312770.555901,8.000000,1.000000,-8.000000,20.000000,33.000000,14.000000,22.000000,18.000000
1312770.555930,3.000000,-8.000000,-12.000000,-19.000000,-14.000000,-11.000000,7.000000,8.000000
1312770.556638,3.000000,13.000000,15.000000,-6.000000,-11.000000,-10.000000,-14.000000,-16.000000
1312770.556665,-8.000000,-8.000000,2.000000,1.000000,-17.000000,-2.000000,-4.000000,-10.000000
1312770.562161,-22.000000,9.000000,-3.000000,58.000000,14.000000,4.000000,8.000000,17.000000
1312770.562189,17.000000,6.000000,-2.000000,6.000000,34.000000,-2.000000,-10.000000,-20.000000
1312770.576637,-16.000000,17.000000,32.000000,23.000000,-17.000000,6.000000,-11.000000,-18.000000
1312770.576647,-19.000000,-25.000000,-14.000000,-14.000000,-7.000000,-1.000000,47.000000,29.000000
1312770.584419,34.000000,37.000000,-39.000000,-18.000000,0.000000,1.000000,-10.000000,15.000000
1312770.584429,9.000000,-23.000000,-19.000000,10.000000,2.000000,-6.000000,-21.000000,-23.000000
1312770.599071,-28.000000,-8.000000,4.000000,-36.000000,-26.000000,-13.000000,-10.000000,-36.000000
1312770.599081,7.000000,53.000000,41.000000,22.000000,13.000000,-4.000000,4.000000,14.000000
1312770.614586,8.000000,-13.000000,-37.000000,-25.000000,-8.000000,-1.000000,9.000000,10.000000
1312770.614615,-2.000000,6.000000,21.000000,-8.000000,-3.000000,5.000000,-9.000000,-23.000000
1312770.622111,-3.000000,-16.000000,-4.000000,-18.000000,-15.000000,-18.000000,-9.000000,-6.000000
1312770.622140,-5.000000,-6.000000,11.000000,19.000000,-4.000000,-1.000000,-8.000000,-7.000000
1312770.651855,-5.000000,-3.000000,-6.000000,-27.000000,-19.000000,-6.000000,0.000000,-5.000000
1312770.651884,20.000000,8.000000,9.000000,-9.000000,-2.000000,2.000000,-1.000000,-2.000000
1312770.659654,-10.000000,-13.000000,0.000000,-19.000000,-1.000000,-5.000000,-4.000000,-5.000000
1312770.659683,23.000000,19.000000,-27.000000,-23.000000,-6.000000,-2.000000,-4.000000,-3.000000
1312770.675091,-27.000000,-9.000000,29.000000,14.000000,13.000000,4.000000,7.000000,11.000000
1312770.675108,8.000000,4.000000,-12.000000,-19.000000,-8.000000,-8.000000,0.000000,17.000000
1312770.675531,-6.000000,9.000000,-19.000000,30.000000,10.000000,3.000000,-15.000000,-69.000000
1312770.675539,32.000000,21.000000,20.000000,26.000000,19.000000,10.000000,-6.000000,84.000000
1312770.676602,-6.000000,6.000000,-40.000000,-24.000000,-14.000000,-15.000000,18.000000,-3.000000
1312770.676610,-11.000000,0.000000,16.000000,-26.000000,-17.000000,-4.000000,-24.000000,-21.000000
1312770.677606,7.000000,-5.000000,2.000000,-11.000000,-12.000000,-2.000000,4.000000,-15.000000
1312770.677614,-11.000000,-24.000000,34.000000,27.000000,-8.000000,1.000000,-15.000000,-11.000000
1312770.697107,-7.000000,23.000000,-11.000000,-12.000000,6.000000,-5.000000,-2.000000,-14.000000
1312770.697123,-13.000000,-4.000000,30.000000,7.000000,-4.000000,-3.000000,-31.000000,-16.000000
1312770.697690,-5.000000,6.000000,3.000000,-73.000000,-39.000000,-8.000000,-18.000000,-31.000000
1312770.697699,11.000000,-10.000000,13.000000,45.000000,38.000000,8.000000,47.000000,64.000000
1312770.711801,14.000000,28.000000,32.000000,12.000000,2.000000,10.000000,6.000000,-18.000000
1312770.711816,-53.000000,-17.000000,-33.000000,-17.000000,-16.000000,-11.000000,-19.000000,-29.000000
1312770.712495,35.000000,-21.000000,-72.000000,-50.000000,-28.000000,-13.000000,-15.000000,-7.000000
1312770.712504,-5.000000,7.000000,50.000000,96.000000,72.000000,19.000000,12.000000,-1.000000
1312770.734149,6.000000,0.000000,18.000000,2.000000,-7.000000,-4.000000,3.000000,-7.000000
1312770.734160,-54.000000,-6.000000,43.000000,-32.000000,-28.000000,-4.000000,-9.000000,-19.000000
1312770.749528,23.000000,15.000000,-20.000000,-6.000000,16.000000,8.000000,13.000000,41.000000
1312770.749540,14.000000,-9.000000,4.000000,-10.000000,-6.000000,-1.000000,-1.000000,-5.000000
1312770.771792,-23.000000,-17.000000,12.000000,-2.000000,-4.000000,7.000000,5.000000,5.000000
1312770.771825,-4.000000,18.000000,5.000000,-14.000000,-6.000000,-12.000000,-6.000000,-5.000000
1312770.779190,-19.000000,-29.000000,4.000000,0.000000,3.000000,3.000000,16.000000,6.000000
1312770.779201,-5.000000,-13.000000,-13.000000,-9.000000,-16.000000,-6.000000,-18.000000,-37.000000
1312770.809376,-4.000000,10.000000,32.000000,6.000000,6.000000,-8.000000,-1.000000,23.000000
1312770.809405,-5.000000,-8.000000,-4.000000,-34.000000,-6.000000,7.000000,24.000000,17.000000
1312770.816870,-10.000000,-7.000000,-4.000000,-6.000000,-7.000000,0.000000,-5.000000,6.000000
1312770.816899,-8.000000,7.000000,-21.000000,-21.000000,-20.000000,-16.000000,-20.000000,-22.000000
1312770.832337,-1.000000,0.000000,58.000000,3.000000,-2.000000,-12.000000,-14.000000,-16.000000
1312770.832350,11.000000,14.000000,-83.000000,14.000000,5.000000,-3.000000,13.000000,10.000000
1312770.832841,-32.000000,-35.000000,-4.000000,-5.000000,5.000000,7.000000,-3.000000,-35.000000
1312770.832870,-9.000000,30.000000,19.000000,-36.000000,-11.000000,-4.000000,11.000000,28.000000
1312770.834116,17.000000,-14.000000,-22.000000,-23.000000,6.000000,-10.000000,12.000000,15.000000
1312770.834131,-17.000000,-2.000000,0.000000,25.000000,-10.000000,-3.000000,-15.000000,-24.000000
1312770.835059,15.000000,-6.000000,-35.000000,6.000000,5.000000,-3.000000,-13.000000,-21.000000
1312770.835103,-3.000000,-6.000000,-2.000000,8.000000,-1.000000,3.000000,-15.000000,-18.000000
1312770.838930,-29.000000,-25.000000,1.000000,-18.000000,3.000000,-3.000000,9.000000,24.000000
1312770.838939,5.000000,21.000000,19.000000,0.000000,12.000000,-4.000000,-8.000000,-9.000000
1312770.854556,0.000000,-16.000000,-9.000000,-4.000000,-16.000000,-2.000000,-6.000000,-20.000000
1312770.854567,6.000000,1.000000,32.000000,-5.000000,5.000000,11.000000,10.000000,16.000000
1312770.876764,1.000000,-3.000000,15.000000,3.000000,5.000000,-2.000000,-19.000000,-14.000000
1312770.876775,2.000000,3.000000,-10.000000,-26.000000,-26.000000,0.000000,4.000000,0.000000
1312770.899770,-1.000000,-13.000000,-28.000000,-62.000000,0.000000,2.000000,-2.000000,6.000000
1312770.899800,21.000000,22.000000,-13.000000,57.000000,30.000000,12.000000,21.000000,18.000000
1312770.906903,-14.000000,-3.000000,9.000000,-15.000000,-13.000000,-3.000000,-8.000000,-5.000000
1312770.906914,19.000000,-5.000000,-5.000000,-1.000000,10.000000,7.000000,-5.000000,6.000000
1312770.929176,-3.000000,-1.000000,-2.000000,-10.000000,-7.000000,-9.000000,4.000000,15.000000
1312770.929186,-13.000000,4.000000,-11.000000,-18.000000,-17.000000,-5.000000,-6.000000,-23.000000
1312770.937023,11.000000,8.000000,48.000000,26.000000,18.000000,14.000000,2.000000,10.000000
1312770.937036,5.000000,-10.000000,-14.000000,1.000000,5.000000,1.000000,23.000000,31.000000
1312770.952400,5.000000,-11.000000,1.000000,1.000000,0.000000,5.000000,-4.000000,-24.000000
1312770.952419,20.000000,24.000000,22.000000,-30.000000,-25.000000,-10.000000,-18.000000,11.000000
1312770.952871,12.000000,-13.000000,18.000000,28.000000,21.000000,8.000000,5.000000,-5.000000
1312770.952881,-22.000000,-16.000000,28.000000,-16.000000,-5.000000,-1.000000,-17.000000,-27.000000
1312770.954119,-14.000000,-4.000000,12.000000,30.000000,11.000000,2.000000,28.000000,19.000000
1312770.954130,44.000000,38.000000,-4.000000,-40.000000,-6.000000,1.000000,-6.000000,1.000000
1312770.955275,-3.000000,2.000000,0.000000,-3.000000,-1.000000,1.000000,-8.000000,-3.000000
1312770.955287,-21.000000,-23.000000,6.000000,-31.000000,-19.000000,-12.000000,-5.000000,-27.000000
1312770.974283,9.000000,15.000000,65.000000,24.000000,12.000000,12.000000,25.000000,35.000000
1312770.974301,-8.000000,-15.000000,-52.000000,-15.000000,1.000000,-2.000000,-12.000000,-19.000000
1312770.989427,2.000000,0.000000,3.000000,-8.000000,-6.000000,-1.000000,6.000000,11.000000
1312770.989439,18.000000,-9.000000,3.000000,-9.000000,-3.000000,-4.000000,-20.000000,-21.000000
1312770.996768,-60.000000,28.000000,4.000000,-9.000000,-19.000000,-2.000000,9.000000,11.000000
1312770.996779,-4.000000,-47.000000,39.000000,36.000000,-2.000000,-1.000000,2.000000,2.000000
1312771.034364,5.000000,22.000000,-11.000000,-2.000000,10.000000,5.000000,12.000000,-10.000000
1312771.034392,20.000000,-6.000000,1.000000,-3.000000,-15.000000,2.000000,-10.000000,16.000000
1312771.034802,15.000000,41.000000,6.000000,9.000000,-8.000000,-12.000000,2.000000,0.000000
1312771.034811,-8.000000,-4.000000,-5.000000,2.000000,-1.000000,-5.000000,-32.000000,-41.000000
1312771.035913,-2.000000,2.000000,17.000000,-34.000000,-15.000000,0.000000,50.000000,53.000000
1312771.035940,-11.000000,-9.000000,-16.000000,15.000000,13.000000,2.000000,-10.000000,-21.000000
1312771.036667,-20.000000,-10.000000,-10.000000,1.000000,-5.000000,-6.000000,-35.000000,-39.000000
1312771.036697,59.000000,9.000000,1.000000,-2.000000,2.000000,12.000000,57.000000,75.000000
1312771.038049,3.000000,8.000000,-26.000000,-9.000000,-6.000000,2.000000,3.000000,-14.000000
1312771.038075,-6.000000,-2.000000,2.000000,9.000000,10.000000,3.000000,11.000000,18.000000
1312771.050115,-11.000000,-22.000000,30.000000,9.000000,15.000000,5.000000,1.000000,-3.000000
1312771.050168,12.000000,5.000000,19.000000,-4.000000,-6.000000,0.000000,14.000000,-5.000000
1312771.056902,-3.000000,6.000000,-22.000000,-27.000000,-5.000000,-13.000000,-20.000000,-9.000000
1312771.056912,8.000000,24.000000,63.000000,22.000000,12.000000,15.000000,7.000000,3.000000
1312771.071789,-3.000000,0.000000,-25.000000,-3.000000,7.000000,3.000000,7.000000,20.000000
1312771.071799,-5.000000,-23.000000,-62.000000,-20.000000,-4.000000,-12.000000,-14.000000,-11.000000
1312771.094390,15.000000,28.000000,25.000000,-8.000000,-2.000000,3.000000,3.000000,2.000000
1312771.094407,-33.000000,-54.000000,6.000000,-8.000000,9.000000,18.000000,9.000000,-14.000000
1312771.109174,16.000000,26.000000,-11.000000,11.000000,9.000000,-10.000000,-2.000000,51.000000
1312771.109192,9.000000,-1.000000,11.000000,25.000000,23.000000,3.000000,-7.000000,15.000000
1312771.116675,8.000000,2.000000,-28.000000,1.000000,-1.000000,6.000000,-3.000000,-26.000000
1312771.116685,-55.000000,-30.000000,-41.000000,-25.000000,-13.000000,-10.000000,6.000000,10.000000
1312771.154096,12.000000,22.000000,59.000000,15.000000,8.000000,1.000000,-12.000000,-7.000000
1312771.154111,-40.000000,-9.000000,-15.000000,-14.000000,-16.000000,-10.000000,-17.000000,-40.000000
1312771.154529,22.000000,30.000000,63.000000,48.000000,15.000000,11.000000,12.000000,10.000000
1312771.154545,1.000000,-12.000000,-46.000000,26.000000,1.000000,-1.000000,9.000000,4.000000
1312771.155759,-16.000000,25.000000,49.000000,-28.000000,-10.000000,-1.000000,1.000000,-19.000000
1312771.155767,8.000000,-1.000000,2.000000,-3.000000,2.000000,-9.000000,-26.000000,-16.000000
1312771.156542,5.000000,-37.000000,-6.000000,-6.000000,-2.000000,0.000000,2.000000,23.000000
1312771.156574,-21.000000,-13.000000,2.000000,-40.000000,-41.000000,-8.000000,-10.000000,-43.000000
1312771.157912,61.000000,24.000000,-24.000000,58.000000,15.000000,9.000000,28.000000,67.000000
1312771.157920,-46.000000,-20.000000,-10.000000,-3.000000,8.000000,0.000000,-7.000000,-18.000000
1312771.170032,-12.000000,-15.000000,-20.000000,-9.000000,-5.000000,-15.000000,-1.000000,40.000000
1312771.170043,-10.000000,18.000000,1.000000,-4.000000,-3.000000,0.000000,-6.000000,-2.000000
1312771.176868,-28.000000,-46.000000,38.000000,-5.000000,1.000000,6.000000,10.000000,-21.000000
1312771.176883,0.000000,63.000000,33.000000,7.000000,8.000000,-2.000000,19.000000,44.000000
1312771.191667,24.000000,-32.000000,-4.000000,14.000000,-1.000000,-8.000000,-32.000000,-32.000000
1312771.191678,-51.000000,-21.000000,5.000000,10.000000,-17.000000,-5.000000,16.000000,-16.000000
1312771.206633,23.000000,18.000000,17.000000,38.000000,15.000000,8.000000,4.000000,44.000000
1312771.206643,-8.000000,8.000000,-34.000000,-43.000000,-21.000000,-13.000000,-16.000000,-27.000000
1312771.229385,-20.000000,-19.000000,2.000000,-7.000000,-11.000000,5.000000,22.000000,22.000000
1312771.229395,-14.000000,-8.000000,9.000000,14.000000,4.000000,1.000000,4.000000,-8.000000
1312771.251498,19.000000,17.000000,-62.000000,-42.000000,-8.000000,-10.000000,-20.000000,-21.000000
1312771.251513,9.000000,40.000000,39.000000,33.000000,8.000000,-3.000000,0.000000,3.000000
1312771.252750,-56.000000,-7.000000,3.000000,-3.000000,-8.000000,-12.000000,-7.000000,-21.000000
1312771.252760,-1.000000,-9.000000,16.000000,-34.000000,-11.000000,-14.000000,-20.000000,-5.000000
1312771.253313,17.000000,-15.000000,-17.000000,21.000000,9.000000,0.000000,-2.000000,-12.000000
1312771.253322,17.000000,25.000000,59.000000,29.000000,26.000000,11.000000,2.000000,13.000000
1312771.254964,-9.000000,-14.000000,-68.000000,-19.000000,-9.000000,-7.000000,-4.000000,-5.000000
1312771.254983,-19.000000,14.000000,61.000000,-1.000000,12.000000,-8.000000,-4.000000,-19.000000
1312771.266778,-4.000000,-47.000000,-47.000000,3.000000,3.000000,2.000000,-6.000000,-2.000000
1312771.266790,2.000000,16.000000,22.000000,55.000000,47.000000,14.000000,12.000000,-16.000000
1312771.268046,0.000000,-20.000000,-34.000000,-18.000000,-1.000000,5.000000,17.000000,32.000000
1312771.268056,6.000000,11.000000,33.000000,1.000000,2.000000,-3.000000,-2.000000,0.000000
1312771.274457,-22.000000,-27.000000,11.000000,-4.000000,-8.000000,3.000000,6.000000,6.000000
1312771.274470,20.000000,31.000000,-13.000000,-6.000000,-3.000000,1.000000,-9.000000,-4.000000
1312771.289781,-7.000000,-11.000000,7.000000,-7.000000,-5.000000,10.000000,16.000000,-8.000000
1312771.289790,3.000000,5.000000,-13.000000,-41.000000,-19.000000,-6.000000,7.000000,2.000000
1312771.304028,-33.000000,-45.000000,18.000000,39.000000,16.000000,-10.000000,-1.000000,-6.000000
1312771.304056,6.000000,38.000000,-44.000000,-7.000000,3.000000,11.000000,7.000000,18.000000
1312771.305337,13.000000,-18.000000,-1.000000,10.000000,15.000000,14.000000,4.000000,19.000000
1312771.305358,8.000000,20.000000,25.000000,-26.000000,-17.000000,-12.000000,-25.000000,-27.000000
1312771.326759,4.000000,-9.000000,-15.000000,7.000000,13.000000,3.000000,36.000000,25.000000
1312771.326778,-36.000000,-7.000000,-4.000000,48.000000,8.000000,1.000000,-18.000000,-16.000000
1312771.349296,-6.000000,0.000000,-8.000000,-13.000000,-12.000000,-3.000000,-2.000000,-25.000000
1312771.349327,20.000000,-15.000000,21.000000,14.000000,-1.000000,2.000000,22.000000,47.000000
1312771.372371,-1.000000,-25.000000,-9.000000,-32.000000,-17.000000,-3.000000,3.000000,8.000000
1312771.372463,-16.000000,-12.000000,-67.000000,-1.000000,-9.000000,10.000000,-10.000000,-25.000000
1312771.372972,8.000000,19.000000,52.000000,17.000000,11.000000,4.000000,18.000000,7.000000
1312771.372990,21.000000,-16.000000,-1.000000,-36.000000,-23.000000,-5.000000,-1.000000,6.000000
1312771.373439,-33.000000,6.000000,2.000000,30.000000,24.000000,6.000000,3.000000,4.000000
1312771.373448,7.000000,34.000000,-32.000000,18.000000,-15.000000,-11.000000,11.000000,34.000000
1312771.374783,2.000000,11.000000,1.000000,-16.000000,4.000000,3.000000,12.000000,-4.000000
1312771.374791,-20.000000,-24.000000,-12.000000,7.000000,7.000000,6.000000,-11.000000,-19.000000
1312771.386821,5.000000,-21.000000,1.000000,-34.000000,-16.000000,-13.000000,2.000000,-9.000000
1312771.386840,-9.000000,-4.000000,-9.000000,29.000000,0.000000,-4.000000,-9.000000,-13.000000
1312771.387940,-1.000000,2.000000,10.000000,1.000000,-7.000000,1.000000,-1.000000,8.000000
1312771.387949,18.000000,5.000000,-18.000000,14.000000,6.000000,3.000000,-1.000000,-3.000000
1312771.394094,-19.000000,-8.000000,-11.000000,-20.000000,-7.000000,-12.000000,-19.000000,-18.000000
1312771.394104,7.000000,18.000000,47.000000,-20.000000,11.000000,-4.000000,24.000000,28.000000
1312771.410049,1.000000,13.000000,-45.000000,18.000000,-15.000000,-3.000000,-29.000000,-32.000000
1312771.410061,-44.000000,-13.000000,49.000000,4.000000,-23.000000,-7.000000,-7.000000,-17.000000
1312771.424229,7.000000,-12.000000,-8.000000,-4.000000,6.000000,-4.000000,13.000000,49.000000
1312771.424239,23.000000,4.000000,-11.000000,-13.000000,-8.000000,8.000000,12.000000,-5.000000
1312771.432546,-8.000000,11.000000,22.000000,8.000000,-9.000000,-5.000000,0.000000,-8.000000
1312771.432569,-6.000000,-15.000000,-70.000000,-22.000000,-2.000000,4.000000,-10.000000,-15.000000
1312771.446737,-2.000000,11.000000,10.000000,7.000000,7.000000,0.000000,-22.000000,-25.000000
1312771.446747,-7.000000,-24.000000,-25.000000,-8.000000,-7.000000,-1.000000,8.000000,22.000000
1312771.469370,1.000000,-6.000000,-6.000000,-27.000000,-11.000000,-2.000000,-2.000000,-6.000000
1312771.469388,-1.000000,1.000000,-25.000000,21.000000,18.000000,5.000000,26.000000,-2.000000
1312771.484017,-34.000000,-12.000000,3.000000,0.000000,-5.000000,10.000000,-21.000000,-31.000000
1312771.484046,14.000000,27.000000,26.000000,-52.000000,-18.000000,-14.000000,-13.000000,18.000000
1312771.485273,19.000000,-11.000000,13.000000,50.000000,28.000000,9.000000,10.000000,22.000000
1312771.485304,-5.000000,-17.000000,-13.000000,-15.000000,-5.000000,4.000000,13.000000,-1.000000
1312771.485838,-21.000000,-1.000000,-9.000000,-14.000000,-13.000000,-20.000000,-26.000000,-63.000000
1312771.485846,42.000000,12.000000,9.000000,33.000000,-6.000000,3.000000,13.000000,57.000000
1312771.487323,-37.000000,-32.000000,-19.000000,12.000000,1.000000,2.000000,-12.000000,-20.000000
1312771.487331,-12.000000,8.000000,55.000000,-14.000000,-9.000000,-2.000000,2.000000,-16.000000
1312771.507080,-7.000000,3.000000,-11.000000,-19.000000,-7.000000,-2.000000,-12.000000,-18.000000
1312771.507088,-9.000000,-6.000000,1.000000,18.000000,15.000000,4.000000,6.000000,3.000000
1312771.507931,7.000000,-5.000000,-17.000000,-30.000000,-10.000000,-7.000000,-5.000000,-4.000000
1312771.507939,1.000000,-8.000000,22.000000,77.000000,47.000000,11.000000,-5.000000,8.000000
1312771.529512,12.000000,7.000000,12.000000,-6.000000,7.000000,3.000000,-3.000000,-7.000000
1312771.529521,-24.000000,-18.000000,-18.000000,-9.000000,-7.000000,-15.000000,-9.000000,-4.000000
1312771.530432,-23.000000,-14.000000,-3.000000,4.000000,-3.000000,-2.000000,-13.000000,-37.000000
1312771.530447,65.000000,25.000000,7.000000,2.000000,7.000000,23.000000,35.000000,41.000000
1312771.544438,3.000000,-41.000000,-15.000000,-5.000000,-7.000000,-3.000000,29.000000,32.000000
1312771.544448,-30.000000,-3.000000,-9.000000,-2.000000,-13.000000,-5.000000,-23.000000,2.000000
1312771.551934,3.000000,-25.000000,-58.000000,-13.000000,9.000000,-1.000000,-4.000000,-17.000000
1312771.551945,-7.000000,17.000000,91.000000,17.000000,-3.000000,1.000000,5.000000,-6.000000
1312771.589529,8.000000,9.000000,-25.000000,8.000000,-10.000000,3.000000,16.000000,-10.000000
1312771.589542,2.000000,-21.000000,3.000000,-2.000000,7.000000,2.000000,8.000000,13.000000
1312771.604370,7.000000,-7.000000,20.000000,-22.000000,-17.000000,-16.000000,-28.000000,-53.000000
1312771.604418,1.000000,-7.000000,18.000000,-8.000000,3.000000,5.000000,14.000000,58.000000
1312771.626839,5.000000,30.000000,18.000000,-7.000000,-1.000000,-9.000000,-10.000000,-19.000000
1312771.626861,-1.000000,-9.000000,-13.000000,-2.000000,5.000000,1.000000,1.000000,-8.000000
1312771.649230,-3.000000,-2.000000,-5.000000,-15.000000,-5.000000,-7.000000,-7.000000,-8.000000
1312771.649241,-13.000000,4.000000,-7.000000,-3.000000,-5.000000,8.000000,0.000000,-15.000000
1312771.650441,56.000000,26.000000,53.000000,18.000000,-2.000000,-4.000000,21.000000,29.000000
1312771.650452,-18.000000,-1.000000,-42.000000,-10.000000,3.000000,-4.000000,-4.000000,5.000000
1312771.650901,-7.000000,-6.000000,10.000000,-5.000000,-3.000000,-3.000000,1.000000,-16.000000
1312771.650909,-24.000000,-7.000000,39.000000,3.000000,-2.000000,4.000000,7.000000,2.000000
1312771.652282,-12.000000,-3.000000,-40.000000,17.000000,2.000000,0.000000,-24.000000,-5.000000
1312771.652292,24.000000,-2.000000,11.000000,39.000000,22.000000,11.000000,26.000000,41.000000
1312771.664065,17.000000,-15.000000,2.000000,8.000000,-15.000000,-3.000000,-6.000000,-4.000000
1312771.664076,-53.000000,-17.000000,0.000000,5.000000,1.000000,-4.000000,-2.000000,-5.000000
1312771.664664,13.000000,23.000000,-79.000000,-5.000000,-4.000000,-3.000000,7.000000,1.000000
1312771.664672,-10.000000,-16.000000,30.000000,5.000000,1.000000,3.000000,5.000000,1.000000
1312771.709222,6.000000,5.000000,-14.000000,-24.000000,-6.000000,-32.000000,-24.000000,-34.000000
1312771.709233,-34.000000,-24.000000,-8.000000,1.000000,-15.000000,0.000000,7.000000,3.000000
1312771.724413,-17.000000,-9.000000,28.000000,6.000000,5.000000,2.000000,33.000000,59.000000
1312771.724427,3.000000,13.000000,15.000000,17.000000,6.000000,11.000000,-7.000000,-9.000000
1312771.725357,-11.000000,-56.000000,-75.000000,-23.000000,-1.000000,-13.000000,3.000000,-10.000000
1312771.725369,0.000000,1.000000,28.000000,-15.000000,-7.000000,-3.000000,-5.000000,12.000000
1312771.725840,4.000000,15.000000,9.000000,3.000000,-7.000000,3.000000,5.000000,-13.000000
1312771.725849,-5.000000,2.000000,-2.000000,-1.000000,5.000000,3.000000,-12.000000,-8.000000
1312771.727771,8.000000,56.000000,5.000000,11.000000,8.000000,2.000000,0.000000,2.000000
1312771.727783,10.000000,-22.000000,-101.000000,-48.000000,-19.000000,-2.000000,5.000000,-15.000000
1312771.731954,-56.000000,9.000000,22.000000,33.000000,15.000000,-6.000000,-18.000000,-41.000000
1312771.731965,10.000000,3.000000,-10.000000,-30.000000,-8.000000,-10.000000,-1.000000,27.000000
1312771.747074,18.000000,-13.000000,-13.000000,-31.000000,-12.000000,2.000000,2.000000,-16.000000
1312771.747084,11.000000,13.000000,-6.000000,34.000000,13.000000,2.000000,3.000000,40.000000
1312771.747836,-1.000000,5.000000,-1.000000,-10.000000,1.000000,-2.000000,-22.000000,-39.000000
1312771.747844,-4.000000,16.000000,12.000000,5.000000,3.000000,6.000000,17.000000,22.000000
1312771.762275,-3.000000,-16.000000,-28.000000,3.000000,1.000000,1.000000,8.000000,18.000000
1312771.762293,-7.000000,-10.000000,-34.000000,-26.000000,-12.000000,-8.000000,-5.000000,-18.000000
1312771.769541,15.000000,28.000000,51.000000,16.000000,15.000000,10.000000,0.000000,-3.000000
1312771.769569,-15.000000,-8.000000,17.000000,-10.000000,-10.000000,-4.000000,-11.000000,-24.000000
1312771.784904,-1.000000,-3.000000,1.000000,-7.000000,6.000000,3.000000,11.000000,30.000000
1312771.784932,2.000000,-4.000000,-11.000000,3.000000,6.000000,2.000000,-6.000000,-18.000000
1312771.806649,13.000000,25.000000,-8.000000,-10.000000,-11.000000,2.000000,-1.000000,-13.000000
1312771.806659,-23.000000,-11.000000,-25.000000,12.000000,5.000000,-9.000000,7.000000,10.000000
1312771.829477,19.000000,-4.000000,-44.000000,-5.000000,-3.000000,2.000000,20.000000,14.000000
1312771.829491,-6.000000,27.000000,72.000000,-4.000000,-12.000000,0.000000,-41.000000,-32.000000
1312771.844249,14.000000,3.000000,-1.000000,-26.000000,-9.000000,-2.000000,-5.000000,7.000000
1312771.844259,-7.000000,-47.000000,-48.000000,15.000000,2.000000,1.000000,16.000000,27.000000
1312771.866836,2.000000,6.000000,32.000000,4.000000,3.000000,11.000000,3.000000,-33.000000
1312771.866983,3.000000,7.000000,-16.000000,-10.000000,-9.000000,-9.000000,5.000000,23.000000
1312771.867131,3.000000,12.000000,18.000000,24.000000,-5.000000,2.000000,-4.000000,-11.000000
1312771.867139,-5.000000,-4.000000,-15.000000,2.000000,16.000000,6.000000,2.000000,-7.000000
1312771.868361,0.000000,-4.000000,3.000000,-7.000000,-5.000000,-5.000000,2.000000,10.000000
1312771.868370,-14.000000,5.000000,-8.000000,-10.000000,-19.000000,-9.000000,-9.000000,-16.000000
1312771.869011,11.000000,-13.000000,-32.000000,-8.000000,11.000000,3.000000,0.000000,1.000000
1312771.869021,-21.000000,12.000000,-27.000000,14.000000,11.000000,-1.000000,-10.000000,15.000000
1312771.871017,-12.000000,3.000000,1.000000,45.000000,41.000000,13.000000,34.000000,31.000000
1312771.871030,16.000000,3.000000,3.000000,0.000000,16.000000,-1.000000,-22.000000,-11.000000
1312771.882677,-10.000000,-24.000000,1.000000,-13.000000,-9.000000,-9.000000,-3.000000,-1.000000
1312771.882689,0.000000,3.000000,-41.000000,-1.000000,-1.000000,0.000000,-16.000000,-18.000000
1312771.889276,-10.000000,-11.000000,30.000000,-10.000000,-4.000000,0.000000,-11.000000,-24.000000
1312771.889285,-8.000000,7.000000,-14.000000,23.000000,-1.000000,6.000000,10.000000,8.000000
1312771.904255,-13.000000,15.000000,-13.000000,-26.000000,-17.000000,-13.000000,-15.000000,-24.000000
1312771.904264,-11.000000,-40.000000,-5.000000,5.000000,17.000000,6.000000,12.000000,16.000000
1312771.926872,42.000000,90.000000,72.000000,4.000000,-9.000000,4.000000,23.000000,24.000000
1312771.926900,23.000000,11.000000,7.000000,-32.000000,-22.000000,-7.000000,-6.000000,-1.000000
1312771.941651,-37.000000,-26.000000,-29.000000,-3.000000,0.000000,-4.000000,-22.000000,1.000000
1312771.941669,-11.000000,3.000000,31.000000,14.000000,1.000000,1.000000,3.000000,-20.000000
1312771.949235,-14.000000,-31.000000,-25.000000,-5.000000,-10.000000,-1.000000,-11.000000,-21.000000
1312771.949254,46.000000,23.000000,-15.000000,-50.000000,-26.000000,-26.000000,-10.000000,13.000000
1312771.965084,-88.000000,-14.000000,21.000000,25.000000,21.000000,22.000000,10.000000,-34.000000
1312771.965111,14.000000,-4.000000,-8.000000,-23.000000,-6.000000,-11.000000,-24.000000,-3.000000
1312771.965681,15.000000,5.000000,35.000000,7.000000,0.000000,-3.000000,41.000000,26.000000
1312771.965710,6.000000,7.000000,-52.000000,-37.000000,-18.000000,0.000000,-18.000000,-19.000000
1312771.967038,-2.000000,-25.000000,47.000000,47.000000,44.000000,11.000000,-7.000000,-2.000000
1312771.967046,-8.000000,15.000000,20.000000,-9.000000,-6.000000,-11.000000,-36.000000,-67.000000
1312771.986808,3.000000,28.000000,-26.000000,-10.000000,1.000000,4.000000,30.000000,51.000000
1312771.986837,18.000000,-14.000000,-47.000000,1.000000,0.000000,0.000000,4.000000,20.000000
1312771.987811,-45.000000,-64.000000,-32.000000,-20.000000,-11.000000,-10.000000,-10.000000,-27.000000
1312771.987837,6.000000,50.000000,73.000000,-3.000000,0.000000,1.000000,-3.000000,-9.000000
1312771.988767,3.000000,3.000000,-18.000000,9.000000,9.000000,6.000000,9.000000,4.000000
1312771.988775,-17.000000,-10.000000,28.000000,-2.000000,-2.000000,-3.000000,-18.000000,-20.000000
1312772.002465,4.000000,3.000000,-14.000000,-32.000000,0.000000,11.000000,13.000000,22.000000
1312772.002478,6.000000,3.000000,-5.000000,42.000000,7.000000,-7.000000,-6.000000,-6.000000
1312772.009127,10.000000,4.000000,11.000000,-1.000000,3.000000,11.000000,22.000000,12.000000
1312772.009137,13.000000,19.000000,4.000000,-1.000000,-1.000000,-15.000000,-23.000000,3.000000
1312772.039338,-7.000000,-4.000000,-23.000000,-23.000000,-2.000000,7.000000,0.000000,-10.000000
1312772.039350,8.000000,2.000000,-30.000000,-27.000000,-21.000000,-12.000000,-16.000000,-13.000000
1312772.046701,-3.000000,7.000000,-7.000000,2.000000,6.000000,4.000000,19.000000,18.000000
1312772.046712,3.000000,-26.000000,-15.000000,-10.000000,-6.000000,-1.000000,19.000000,22.000000
1312772.061664,3.000000,28.000000,2.000000,-11.000000,-7.000000,-3.000000,-27.000000,-21.000000
1312772.061692,-30.000000,-28.000000,-39.000000,21.000000,-1.000000,8.000000,0.000000,-8.000000
1312772.084424,4.000000,-30.000000,30.000000,-2.000000,-2.000000,-1.000000,-23.000000,-30.000000
1312772.084435,-4.000000,8.000000,-25.000000,-30.000000,-3.000000,-4.000000,9.000000,24.000000
1312772.099563,11.000000,2.000000,-35.000000,-8.000000,-6.000000,-9.000000,7.000000,3.000000
1312772.099582,-17.000000,4.000000,1.000000,11.000000,26.000000,4.000000,-2.000000,-9.000000
1312772.122253,15.000000,10.000000,2.000000,2.000000,-9.000000,-2.000000,-1.000000,-3.000000
1312772.122275,4.000000,-5.000000,-27.000000,-20.000000,-17.000000,-5.000000,-10.000000,-2.000000
1312772.123259,10.000000,-11.000000,47.000000,-10.000000,-4.000000,-3.000000,3.000000,0.000000
1312772.123276,-10.000000,-7.000000,9.000000,31.000000,23.000000,9.000000,-4.000000,-6.000000
1312772.123841,-7.000000,-8.000000,-18.000000,-41.000000,-18.000000,0.000000,-21.000000,-25.000000
1312772.123858,6.000000,-34.000000,-51.000000,2.000000,-5.000000,5.000000,25.000000,21.000000
1312772.125247,-21.000000,-7.000000,49.000000,27.000000,18.000000,12.000000,25.000000,0.000000
1312772.125282,-5.000000,5.000000,-4.000000,-32.000000,-6.000000,-6.000000,-29.000000,-31.000000
1312772.144379,11.000000,15.000000,15.000000,15.000000,-3.000000,-5.000000,-10.000000,-5.000000
1312772.144393,-8.000000,-1.000000,4.000000,-29.000000,-10.000000,1.000000,12.000000,-15.000000
1312772.167192,12.000000,-4.000000,20.000000,22.000000,-10.000000,-5.000000,-15.000000,-8.000000
1312772.167215,-11.000000,14.000000,-13.000000,2.000000,10.000000,12.000000,11.000000,14.000000
1312772.182417,1.000000,-34.000000,-51.000000,-12.000000,-7.000000,2.000000,15.000000,30.000000
1312772.182429,-12.000000,19.000000,42.000000,-4.000000,-8.000000,-12.000000,-31.000000,-20.000000
1312772.219439,-3.000000,-5.000000,-1.000000,-22.000000,-4.000000,4.000000,21.000000,10.000000
1312772.219452,29.000000,-16.000000,-3.000000,24.000000,-6.000000,4.000000,3.000000,1.000000
1312772.226957,-23.000000,-40.000000,-6.000000,-1.000000,8.000000,3.000000,-15.000000,-3.000000
1312772.226970,4.000000,0.000000,-60.000000,-39.000000,-16.000000,-6.000000,-5.000000,-14.000000
1312772.242009,1.000000,12.000000,65.000000,26.000000,-4.000000,-4.000000,-1.000000,-1.000000
1312772.242129,0.000000,-6.000000,-101.000000,-33.000000,1.000000,-1.000000,0.000000,-11.000000
1312772.242482,-15.000000,-18.000000,25.000000,-17.000000,-13.000000,-14.000000,2.000000,6.000000
1312772.242506,-19.000000,5.000000,17.000000,-38.000000,-26.000000,16.000000,-12.000000,-11.000000
1312772.245163,8.000000,14.000000,-3.000000,-6.000000,16.000000,-1.000000,-2.000000,-4.000000
1312772.245186,2.000000,7.000000,17.000000,-26.000000,-7.000000,-1.000000,-1.000000,-6.000000
1312772.256591,-11.000000,-3.000000,20.000000,21.000000,5.000000,-1.000000,-6.000000,-11.000000
1312772.256602,2.000000,-4.000000,-5.000000,-12.000000,0.000000,-4.000000,2.000000,-6.000000
1312772.279721,-7.000000,0.000000,-16.000000,46.000000,33.000000,9.000000,-7.000000,2.000000
1312772.279754,-12.000000,15.000000,-17.000000,-6.000000,-10.000000,-12.000000,4.000000,-28.000000
1312772.301725,16.000000,-23.000000,37.000000,32.000000,10.000000,13.000000,17.000000,56.000000
1312772.301735,-11.000000,7.000000,-19.000000,-16.000000,2.000000,4.000000,-6.000000,-26.000000
1312772.324522,-2.000000,-33.000000,2.000000,-25.000000,-22.000000,-14.000000,-11.000000,-9.000000
1312772.324535,11.000000,-26.000000,-7.000000,-8.000000,13.000000,9.000000,30.000000,25.000000
1312772.339341,-3.000000,8.000000,7.000000,-8.000000,-9.000000,-2.000000,-20.000000,-1.000000
1312772.339359,5.000000,7.000000,5.000000,49.000000,23.000000,14.000000,7.000000,0.000000
1312772.376643,-23.000000,-11.000000,5.000000,-8.000000,-5.000000,-3.000000,-9.000000,-16.000000
1312772.376666,0.000000,-11.000000,-6.000000,-9.000000,-8.000000,-1.000000,3.000000,-13.000000
1312772.377153,13.000000,1.000000,13.000000,23.000000,5.000000,-8.000000,-10.000000,-29.000000
1312772.377163,-9.000000,-5.000000,-19.000000,-56.000000,-10.000000,-6.000000,-9.000000,8.000000
1312772.378505,2.000000,-15.000000,-32.000000,-15.000000,-7.000000,1.000000,5.000000,-28.000000
1312772.378516,7.000000,-3.000000,-25.000000,-17.000000,-17.000000,-21.000000,-19.000000,-5.000000
1312772.406950,13.000000,-12.000000,0.000000,21.000000,3.000000,11.000000,16.000000,15.000000
1312772.406960,-3.000000,-3.000000,-16.000000,-31.000000,1.000000,0.000000,-15.000000,-17.000000
1312772.436754,-42.000000,-40.000000,46.000000,32.000000,12.000000,2.000000,14.000000,10.000000
1312772.436803,33.000000,4.000000,38.000000,-2.000000,-17.000000,-12.000000,-13.000000,4.000000
1312772.437397,1.000000,25.000000,-33.000000,-5.000000,-9.000000,-1.000000,0.000000,-20.000000
1312772.437411,-31.000000,-46.000000,-36.000000,-9.000000,-9.000000,-4.000000,-2.000000,-14.000000
1312772.438287,11.000000,-16.000000,6.000000,6.000000,0.000000,6.000000,19.000000,39.000000
1312772.438298,2.000000,32.000000,-5.000000,-38.000000,-17.000000,-10.000000,1.000000,-4.000000
1312772.439058,16.000000,7.000000,24.000000,38.000000,7.000000,-1.000000,-12.000000,-2.000000
1312772.439073,13.000000,2.000000,18.000000,14.000000,16.000000,13.000000,-10.000000,-19.000000
1312772.440728,-20.000000,7.000000,0.000000,-7.000000,-5.000000,-9.000000,-4.000000,-3.000000
1312772.440774,-23.000000,-39.000000,-13.000000,-4.000000,1.000000,-3.000000,23.000000,-1.000000
1312772.459117,29.000000,36.000000,-9.000000,17.000000,-4.000000,-2.000000,-29.000000,8.000000
1312772.459127,-51.000000,-25.000000,12.000000,-14.000000,-14.000000,-10.000000,-14.000000,-24.000000
1312772.460454,10.000000,-10.000000,18.000000,-14.000000,-26.000000,-4.000000,19.000000,27.000000
1312772.460462,9.000000,9.000000,17.000000,11.000000,2.000000,5.000000,14.000000,3.000000
1312772.481705,1.000000,-9.000000,-25.000000,-16.000000,-3.000000,1.000000,-10.000000,-15.000000
1312772.481734,-3.000000,1.000000,16.000000,-53.000000,-21.000000,-6.000000,-4.000000,-4.000000
1312772.483059,-9.000000,-13.000000,-10.000000,39.000000,3.000000,-22.000000,-6.000000,10.000000
1312772.483070,-18.000000,12.000000,18.000000,13.000000,11.000000,3.000000,10.000000,8.000000
1312772.496710,20.000000,7.000000,12.000000,-4.000000,-6.000000,-4.000000,-13.000000,0.000000
1312772.496732,-31.000000,-21.000000,-76.000000,-9.000000,0.000000,-1.000000,-5.000000,-20.000000
1312772.504525,-4.000000,29.000000,95.000000,4.000000,1.000000,-1.000000,-3.000000,-1.000000
1312772.504548,50.000000,0.000000,-50.000000,7.000000,4.000000,6.000000,11.000000,10.000000
1312772.519462,-23.000000,-8.000000,8.000000,-4.000000,-3.000000,0.000000,-9.000000,-3.000000
1312772.519474,8.000000,-2.000000,-35.000000,-4.000000,5.000000,-4.000000,-8.000000,-15.000000
1312772.556947,14.000000,-6.000000,-40.000000,-9.000000,-5.000000,4.000000,16.000000,23.000000
1312772.556977,-20.000000,12.000000,71.000000,0.000000,-13.000000,-10.000000,-9.000000,13.000000
1312772.564164,1.000000,-6.000000,-29.000000,15.000000,-3.000000,9.000000,-4.000000,-7.000000
1312772.564176,-36.000000,1.000000,-14.000000,-38.000000,0.000000,1.000000,12.000000,-8.000000
1312772.565305,17.000000,11.000000,46.000000,12.000000,13.000000,-3.000000,-35.000000,-47.000000
1312772.565314,24.000000,4.000000,-10.000000,-12.000000,-16.000000,-15.000000,-7.000000,37.000000
1312772.566009,-2.000000,2.000000,7.000000,-24.000000,-17.000000,0.000000,-8.000000,-11.000000
1312772.566018,-12.000000,-23.000000,-76.000000,20.000000,13.000000,-1.000000,7.000000,14.000000
1312772.567664,-4.000000,21.000000,41.000000,-14.000000,-16.000000,-4.000000,-2.000000,-17.000000
1312772.567679,-9.000000,-3.000000,4.000000,10.000000,7.000000,-4.000000,-23.000000,-56.000000
1312772.571612,3.000000,6.000000,-41.000000,-24.000000,-5.000000,2.000000,16.000000,28.000000
1312772.571680,-6.000000,-26.000000,73.000000,9.000000,-1.000000,2.000000,-9.000000,-25.000000
1312772.579887,8.000000,22.000000,-29.000000,-10.000000,-5.000000,-7.000000,4.000000,15.000000
1312772.579896,0.000000,-9.000000,-11.000000,-34.000000,-16.000000,-9.000000,-14.000000,-16.000000
1312772.594131,-14.000000,17.000000,-10.000000,33.000000,3.000000,1.000000,-5.000000,-10.000000
1312772.594140,26.000000,15.000000,7.000000,15.000000,3.000000,5.000000,-12.000000,-29.000000
1312772.601937,-4.000000,-20.000000,-22.000000,-13.000000,-10.000000,-8.000000,4.000000,44.000000
1312772.601948,4.000000,-22.000000,-7.000000,-20.000000,-10.000000,-3.000000,5.000000,-5.000000
1312772.616671,11.000000,7.000000,0.000000,-1.000000,-6.000000,-9.000000,-7.000000,-14.000000
1312772.616695,12.000000,60.000000,-23.000000,-9.000000,4.000000,6.000000,8.000000,10.000000
1312772.654586,-6.000000,-22.000000,13.000000,2.000000,4.000000,-5.000000,-22.000000,-31.000000
1312772.654597,-2.000000,-5.000000,0.000000,1.000000,-12.000000,-12.000000,28.000000,40.000000
1312772.662152,23.000000,20.000000,-1.000000,-13.000000,1.000000,3.000000,-7.000000,28.000000
1312772.662162,15.000000,34.000000,4.000000,-1.000000,5.000000,0.000000,-19.000000,-30.000000
1312772.699554,-33.000000,1.000000,2.000000,-32.000000,-43.000000,3.000000,9.000000,4.000000
1312772.699601,6.000000,-30.000000,-60.000000,7.000000,15.000000,7.000000,0.000000,2.000000
1312772.700003,5.000000,16.000000,-5.000000,-15.000000,-6.000000,-3.000000,4.000000,-13.000000
1312772.700030,9.000000,3.000000,21.000000,-7.000000,-8.000000,1.000000,-13.000000,-23.000000
1312772.701091,-34.000000,-5.000000,21.000000,4.000000,-1.000000,8.000000,14.000000,38.000000
1312772.701099,3.000000,-2.000000,-41.000000,-50.000000,-13.000000,-11.000000,-22.000000,-19.000000
1312772.701625,6.000000,10.000000,52.000000,8.000000,1.000000,6.000000,9.000000,-15.000000
1312772.701654,-5.000000,-6.000000,-37.000000,17.000000,-16.000000,-18.000000,-11.000000,-1.000000
1312772.703175,-13.000000,6.000000,-42.000000,33.000000,20.000000,10.000000,-7.000000,-19.000000
1312772.703202,9.000000,8.000000,57.000000,5.000000,2.000000,-1.000000,2.000000,8.000000
1312772.714075,1.000000,44.000000,-12.000000,12.000000,11.000000,10.000000,0.000000,-9.000000
1312772.714086,3.000000,-4.000000,-22.000000,-37.000000,-16.000000,-16.000000,-5.000000,-14.000000
1312772.721643,1.000000,7.000000,-35.000000,22.000000,14.000000,8.000000,12.000000,16.000000
1312772.721660,-13.000000,-1.000000,2.000000,2.000000,-4.000000,9.000000,5.000000,-33.000000
1312772.736817,-4.000000,-25.000000,-4.000000,-7.000000,-14.000000,-4.000000,0.000000,22.000000
1312772.736829,8.000000,-8.000000,-38.000000,-35.000000,4.000000,4.000000,-13.000000,-2.000000
1312772.774175,-3.000000,-2.000000,25.000000,45.000000,10.000000,0.000000,-1.000000,-6.000000
1312772.774187,-3.000000,-5.000000,-27.000000,-30.000000,-27.000000,-3.000000,-2.000000,-9.000000
1312772.781763,-23.000000,4.000000,37.000000,-11.000000,9.000000,-4.000000,-7.000000,-13.000000
1312772.781774,26.000000,22.000000,4.000000,-18.000000,-8.000000,1.000000,2.000000,16.000000
1312772.797462,-2.000000,-9.000000,-5.000000,4.000000,3.000000,4.000000,5.000000,-7.000000
1312772.797486,-11.000000,19.000000,15.000000,-4.000000,-5.000000,0.000000,7.000000,3.000000
1312772.798048,26.000000,30.000000,13.000000,15.000000,13.000000,7.000000,4.000000,33.000000
1312772.798107,-1.000000,-15.000000,-5.000000,-4.000000,-6.000000,7.000000,-42.000000,-65.000000
1312772.799803,19.000000,76.000000,23.000000,13.000000,17.000000,7.000000,61.000000,107.000000
1312772.799840,11.000000,2.000000,-21.000000,-15.000000,-11.000000,0.000000,7.000000,-12.000000
1312772.800180,-8.000000,-12.000000,6.000000,8.000000,0.000000,11.000000,9.000000,-16.000000
1312772.800205,-5.000000,5.000000,-3.000000,4.000000,14.000000,-5.000000,-18.000000,-26.000000
1312772.811581,27.000000,7.000000,-29.000000,-12.000000,6.000000,4.000000,-5.000000,-1.000000
1312772.811592,-19.000000,-13.000000,18.000000,53.000000,-11.000000,0.000000,-16.000000,-14.000000
1312772.819137,21.000000,8.000000,-20.000000,-10.000000,-5.000000,5.000000,13.000000,24.000000
1312772.819147,-27.000000,-15.000000,8.000000,8.000000,17.000000,11.000000,14.000000,16.000000
1312772.841781,52.000000,31.000000,-18.000000,-15.000000,-15.000000,-11.000000,-29.000000,-43.000000
1312772.841794,-15.000000,-30.000000,9.000000,-29.000000,-26.000000,-5.000000,14.000000,28.000000
1312772.856854,-43.000000,5.000000,6.000000,-21.000000,-2.000000,2.000000,19.000000,35.000000
1312772.856877,18.000000,-13.000000,-76.000000,-14.000000,-1.000000,-5.000000,-7.000000,-10.000000
1312772.879446,4.000000,34.000000,97.000000,21.000000,8.000000,7.000000,-5.000000,-9.000000
1312772.879456,-24.000000,-51.000000,-24.000000,-21.000000,-13.000000,-14.000000,-4.000000,-9.000000
1312772.894357,-16.000000,3.000000,-54.000000,-6.000000,2.000000,3.000000,-9.000000,-6.000000
1312772.894375,12.000000,13.000000,19.000000,-6.000000,-14.000000,-6.000000,15.000000,-27.000000
1312772.917357,18.000000,-27.000000,-33.000000,11.000000,15.000000,9.000000,2.000000,57.000000
1312772.917368,-12.000000,-12.000000,34.000000,-4.000000,0.000000,-4.000000,-3.000000,-8.000000
1312772.917830,-25.000000,18.000000,-1.000000,-5.000000,-16.000000,0.000000,12.000000,-7.000000
1312772.917839,-5.000000,-12.000000,-4.000000,-23.000000,-11.000000,-2.000000,8.000000,7.000000
1312772.919073,-7.000000,-20.000000,39.000000,7.000000,16.000000,-5.000000,-5.000000,-6.000000
1312772.919083,-14.000000,-7.000000,-38.000000,-7.000000,9.000000,0.000000,6.000000,-1.000000
1312772.921054,-5.000000,-11.000000,-55.000000,-20.000000,-7.000000,2.000000,16.000000,10.000000
1312772.921068,-3.000000,17.000000,47.000000,19.000000,21.000000,-10.000000,-26.000000,-38.000000
1312772.924543,10.000000,-4.000000,-7.000000,0.000000,-6.000000,-3.000000,41.000000,51.000000
1312772.924556,-15.000000,-17.000000,-11.000000,-7.000000,-12.000000,-7.000000,-17.000000,-15.000000
1312772.932015,-9.000000,-21.000000,-20.000000,-24.000000,4.000000,-1.000000,-19.000000,-26.000000
1312772.932029,11.000000,22.000000,28.000000,25.000000,26.000000,8.000000,17.000000,29.000000
1312772.939912,-3.000000,28.000000,-24.000000,-9.000000,-10.000000,-9.000000,-28.000000,-32.000000
1312772.939928,10.000000,-11.000000,14.000000,21.000000,-3.000000,3.000000,9.000000,26.000000
1312772.954154,-36.000000,-25.000000,-44.000000,-22.000000,-11.000000,-8.000000,-30.000000,-35.000000
1312772.954170,23.000000,17.000000,32.000000,-17.000000,5.000000,2.000000,30.000000,22.000000
1312772.977340,5.000000,-5.000000,-8.000000,5.000000,-11.000000,-9.000000,-3.000000,5.000000
1312772.977352,-17.000000,16.000000,8.000000,5.000000,19.000000,1.000000,-9.000000,-14.000000
1312772.991658,-16.000000,-11.000000,60.000000,33.000000,-13.000000,0.000000,-17.000000,-14.000000
1312772.991676,-3.000000,-11.000000,-5.000000,16.000000,42.000000,19.000000,38.000000,-4.000000
1312773.014330,1.000000,-2.000000,-17.000000,9.000000,7.000000,-9.000000,-26.000000,23.000000
1312773.014343,5.000000,20.000000,5.000000,-22.000000,-4.000000,7.000000,-2.000000,1.000000
1312773.014665,4.000000,7.000000,-8.000000,8.000000,1.000000,2.000000,5.000000,1.000000
1312773.014677,27.000000,10.000000,38.000000,20.000000,8.000000,5.000000,-8.000000,-14.000000
1312773.016022,-15.000000,-21.000000,4.000000,-68.000000,-16.000000,-3.000000,2.000000,4.000000
1312773.016055,10.000000,52.000000,-13.000000,38.000000,19.000000,-3.000000,16.000000,24.000000
1312773.016643,7.000000,1.000000,-28.000000,-74.000000,-36.000000,-1.000000,-2.000000,-15.000000
1312773.016650,22.000000,11.000000,29.000000,-14.000000,16.000000,8.000000,8.000000,31.000000
1312773.036513,4.000000,4.000000,-12.000000,-9.000000,-6.000000,-9.000000,-6.000000,-9.000000
1312773.036527,-16.000000,-10.000000,15.000000,7.000000,-3.000000,-3.000000,-10.000000,-28.000000
1312773.037065,-20.000000,-22.000000,8.000000,-7.000000,-8.000000,-6.000000,-4.000000,15.000000
1312773.037082,16.000000,13.000000,25.000000,6.000000,16.000000,4.000000,22.000000,21.000000
1312773.051703,-18.000000,-43.000000,1.000000,-15.000000,-9.000000,-2.000000,-25.000000,-15.000000
1312773.051732,3.000000,15.000000,44.000000,11.000000,3.000000,2.000000,-21.000000,-14.000000
1312773.052343,-20.000000,-39.000000,-52.000000,-31.000000,-24.000000,-19.000000,-13.000000,-23.000000
1312773.052360,23.000000,38.000000,-7.000000,-1.000000,17.000000,3.000000,5.000000,27.000000
1312773.059814,4.000000,-4.000000,18.000000,-13.000000,-7.000000,7.000000,16.000000,15.000000
1312773.059823,4.000000,21.000000,12.000000,11.000000,-10.000000,-21.000000,-9.000000,-11.000000
1312773.074100,-8.000000,-5.000000,10.000000,0.000000,1.000000,2.000000,-3.000000,2.000000
1312773.074110,-8.000000,2.000000,-7.000000,-11.000000,-15.000000,4.000000,-11.000000,-26.000000
1312773.081725,6.000000,-8.000000,-13.000000,-12.000000,2.000000,-15.000000,-13.000000,-34.000000
1312773.081737,-54.000000,-24.000000,-27.000000,13.000000,-28.000000,5.000000,25.000000,48.000000
1312773.089315,3.000000,16.000000,-48.000000,4.000000,1.000000,1.000000,2.000000,18.000000
1312773.089332,-9.000000,1.000000,-10.000000,-10.000000,-1.000000,5.000000,4.000000,-15.000000
1312773.112021,8.000000,12.000000,-37.000000,-13.000000,-4.000000,-6.000000,-20.000000,17.000000
1312773.112050,-17.000000,-14.000000,27.000000,-8.000000,-7.000000,6.000000,8.000000,-30.000000
1312773.119439,4.000000,9.000000,-20.000000,-2.000000,-5.000000,-6.000000,-12.000000,5.000000
1312773.119467,-6.000000,9.000000,-38.000000,-8.000000,-4.000000,-3.000000,-11.000000,-13.000000
1312773.149349,-8.000000,-3.000000,26.000000,-42.000000,-9.000000,8.000000,-13.000000,-6.000000
1312773.149362,-14.000000,-3.000000,-1.000000,39.000000,14.000000,-8.000000,-2.000000,-4.000000
1312773.156911,22.000000,-4.000000,35.000000,1.000000,2.000000,4.000000,1.000000,-26.000000
1312773.156924,7.000000,7.000000,-22.000000,-36.000000,-20.000000,8.000000,19.000000,25.000000
1312773.157826,-5.000000,16.000000,1.000000,3.000000,-9.000000,-5.000000,-11.000000,7.000000
1312773.157840,-10.000000,-2.000000,1.000000,-7.000000,-13.000000,-8.000000,-13.000000,-18.000000
1312773.158354,-12.000000,-7.000000,62.000000,-24.000000,-16.000000,4.000000,-10.000000,-39.000000
1312773.158363,11.000000,25.000000,-56.000000,-12.000000,8.000000,4.000000,39.000000,70.000000
1312773.171506,6.000000,28.000000,-14.000000,36.000000,11.000000,6.000000,-13.000000,-44.000000
1312773.171517,-11.000000,-50.000000,-23.000000,-34.000000,-2.000000,-8.000000,6.000000,19.000000
1312773.172317,1.000000,2.000000,2.000000,26.000000,-7.000000,-9.000000,-1.000000,2.000000
1312773.172336,-20.000000,10.000000,19.000000,-13.000000,-3.000000,-1.000000,-15.000000,-16.000000
1312773.194974,12.000000,-12.000000,-49.000000,-18.000000,-8.000000,-8.000000,-22.000000,-35.000000
1312773.194983,-10.000000,-1.000000,-1.000000,-33.000000,-10.000000,-1.000000,6.000000,48.000000
1312773.195378,4.000000,-14.000000,9.000000,34.000000,0.000000,6.000000,12.000000,-13.000000
1312773.195385,-12.000000,8.000000,-14.000000,1.000000,5.000000,0.000000,4.000000,-5.000000
1312773.209717,23.000000,-3.000000,7.000000,-19.000000,-8.000000,-9.000000,-9.000000,6.000000
1312773.209734,-20.000000,23.000000,32.000000,15.000000,6.000000,13.000000,2.000000,-3.000000
1312773.216772,-2.000000,-14.000000,3.000000,-31.000000,-15.000000,-1.000000,-4.000000,-13.000000
1312773.216782,0.000000,35.000000,-8.000000,-5.000000,4.000000,2.000000,-17.000000,-33.000000
1312773.269301,-5.000000,-31.000000,21.000000,26.000000,1.000000,10.000000,20.000000,58.000000
1312773.269320,-4.000000,41.000000,39.000000,-5.000000,-9.000000,-4.000000,-2.000000,-5.000000
1312773.269635,-6.000000,-12.000000,-37.000000,-11.000000,-1.000000,0.000000,-8.000000,-5.000000
1312773.269646,-10.000000,2.000000,6.000000,15.000000,4.000000,1.000000,-1.000000,-12.000000
1312773.270823,10.000000,11.000000,-6.000000,19.000000,-1.000000,-1.000000,-16.000000,-31.000000
1312773.270831,-3.000000,-9.000000,54.000000,-7.000000,-10.000000,-1.000000,12.000000,37.000000
1312773.271534,3.000000,13.000000,-36.000000,3.000000,11.000000,-3.000000,5.000000,-4.000000
1312773.271553,-15.000000,5.000000,17.000000,-2.000000,-7.000000,-2.000000,4.000000,-7.000000
1312773.273054,30.000000,19.000000,35.000000,-17.000000,-8.000000,1.000000,2.000000,7.000000
1312773.273073,-11.000000,-14.000000,15.000000,-11.000000,-19.000000,-9.000000,-18.000000,-47.000000
1312773.291915,-21.000000,6.000000,-26.000000,-3.000000,8.000000,-13.000000,-10.000000,32.000000
1312773.291930,35.000000,13.000000,-33.000000,-19.000000,-1.000000,7.000000,49.000000,56.000000
1312773.292521,5.000000,-14.000000,17.000000,68.000000,-20.000000,-6.000000,-20.000000,-27.000000
1312773.292531,-9.000000,-1.000000,0.000000,1.000000,-6.000000,-2.000000,-10.000000,-3.000000
1312773.314747,9.000000,-9.000000,-71.000000,-24.000000,-7.000000,6.000000,21.000000,20.000000
1312773.314759,-5.000000,9.000000,26.000000,8.000000,-2.000000,2.000000,10.000000,-9.000000
1312773.315457,-3.000000,43.000000,21.000000,-2.000000,-2.000000,-14.000000,-54.000000,-26.000000
1312773.315476,-7.000000,-5.000000,15.000000,-23.000000,-19.000000,-9.000000,8.000000,-5.000000
1312773.329100,0.000000,-16.000000,-10.000000,25.000000,42.000000,21.000000,7.000000,15.000000
1312773.329109,4.000000,1.000000,-19.000000,-37.000000,-12.000000,2.000000,14.000000,1.000000
1312773.337137,-11.000000,-11.000000,61.000000,24.000000,-9.000000,-5.000000,-17.000000,-21.000000
1312773.337165,5.000000,3.000000,-23.000000,-46.000000,-6.000000,8.000000,10.000000,3.000000
1312773.374229,-13.000000,-21.000000,17.000000,46.000000,11.000000,-1.000000,-7.000000,6.000000
1312773.374240,28.000000,31.000000,-18.000000,-12.000000,6.000000,4.000000,30.000000,26.000000
1312773.389515,-14.000000,-9.000000,-34.000000,-15.000000,1.000000,-4.000000,-23.000000,-38.000000
1312773.389527,12.000000,-2.000000,25.000000,-2.000000,-13.000000,1.000000,16.000000,49.000000
1312773.411667,-7.000000,3.000000,20.000000,2.000000,0.000000,4.000000,-4.000000,-12.000000
1312773.411682,0.000000,2.000000,-32.000000,-8.000000,-5.000000,-4.000000,-9.000000,-10.000000
1312773.412332,-2.000000,-11.000000,-10.000000,-10.000000,-14.000000,0.000000,3.000000,-4.000000
1312773.412351,-4.000000,3.000000,-7.000000,3.000000,-2.000000,-9.000000,-27.000000,-25.000000
1312773.413406,22.000000,22.000000,11.000000,-6.000000,5.000000,2.000000,19.000000,36.000000
1312773.413466,-11.000000,-47.000000,-26.000000,0.000000,8.000000,0.000000,0.000000,6.000000
1312773.414121,25.000000,42.000000,-10.000000,8.000000,6.000000,7.000000,1.000000,1.000000
1312773.414139,-5.000000,-7.000000,54.000000,-22.000000,-18.000000,-15.000000,-11.000000,-14.000000
1312773.414589,-8.000000,-5.000000,-36.000000,14.000000,6.000000,5.000000,-38.000000,-62.000000
1312773.414598,10.000000,-3.000000,-10.000000,13.000000,1.000000,-1.000000,17.000000,82.000000
1312773.415561,49.000000,22.000000,16.000000,-29.000000,-2.000000,-1.000000,-3.000000,-2.000000
1312773.415592,-22.000000,-22.000000,-12.000000,8.000000,-10.000000,0.000000,13.000000,-3.000000
1312773.427307,-2.000000,-16.000000,0.000000,53.000000,44.000000,16.000000,-5.000000,-12.000000
1312773.427334,8.000000,12.000000,0.000000,-12.000000,-6.000000,9.000000,30.000000,11.000000
1312773.434385,3.000000,-16.000000,-1.000000,-12.000000,-7.000000,-5.000000,-11.000000,2.000000
1312773.434416,-12.000000,-1.000000,-12.000000,10.000000,-5.000000,-11.000000,-28.000000,-25.000000
1312773.471692,18.000000,20.000000,45.000000,5.000000,-7.000000,2.000000,8.000000,-3.000000
1312773.471716,-14.000000,-21.000000,-37.000000,-17.000000,1.000000,-6.000000,14.000000,7.000000
1312773.479400,6.000000,10.000000,35.000000,14.000000,15.000000,4.000000,0.000000,0.000000
1312773.479411,-16.000000,-10.000000,26.000000,10.000000,-15.000000,-4.000000,-15.000000,-6.000000
1312773.494513,4.000000,6.000000,30.000000,3.000000,18.000000,1.000000,22.000000,8.000000
1312773.494526,-16.000000,-21.000000,-42.000000,-6.000000,2.000000,-2.000000,1.000000,29.000000
1312773.509262,35.000000,18.000000,34.000000,13.000000,-5.000000,2.000000,-3.000000,-1.000000
1312773.509299,-34.000000,-17.000000,-12.000000,-13.000000,-19.000000,-31.000000,-52.000000,-49.000000
1312773.531908,-7.000000,-5.000000,-17.000000,-37.000000,-22.000000,2.000000,22.000000,40.000000
1312773.531919,5.000000,5.000000,12.000000,-2.000000,8.000000,3.000000,-3.000000,-12.000000
1312773.546566,-14.000000,-14.000000,-5.000000,9.000000,-7.000000,-13.000000,-22.000000,-19.000000
1312773.546586,14.000000,-4.000000,-7.000000,1.000000,2.000000,11.000000,-12.000000,-8.000000
1312773.548188,-27.000000,-20.000000,10.000000,5.000000,2.000000,-5.000000,-8.000000,-20.000000
1312773.548218,-5.000000,-7.000000,-3.000000,16.000000,3.000000,-3.000000,9.000000,51.000000
1312773.548649,15.000000,34.000000,35.000000,-24.000000,-14.000000,-12.000000,-3.000000,-18.000000
1312773.548657,0.000000,-34.000000,-78.000000,20.000000,15.000000,2.000000,8.000000,-10.000000
1312773.548943,-20.000000,6.000000,62.000000,17.000000,1.000000,-8.000000,-17.000000,-13.000000
1312773.548951,24.000000,17.000000,1.000000,-23.000000,-13.000000,-6.000000,-9.000000,-9.000000
1312773.553826,1.000000,2.000000,0.000000,10.000000,-16.000000,-4.000000,1.000000,-9.000000
1312773.553835,13.000000,2.000000,21.000000,-11.000000,1.000000,0.000000,16.000000,-4.000000
1312773.569474,-19.000000,3.000000,46.000000,-17.000000,-14.000000,-4.000000,-5.000000,20.000000
1312773.569486,15.000000,-8.000000,-1.000000,-13.000000,-3.000000,1.000000,5.000000,-2.000000
1312773.591701,-12.000000,31.000000,-24.000000,-9.000000,-8.000000,-10.000000,-9.000000,-23.000000
1312773.591712,-3.000000,-13.000000,-76.000000,5.000000,6.000000,7.000000,1.000000,6.000000
1312773.606703,7.000000,3.000000,24.000000,15.000000,-7.000000,0.000000,-20.000000,-7.000000
1312773.606713,21.000000,4.000000,22.000000,0.000000,-5.000000,-5.000000,3.000000,7.000000
1312773.614293,-8.000000,-25.000000,-9.000000,20.000000,20.000000,6.000000,-9.000000,17.000000
1312773.614307,-3.000000,-8.000000,14.000000,-17.000000,-3.000000,-10.000000,-7.000000,-28.000000
1312773.615419,-15.000000,-4.000000,-70.000000,-33.000000,-13.000000,4.000000,7.000000,1.000000
1312773.615430,7.000000,17.000000,32.000000,6.000000,21.000000,9.000000,-1.000000,-32.000000
1312773.615928,-3.000000,-5.000000,15.000000,92.000000,32.000000,10.000000,17.000000,24.000000
1312773.615938,-10.000000,-2.000000,-4.000000,-20.000000,-8.000000,1.000000,3.000000,-4.000000
1312773.629430,-2.000000,-17.000000,-20.000000,-18.000000,-14.000000,-5.000000,-10.000000,-8.000000
1312773.629442,9.000000,-14.000000,-11.000000,10.000000,-6.000000,-4.000000,-6.000000,-11.000000
1312773.651637,20.000000,4.000000,13.000000,-17.000000,5.000000,-5.000000,-17.000000,-2.000000
1312773.651653,-41.000000,22.000000,-7.000000,8.000000,9.000000,9.000000,10.000000,19.000000
1312773.652606,18.000000,1.000000,22.000000,-3.000000,-1.000000,1.000000,30.000000,1.000000
1312773.652614,-19.000000,11.000000,-35.000000,2.000000,-13.000000,-22.000000,-33.000000,-19.000000
1312773.653557,6.000000,20.000000,35.000000,-1.000000,-10.000000,-6.000000,-19.000000,-22.000000
1312773.653575,5.000000,-10.000000,-8.000000,-11.000000,-6.000000,3.000000,-7.000000,-14.000000
1312773.667626,1.000000,-25.000000,-65.000000,-29.000000,-16.000000,-4.000000,-3.000000,-5.000000
1312773.667654,-7.000000,20.000000,78.000000,47.000000,27.000000,3.000000,23.000000,19.000000
1312773.674537,-3.000000,-20.000000,14.000000,-39.000000,-30.000000,0.000000,-4.000000,2.000000
1312773.674549,-18.000000,9.000000,-21.000000,-9.000000,1.000000,11.000000,-4.000000,-20.000000
1312773.704156,4.000000,0.000000,20.000000,-12.000000,-3.000000,-17.000000,-16.000000,-7.000000
1312773.704167,16.000000,-21.000000,-12.000000,-5.000000,-7.000000,-1.000000,12.000000,11.000000
1312773.712051,-16.000000,-26.000000,-24.000000,-24.000000,-17.000000,-1.000000,19.000000,35.000000
1312773.712080,-27.000000,6.000000,20.000000,14.000000,-3.000000,2.000000,-7.000000,-36.000000
1312773.749008,10.000000,-28.000000,-14.000000,-24.000000,-6.000000,-5.000000,5.000000,12.000000
1312773.749023,-60.000000,-14.000000,-22.000000,6.000000,-2.000000,2.000000,-21.000000,-34.000000
1312773.749438,10.000000,16.000000,0.000000,-1.000000,-12.000000,5.000000,17.000000,37.000000
1312773.749446,-19.000000,-16.000000,13.000000,-30.000000,-4.000000,-11.000000,0.000000,-6.000000
1312773.750694,22.000000,18.000000,15.000000,11.000000,0.000000,3.000000,-5.000000,-3.000000
1312773.750702,0.000000,25.000000,2.000000,-21.000000,-16.000000,-5.000000,-19.000000,-31.000000
1312773.751314,0.000000,-12.000000,30.000000,-19.000000,1.000000,12.000000,19.000000,11.000000
1312773.751322,16.000000,-8.000000,43.000000,16.000000,9.000000,3.000000,12.000000,12.000000
1312773.752894,-30.000000,-27.000000,-10.000000,-7.000000,-10.000000,-8.000000,-10.000000,-15.000000
1312773.752902,2.000000,-16.000000,-5.000000,-12.000000,10.000000,-1.000000,1.000000,8.000000
1312773.764387,7.000000,8.000000,-17.000000,37.000000,17.000000,6.000000,20.000000,16.000000
1312773.764441,-15.000000,-2.000000,8.000000,8.000000,-6.000000,-7.000000,-27.000000,-25.000000
1312773.765709,15.000000,4.000000,-3.000000,-15.000000,-8.000000,-4.000000,18.000000,21.000000
1312773.765735,-5.000000,-9.000000,-7.000000,5.000000,-14.000000,1.000000,-5.000000,-14.000000
1312773.771694,-7.000000,-13.000000,23.000000,56.000000,47.000000,11.000000,-8.000000,-23.000000
1312773.771704,0.000000,11.000000,33.000000,4.000000,2.000000,-1.000000,19.000000,42.000000
1312773.787322,1.000000,1.000000,-2.000000,-21.000000,-3.000000,1.000000,13.000000,-4.000000
1312773.787332,-4.000000,5.000000,-8.000000,-5.000000,-1.000000,15.000000,9.000000,4.000000
1312773.809573,-21.000000,-33.000000,22.000000,-2.000000,-8.000000,-7.000000,-20.000000,-18.000000
1312773.809601,4.000000,12.000000,0.000000,2.000000,6.000000,-3.000000,-16.000000,-18.000000
1312773.831670,46.000000,15.000000,-12.000000,2.000000,1.000000,-1.000000,18.000000,35.000000
1312773.831680,-17.000000,-39.000000,36.000000,38.000000,29.000000,1.000000,5.000000,0.000000
1312773.846866,-10.000000,-31.000000,-25.000000,-10.000000,0.000000,3.000000,-7.000000,-25.000000
1312773.846874,-16.000000,3.000000,-2.000000,8.000000,0.000000,-7.000000,-28.000000,-12.000000
1312773.870008,-6.000000,-8.000000,-12.000000,-11.000000,0.000000,2.000000,43.000000,34.000000
1312773.870049,8.000000,20.000000,-30.000000,22.000000,-1.000000,2.000000,-12.000000,-3.000000
1312773.870182,5.000000,6.000000,-16.000000,-18.000000,-8.000000,-2.000000,-10.000000,-13.000000
1312773.870197,-15.000000,-26.000000,46.000000,-3.000000,-11.000000,7.000000,28.000000,-20.000000
1312773.871025,-8.000000,-10.000000,0.000000,-40.000000,-43.000000,-13.000000,-31.000000,9.000000
1312773.871052,16.000000,31.000000,-10.000000,-15.000000,6.000000,2.000000,-3.000000,-10.000000
1312773.871648,12.000000,-7.000000,10.000000,-1.000000,15.000000,5.000000,10.000000,24.000000
1312773.871676,-14.000000,-16.000000,-16.000000,9.000000,6.000000,-2.000000,-1.000000,-1.000000
1312773.872301,0.000000,-8.000000,21.000000,5.000000,4.000000,12.000000,-3.000000,-20.000000
1312773.872309,-15.000000,9.000000,10.000000,-31.000000,-27.000000,-15.000000,-8.000000,36.000000
1312773.876346,8.000000,7.000000,21.000000,64.000000,10.000000,-4.000000,-45.000000,-96.000000
1312773.876355,-5.000000,7.000000,17.000000,4.000000,0.000000,1.000000,54.000000,104.000000
1312773.884729,-21.000000,-39.000000,-41.000000,-4.000000,2.000000,7.000000,-4.000000,-19.000000
1312773.884752,-11.000000,-26.000000,-38.000000,2.000000,-22.000000,-18.000000,-28.000000,-46.000000
1312773.891705,-14.000000,-5.000000,26.000000,7.000000,1.000000,-7.000000,6.000000,-6.000000
1312773.891716,21.000000,27.000000,70.000000,0.000000,8.000000,1.000000,-21.000000,4.000000
1312773.907507,2.000000,6.000000,-9.000000,-8.000000,-4.000000,2.000000,-3.000000,-9.000000
1312773.907516,-11.000000,-27.000000,0.000000,4.000000,-5.000000,1.000000,-9.000000,-9.000000
1312773.914677,-5.000000,36.000000,4.000000,3.000000,3.000000,1.000000,6.000000,-10.000000
1312773.914686,5.000000,-21.000000,-1.000000,-16.000000,-32.000000,-14.000000,7.000000,28.000000
1312773.929295,3.000000,9.000000,3.000000,1.000000,16.000000,17.000000,17.000000,10.000000
1312773.929312,-4.000000,-12.000000,-16.000000,-11.000000,0.000000,-8.000000,4.000000,-22.000000
1312773.944366,-21.000000,-37.000000,-14.000000,8.000000,-10.000000,-12.000000,-31.000000,-14.000000
1312773.944376,7.000000,27.000000,11.000000,6.000000,10.000000,9.000000,23.000000,20.000000
1312773.967276,2.000000,-13.000000,-14.000000,-9.000000,-1.000000,1.000000,-17.000000,-19.000000
1312773.967294,-11.000000,2.000000,18.000000,6.000000,10.000000,0.000000,-1.000000,-8.000000
1312773.967768,17.000000,-22.000000,-15.000000,-40.000000,-22.000000,-9.000000,-5.000000,10.000000
1312773.967790,-11.000000,38.000000,-19.000000,1.000000,-2.000000,1.000000,-6.000000,-18.000000
1312773.969221,-2.000000,-60.000000,4.000000,-1.000000,15.000000,3.000000,26.000000,25.000000
1312773.969242,25.000000,43.000000,35.000000,13.000000,4.000000,3.000000,9.000000,12.000000
1312773.981876,-9.000000,11.000000,-22.000000,-15.000000,-18.000000,-4.000000,-9.000000,-11.000000
1312773.981893,-19.000000,-18.000000,-29.000000,2.000000,0.000000,0.000000,-20.000000,-30.000000
1312773.983162,38.000000,13.000000,9.000000,-9.000000,6.000000,21.000000,42.000000,35.000000
1312773.983189,-35.000000,-25.000000,24.000000,-2.000000,-10.000000,-20.000000,-13.000000,3.000000
1312773.997249,-20.000000,1.000000,-23.000000,-16.000000,-5.000000,-4.000000,-19.000000,5.000000
1312773.997260,-7.000000,6.000000,8.000000,-8.000000,-4.000000,-11.000000,-26.000000,-50.000000
1312774.004241,-11.000000,-43.000000,-21.000000,4.000000,1.000000,8.000000,24.000000,18.000000
1312774.004252,27.000000,54.000000,51.000000,49.000000,17.000000,0.000000,-17.000000,1.000000
1312774.026859,10.000000,-6.000000,10.000000,22.000000,8.000000,1.000000,-11.000000,-4.000000
1312774.026869,-36.000000,-14.000000,-11.000000,-17.000000,-9.000000,-13.000000,-19.000000,-21.000000
1312774.049367,4.000000,-3.000000,-5.000000,-43.000000,-23.000000,-4.000000,-5.000000,-9.000000
1312774.049396,7.000000,24.000000,15.000000,22.000000,12.000000,6.000000,15.000000,17.000000
1312774.064426,-2.000000,-39.000000,-16.000000,0.000000,-6.000000,-5.000000,1.000000,-3.000000
1312774.064436,1.000000,45.000000,-16.000000,16.000000,23.000000,4.000000,-6.000000,0.000000
1312774.087516,4.000000,-12.000000,-45.000000,12.000000,-6.000000,-1.000000,5.000000,7.000000
1312774.087543,-10.000000,0.000000,-16.000000,-7.000000,2.000000,-6.000000,-24.000000,-17.000000
1312774.087885,-14.000000,-45.000000,-3.000000,-3.000000,-8.000000,-2.000000,-7.000000,-10.000000
1312774.087896,11.000000,-17.000000,10.000000,6.000000,11.000000,4.000000,10.000000,27.000000
1312774.088986,20.000000,19.000000,24.000000,4.000000,8.000000,7.000000,8.000000,-15.000000
1312774.088993,-7.000000,-15.000000,-19.000000,-35.000000,-13.000000,3.000000,17.000000,27.000000
1312774.089784,2.000000,-16.000000,-8.000000,43.000000,10.000000,-10.000000,14.000000,19.000000
1312774.089791,19.000000,3.000000,-41.000000,30.000000,12.000000,6.000000,-13.000000,-16.000000
1312774.102141,-2.000000,-1.000000,-31.000000,-24.000000,-9.000000,1.000000,9.000000,5.000000
1312774.102170,-2.000000,13.000000,-32.000000,-3.000000,-3.000000,-6.000000,8.000000,7.000000
1312774.124128,6.000000,2.000000,-3.000000,31.000000,5.000000,2.000000,1.000000,-1.000000
1312774.124138,-9.000000,1.000000,0.000000,-36.000000,-18.000000,-4.000000,-4.000000,-8.000000
1312774.131899,-1.000000,15.000000,16.000000,8.000000,9.000000,-1.000000,-5.000000,-4.000000
1312774.131926,-4.000000,-13.000000,-31.000000,36.000000,28.000000,3.000000,-4.000000,-8.000000
1312774.147939,5.000000,11.000000,41.000000,14.000000,2.000000,9.000000,10.000000,3.000000
1312774.147951,3.000000,4.000000,-75.000000,-29.000000,0.000000,-4.000000,-1.000000,29.000000
1312774.148608,1.000000,10.000000,30.000000,21.000000,2.000000,3.000000,6.000000,2.000000
1312774.148632,4.000000,-13.000000,-29.000000,6.000000,-2.000000,2.000000,-9.000000,-29.000000
1312774.149553,26.000000,17.000000,66.000000,14.000000,1.000000,-3.000000,24.000000,46.000000
1312774.149561,5.000000,3.000000,-13.000000,-9.000000,0.000000,2.000000,-8.000000,-29.000000
1312774.154263,4.000000,-22.000000,-25.000000,37.000000,-6.000000,0.000000,11.000000,13.000000
1312774.154283,-19.000000,-17.000000,20.000000,9.000000,-6.000000,-7.000000,-4.000000,9.000000
1312774.184397,-2.000000,31.000000,2.000000,1.000000,5.000000,0.000000,-16.000000,-14.000000
1312774.184419,1.000000,-25.000000,-16.000000,-12.000000,-10.000000,2.000000,-2.000000,-5.000000
1312774.206686,18.000000,51.000000,11.000000,0.000000,15.000000,5.000000,14.000000,11.000000
1312774.206698,10.000000,1.000000,14.000000,-1.000000,-4.000000,7.000000,5.000000,-5.000000
1312774.222084,-10.000000,-16.000000,-10.000000,-5.000000,-8.000000,-8.000000,-4.000000,-10.000000
1312774.222106,11.000000,9.000000,0.000000,-2.000000,-9.000000,-2.000000,12.000000,8.000000
1312774.222686,-4.000000,5.000000,15.000000,-12.000000,-8.000000,-6.000000,-5.000000,32.000000
1312774.222693,22.000000,12.000000,23.000000,16.000000,9.000000,21.000000,20.000000,5.000000
1312774.224054,-21.000000,-22.000000,-45.000000,-47.000000,-5.000000,-26.000000,-38.000000,5.000000
1312774.224062,25.000000,4.000000,-24.000000,34.000000,15.000000,4.000000,-20.000000,-8.000000
1312774.224655,4.000000,20.000000,4.000000,3.000000,19.000000,4.000000,18.000000,3.000000
1312774.224662,8.000000,2.000000,19.000000,2.000000,12.000000,6.000000,15.000000,8.000000
1312774.225497,-11.000000,-19.000000,0.000000,32.000000,-2.000000,3.000000,-4.000000,2.000000
1312774.225505,-2.000000,37.000000,11.000000,1.000000,-6.000000,-3.000000,-13.000000,-18.000000
1312774.236740,1.000000,-5.000000,-10.000000,-9.000000,5.000000,23.000000,9.000000,-38.000000
1312774.236750,-1.000000,-20.000000,7.000000,-15.000000,-16.000000,-27.000000,1.000000,41.000000
1312774.244713,-5.000000,25.000000,7.000000,-11.000000,0.000000,0.000000,-12.000000,-6.000000
1312774.244731,2.000000,-7.000000,-29.000000,-9.000000,-7.000000,8.000000,-3.000000,-10.000000
1312774.259076,-23.000000,-8.000000,-10.000000,-28.000000,-4.000000,-2.000000,-16.000000,-8.000000
1312774.259092,-7.000000,-2.000000,-9.000000,28.000000,5.000000,1.000000,-4.000000,3.000000
1312774.266786,-5.000000,-6.000000,0.000000,-6.000000,4.000000,-2.000000,2.000000,-2.000000
1312774.266797,-4.000000,-2.000000,1.000000,-13.000000,-14.000000,-1.000000,-25.000000,-22.000000
1312774.282000,-23.000000,23.000000,19.000000,-31.000000,-15.000000,5.000000,15.000000,8.000000
1312774.282014,29.000000,-26.000000,-32.000000,-6.000000,-10.000000,-16.000000,11.000000,22.000000
1312774.304280,-11.000000,17.000000,-10.000000,36.000000,14.000000,0.000000,-3.000000,-19.000000
1312774.304292,-9.000000,-18.000000,-37.000000,-2.000000,1.000000,12.000000,-18.000000,-36.000000
1312774.319460,26.000000,15.000000,26.000000,-26.000000,-18.000000,-1.000000,16.000000,60.000000
1312774.319471,5.000000,-4.000000,40.000000,1.000000,9.000000,-6.000000,2.000000,-20.000000
1312774.320325,-1.000000,-36.000000,-54.000000,7.000000,-7.000000,6.000000,33.000000,42.000000
1312774.320336,4.000000,47.000000,9.000000,-27.000000,-15.000000,-1.000000,-31.000000,-54.000000
1312774.320836,14.000000,34.000000,21.000000,0.000000,7.000000,-5.000000,21.000000,8.000000
1312774.320844,-11.000000,8.000000,33.000000,25.000000,1.000000,5.000000,-27.000000,-43.000000
1312774.326939,11.000000,-15.000000,20.000000,-13.000000,-2.000000,3.000000,13.000000,12.000000
1312774.326950,4.000000,41.000000,-24.000000,-2.000000,-22.000000,-20.000000,5.000000,22.000000
1312774.341765,-41.000000,-1.000000,8.000000,-34.000000,-12.000000,0.000000,-12.000000,-22.000000
1312774.341817,2.000000,-13.000000,8.000000,14.000000,1.000000,2.000000,1.000000,-20.000000
1312774.364214,15.000000,47.000000,-2.000000,8.000000,3.000000,0.000000,-6.000000,24.000000
1312774.364223,21.000000,6.000000,-2.000000,-26.000000,5.000000,-4.000000,-8.000000,2.000000
1312774.364678,-11.000000,-22.000000,7.000000,21.000000,-1.000000,3.000000,7.000000,-17.000000
1312774.364689,-2.000000,37.000000,-38.000000,-30.000000,-9.000000,-4.000000,-17.000000,-4.000000
1312774.366444,-17.000000,2.000000,37.000000,14.000000,27.000000,14.000000,5.000000,-8.000000
1312774.366455,17.000000,20.000000,-23.000000,-19.000000,-20.000000,-15.000000,-28.000000,-5.000000
1312774.379154,-12.000000,-28.000000,-9.000000,21.000000,8.000000,-3.000000,-1.000000,-30.000000
1312774.379164,-29.000000,-1.000000,12.000000,-12.000000,-11.000000,-6.000000,-7.000000,17.000000
1312774.386622,18.000000,-10.000000,-4.000000,-11.000000,3.000000,6.000000,1.000000,-5.000000
1312774.386633,18.000000,41.000000,9.000000,-5.000000,-3.000000,5.000000,26.000000,42.000000
1312774.401614,-19.000000,0.000000,-11.000000,15.000000,14.000000,5.000000,2.000000,-10.000000
1312774.401625,17.000000,6.000000,31.000000,3.000000,-18.000000,-13.000000,-21.000000,-44.000000
1312774.424476,-5.000000,-16.000000,-27.000000,-29.000000,-17.000000,-6.000000,3.000000,14.000000
1312774.424486,2.000000,7.000000,1.000000,-2.000000,-10.000000,-5.000000,14.000000,30.000000
1312774.439181,-9.000000,4.000000,-5.000000,-23.000000,-2.000000,0.000000,-8.000000,-2.000000
1312774.439211,-5.000000,0.000000,-6.000000,36.000000,27.000000,7.000000,-4.000000,-10.000000
1312774.440266,-12.000000,-28.000000,-22.000000,1.000000,-10.000000,-5.000000,-8.000000,-2.000000
1312774.440296,25.000000,42.000000,110.000000,10.000000,7.000000,-1.000000,9.000000,-21.000000
1312774.440874,-7.000000,-4.000000,-4.000000,-3.000000,-3.000000,-1.000000,-23.000000,-13.000000
1312774.440898,6.000000,-10.000000,-87.000000,-23.000000,-5.000000,-5.000000,-10.000000,14.000000
1312774.446493,7.000000,8.000000,21.000000,24.000000,3.000000,2.000000,14.000000,6.000000
1312774.446502,-1.000000,-4.000000,-6.000000,-28.000000,-13.000000,0.000000,-2.000000,-9.000000
1312774.461913,-3.000000,15.000000,-1.000000,-7.000000,-7.000000,-3.000000,-16.000000,-38.000000
1312774.461924,-13.000000,-37.000000,1.000000,-25.000000,-14.000000,4.000000,29.000000,39.000000
1312774.462979,29.000000,34.000000,55.000000,14.000000,1.000000,1.000000,6.000000,-4.000000
1312774.462987,-6.000000,5.000000,-76.000000,-22.000000,-10.000000,-8.000000,2.000000,5.000000
1312774.477121,6.000000,4.000000,27.000000,24.000000,28.000000,10.000000,-11.000000,-3.000000
1312774.477140,-2.000000,11.000000,-13.000000,13.000000,11.000000,-8.000000,-6.000000,-15.000000
1312774.484718,0.000000,-41.000000,8.000000,-9.000000,-1.000000,4.000000,-10.000000,-33.000000
1312774.484727,0.000000,-16.000000,3.000000,32.000000,10.000000,6.000000,23.000000,30.000000
1312774.499043,5.000000,16.000000,17.000000,-7.000000,-7.000000,6.000000,17.000000,31.000000
1312774.499072,-7.000000,7.000000,1.000000,-8.000000,-9.000000,-9.000000,-26.000000,-27.000000
1312774.507032,-1.000000,-15.000000,1.000000,5.000000,-7.000000,-5.000000,-8.000000,-9.000000
1312774.507044,-10.000000,6.000000,-17.000000,-10.000000,4.000000,4.000000,7.000000,8.000000
1312774.514400,-2.000000,-3.000000,-46.000000,-22.000000,-1.000000,2.000000,5.000000,35.000000
1312774.514412,37.000000,13.000000,72.000000,35.000000,-5.000000,17.000000,16.000000,5.000000
1312774.529042,-4.000000,-23.000000,-22.000000,-9.000000,-4.000000,-11.000000,-7.000000,-18.000000
1312774.529052,2.000000,51.000000,-10.000000,-16.000000,-10.000000,2.000000,30.000000,33.000000
1312774.536677,-21.000000,-6.000000,-47.000000,-5.000000,10.000000,9.000000,-22.000000,-18.000000
1312774.536729,25.000000,1.000000,-3.000000,-7.000000,-12.000000,-15.000000,-12.000000,11.000000
1312774.559209,-9.000000,-5.000000,16.000000,-4.000000,-6.000000,0.000000,1.000000,-14.000000
1312774.559219,-8.000000,3.000000,13.000000,8.000000,20.000000,-8.000000,-22.000000,-51.000000
1312774.581820,14.000000,-1.000000,1.000000,18.000000,-5.000000,1.000000,13.000000,28.000000
1312774.581839,6.000000,-10.000000,56.000000,44.000000,37.000000,25.000000,34.000000,-1.000000
1312774.582932,-37.000000,-17.000000,-52.000000,-45.000000,-8.000000,-20.000000,3.000000,10.000000
1312774.582956,4.000000,12.000000,-28.000000,-16.000000,-1.000000,-4.000000,-4.000000,-1.000000
1312774.583507,-1.000000,-1.000000,-14.000000,-5.000000,-6.000000,-4.000000,-5.000000,-3.000000
1312774.583529,-1.000000,-5.000000,22.000000,31.000000,7.000000,-1.000000,0.000000,-16.000000
1312774.596497,-26.000000,-19.000000,-26.000000,33.000000,8.000000,5.000000,-9.000000,-31.000000
1312774.596508,2.000000,1.000000,25.000000,15.000000,-2.000000,-6.000000,6.000000,55.000000
1312774.597933,3.000000,0.000000,-29.000000,-17.000000,2.000000,-2.000000,-4.000000,-16.000000
1312774.597942,4.000000,19.000000,19.000000,10.000000,6.000000,6.000000,14.000000,-14.000000
1312774.604171,-21.000000,-29.000000,-18.000000,-11.000000,-13.000000,-4.000000,-15.000000,-2.000000
1312774.604180,-7.000000,-4.000000,7.000000,1.000000,-3.000000,1.000000,-16.000000,-19.000000
1312774.620318,20.000000,18.000000,-10.000000,-15.000000,25.000000,14.000000,-1.000000,-1.000000
1312774.620382,-10.000000,-14.000000,-47.000000,-6.000000,-20.000000,-9.000000,43.000000,20.000000
1312774.641784,15.000000,13.000000,5.000000,15.000000,3.000000,-16.000000,-72.000000,-20.000000
1312774.641794,-11.000000,7.000000,-36.000000,-21.000000,-5.000000,7.000000,-9.000000,-28.000000
1312774.664803,29.000000,18.000000,-21.000000,-32.000000,-2.000000,7.000000,36.000000,50.000000
1312774.664849,-9.000000,-8.000000,27.000000,8.000000,-4.000000,-3.000000,1.000000,-16.000000
1312774.679114,-9.000000,41.000000,-5.000000,19.000000,1.000000,-1.000000,-2.000000,-13.000000
1312774.679124,14.000000,15.000000,12.000000,-11.000000,14.000000,4.000000,3.000000,27.000000
1312774.702324,-2.000000,-12.000000,4.000000,29.000000,-1.000000,2.000000,-13.000000,-23.000000
1312774.702333,-8.000000,-4.000000,-12.000000,-12.000000,-13.000000,-10.000000,-12.000000,-12.000000
1312774.702910,25.000000,0.000000,-8.000000,-13.000000,-1.000000,9.000000,3.000000,8.000000
1312774.702917,-42.000000,-1.000000,-20.000000,-7.000000,-12.000000,-22.000000,-11.000000,-11.000000
1312774.704319,-7.000000,-19.000000,8.000000,1.000000,-5.000000,-1.000000,-3.000000,-8.000000
1312774.704360,18.000000,11.000000,19.000000,-7.000000,-6.000000,-2.000000,-8.000000,-31.000000
1312774.705026,-27.000000,-19.000000,1.000000,14.000000,20.000000,11.000000,2.000000,16.000000
1312774.705037,23.000000,-56.000000,-31.000000,1.000000,-8.000000,0.000000,1.000000,12.000000
1312774.709420,-4.000000,1.000000,21.000000,3.000000,-4.000000,7.000000,10.000000,-3.000000
1312774.709449,-25.000000,-7.000000,-22.000000,-11.000000,-8.000000,-8.000000,-53.000000,-99.000000
1312774.717467,2.000000,-17.000000,57.000000,-26.000000,-11.000000,-8.000000,29.000000,121.000000
1312774.717476,28.000000,35.000000,33.000000,72.000000,14.000000,3.000000,12.000000,10.000000
1312774.725043,-8.000000,-7.000000,-20.000000,-15.000000,11.000000,0.000000,-11.000000,-30.000000
1312774.725054,-3.000000,25.000000,23.000000,35.000000,25.000000,-1.000000,-12.000000,-22.000000
1312774.761927,-6.000000,-11.000000,-4.000000,-13.000000,-8.000000,-8.000000,-10.000000,-5.000000
1312774.761937,3.000000,-2.000000,-3.000000,-9.000000,-4.000000,4.000000,2.000000,-2.000000
1312774.776810,-4.000000,-14.000000,-10.000000,-8.000000,-1.000000,1.000000,-2.000000,-2.000000
