# participant_id: P8
# gesture: baseline
# trial_number: 2
# stream_name: Myo_EMG
# stream_type: emg
# timestamp: 20260420_152350
# samples: 5443
# duration_sec: 30.526
# nominal_sample_rate: 200.0
# effective_sample_rate: 178.27
#
timestamp,emg_1,emg_2,emg_3,emg_4,emg_5,emg_6,emg_7,emg_8
1303322.654696,0.000000,2.000000,-5.000000,-1.000000,-1.000000,1.000000,-1.000000,-1.000000
1303322.654724,2.000000,-3.000000,-7.000000,-2.000000,-6.000000,-4.000000,1.000000,0.000000
1303322.661904,1.000000,-2.000000,9.000000,1.000000,0.000000,2.000000,1.000000,1.000000
1303322.661914,-2.000000,-7.000000,1.000000,-2.000000,0.000000,0.000000,-1.000000,1.000000
1303322.677504,1.000000,-1.000000,-4.000000,2.000000,2.000000,7.000000,2.000000,1.000000
1303322.677520,1.000000,3.000000,2.000000,-8.000000,0.000000,1.000000,-5.000000,1.000000
1303322.678598,0.000000,-13.000000,-1.000000,5.000000,1.000000,0.000000,0.000000,-1.000000
1303322.678608,6.000000,9.000000,10.000000,-1.000000,2.000000,-4.000000,-4.000000,-1.000000
1303322.679288,4.000000,6.000000,6.000000,7.000000,1.000000,1.000000,-2.000000,0.000000
1303322.679297,-5.000000,-3.000000,-7.000000,-4.000000,-3.000000,-7.000000,-3.000000,-1.000000
1303322.680811,0.000000,-3.000000,-2.000000,9.000000,0.000000,10.000000,-2.000000,4.000000
1303322.680820,-3.000000,4.000000,6.000000,-2.000000,-5.000000,5.000000,-1.000000,0.000000
1303322.699316,-2.000000,9.000000,-10.000000,1.000000,-4.000000,-2.000000,0.000000,1.000000
1303322.699327,2.000000,3.000000,1.000000,13.000000,7.000000,1.000000,1.000000,-1.000000
1303322.699924,1.000000,-1.000000,1.000000,-4.000000,5.000000,0.000000,-5.000000,-2.000000
1303322.699933,-7.000000,-4.000000,-4.000000,-2.000000,-5.000000,2.000000,-2.000000,-3.000000
1303322.721941,0.000000,-4.000000,-3.000000,-1.000000,-4.000000,-4.000000,-1.000000,-2.000000
1303322.721951,-7.000000,5.000000,-10.000000,-8.000000,1.000000,1.000000,-2.000000,1.000000
1303322.736989,3.000000,13.000000,12.000000,1.000000,-4.000000,-2.000000,-1.000000,1.000000
1303322.737037,-6.000000,-6.000000,-22.000000,-5.000000,-1.000000,-2.000000,-4.000000,-4.000000
1303322.774919,-4.000000,-11.000000,10.000000,2.000000,-2.000000,2.000000,-2.000000,-2.000000
1303322.774929,0.000000,0.000000,-1.000000,1.000000,-1.000000,2.000000,-6.000000,-1.000000
1303322.775175,-1.000000,2.000000,-6.000000,-5.000000,-1.000000,-2.000000,2.000000,-1.000000
1303322.775183,0.000000,-2.000000,-2.000000,-9.000000,-6.000000,-2.000000,2.000000,-1.000000
1303322.776108,-9.000000,0.000000,-1.000000,5.000000,1.000000,5.000000,-3.000000,-4.000000
1303322.776117,0.000000,8.000000,7.000000,9.000000,0.000000,2.000000,-2.000000,1.000000
1303322.776712,5.000000,-10.000000,-1.000000,2.000000,-3.000000,-2.000000,-4.000000,0.000000
1303322.776721,-2.000000,2.000000,4.000000,-6.000000,0.000000,1.000000,-4.000000,-1.000000
1303322.781771,0.000000,1.000000,-4.000000,-1.000000,-1.000000,-3.000000,-3.000000,-3.000000
1303322.781781,0.000000,1.000000,4.000000,-6.000000,-1.000000,5.000000,2.000000,1.000000
1303322.797398,1.000000,-12.000000,-22.000000,-4.000000,7.000000,0.000000,-1.000000,2.000000
1303322.797408,-2.000000,4.000000,12.000000,-7.000000,-10.000000,-5.000000,0.000000,0.000000
1303322.798042,-4.000000,-5.000000,-6.000000,0.000000,0.000000,-3.000000,-3.000000,-3.000000
1303322.798051,2.000000,-1.000000,-7.000000,-5.000000,2.000000,0.000000,-2.000000,0.000000
1303322.820005,-7.000000,-10.000000,-4.000000,2.000000,-1.000000,-2.000000,1.000000,-2.000000
1303322.820016,-1.000000,7.000000,7.000000,7.000000,-5.000000,-3.000000,-3.000000,-3.000000
1303322.820741,-9.000000,-17.000000,-6.000000,1.000000,1.000000,1.000000,-3.000000,-3.000000
1303322.820751,4.000000,27.000000,16.000000,9.000000,-1.000000,-4.000000,1.000000,-4.000000
1303322.871957,-1.000000,-9.000000,-5.000000,-4.000000,2.000000,0.000000,-4.000000,0.000000
1303322.871967,-4.000000,1.000000,-3.000000,-1.000000,-1.000000,5.000000,-1.000000,-1.000000
1303322.879366,0.000000,0.000000,-7.000000,-5.000000,-6.000000,-4.000000,1.000000,3.000000
1303322.879383,4.000000,14.000000,3.000000,8.000000,5.000000,4.000000,1.000000,3.000000
1303322.902097,1.000000,-1.000000,5.000000,-4.000000,-1.000000,1.000000,0.000000,-1.000000
1303322.902109,4.000000,3.000000,-5.000000,-1.000000,-6.000000,-2.000000,-2.000000,-3.000000
1303322.916970,-1.000000,-5.000000,-2.000000,3.000000,-2.000000,-6.000000,-2.000000,-2.000000
1303322.916980,-1.000000,-6.000000,3.000000,2.000000,-3.000000,5.000000,1.000000,0.000000
1303322.917960,-2.000000,-5.000000,1.000000,-1.000000,-1.000000,1.000000,-4.000000,-2.000000
1303322.917970,-2.000000,9.000000,-9.000000,9.000000,10.000000,4.000000,-2.000000,-3.000000
1303322.919708,-1.000000,-7.000000,2.000000,-4.000000,-1.000000,3.000000,-2.000000,-2.000000
1303322.919719,-2.000000,-1.000000,-9.000000,3.000000,-3.000000,-4.000000,1.000000,-3.000000
1303322.920884,-2.000000,3.000000,0.000000,-11.000000,0.000000,-3.000000,3.000000,-2.000000
1303322.920893,-2.000000,-3.000000,5.000000,10.000000,-3.000000,1.000000,-2.000000,-1.000000
1303322.932612,-3.000000,1.000000,2.000000,-6.000000,0.000000,0.000000,-3.000000,1.000000
1303322.932634,-3.000000,16.000000,-8.000000,2.000000,-11.000000,2.000000,-3.000000,0.000000
1303322.939516,-3.000000,0.000000,-9.000000,-2.000000,-6.000000,-8.000000,-2.000000,-3.000000
1303322.939533,3.000000,-3.000000,-3.000000,-6.000000,-7.000000,-3.000000,1.000000,0.000000
1303322.969567,-1.000000,8.000000,-3.000000,-5.000000,2.000000,4.000000,0.000000,-4.000000
1303322.969578,-1.000000,6.000000,-24.000000,5.000000,-10.000000,-4.000000,-3.000000,-3.000000
1303322.976806,-3.000000,-13.000000,-6.000000,1.000000,-2.000000,-4.000000,2.000000,0.000000
1303322.976817,-1.000000,8.000000,19.000000,-1.000000,-5.000000,-3.000000,-6.000000,1.000000
1303322.999501,-1.000000,-5.000000,-7.000000,-1.000000,-1.000000,5.000000,1.000000,-2.000000
1303322.999511,-4.000000,4.000000,20.000000,-1.000000,-4.000000,-4.000000,0.000000,-1.000000
1303323.007057,-1.000000,-8.000000,-23.000000,3.000000,3.000000,-1.000000,-4.000000,-3.000000
1303323.007067,1.000000,-8.000000,3.000000,-1.000000,-2.000000,-3.000000,-3.000000,1.000000
1303323.036829,-1.000000,-1.000000,-3.000000,-3.000000,-5.000000,0.000000,4.000000,0.000000
1303323.036858,1.000000,-7.000000,-11.000000,-6.000000,3.000000,-1.000000,-2.000000,-1.000000
1303323.037281,-5.000000,-3.000000,1.000000,-6.000000,-3.000000,2.000000,-4.000000,0.000000
1303323.037308,-1.000000,12.000000,-3.000000,-8.000000,-2.000000,-6.000000,-1.000000,1.000000
1303323.038456,-3.000000,-2.000000,-6.000000,-8.000000,-1.000000,-5.000000,-1.000000,-2.000000
1303323.038483,-4.000000,-7.000000,7.000000,18.000000,-1.000000,0.000000,-2.000000,-2.000000
1303323.039102,-3.000000,-4.000000,-8.000000,-12.000000,-1.000000,0.000000,-2.000000,0.000000
1303323.039109,-2.000000,4.000000,-11.000000,-7.000000,-5.000000,-6.000000,-1.000000,2.000000
1303323.040633,-3.000000,-1.000000,4.000000,-3.000000,-4.000000,-4.000000,-3.000000,-1.000000
1303323.040641,-1.000000,6.000000,2.000000,0.000000,-8.000000,-1.000000,-1.000000,-1.000000
1303323.052887,-5.000000,-3.000000,-3.000000,3.000000,-3.000000,-4.000000,-1.000000,-1.000000
1303323.052896,2.000000,-7.000000,1.000000,0.000000,-2.000000,4.000000,0.000000,1.000000
1303323.059730,-6.000000,-5.000000,1.000000,-4.000000,0.000000,1.000000,0.000000,-4.000000
1303323.059747,0.000000,-15.000000,-8.000000,0.000000,5.000000,-3.000000,-1.000000,2.000000
1303323.082067,5.000000,5.000000,2.000000,-3.000000,-6.000000,1.000000,-3.000000,1.000000
1303323.082077,-2.000000,8.000000,12.000000,24.000000,11.000000,-3.000000,2.000000,0.000000
1303323.089922,-2.000000,-1.000000,-15.000000,-5.000000,1.000000,0.000000,-3.000000,-3.000000
1303323.089932,-3.000000,-8.000000,14.000000,-8.000000,-4.000000,-2.000000,-2.000000,-3.000000
1303323.112079,2.000000,-16.000000,-19.000000,9.000000,8.000000,0.000000,3.000000,1.000000
1303323.112128,6.000000,0.000000,14.000000,5.000000,1.000000,0.000000,-2.000000,-2.000000
1303323.119350,-4.000000,4.000000,1.000000,-2.000000,-6.000000,-3.000000,0.000000,-3.000000
1303323.119361,-2.000000,4.000000,-5.000000,-2.000000,1.000000,0.000000,0.000000,-1.000000
1303323.135103,-1.000000,4.000000,-1.000000,-4.000000,-6.000000,0.000000,1.000000,-1.000000
1303323.135134,-5.000000,-8.000000,11.000000,-12.000000,-1.000000,-6.000000,1.000000,0.000000
1303323.135684,0.000000,1.000000,-5.000000,20.000000,5.000000,0.000000,1.000000,0.000000
1303323.135720,2.000000,0.000000,-8.000000,4.000000,0.000000,2.000000,-1.000000,1.000000
1303323.136976,-2.000000,-5.000000,0.000000,-7.000000,-1.000000,-1.000000,0.000000,-6.000000
1303323.136984,-1.000000,-4.000000,-5.000000,-11.000000,0.000000,-2.000000,-1.000000,-1.000000
1303323.149748,1.000000,1.000000,-5.000000,-1.000000,-1.000000,-1.000000,0.000000,1.000000
1303323.149759,1.000000,-3.000000,3.000000,-8.000000,-2.000000,-5.000000,-3.000000,-1.000000
1303323.150845,0.000000,0.000000,3.000000,13.000000,-7.000000,3.000000,-2.000000,-3.000000
1303323.150855,0.000000,-2.000000,-18.000000,-4.000000,-1.000000,1.000000,-1.000000,1.000000
1303323.157036,1.000000,-8.000000,2.000000,1.000000,-3.000000,-5.000000,-3.000000,-1.000000
1303323.157047,-3.000000,-6.000000,4.000000,7.000000,-2.000000,3.000000,-2.000000,-5.000000
1303323.172510,-2.000000,-10.000000,-6.000000,-10.000000,2.000000,1.000000,0.000000,0.000000
1303323.172519,5.000000,16.000000,19.000000,12.000000,2.000000,-8.000000,0.000000,1.000000
1303323.194645,-2.000000,-9.000000,-5.000000,5.000000,-2.000000,-1.000000,1.000000,0.000000
1303323.194656,-2.000000,4.000000,2.000000,-8.000000,-3.000000,-1.000000,0.000000,0.000000
1303323.209496,-3.000000,-8.000000,2.000000,2.000000,-1.000000,-3.000000,2.000000,0.000000
1303323.209514,5.000000,-14.000000,-12.000000,4.000000,2.000000,0.000000,-1.000000,-2.000000
1303323.216791,-4.000000,7.000000,7.000000,0.000000,-1.000000,3.000000,-6.000000,3.000000
1303323.216810,0.000000,3.000000,-3.000000,-7.000000,-10.000000,-6.000000,1.000000,-4.000000
1303323.254430,-4.000000,4.000000,9.000000,5.000000,9.000000,1.000000,1.000000,-2.000000
1303323.254461,5.000000,-4.000000,2.000000,-3.000000,4.000000,2.000000,-5.000000,1.000000
1303323.269480,-1.000000,4.000000,0.000000,-8.000000,-4.000000,-2.000000,-3.000000,-2.000000
1303323.269502,1.000000,-7.000000,-8.000000,-5.000000,-3.000000,-2.000000,-1.000000,-1.000000
1303323.277545,-3.000000,-7.000000,-1.000000,-10.000000,1.000000,0.000000,1.000000,0.000000
1303323.277556,-1.000000,-5.000000,9.000000,21.000000,6.000000,2.000000,0.000000,1.000000
1303323.278093,-2.000000,2.000000,-11.000000,-3.000000,-1.000000,-5.000000,2.000000,2.000000
1303323.278103,-4.000000,3.000000,4.000000,-4.000000,-3.000000,-1.000000,0.000000,-2.000000
1303323.279231,-4.000000,-7.000000,-5.000000,2.000000,-3.000000,2.000000,-4.000000,-1.000000
1303323.279241,5.000000,39.000000,12.000000,-5.000000,-1.000000,2.000000,1.000000,-2.000000
1303323.280124,-1.000000,-15.000000,7.000000,5.000000,3.000000,3.000000,-1.000000,0.000000
1303323.280134,-1.000000,-7.000000,-8.000000,-4.000000,-1.000000,-4.000000,0.000000,2.000000
1303323.292749,6.000000,22.000000,7.000000,-7.000000,-5.000000,3.000000,2.000000,2.000000
1303323.292760,-1.000000,10.000000,-6.000000,4.000000,-2.000000,-5.000000,-1.000000,1.000000
1303323.314522,2.000000,-3.000000,1.000000,-1.000000,0.000000,4.000000,1.000000,0.000000
1303323.314539,0.000000,4.000000,-9.000000,-8.000000,-2.000000,-1.000000,-3.000000,0.000000
1303323.337067,-3.000000,-10.000000,5.000000,0.000000,-2.000000,-1.000000,0.000000,-1.000000
1303323.337078,1.000000,2.000000,13.000000,-10.000000,-1.000000,-2.000000,0.000000,-1.000000
1303323.352256,-2.000000,0.000000,-11.000000,18.000000,-4.000000,-6.000000,2.000000,-2.000000
1303323.352271,1.000000,-7.000000,6.000000,-10.000000,-1.000000,-1.000000,-3.000000,-1.000000
1303323.374620,2.000000,-12.000000,-1.000000,-5.000000,3.000000,-4.000000,-1.000000,0.000000
1303323.374632,-5.000000,7.000000,1.000000,1.000000,-1.000000,-3.000000,-1.000000,1.000000
1303323.375130,3.000000,-16.000000,-10.000000,-6.000000,-4.000000,-5.000000,1.000000,3.000000
1303323.375138,3.000000,4.000000,10.000000,-1.000000,-5.000000,1.000000,1.000000,-1.000000
1303323.376029,-9.000000,0.000000,-5.000000,-5.000000,-7.000000,-3.000000,-4.000000,-4.000000
1303323.376037,6.000000,4.000000,-3.000000,5.000000,-4.000000,-1.000000,2.000000,0.000000
1303323.376628,2.000000,-2.000000,-4.000000,-3.000000,3.000000,-1.000000,1.000000,-3.000000
1303323.376635,-10.000000,-4.000000,5.000000,0.000000,-1.000000,-1.000000,-3.000000,-1.000000
1303323.389273,-6.000000,-3.000000,-6.000000,-3.000000,7.000000,0.000000,-1.000000,-2.000000
1303323.389284,-4.000000,2.000000,-1.000000,9.000000,-4.000000,-1.000000,-3.000000,-1.000000
1303323.390654,0.000000,4.000000,-4.000000,-9.000000,-2.000000,-1.000000,4.000000,0.000000
1303323.390663,5.000000,-9.000000,0.000000,6.000000,7.000000,9.000000,6.000000,1.000000
1303323.396915,2.000000,1.000000,-3.000000,2.000000,4.000000,-2.000000,0.000000,1.000000
1303323.396924,-2.000000,8.000000,6.000000,-3.000000,-1.000000,-5.000000,0.000000,1.000000
1303323.412477,-3.000000,-1.000000,-14.000000,-15.000000,-1.000000,-2.000000,-1.000000,-1.000000
1303323.412487,0.000000,-7.000000,4.000000,11.000000,-5.000000,2.000000,-2.000000,-3.000000
1303323.427071,1.000000,-4.000000,-4.000000,2.000000,1.000000,1.000000,-4.000000,-3.000000
1303323.427082,-3.000000,0.000000,-4.000000,-13.000000,-6.000000,-3.000000,-1.000000,1.000000
1303323.442274,-1.000000,-9.000000,-1.000000,2.000000,6.000000,4.000000,-1.000000,0.000000
1303323.442300,-4.000000,4.000000,-1.000000,1.000000,5.000000,1.000000,2.000000,0.000000
1303323.449345,-4.000000,-1.000000,-3.000000,-9.000000,-4.000000,-5.000000,-3.000000,-5.000000
1303323.449354,2.000000,2.000000,-8.000000,-7.000000,-3.000000,-6.000000,-1.000000,0.000000
1303323.494544,0.000000,6.000000,1.000000,1.000000,-6.000000,-2.000000,-1.000000,1.000000
1303323.494564,1.000000,-3.000000,-4.000000,-1.000000,-1.000000,-2.000000,2.000000,1.000000
1303323.494946,5.000000,13.000000,-3.000000,-7.000000,0.000000,0.000000,4.000000,2.000000
1303323.494979,-5.000000,3.000000,19.000000,10.000000,-1.000000,4.000000,-4.000000,0.000000
1303323.495995,-4.000000,-8.000000,-9.000000,-6.000000,-6.000000,-2.000000,-2.000000,-1.000000
1303323.496023,-9.000000,-7.000000,-2.000000,-3.000000,3.000000,-3.000000,-5.000000,-4.000000
1303323.496764,-3.000000,-10.000000,-10.000000,0.000000,0.000000,-2.000000,0.000000,-3.000000
1303323.496811,7.000000,-9.000000,14.000000,-3.000000,2.000000,0.000000,-1.000000,2.000000
1303323.498135,-2.000000,8.000000,0.000000,8.000000,0.000000,-2.000000,-1.000000,-1.000000
1303323.498149,1.000000,-2.000000,-4.000000,-3.000000,3.000000,1.000000,-1.000000,-2.000000
1303323.509541,-1.000000,5.000000,0.000000,-8.000000,-3.000000,-1.000000,-1.000000,-1.000000
1303323.509553,0.000000,-5.000000,-6.000000,-5.000000,-1.000000,-4.000000,1.000000,-1.000000
1303323.510755,-2.000000,7.000000,-10.000000,-1.000000,3.000000,4.000000,-2.000000,-2.000000
1303323.510765,-5.000000,-4.000000,1.000000,2.000000,-3.000000,-1.000000,-5.000000,-1.000000
1303323.532069,-5.000000,-8.000000,0.000000,16.000000,8.000000,6.000000,-1.000000,-1.000000
1303323.532081,1.000000,-9.000000,3.000000,-1.000000,-4.000000,-2.000000,0.000000,1.000000
1303323.554492,1.000000,-3.000000,0.000000,-7.000000,-4.000000,-1.000000,-3.000000,0.000000
1303323.554503,-5.000000,-1.000000,-1.000000,-6.000000,2.000000,-1.000000,-4.000000,-4.000000
1303323.569509,0.000000,3.000000,-7.000000,4.000000,0.000000,-2.000000,0.000000,-3.000000
1303323.569519,2.000000,4.000000,5.000000,0.000000,-4.000000,1.000000,0.000000,-1.000000
1303323.592433,0.000000,3.000000,-2.000000,0.000000,-7.000000,-2.000000,-3.000000,2.000000
1303323.592449,-1.000000,16.000000,-8.000000,-2.000000,-2.000000,-8.000000,0.000000,-1.000000
1303323.593055,3.000000,24.000000,2.000000,2.000000,2.000000,4.000000,4.000000,2.000000
1303323.593066,-4.000000,3.000000,3.000000,-3.000000,-8.000000,3.000000,-3.000000,-1.000000
1303323.594219,-4.000000,-4.000000,0.000000,-4.000000,5.000000,-5.000000,2.000000,-1.000000
1303323.594246,-1.000000,-1.000000,-29.000000,-8.000000,1.000000,1.000000,0.000000,0.000000
1303323.607086,-4.000000,-18.000000,-6.000000,-1.000000,3.000000,3.000000,0.000000,-3.000000
1303323.607100,-2.000000,13.000000,8.000000,6.000000,-5.000000,-4.000000,-4.000000,0.000000
1303323.608048,-2.000000,2.000000,4.000000,5.000000,-3.000000,0.000000,0.000000,-3.000000
1303323.608058,-2.000000,-2.000000,-7.000000,-4.000000,-2.000000,-4.000000,-2.000000,-1.000000
1303323.614678,0.000000,1.000000,-3.000000,1.000000,-1.000000,1.000000,0.000000,-4.000000
1303323.614691,-1.000000,-1.000000,-4.000000,-4.000000,1.000000,1.000000,-2.000000,-2.000000
1303323.629434,-3.000000,2.000000,-4.000000,-10.000000,-7.000000,-2.000000,-2.000000,-2.000000
1303323.629456,-1.000000,-1.000000,2.000000,2.000000,-2.000000,-2.000000,-2.000000,-2.000000
1303323.630735,-3.000000,-3.000000,10.000000,11.000000,2.000000,3.000000,0.000000,2.000000
1303323.630753,1.000000,-8.000000,-15.000000,-22.000000,-11.000000,-8.000000,-5.000000,-2.000000
1303323.645049,3.000000,-6.000000,15.000000,27.000000,3.000000,4.000000,3.000000,3.000000
1303323.645063,1.000000,5.000000,2.000000,-9.000000,-1.000000,-1.000000,-4.000000,-3.000000
1303323.667029,-6.000000,-14.000000,-12.000000,-7.000000,-4.000000,0.000000,-6.000000,-3.000000
1303323.667039,-3.000000,10.000000,2.000000,3.000000,-5.000000,1.000000,2.000000,0.000000
1303323.674441,1.000000,0.000000,-2.000000,-1.000000,4.000000,0.000000,5.000000,2.000000
1303323.674464,-5.000000,0.000000,-3.000000,-1.000000,-2.000000,0.000000,-3.000000,0.000000
1303323.704364,0.000000,-8.000000,0.000000,-4.000000,-3.000000,-3.000000,-1.000000,-1.000000
1303323.704374,3.000000,-5.000000,8.000000,-4.000000,-6.000000,0.000000,0.000000,-1.000000
1303323.704751,-5.000000,-1.000000,-3.000000,-5.000000,-1.000000,-1.000000,-1.000000,-1.000000
1303323.704759,1.000000,-1.000000,-10.000000,-4.000000,-2.000000,1.000000,-1.000000,2.000000
1303323.706125,-1.000000,8.000000,-4.000000,2.000000,-5.000000,-3.000000,-4.000000,1.000000
1303323.706134,0.000000,-7.000000,-9.000000,1.000000,3.000000,-1.000000,0.000000,-3.000000
1303323.706894,-1.000000,5.000000,-1.000000,-12.000000,-9.000000,-5.000000,-1.000000,-3.000000
1303323.706902,-3.000000,9.000000,-3.000000,3.000000,2.000000,-1.000000,0.000000,-2.000000
1303323.712740,6.000000,-6.000000,13.000000,-1.000000,3.000000,-2.000000,1.000000,1.000000
1303323.712750,-6.000000,-3.000000,-6.000000,-13.000000,-2.000000,0.000000,-6.000000,1.000000
1303323.719529,-4.000000,1.000000,-2.000000,18.000000,0.000000,0.000000,1.000000,0.000000
1303323.719539,1.000000,2.000000,4.000000,-5.000000,-3.000000,0.000000,1.000000,0.000000
1303323.749666,-4.000000,-7.000000,1.000000,-3.000000,4.000000,1.000000,-3.000000,-3.000000
1303323.749804,1.000000,8.000000,-4.000000,-6.000000,-1.000000,-8.000000,-4.000000,2.000000
1303323.750008,0.000000,1.000000,-7.000000,-3.000000,6.000000,4.000000,2.000000,-1.000000
1303323.750016,-1.000000,-4.000000,4.000000,-8.000000,-5.000000,-3.000000,-5.000000,-1.000000
1303323.751484,5.000000,4.000000,-1.000000,5.000000,-6.000000,2.000000,-4.000000,-2.000000
1303323.751497,5.000000,-15.000000,-18.000000,-12.000000,-6.000000,-5.000000,0.000000,-1.000000
1303323.764657,4.000000,9.000000,-1.000000,-4.000000,0.000000,4.000000,3.000000,1.000000
1303323.764669,2.000000,-6.000000,4.000000,2.000000,2.000000,0.000000,-1.000000,-1.000000
1303323.786883,0.000000,-5.000000,-10.000000,-8.000000,-6.000000,-3.000000,-1.000000,1.000000
1303323.786912,0.000000,-4.000000,3.000000,-1.000000,-1.000000,-3.000000,-1.000000,1.000000
1303323.802017,-3.000000,1.000000,-1.000000,6.000000,0.000000,2.000000,-3.000000,-3.000000
1303323.802027,0.000000,14.000000,1.000000,-8.000000,-2.000000,1.000000,-1.000000,-2.000000
1303323.824517,-1.000000,-8.000000,-8.000000,-7.000000,-2.000000,-4.000000,3.000000,-3.000000
1303323.824529,3.000000,-14.000000,10.000000,8.000000,1.000000,0.000000,1.000000,1.000000
1303323.831758,-8.000000,-4.000000,-6.000000,0.000000,-5.000000,-4.000000,-2.000000,-6.000000
1303323.831788,1.000000,6.000000,0.000000,-14.000000,-6.000000,-1.000000,0.000000,-1.000000
1303323.832909,3.000000,2.000000,-3.000000,8.000000,1.000000,-1.000000,-2.000000,-3.000000
1303323.832932,-2.000000,-4.000000,-2.000000,-5.000000,-9.000000,-2.000000,0.000000,0.000000
1303323.833578,0.000000,4.000000,-3.000000,-4.000000,-2.000000,-1.000000,0.000000,0.000000
1303323.833605,-1.000000,-4.000000,2.000000,-4.000000,1.000000,-2.000000,0.000000,0.000000
1303323.835507,-6.000000,-7.000000,-4.000000,-2.000000,2.000000,0.000000,0.000000,2.000000
1303323.835516,2.000000,2.000000,-4.000000,-3.000000,-3.000000,0.000000,0.000000,-5.000000
1303323.847097,4.000000,-3.000000,-5.000000,-2.000000,-3.000000,-2.000000,0.000000,0.000000
1303323.847107,-10.000000,-9.000000,3.000000,9.000000,-1.000000,-2.000000,-2.000000,0.000000
1303323.884764,2.000000,10.000000,0.000000,-10.000000,-2.000000,-1.000000,-3.000000,-3.000000
1303323.884774,-3.000000,0.000000,-16.000000,-11.000000,0.000000,-1.000000,6.000000,-3.000000
1303323.885383,6.000000,21.000000,9.000000,30.000000,2.000000,1.000000,4.000000,1.000000
1303323.885391,0.000000,-4.000000,3.000000,-14.000000,0.000000,1.000000,-2.000000,0.000000
1303323.892148,-2.000000,10.000000,-6.000000,-10.000000,-6.000000,-4.000000,0.000000,-5.000000
1303323.892159,1.000000,-3.000000,7.000000,7.000000,4.000000,2.000000,-1.000000,1.000000
1303323.906896,-1.000000,0.000000,1.000000,0.000000,-1.000000,4.000000,-9.000000,-10.000000
1303323.906905,0.000000,7.000000,-9.000000,-4.000000,0.000000,4.000000,10.000000,8.000000
1303323.937170,7.000000,1.000000,4.000000,-1.000000,0.000000,2.000000,8.000000,13.000000
1303323.937183,-5.000000,-4.000000,6.000000,-6.000000,-2.000000,1.000000,-10.000000,-10.000000
1303323.944936,1.000000,6.000000,4.000000,25.000000,8.000000,5.000000,-4.000000,-7.000000
1303323.944951,-3.000000,-8.000000,-8.000000,-9.000000,-7.000000,-1.000000,0.000000,-1.000000
1303323.952466,2.000000,9.000000,1.000000,-2.000000,1.000000,-5.000000,1.000000,0.000000
1303323.952479,1.000000,3.000000,-6.000000,0.000000,-7.000000,-4.000000,-6.000000,-1.000000
1303323.952908,-4.000000,3.000000,-4.000000,-3.000000,-4.000000,2.000000,0.000000,-1.000000
1303323.952935,-4.000000,15.000000,1.000000,-12.000000,-5.000000,-2.000000,1.000000,-4.000000
1303323.954410,-6.000000,29.000000,3.000000,-5.000000,-3.000000,-1.000000,-2.000000,-6.000000
1303323.954431,1.000000,-11.000000,3.000000,3.000000,4.000000,6.000000,2.000000,0.000000
1303323.959298,0.000000,-10.000000,5.000000,-13.000000,-6.000000,-1.000000,-1.000000,2.000000
1303323.959307,-7.000000,-1.000000,-25.000000,-9.000000,3.000000,1.000000,-1.000000,0.000000
1303323.982159,2.000000,-1.000000,-5.000000,-17.000000,-8.000000,-4.000000,-2.000000,-1.000000
1303323.982173,6.000000,19.000000,16.000000,25.000000,-2.000000,-4.000000,-3.000000,-1.000000
1303323.982725,-2.000000,-13.000000,1.000000,-6.000000,0.000000,-1.000000,-3.000000,-2.000000
1303323.982735,-3.000000,7.000000,-2.000000,3.000000,-4.000000,0.000000,-1.000000,0.000000
1303323.990283,-1.000000,0.000000,5.000000,12.000000,6.000000,-1.000000,2.000000,-2.000000
1303323.990294,-6.000000,-7.000000,3.000000,-8.000000,3.000000,0.000000,-1.000000,1.000000
1303324.004464,-5.000000,2.000000,-3.000000,3.000000,-2.000000,-4.000000,0.000000,1.000000
1303324.004483,-1.000000,4.000000,-8.000000,-5.000000,0.000000,2.000000,1.000000,0.000000
1303324.042137,1.000000,3.000000,-1.000000,9.000000,6.000000,3.000000,4.000000,-1.000000
1303324.042229,0.000000,2.000000,-1.000000,-9.000000,-1.000000,-1.000000,-4.000000,-1.000000
1303324.049346,1.000000,9.000000,1.000000,3.000000,-1.000000,-4.000000,-4.000000,0.000000
1303324.049366,-2.000000,-1.000000,0.000000,0.000000,-2.000000,-1.000000,2.000000,-3.000000
1303324.071977,-11.000000,-7.000000,-3.000000,6.000000,2.000000,5.000000,-3.000000,-4.000000
1303324.071987,1.000000,35.000000,2.000000,-18.000000,-4.000000,-3.000000,0.000000,-2.000000
1303324.079812,0.000000,-13.000000,1.000000,3.000000,-5.000000,-8.000000,-3.000000,-3.000000
1303324.079823,0.000000,-11.000000,0.000000,9.000000,4.000000,6.000000,-1.000000,0.000000
1303324.087344,-3.000000,13.000000,14.000000,-5.000000,-3.000000,-1.000000,-3.000000,1.000000
1303324.087356,-2.000000,-1.000000,-7.000000,2.000000,2.000000,-3.000000,1.000000,-2.000000
1303324.087938,-2.000000,-4.000000,-4.000000,-3.000000,1.000000,0.000000,0.000000,1.000000
1303324.087946,-1.000000,8.000000,-5.000000,-1.000000,-5.000000,-3.000000,0.000000,-1.000000
1303324.089344,1.000000,-6.000000,-1.000000,1.000000,0.000000,-3.000000,-1.000000,0.000000
1303324.089361,-3.000000,-2.000000,0.000000,1.000000,0.000000,1.000000,-2.000000,0.000000
1303324.102064,2.000000,-7.000000,-12.000000,6.000000,5.000000,-1.000000,0.000000,1.000000
1303324.102074,-4.000000,9.000000,8.000000,1.000000,5.000000,4.000000,0.000000,1.000000
1303324.109251,-4.000000,1.000000,4.000000,-6.000000,2.000000,3.000000,-3.000000,-2.000000
1303324.109280,1.000000,0.000000,-3.000000,-2.000000,-7.000000,-6.000000,-1.000000,3.000000
1303324.110661,-1.000000,-10.000000,0.000000,-1.000000,0.000000,-4.000000,-2.000000,-2.000000
1303324.110687,-1.000000,2.000000,-2.000000,0.000000,4.000000,13.000000,3.000000,-4.000000
1303324.146950,-1.000000,7.000000,-10.000000,-15.000000,-3.000000,-4.000000,-3.000000,-2.000000
1303324.146961,-2.000000,-11.000000,-3.000000,8.000000,5.000000,2.000000,2.000000,-2.000000
1303324.169481,6.000000,-21.000000,6.000000,2.000000,5.000000,0.000000,-1.000000,3.000000
1303324.169491,-1.000000,0.000000,2.000000,6.000000,0.000000,-1.000000,1.000000,-2.000000
1303324.185211,-2.000000,-4.000000,-5.000000,-3.000000,-1.000000,-6.000000,0.000000,0.000000
1303324.185223,-2.000000,-9.000000,0.000000,10.000000,5.000000,2.000000,0.000000,-1.000000
1303324.185798,1.000000,4.000000,-4.000000,-3.000000,-4.000000,-2.000000,-4.000000,-1.000000
1303324.185806,1.000000,-17.000000,-20.000000,-4.000000,-9.000000,-5.000000,-1.000000,0.000000
1303324.186164,1.000000,10.000000,19.000000,8.000000,3.000000,2.000000,2.000000,2.000000
1303324.186194,-1.000000,0.000000,-3.000000,-6.000000,-3.000000,2.000000,-4.000000,-3.000000
1303324.187975,-2.000000,-9.000000,5.000000,-5.000000,-2.000000,-1.000000,-3.000000,-1.000000
1303324.188005,-2.000000,-1.000000,-4.000000,-4.000000,-3.000000,-1.000000,-5.000000,-2.000000
1303324.199922,0.000000,0.000000,-5.000000,-8.000000,3.000000,-4.000000,3.000000,-1.000000
1303324.199950,4.000000,-13.000000,7.000000,4.000000,1.000000,1.000000,-1.000000,0.000000
1303324.207165,0.000000,-1.000000,-3.000000,7.000000,2.000000,-1.000000,-1.000000,1.000000
1303324.207175,-2.000000,-1.000000,-8.000000,-24.000000,-4.000000,-3.000000,-3.000000,0.000000
1303324.222570,-4.000000,-4.000000,10.000000,12.000000,2.000000,-3.000000,-1.000000,-4.000000
1303324.222578,2.000000,-5.000000,-5.000000,5.000000,5.000000,0.000000,1.000000,2.000000
1303324.223489,-1.000000,7.000000,2.000000,-10.000000,-11.000000,-5.000000,-7.000000,-7.000000
1303324.223513,-4.000000,1.000000,-2.000000,-2.000000,4.000000,-5.000000,3.000000,-3.000000
1303324.230262,-3.000000,-14.000000,0.000000,-6.000000,-7.000000,-3.000000,10.000000,9.000000
1303324.230282,-2.000000,3.000000,3.000000,-1.000000,-3.000000,2.000000,-3.000000,-6.000000
1303324.259563,0.000000,-3.000000,0.000000,-3.000000,-1.000000,-4.000000,-4.000000,-3.000000
1303324.259579,-4.000000,-16.000000,-4.000000,2.000000,4.000000,1.000000,-2.000000,-3.000000
1303324.281910,5.000000,-1.000000,5.000000,6.000000,5.000000,-1.000000,15.000000,0.000000
1303324.281920,-4.000000,-5.000000,-5.000000,1.000000,3.000000,2.000000,2.000000,8.000000
1303324.327150,-1.000000,-11.000000,6.000000,-6.000000,1.000000,-1.000000,-3.000000,-4.000000
1303324.327172,2.000000,-4.000000,-14.000000,9.000000,2.000000,-2.000000,-4.000000,-4.000000
1303324.342560,-1.000000,14.000000,1.000000,-11.000000,-3.000000,-2.000000,1.000000,-1.000000
1303324.342573,7.000000,1.000000,25.000000,4.000000,2.000000,-3.000000,2.000000,2.000000
1303324.343227,-5.000000,-9.000000,-8.000000,-2.000000,-3.000000,-1.000000,-3.000000,-1.000000
1303324.343289,-7.000000,7.000000,1.000000,3.000000,-1.000000,1.000000,-5.000000,0.000000
1303324.344461,0.000000,-10.000000,-1.000000,-3.000000,4.000000,1.000000,-1.000000,0.000000
1303324.344484,-2.000000,-6.000000,3.000000,-4.000000,2.000000,1.000000,-1.000000,2.000000
1303324.345038,-2.000000,0.000000,-4.000000,-5.000000,-6.000000,-3.000000,-3.000000,-2.000000
1303324.345047,3.000000,-2.000000,-4.000000,2.000000,-1.000000,-1.000000,2.000000,0.000000
1303324.345968,0.000000,-3.000000,-7.000000,-11.000000,-5.000000,2.000000,-1.000000,-1.000000
1303324.345976,-3.000000,-9.000000,-3.000000,8.000000,9.000000,2.000000,-1.000000,-2.000000
1303324.364445,0.000000,24.000000,7.000000,11.000000,1.000000,1.000000,4.000000,-3.000000
1303324.364455,-4.000000,-1.000000,0.000000,3.000000,-3.000000,-2.000000,0.000000,-1.000000
1303324.379313,4.000000,-6.000000,0.000000,1.000000,-3.000000,-1.000000,-1.000000,3.000000
1303324.379324,-1.000000,3.000000,-2.000000,-4.000000,-6.000000,-1.000000,-1.000000,-1.000000
1303324.401960,1.000000,-6.000000,-7.000000,-6.000000,-2.000000,0.000000,1.000000,-3.000000
1303324.401970,1.000000,-8.000000,1.000000,5.000000,1.000000,-3.000000,-2.000000,-3.000000
1303324.424457,-9.000000,17.000000,12.000000,-15.000000,-2.000000,3.000000,-6.000000,-3.000000
1303324.424473,0.000000,4.000000,-19.000000,32.000000,4.000000,0.000000,-3.000000,2.000000
1303324.425435,-3.000000,-3.000000,10.000000,0.000000,0.000000,-1.000000,3.000000,-1.000000
1303324.425444,-2.000000,-5.000000,8.000000,-3.000000,5.000000,0.000000,-2.000000,-1.000000
1303324.426088,-3.000000,5.000000,-6.000000,-2.000000,-5.000000,-4.000000,-6.000000,-1.000000
1303324.426097,1.000000,3.000000,-8.000000,-6.000000,-2.000000,-7.000000,-2.000000,-1.000000
1303324.427480,-3.000000,-13.000000,3.000000,3.000000,4.000000,3.000000,0.000000,1.000000
1303324.427489,0.000000,8.000000,10.000000,-3.000000,-2.000000,-1.000000,-4.000000,-2.000000
1303324.428479,-1.000000,11.000000,-15.000000,-6.000000,-1.000000,2.000000,2.000000,1.000000
1303324.428497,1.000000,1.000000,7.000000,3.000000,-1.000000,-6.000000,-3.000000,-2.000000
1303324.439328,-2.000000,-3.000000,0.000000,0.000000,2.000000,1.000000,-5.000000,-2.000000
1303324.439356,1.000000,0.000000,-3.000000,-6.000000,-4.000000,1.000000,-1.000000,-1.000000
1303324.440263,2.000000,-12.000000,-4.000000,-4.000000,1.000000,1.000000,-3.000000,0.000000
1303324.440271,-6.000000,-6.000000,0.000000,2.000000,-3.000000,-4.000000,0.000000,0.000000
1303324.461802,6.000000,0.000000,1.000000,9.000000,3.000000,5.000000,0.000000,-1.000000
1303324.461826,-4.000000,-3.000000,2.000000,-6.000000,-1.000000,0.000000,0.000000,2.000000
1303324.462737,-7.000000,-7.000000,-2.000000,16.000000,7.000000,2.000000,-1.000000,-4.000000
1303324.462766,-2.000000,-1.000000,-4.000000,-16.000000,-6.000000,-3.000000,-6.000000,0.000000
1303324.484531,-2.000000,-2.000000,-3.000000,-12.000000,-4.000000,-1.000000,0.000000,-4.000000
1303324.484541,0.000000,-5.000000,-2.000000,3.000000,3.000000,-5.000000,1.000000,-2.000000
1303324.499678,-2.000000,-8.000000,-7.000000,-9.000000,-1.000000,0.000000,0.000000,-3.000000
1303324.499690,-1.000000,10.000000,3.000000,-5.000000,-3.000000,0.000000,0.000000,-4.000000
1303324.537239,-3.000000,1.000000,-6.000000,-1.000000,0.000000,-3.000000,-1.000000,1.000000
1303324.537249,-5.000000,-12.000000,-3.000000,-5.000000,1.000000,1.000000,-1.000000,-3.000000
1303324.544710,-2.000000,1.000000,-4.000000,2.000000,-1.000000,3.000000,3.000000,1.000000
1303324.544722,-2.000000,-4.000000,-3.000000,3.000000,-2.000000,-4.000000,4.000000,0.000000
1303324.581894,-3.000000,12.000000,10.000000,-3.000000,5.000000,9.000000,4.000000,1.000000
1303324.581905,-3.000000,-1.000000,-19.000000,-6.000000,-4.000000,1.000000,-4.000000,-4.000000
1303324.582529,-4.000000,8.000000,-3.000000,2.000000,-4.000000,1.000000,4.000000,2.000000
1303324.582537,-1.000000,-3.000000,-10.000000,3.000000,-3.000000,0.000000,-4.000000,0.000000
1303324.583584,0.000000,16.000000,10.000000,-3.000000,-4.000000,-2.000000,-3.000000,-1.000000
1303324.583592,-5.000000,1.000000,-13.000000,-4.000000,1.000000,0.000000,1.000000,0.000000
1303324.584614,-4.000000,-3.000000,-1.000000,-9.000000,-9.000000,-7.000000,-3.000000,2.000000
1303324.584624,-2.000000,0.000000,-6.000000,-11.000000,-2.000000,-1.000000,2.000000,3.000000
1303324.584999,-2.000000,-2.000000,3.000000,1.000000,-3.000000,2.000000,0.000000,-1.000000
1303324.585007,-4.000000,-3.000000,-1.000000,6.000000,2.000000,1.000000,1.000000,1.000000
1303324.585641,3.000000,6.000000,6.000000,-4.000000,-5.000000,0.000000,-3.000000,-1.000000
1303324.585649,0.000000,3.000000,-6.000000,-6.000000,-4.000000,-4.000000,1.000000,-1.000000
1303324.604834,3.000000,-16.000000,-5.000000,1.000000,6.000000,1.000000,0.000000,2.000000
1303324.604858,0.000000,-4.000000,-3.000000,-6.000000,-7.000000,-2.000000,-5.000000,-4.000000
1303324.619475,-2.000000,-1.000000,3.000000,16.000000,7.000000,0.000000,3.000000,1.000000
1303324.619504,2.000000,-7.000000,-4.000000,-11.000000,-1.000000,-5.000000,-3.000000,2.000000
1303324.657162,1.000000,-10.000000,6.000000,11.000000,0.000000,-3.000000,-3.000000,-4.000000
1303324.657173,3.000000,31.000000,5.000000,-7.000000,0.000000,2.000000,-3.000000,1.000000
1303324.664729,4.000000,-6.000000,-11.000000,-6.000000,3.000000,-7.000000,3.000000,0.000000
1303324.664738,-7.000000,-2.000000,-10.000000,-2.000000,-1.000000,2.000000,-2.000000,-3.000000
1303324.679761,0.000000,-3.000000,6.000000,7.000000,-2.000000,-1.000000,-4.000000,-1.000000
1303324.679772,-2.000000,9.000000,3.000000,-6.000000,-2.000000,1.000000,0.000000,-2.000000
1303324.680190,0.000000,1.000000,4.000000,4.000000,2.000000,-1.000000,0.000000,1.000000
1303324.680199,-2.000000,-2.000000,11.000000,6.000000,0.000000,1.000000,-1.000000,-1.000000
1303324.681023,-2.000000,2.000000,-6.000000,-6.000000,-2.000000,-8.000000,-4.000000,-3.000000
1303324.681031,1.000000,-11.000000,-6.000000,-7.000000,-3.000000,-3.000000,2.000000,-1.000000
1303324.682098,1.000000,2.000000,-9.000000,-6.000000,-3.000000,-4.000000,-4.000000,-1.000000
1303324.682108,-3.000000,-3.000000,2.000000,-4.000000,-4.000000,-1.000000,-2.000000,0.000000
1303324.701941,5.000000,4.000000,7.000000,6.000000,0.000000,0.000000,-3.000000,1.000000
1303324.701953,-2.000000,-1.000000,-4.000000,-5.000000,-1.000000,-6.000000,-4.000000,-3.000000
1303324.702832,-4.000000,-6.000000,-2.000000,-6.000000,-4.000000,0.000000,0.000000,1.000000
1303324.702841,-1.000000,-3.000000,2.000000,3.000000,2.000000,1.000000,0.000000,-1.000000
1303324.703820,-8.000000,3.000000,-1.000000,-8.000000,-3.000000,-2.000000,1.000000,0.000000
1303324.703850,-2.000000,-4.000000,-5.000000,3.000000,7.000000,1.000000,0.000000,-3.000000
1303324.717012,1.000000,-7.000000,4.000000,-3.000000,-3.000000,-2.000000,1.000000,-3.000000
1303324.717025,6.000000,-1.000000,-2.000000,-2.000000,0.000000,4.000000,2.000000,-1.000000
1303324.724831,-6.000000,-4.000000,-8.000000,2.000000,1.000000,-2.000000,0.000000,-6.000000
1303324.724844,-2.000000,0.000000,2.000000,-4.000000,-5.000000,-2.000000,1.000000,-1.000000
1303324.777098,-3.000000,2.000000,11.000000,-1.000000,-1.000000,4.000000,-2.000000,0.000000
1303324.777109,4.000000,-2.000000,-22.000000,-7.000000,-4.000000,-2.000000,0.000000,-2.000000
1303324.784574,-7.000000,-7.000000,12.000000,7.000000,0.000000,-1.000000,0.000000,0.000000
1303324.784585,-1.000000,-4.000000,2.000000,-7.000000,2.000000,2.000000,1.000000,-1.000000
1303324.799824,-1.000000,10.000000,7.000000,1.000000,3.000000,3.000000,1.000000,-1.000000
1303324.799833,-3.000000,-8.000000,-6.000000,1.000000,-1.000000,0.000000,-1.000000,-2.000000
1303324.800405,-3.000000,-7.000000,10.000000,1.000000,4.000000,0.000000,-2.000000,-1.000000
1303324.800413,-5.000000,0.000000,-1.000000,5.000000,0.000000,-1.000000,-3.000000,-4.000000
1303324.801738,1.000000,-10.000000,0.000000,2.000000,2.000000,-3.000000,-2.000000,-2.000000
1303324.801747,-2.000000,-8.000000,-5.000000,1.000000,-3.000000,-2.000000,0.000000,-2.000000
1303324.802546,-4.000000,0.000000,1.000000,-1.000000,-2.000000,-3.000000,-3.000000,-1.000000
1303324.802555,-1.000000,-3.000000,0.000000,-4.000000,2.000000,0.000000,-2.000000,1.000000
1303324.814608,-1.000000,7.000000,-7.000000,-15.000000,-8.000000,-1.000000,-6.000000,-4.000000
1303324.814619,3.000000,-1.000000,-2.000000,13.000000,3.000000,-2.000000,0.000000,0.000000
1303324.815811,-1.000000,-18.000000,-3.000000,-10.000000,-4.000000,4.000000,5.000000,0.000000
1303324.815819,6.000000,21.000000,3.000000,-7.000000,-8.000000,-3.000000,-1.000000,0.000000
1303324.822198,5.000000,-5.000000,0.000000,12.000000,3.000000,-4.000000,-1.000000,1.000000
1303324.822209,1.000000,-9.000000,-6.000000,-3.000000,-4.000000,-3.000000,-5.000000,1.000000
1303324.859862,3.000000,15.000000,9.000000,-2.000000,0.000000,5.000000,1.000000,1.000000
1303324.859878,0.000000,2.000000,-10.000000,-3.000000,-4.000000,-2.000000,-1.000000,-1.000000
1303324.874864,-4.000000,-8.000000,-8.000000,1.000000,-2.000000,-1.000000,-2.000000,-1.000000
1303324.874877,2.000000,11.000000,13.000000,3.000000,6.000000,0.000000,-1.000000,-1.000000
1303324.889539,-2.000000,6.000000,6.000000,-5.000000,-3.000000,-3.000000,-1.000000,-3.000000
1303324.889563,4.000000,-7.000000,-10.000000,7.000000,2.000000,1.000000,5.000000,3.000000
1303324.896960,-4.000000,-2.000000,-4.000000,-9.000000,1.000000,-1.000000,-6.000000,0.000000
1303324.896988,2.000000,8.000000,7.000000,11.000000,-1.000000,-1.000000,-1.000000,0.000000
1303324.920132,-2.000000,-3.000000,-6.000000,-2.000000,-9.000000,-1.000000,-2.000000,-5.000000
1303324.920143,-2.000000,-10.000000,-1.000000,-9.000000,1.000000,-1.000000,-2.000000,0.000000
1303324.920593,-3.000000,3.000000,-5.000000,-5.000000,-1.000000,-2.000000,-4.000000,-2.000000
1303324.920606,-1.000000,3.000000,-4.000000,-2.000000,0.000000,-2.000000,1.000000,0.000000
1303324.921768,-3.000000,1.000000,6.000000,17.000000,2.000000,-1.000000,0.000000,-4.000000
1303324.921778,-3.000000,5.000000,-7.000000,6.000000,-2.000000,1.000000,-4.000000,-3.000000
1303324.922493,-4.000000,6.000000,-2.000000,3.000000,-1.000000,0.000000,-2.000000,0.000000
1303324.922503,4.000000,-8.000000,1.000000,-7.000000,-6.000000,-4.000000,1.000000,1.000000
1303324.923311,3.000000,-12.000000,4.000000,1.000000,1.000000,5.000000,0.000000,1.000000
1303324.923321,-6.000000,17.000000,10.000000,1.000000,-3.000000,-6.000000,-1.000000,-4.000000
1303324.934946,3.000000,-3.000000,-11.000000,-5.000000,2.000000,-5.000000,-1.000000,0.000000
1303324.934975,-1.000000,-3.000000,10.000000,4.000000,7.000000,-2.000000,-1.000000,-1.000000
1303324.942389,-10.000000,0.000000,-5.000000,-1.000000,5.000000,2.000000,-1.000000,-4.000000
1303324.942403,-1.000000,7.000000,-6.000000,5.000000,-1.000000,-2.000000,1.000000,0.000000
1303324.943132,-3.000000,1.000000,-1.000000,-6.000000,-4.000000,-2.000000,-2.000000,-2.000000
1303324.943174,-2.000000,-3.000000,-2.000000,0.000000,1.000000,4.000000,-1.000000,-3.000000
1303324.979379,1.000000,4.000000,5.000000,8.000000,0.000000,-1.000000,-1.000000,2.000000
1303324.979408,0.000000,6.000000,-1.000000,-11.000000,-8.000000,-12.000000,-5.000000,-2.000000
1303324.994489,1.000000,-7.000000,6.000000,-12.000000,-4.000000,-4.000000,-5.000000,-2.000000
1303324.994501,0.000000,2.000000,0.000000,-6.000000,-5.000000,0.000000,0.000000,-2.000000
1303325.017125,-3.000000,3.000000,-5.000000,-3.000000,-1.000000,-3.000000,-4.000000,0.000000
1303325.017140,0.000000,-5.000000,0.000000,-10.000000,-2.000000,-2.000000,-1.000000,-3.000000
1303325.024539,-7.000000,2.000000,-5.000000,16.000000,4.000000,-2.000000,-1.000000,0.000000
1303325.024561,-4.000000,-7.000000,-5.000000,2.000000,-9.000000,-6.000000,-1.000000,-3.000000
1303325.039757,-1.000000,-7.000000,0.000000,4.000000,4.000000,3.000000,-3.000000,-2.000000
1303325.039784,-3.000000,2.000000,10.000000,-3.000000,-1.000000,-3.000000,-2.000000,0.000000
1303325.040475,-5.000000,6.000000,-17.000000,-10.000000,-1.000000,1.000000,-1.000000,-3.000000
1303325.040521,-1.000000,4.000000,-3.000000,2.000000,0.000000,0.000000,1.000000,-1.000000
1303325.041947,-3.000000,-8.000000,-8.000000,-15.000000,-5.000000,-4.000000,-5.000000,-3.000000
1303325.041955,0.000000,-3.000000,6.000000,10.000000,5.000000,2.000000,2.000000,1.000000
1303325.054738,0.000000,3.000000,-21.000000,-8.000000,1.000000,0.000000,-1.000000,-3.000000
1303325.054751,-3.000000,6.000000,-5.000000,-8.000000,-1.000000,-1.000000,3.000000,0.000000
1303325.062264,-2.000000,-2.000000,3.000000,0.000000,-2.000000,1.000000,-1.000000,1.000000
1303325.062292,-1.000000,-6.000000,4.000000,-7.000000,0.000000,4.000000,1.000000,-2.000000
1303325.063114,1.000000,1.000000,-1.000000,-3.000000,-3.000000,-3.000000,1.000000,0.000000
1303325.063125,-2.000000,-7.000000,-1.000000,-16.000000,1.000000,-1.000000,-3.000000,-3.000000
1303325.063858,0.000000,-11.000000,3.000000,0.000000,-1.000000,3.000000,0.000000,0.000000
1303325.063869,-1.000000,4.000000,10.000000,25.000000,2.000000,-3.000000,0.000000,-1.000000
1303325.076893,-1.000000,-4.000000,-6.000000,-1.000000,-2.000000,0.000000,1.000000,1.000000
1303325.076909,-7.000000,-10.000000,-5.000000,-7.000000,0.000000,-5.000000,-1.000000,3.000000
1303325.091989,-2.000000,0.000000,6.000000,-5.000000,-4.000000,-1.000000,-4.000000,-3.000000
1303325.092018,0.000000,-4.000000,-4.000000,7.000000,-1.000000,0.000000,2.000000,2.000000
1303325.115184,3.000000,-6.000000,1.000000,0.000000,0.000000,2.000000,0.000000,1.000000
1303325.115194,5.000000,4.000000,11.000000,-3.000000,-7.000000,-3.000000,-1.000000,-1.000000
1303325.116147,-6.000000,-3.000000,-34.000000,-12.000000,-4.000000,-4.000000,-2.000000,-1.000000
1303325.116156,-4.000000,8.000000,20.000000,2.000000,6.000000,-2.000000,0.000000,-2.000000
1303325.137075,2.000000,-13.000000,0.000000,12.000000,0.000000,3.000000,-4.000000,0.000000
1303325.137085,-3.000000,-5.000000,1.000000,5.000000,1.000000,4.000000,2.000000,2.000000
1303325.159774,-2.000000,-3.000000,3.000000,-6.000000,-4.000000,-12.000000,0.000000,-3.000000
1303325.159785,-2.000000,-9.000000,1.000000,-6.000000,-4.000000,0.000000,-1.000000,-2.000000
1303325.175077,-5.000000,-6.000000,-7.000000,-2.000000,-2.000000,0.000000,0.000000,-4.000000
1303325.175097,1.000000,2.000000,-7.000000,-5.000000,-1.000000,-4.000000,2.000000,-2.000000
1303325.175517,3.000000,-1.000000,5.000000,8.000000,2.000000,-1.000000,-1.000000,1.000000
1303325.175526,-2.000000,0.000000,7.000000,-4.000000,-3.000000,5.000000,-2.000000,0.000000
1303325.176856,0.000000,-5.000000,-17.000000,6.000000,0.000000,-2.000000,-6.000000,-3.000000
1303325.176865,-2.000000,-5.000000,0.000000,-11.000000,0.000000,-1.000000,-1.000000,2.000000
1303325.177461,-7.000000,-5.000000,-1.000000,4.000000,1.000000,1.000000,-3.000000,-2.000000
1303325.177470,1.000000,-4.000000,1.000000,-4.000000,-2.000000,-3.000000,-3.000000,-3.000000
1303325.178305,1.000000,1.000000,-9.000000,-3.000000,-4.000000,-3.000000,0.000000,0.000000
1303325.178314,3.000000,4.000000,8.000000,-3.000000,3.000000,-3.000000,1.000000,0.000000
1303325.181777,-4.000000,-5.000000,-7.000000,-6.000000,-7.000000,2.000000,-2.000000,-2.000000
1303325.181833,-3.000000,22.000000,-2.000000,-1.000000,-5.000000,-2.000000,0.000000,0.000000
1303325.219491,1.000000,-7.000000,2.000000,0.000000,0.000000,0.000000,3.000000,0.000000
1303325.219503,2.000000,-8.000000,-3.000000,8.000000,5.000000,7.000000,-1.000000,-1.000000
1303325.226891,2.000000,14.000000,-2.000000,-2.000000,4.000000,2.000000,1.000000,2.000000
1303325.226903,-6.000000,-6.000000,-7.000000,-3.000000,-1.000000,-5.000000,-1.000000,-2.000000
1303325.257168,-2.000000,-10.000000,1.000000,-11.000000,0.000000,-1.000000,-6.000000,-1.000000
1303325.257178,1.000000,-11.000000,-13.000000,-6.000000,-9.000000,-5.000000,-3.000000,-3.000000
1303325.271969,3.000000,-5.000000,2.000000,6.000000,2.000000,-3.000000,-4.000000,0.000000
1303325.272041,0.000000,-5.000000,-4.000000,-11.000000,-5.000000,-1.000000,-5.000000,1.000000
1303325.272899,-2.000000,3.000000,-1.000000,-1.000000,-5.000000,-6.000000,-1.000000,-2.000000
1303325.272909,1.000000,-5.000000,-12.000000,-7.000000,-4.000000,-1.000000,1.000000,-2.000000
1303325.273627,-4.000000,3.000000,-14.000000,-10.000000,-3.000000,1.000000,-6.000000,-2.000000
1303325.273661,2.000000,6.000000,6.000000,-2.000000,-5.000000,1.000000,-4.000000,-1.000000
1303325.275126,1.000000,-3.000000,-6.000000,-4.000000,-4.000000,-1.000000,1.000000,-2.000000
1303325.275153,-4.000000,-5.000000,4.000000,-1.000000,0.000000,-4.000000,-2.000000,-1.000000
1303325.275844,0.000000,-2.000000,0.000000,8.000000,3.000000,4.000000,4.000000,0.000000
1303325.275867,-2.000000,0.000000,8.000000,3.000000,-4.000000,-2.000000,-1.000000,-2.000000
1303325.294422,-3.000000,5.000000,3.000000,-2.000000,-2.000000,-3.000000,0.000000,0.000000
1303325.294432,-6.000000,11.000000,-19.000000,-5.000000,-5.000000,-5.000000,-2.000000,-1.000000
1303325.296064,5.000000,-13.000000,3.000000,-4.000000,-4.000000,-1.000000,-2.000000,0.000000
1303325.296075,-12.000000,10.000000,1.000000,10.000000,-10.000000,2.000000,-1.000000,-8.000000
1303325.302152,0.000000,-5.000000,-4.000000,1.000000,9.000000,13.000000,10.000000,1.000000
1303325.302163,0.000000,-2.000000,-1.000000,-2.000000,-1.000000,2.000000,1.000000,-1.000000
1303325.317155,6.000000,1.000000,5.000000,-7.000000,1.000000,2.000000,-2.000000,-3.000000
1303325.317167,3.000000,3.000000,2.000000,3.000000,-2.000000,3.000000,2.000000,0.000000
1303325.331850,-1.000000,-4.000000,-1.000000,1.000000,0.000000,-1.000000,-1.000000,-2.000000
1303325.331860,0.000000,-5.000000,6.000000,-1.000000,3.000000,4.000000,-4.000000,-2.000000
1303325.354720,-3.000000,-3.000000,-4.000000,-2.000000,0.000000,-4.000000,-2.000000,4.000000
1303325.354730,2.000000,1.000000,-6.000000,-13.000000,-6.000000,-5.000000,-1.000000,-2.000000
1303325.355073,-2.000000,-2.000000,-2.000000,34.000000,4.000000,1.000000,0.000000,-2.000000
1303325.355081,4.000000,-3.000000,7.000000,-14.000000,-7.000000,-3.000000,-3.000000,1.000000
1303325.361746,-5.000000,8.000000,-13.000000,-9.000000,-1.000000,1.000000,-1.000000,-2.000000
1303325.361757,-1.000000,8.000000,7.000000,-7.000000,-7.000000,-6.000000,-5.000000,-3.000000
1303325.369467,-1.000000,13.000000,-2.000000,3.000000,8.000000,4.000000,1.000000,0.000000
1303325.369478,-6.000000,-1.000000,-5.000000,0.000000,-2.000000,3.000000,0.000000,-1.000000
1303325.376972,1.000000,-10.000000,-9.000000,-9.000000,0.000000,1.000000,2.000000,-3.000000
1303325.376993,-6.000000,-16.000000,9.000000,5.000000,7.000000,3.000000,2.000000,-1.000000
1303325.384362,-2.000000,0.000000,-5.000000,-7.000000,-3.000000,-1.000000,-4.000000,-2.000000
1303325.384372,-3.000000,-2.000000,-6.000000,-8.000000,-3.000000,-5.000000,0.000000,0.000000
1303325.392658,-3.000000,-12.000000,0.000000,-2.000000,1.000000,0.000000,-2.000000,-3.000000
1303325.392667,-1.000000,-9.000000,2.000000,8.000000,-3.000000,2.000000,1.000000,2.000000
1303325.414470,1.000000,14.000000,-3.000000,-3.000000,0.000000,3.000000,1.000000,-2.000000
1303325.414487,-1.000000,-6.000000,0.000000,1.000000,0.000000,-2.000000,-3.000000,-1.000000
1303325.415674,0.000000,2.000000,1.000000,-2.000000,2.000000,-3.000000,-5.000000,-3.000000
1303325.415702,-1.000000,-3.000000,-15.000000,-4.000000,-3.000000,2.000000,-2.000000,1.000000
1303325.421933,1.000000,-3.000000,12.000000,-4.000000,-1.000000,-4.000000,-2.000000,0.000000
1303325.421943,1.000000,-1.000000,8.000000,0.000000,0.000000,-2.000000,-3.000000,1.000000
1303325.452279,1.000000,-10.000000,-1.000000,-5.000000,1.000000,-2.000000,0.000000,-3.000000
1303325.452333,3.000000,-4.000000,-2.000000,-9.000000,-3.000000,1.000000,-1.000000,1.000000
1303325.467038,0.000000,-6.000000,0.000000,12.000000,-3.000000,-3.000000,0.000000,-2.000000
1303325.467061,-3.000000,-2.000000,-3.000000,-9.000000,2.000000,1.000000,-3.000000,-2.000000
1303325.496873,1.000000,5.000000,-3.000000,2.000000,-1.000000,-1.000000,4.000000,0.000000
1303325.496898,-3.000000,8.000000,-1.000000,0.000000,1.000000,-4.000000,1.000000,0.000000
1303325.497366,-2.000000,-15.000000,0.000000,-1.000000,0.000000,3.000000,-5.000000,-2.000000
1303325.497375,1.000000,31.000000,7.000000,-2.000000,-2.000000,0.000000,-5.000000,-2.000000
1303325.498611,-8.000000,-11.000000,-13.000000,-2.000000,-2.000000,-5.000000,-6.000000,-1.000000
1303325.498619,-3.000000,-18.000000,0.000000,-5.000000,-3.000000,-2.000000,-1.000000,-3.000000
1303325.499388,-1.000000,20.000000,10.000000,-3.000000,-1.000000,-3.000000,-6.000000,-2.000000
1303325.499398,-3.000000,-7.000000,-7.000000,4.000000,-5.000000,-6.000000,-2.000000,0.000000
1303325.504228,-1.000000,7.000000,-8.000000,6.000000,-2.000000,-1.000000,3.000000,-2.000000
1303325.504244,-4.000000,-3.000000,9.000000,1.000000,1.000000,0.000000,-1.000000,-5.000000
1303325.535194,-1.000000,2.000000,-8.000000,-4.000000,0.000000,2.000000,-2.000000,-1.000000
1303325.535491,2.000000,2.000000,-12.000000,7.000000,1.000000,3.000000,0.000000,0.000000
1303325.536092,3.000000,-3.000000,6.000000,6.000000,-1.000000,-1.000000,0.000000,1.000000
1303325.536417,-3.000000,-4.000000,3.000000,-3.000000,5.000000,0.000000,-3.000000,-2.000000
1303325.537971,-3.000000,2.000000,-1.000000,-8.000000,-1.000000,-1.000000,-2.000000,-1.000000
1303325.537997,1.000000,-1.000000,7.000000,3.000000,3.000000,1.000000,5.000000,0.000000
1303325.550258,0.000000,-8.000000,-5.000000,-7.000000,-6.000000,-3.000000,-2.000000,2.000000
1303325.550282,-2.000000,5.000000,-5.000000,-10.000000,2.000000,0.000000,2.000000,-5.000000
1303325.572821,-1.000000,-1.000000,-11.000000,24.000000,6.000000,-4.000000,3.000000,1.000000
1303325.572848,8.000000,0.000000,15.000000,9.000000,4.000000,1.000000,1.000000,0.000000
1303325.580073,-4.000000,6.000000,-7.000000,-6.000000,-4.000000,3.000000,-4.000000,-2.000000
1303325.580098,1.000000,2.000000,-16.000000,-13.000000,0.000000,-1.000000,-1.000000,0.000000
1303325.595383,-5.000000,-3.000000,7.000000,3.000000,-1.000000,-1.000000,-1.000000,-1.000000
1303325.595411,4.000000,-11.000000,10.000000,6.000000,-1.000000,3.000000,0.000000,-1.000000
1303325.610490,4.000000,9.000000,7.000000,-7.000000,0.000000,-4.000000,-4.000000,-4.000000
1303325.610538,-1.000000,6.000000,-1.000000,3.000000,-2.000000,1.000000,2.000000,-1.000000
1303325.625379,6.000000,-7.000000,10.000000,8.000000,8.000000,6.000000,4.000000,3.000000
1303325.625419,1.000000,-3.000000,-3.000000,-3.000000,-5.000000,0.000000,-2.000000,0.000000
1303325.633018,1.000000,13.000000,21.000000,-11.000000,-9.000000,-1.000000,0.000000,-4.000000
1303325.633194,1.000000,-10.000000,-15.000000,-2.000000,-1.000000,0.000000,2.000000,0.000000
1303325.655786,-3.000000,-8.000000,-2.000000,0.000000,1.000000,9.000000,-1.000000,0.000000
1303325.655803,2.000000,6.000000,-5.000000,-6.000000,3.000000,2.000000,1.000000,-1.000000
1303325.655872,1.000000,-2.000000,-2.000000,-2.000000,4.000000,-6.000000,-2.000000,-4.000000
1303325.655882,-3.000000,-5.000000,7.000000,2.000000,3.000000,1.000000,2.000000,0.000000
1303325.656722,-3.000000,-1.000000,-8.000000,-11.000000,-3.000000,1.000000,0.000000,-3.000000
1303325.656735,-1.000000,2.000000,4.000000,3.000000,-1.000000,-1.000000,0.000000,1.000000
1303325.657194,-3.000000,-6.000000,1.000000,-1.000000,-1.000000,-1.000000,1.000000,0.000000
1303325.657228,-7.000000,-8.000000,0.000000,0.000000,0.000000,-2.000000,-3.000000,-3.000000
1303325.669969,2.000000,-7.000000,10.000000,0.000000,-1.000000,3.000000,0.000000,0.000000
1303325.670000,1.000000,0.000000,-7.000000,-12.000000,-9.000000,-3.000000,-5.000000,-4.000000
1303325.706851,-7.000000,9.000000,3.000000,-1.000000,1.000000,-1.000000,-1.000000,-3.000000
1303325.706861,-1.000000,17.000000,-2.000000,-5.000000,-5.000000,-6.000000,-4.000000,-5.000000
1303325.729499,-5.000000,-8.000000,3.000000,-3.000000,-6.000000,-4.000000,-4.000000,-4.000000
1303325.729527,-1.000000,-3.000000,-4.000000,1.000000,-2.000000,-3.000000,-2.000000,-2.000000
1303325.729825,-3.000000,-6.000000,2.000000,-6.000000,1.000000,2.000000,0.000000,0.000000
1303325.729853,-1.000000,-3.000000,0.000000,3.000000,4.000000,0.000000,-1.000000,0.000000
1303325.731147,-1.000000,-9.000000,-11.000000,-1.000000,-1.000000,-3.000000,1.000000,0.000000
1303325.731159,7.000000,4.000000,6.000000,-1.000000,-5.000000,-1.000000,3.000000,1.000000
1303325.731775,-1.000000,-1.000000,4.000000,9.000000,4.000000,2.000000,-1.000000,-2.000000
1303325.731783,-3.000000,3.000000,-13.000000,-9.000000,-3.000000,-2.000000,-2.000000,-2.000000
1303325.752337,1.000000,-5.000000,3.000000,5.000000,1.000000,-3.000000,2.000000,1.000000
1303325.752366,-2.000000,-2.000000,11.000000,3.000000,4.000000,3.000000,-2.000000,-1.000000
1303325.752948,0.000000,-7.000000,-4.000000,-5.000000,4.000000,1.000000,0.000000,2.000000
1303325.752974,-5.000000,7.000000,-3.000000,-10.000000,-2.000000,-4.000000,-2.000000,-4.000000
1303325.754512,1.000000,-2.000000,4.000000,2.000000,-2.000000,2.000000,-1.000000,-1.000000
1303325.754557,1.000000,1.000000,0.000000,-10.000000,-4.000000,4.000000,-3.000000,1.000000
1303325.767064,-9.000000,-8.000000,-8.000000,-7.000000,2.000000,-3.000000,-4.000000,0.000000
1303325.767075,3.000000,2.000000,2.000000,15.000000,2.000000,-4.000000,-1.000000,2.000000
1303325.782096,-3.000000,0.000000,-3.000000,3.000000,0.000000,-2.000000,-1.000000,0.000000
1303325.782125,0.000000,8.000000,7.000000,0.000000,-2.000000,-4.000000,1.000000,0.000000
1303325.789533,-4.000000,-8.000000,-8.000000,3.000000,-3.000000,-1.000000,-4.000000,-2.000000
1303325.789542,-2.000000,-5.000000,8.000000,9.000000,7.000000,-2.000000,-3.000000,0.000000
1303325.834360,-3.000000,6.000000,-11.000000,-12.000000,-1.000000,-1.000000,-2.000000,-2.000000
1303325.834370,1.000000,2.000000,1.000000,-2.000000,-8.000000,-8.000000,-4.000000,-3.000000
1303325.849577,-10.000000,-15.000000,-15.000000,1.000000,-1.000000,-6.000000,-5.000000,-2.000000
1303325.849588,5.000000,15.000000,0.000000,-10.000000,-2.000000,-4.000000,-1.000000,-1.000000
1303325.871898,1.000000,8.000000,-7.000000,-1.000000,-7.000000,-1.000000,0.000000,-1.000000
1303325.871920,2.000000,-7.000000,10.000000,4.000000,0.000000,-2.000000,-1.000000,-1.000000
1303325.872432,-7.000000,4.000000,-5.000000,-3.000000,-2.000000,-1.000000,0.000000,-1.000000
1303325.872446,-2.000000,10.000000,-7.000000,-4.000000,-3.000000,-3.000000,0.000000,1.000000
1303325.874353,-3.000000,-8.000000,7.000000,-7.000000,1.000000,-3.000000,-1.000000,-3.000000
1303325.874363,-1.000000,-4.000000,1.000000,21.000000,-2.000000,2.000000,0.000000,-1.000000
1303325.887073,0.000000,-2.000000,-4.000000,9.000000,1.000000,3.000000,0.000000,2.000000
1303325.887111,3.000000,-14.000000,7.000000,-8.000000,-3.000000,0.000000,0.000000,0.000000
1303325.909804,-10.000000,7.000000,-17.000000,-6.000000,0.000000,-9.000000,-4.000000,-1.000000
1303325.909817,5.000000,0.000000,-3.000000,-2.000000,0.000000,-3.000000,2.000000,1.000000
1303325.917218,1.000000,-13.000000,17.000000,6.000000,0.000000,0.000000,3.000000,3.000000
1303325.917230,-8.000000,5.000000,-22.000000,-3.000000,-1.000000,2.000000,-1.000000,-3.000000
1303325.931797,1.000000,3.000000,-3.000000,-10.000000,4.000000,-4.000000,3.000000,-1.000000
1303325.931817,2.000000,14.000000,-7.000000,2.000000,0.000000,-2.000000,-3.000000,-1.000000
1303325.947133,0.000000,7.000000,3.000000,11.000000,2.000000,-1.000000,-2.000000,-4.000000
1303325.947145,-6.000000,2.000000,-15.000000,-8.000000,-5.000000,-3.000000,-3.000000,-5.000000
1303325.969884,3.000000,-1.000000,1.000000,2.000000,-1.000000,-4.000000,-1.000000,1.000000
1303325.969894,-1.000000,-3.000000,-1.000000,3.000000,-1.000000,0.000000,1.000000,-3.000000
1303325.970473,-2.000000,-4.000000,1.000000,-5.000000,-1.000000,-4.000000,-2.000000,0.000000
1303325.970483,-5.000000,-9.000000,4.000000,3.000000,-3.000000,-1.000000,0.000000,1.000000
1303325.971603,-3.000000,-13.000000,3.000000,26.000000,1.000000,3.000000,-2.000000,-2.000000
1303325.971631,-1.000000,1.000000,0.000000,-7.000000,-7.000000,-5.000000,-3.000000,-1.000000
1303325.972388,-3.000000,1.000000,-6.000000,-2.000000,-1.000000,-4.000000,0.000000,-1.000000
1303325.972400,-3.000000,-3.000000,-2.000000,-5.000000,-2.000000,0.000000,-1.000000,-3.000000
1303325.984212,2.000000,-2.000000,0.000000,-6.000000,-6.000000,-3.000000,-2.000000,0.000000
1303325.984244,0.000000,-23.000000,0.000000,7.000000,0.000000,4.000000,-8.000000,0.000000
1303325.985561,8.000000,26.000000,0.000000,-7.000000,-5.000000,-5.000000,-2.000000,-4.000000
1303325.985568,-4.000000,-11.000000,-3.000000,-6.000000,2.000000,-4.000000,-3.000000,1.000000
1303326.006936,-4.000000,-10.000000,-10.000000,-3.000000,1.000000,-1.000000,-2.000000,-1.000000
1303326.006947,7.000000,5.000000,16.000000,0.000000,-1.000000,-1.000000,-5.000000,1.000000
1303326.008236,4.000000,3.000000,-2.000000,-2.000000,-2.000000,1.000000,-1.000000,4.000000
1303326.008247,2.000000,-1.000000,1.000000,-4.000000,0.000000,-1.000000,0.000000,2.000000
1303326.014459,-5.000000,-7.000000,-2.000000,-5.000000,1.000000,2.000000,0.000000,-2.000000
1303326.014471,-1.000000,2.000000,-9.000000,6.000000,7.000000,1.000000,-2.000000,2.000000
1303326.044419,-3.000000,-2.000000,3.000000,0.000000,-4.000000,-5.000000,-2.000000,-5.000000
1303326.044430,0.000000,-7.000000,6.000000,0.000000,6.000000,1.000000,-2.000000,-5.000000
1303326.052222,1.000000,1.000000,-3.000000,0.000000,0.000000,0.000000,0.000000,-2.000000
1303326.052233,-2.000000,7.000000,1.000000,5.000000,-3.000000,-3.000000,3.000000,0.000000
1303326.066682,-4.000000,-9.000000,3.000000,-4.000000,4.000000,1.000000,-4.000000,1.000000
1303326.066714,-2.000000,13.000000,-16.000000,0.000000,-6.000000,0.000000,0.000000,-1.000000
1303326.067288,3.000000,3.000000,19.000000,-1.000000,-5.000000,-3.000000,1.000000,1.000000
1303326.067296,-4.000000,-4.000000,-18.000000,-19.000000,-6.000000,-3.000000,-2.000000,-4.000000
1303326.068675,0.000000,-5.000000,16.000000,32.000000,6.000000,1.000000,0.000000,-1.000000
1303326.068702,1.000000,17.000000,-14.000000,-11.000000,-7.000000,3.000000,3.000000,2.000000
1303326.089865,-8.000000,-9.000000,-1.000000,-5.000000,-1.000000,0.000000,-4.000000,-2.000000
1303326.089877,-3.000000,-6.000000,2.000000,-4.000000,0.000000,-1.000000,-3.000000,0.000000
1303326.090758,-2.000000,-9.000000,-8.000000,-8.000000,4.000000,4.000000,-4.000000,1.000000
1303326.090768,4.000000,-21.000000,6.000000,4.000000,0.000000,4.000000,2.000000,-1.000000
1303326.097288,-4.000000,10.000000,4.000000,1.000000,-3.000000,-2.000000,-3.000000,-1.000000
1303326.097300,2.000000,2.000000,6.000000,-2.000000,-3.000000,-3.000000,-2.000000,-1.000000
1303326.105152,0.000000,-12.000000,-7.000000,-5.000000,6.000000,2.000000,1.000000,0.000000
1303326.105163,-1.000000,0.000000,2.000000,-2.000000,1.000000,-4.000000,-1.000000,-1.000000
1303326.126802,-13.000000,1.000000,-6.000000,2.000000,-5.000000,2.000000,-2.000000,-6.000000
1303326.126813,-3.000000,-3.000000,-7.000000,-2.000000,0.000000,-2.000000,-3.000000,0.000000
1303326.128542,4.000000,-3.000000,-4.000000,-3.000000,7.000000,-1.000000,-2.000000,2.000000
1303326.128553,-6.000000,7.000000,0.000000,-9.000000,0.000000,3.000000,-1.000000,1.000000
1303326.149518,-2.000000,-2.000000,-3.000000,18.000000,-1.000000,-1.000000,1.000000,2.000000
1303326.149532,-1.000000,1.000000,1.000000,-4.000000,-3.000000,-2.000000,-2.000000,-4.000000
1303326.187125,0.000000,-2.000000,3.000000,-2.000000,3.000000,1.000000,-4.000000,-1.000000
1303326.187137,-2.000000,-6.000000,-3.000000,-4.000000,7.000000,2.000000,2.000000,1.000000
1303326.187520,-3.000000,0.000000,4.000000,16.000000,1.000000,3.000000,-1.000000,-2.000000
1303326.187529,-6.000000,-19.000000,-5.000000,1.000000,-3.000000,2.000000,-1.000000,3.000000
1303326.188559,0.000000,3.000000,11.000000,-8.000000,0.000000,-2.000000,0.000000,3.000000
1303326.188568,-1.000000,-4.000000,-8.000000,4.000000,1.000000,-4.000000,0.000000,-1.000000
1303326.189219,-3.000000,-5.000000,-2.000000,-6.000000,-1.000000,-4.000000,-5.000000,-5.000000
1303326.189229,-2.000000,-4.000000,-1.000000,-7.000000,-2.000000,-2.000000,-4.000000,-2.000000
1303326.191314,-3.000000,17.000000,2.000000,0.000000,-5.000000,-3.000000,1.000000,-5.000000
1303326.191326,-2.000000,-5.000000,-15.000000,-3.000000,-5.000000,-3.000000,-5.000000,-3.000000
1303326.201995,-4.000000,-3.000000,-8.000000,-7.000000,-4.000000,-5.000000,-5.000000,-3.000000
1303326.202013,-1.000000,-8.000000,5.000000,-2.000000,-1.000000,-6.000000,-2.000000,-3.000000
1303326.225047,1.000000,0.000000,-4.000000,-2.000000,-5.000000,-2.000000,3.000000,2.000000
1303326.225056,0.000000,-8.000000,1.000000,-1.000000,3.000000,1.000000,1.000000,0.000000
1303326.225654,-6.000000,-2.000000,-5.000000,-3.000000,0.000000,1.000000,-1.000000,0.000000
1303326.225662,1.000000,8.000000,-6.000000,-3.000000,-3.000000,-3.000000,1.000000,1.000000
1303326.227318,-3.000000,-5.000000,2.000000,2.000000,5.000000,0.000000,-1.000000,1.000000
1303326.227329,-2.000000,-7.000000,0.000000,-6.000000,-1.000000,-1.000000,-1.000000,2.000000
1303326.246843,-1.000000,0.000000,0.000000,5.000000,-4.000000,-1.000000,-2.000000,1.000000
1303326.246853,-3.000000,-2.000000,-4.000000,-6.000000,-4.000000,0.000000,0.000000,-1.000000
1303326.248167,-1.000000,1.000000,-2.000000,-6.000000,5.000000,0.000000,-1.000000,3.000000
1303326.248176,-3.000000,1.000000,7.000000,-5.000000,1.000000,2.000000,-2.000000,0.000000
1303326.261832,1.000000,-5.000000,-4.000000,-1.000000,3.000000,0.000000,1.000000,-3.000000
1303326.261842,-3.000000,-7.000000,4.000000,2.000000,-5.000000,1.000000,2.000000,-2.000000
1303326.284983,2.000000,4.000000,-2.000000,-2.000000,-1.000000,1.000000,-1.000000,0.000000
1303326.284998,0.000000,7.000000,-4.000000,-12.000000,-7.000000,-6.000000,1.000000,0.000000
1303326.306913,-1.000000,2.000000,0.000000,11.000000,5.000000,-4.000000,-4.000000,-4.000000
1303326.306946,-2.000000,16.000000,5.000000,-6.000000,-3.000000,-2.000000,1.000000,1.000000
1303326.322566,-1.000000,-7.000000,-7.000000,1.000000,5.000000,2.000000,-3.000000,-4.000000
1303326.322576,4.000000,-15.000000,-1.000000,0.000000,-3.000000,1.000000,-1.000000,-3.000000
1303326.323072,-12.000000,-8.000000,-1.000000,-1.000000,-5.000000,0.000000,-3.000000,-2.000000
1303326.323084,0.000000,0.000000,6.000000,2.000000,-6.000000,-1.000000,-1.000000,-2.000000
1303326.324391,2.000000,2.000000,-2.000000,-6.000000,-5.000000,-6.000000,0.000000,0.000000
1303326.324401,-1.000000,-2.000000,6.000000,3.000000,2.000000,-1.000000,-2.000000,0.000000
1303326.325201,-1.000000,3.000000,-3.000000,-4.000000,1.000000,1.000000,-2.000000,-2.000000
1303326.325209,3.000000,8.000000,2.000000,-4.000000,-4.000000,-2.000000,0.000000,0.000000
1303326.330202,-1.000000,2.000000,-2.000000,1.000000,-4.000000,-1.000000,0.000000,-1.000000
1303326.330212,-4.000000,-4.000000,-5.000000,-11.000000,-4.000000,-3.000000,-6.000000,2.000000
1303326.337107,4.000000,4.000000,2.000000,4.000000,-2.000000,-2.000000,1.000000,2.000000
1303326.337118,-4.000000,-3.000000,7.000000,5.000000,-1.000000,-3.000000,0.000000,-3.000000
1303326.344962,-3.000000,6.000000,4.000000,-3.000000,4.000000,2.000000,-5.000000,-1.000000
1303326.344980,-1.000000,-2.000000,0.000000,-2.000000,-1.000000,-1.000000,-2.000000,-3.000000
1303326.366985,0.000000,-3.000000,-4.000000,-6.000000,-3.000000,0.000000,-1.000000,-3.000000
1303326.366995,4.000000,-3.000000,4.000000,0.000000,5.000000,1.000000,-1.000000,4.000000
1303326.389567,-2.000000,0.000000,-3.000000,-4.000000,3.000000,-3.000000,-2.000000,0.000000
1303326.389586,-2.000000,2.000000,-10.000000,-2.000000,-1.000000,-3.000000,4.000000,0.000000
1303326.404522,-3.000000,-3.000000,-1.000000,-22.000000,0.000000,3.000000,-4.000000,-1.000000
1303326.404532,2.000000,9.000000,2.000000,13.000000,-5.000000,-1.000000,-2.000000,-2.000000
1303326.419417,-9.000000,6.000000,-6.000000,-6.000000,-5.000000,-1.000000,-1.000000,-1.000000
1303326.419427,-1.000000,-5.000000,-10.000000,-1.000000,-2.000000,-1.000000,-2.000000,-6.000000
1303326.426902,-1.000000,15.000000,17.000000,-13.000000,-5.000000,-2.000000,-3.000000,-4.000000
1303326.426913,3.000000,1.000000,-4.000000,19.000000,0.000000,2.000000,4.000000,-1.000000
1303326.479649,-4.000000,-1.000000,-6.000000,-1.000000,-3.000000,-1.000000,-2.000000,-4.000000
1303326.479780,-1.000000,-9.000000,3.000000,5.000000,1.000000,-4.000000,-5.000000,-2.000000
1303326.480121,0.000000,4.000000,4.000000,-3.000000,-2.000000,-3.000000,-1.000000,-4.000000
1303326.480147,1.000000,1.000000,-15.000000,-11.000000,-4.000000,-7.000000,-4.000000,-1.000000
1303326.481052,1.000000,3.000000,-4.000000,-11.000000,-1.000000,-2.000000,-1.000000,-3.000000
1303326.481061,-3.000000,6.000000,4.000000,13.000000,4.000000,3.000000,-1.000000,0.000000
1303326.482048,-1.000000,7.000000,-5.000000,-9.000000,-4.000000,1.000000,-2.000000,-1.000000
1303326.482118,-3.000000,-1.000000,-1.000000,-2.000000,-6.000000,0.000000,1.000000,-2.000000
1303326.494473,1.000000,16.000000,1.000000,13.000000,-2.000000,-2.000000,1.000000,-2.000000
1303326.494516,-1.000000,-6.000000,-6.000000,-6.000000,-9.000000,-3.000000,0.000000,0.000000
1303326.501858,-7.000000,-14.000000,-2.000000,-2.000000,-3.000000,4.000000,0.000000,-2.000000
1303326.501886,3.000000,8.000000,5.000000,-6.000000,-2.000000,-2.000000,0.000000,0.000000
1303326.532043,-1.000000,-4.000000,5.000000,1.000000,1.000000,-1.000000,-3.000000,-2.000000
1303326.532059,-4.000000,-4.000000,-4.000000,2.000000,0.000000,2.000000,2.000000,1.000000
1303326.539279,2.000000,9.000000,6.000000,-8.000000,-3.000000,1.000000,-5.000000,-1.000000
1303326.539319,3.000000,22.000000,7.000000,7.000000,-6.000000,-3.000000,0.000000,-1.000000
1303326.540310,1.000000,-4.000000,1.000000,-5.000000,-3.000000,-1.000000,0.000000,-4.000000
1303326.540318,-1.000000,2.000000,0.000000,-5.000000,-5.000000,1.000000,0.000000,-1.000000
1303326.541385,1.000000,3.000000,-11.000000,-4.000000,-2.000000,-4.000000,0.000000,-3.000000
1303326.541392,1.000000,-5.000000,-4.000000,-4.000000,0.000000,-3.000000,1.000000,1.000000
1303326.547639,4.000000,0.000000,11.000000,11.000000,1.000000,6.000000,-1.000000,2.000000
1303326.547649,-4.000000,4.000000,-3.000000,1.000000,-3.000000,2.000000,0.000000,-1.000000
1303326.562283,1.000000,-4.000000,-1.000000,0.000000,-2.000000,-3.000000,0.000000,-1.000000
1303326.562293,-4.000000,-9.000000,-8.000000,-2.000000,-3.000000,1.000000,-2.000000,-3.000000
1303326.585033,0.000000,-6.000000,5.000000,-4.000000,0.000000,1.000000,-3.000000,1.000000
1303326.585060,1.000000,1.000000,-8.000000,-3.000000,-4.000000,-1.000000,2.000000,-1.000000
1303326.585383,0.000000,-4.000000,2.000000,1.000000,-2.000000,-4.000000,0.000000,0.000000
1303326.585392,-3.000000,5.000000,-1.000000,-5.000000,-1.000000,1.000000,0.000000,1.000000
1303326.599552,-1.000000,4.000000,-10.000000,8.000000,-5.000000,-2.000000,-3.000000,-4.000000
1303326.599566,-5.000000,-5.000000,-2.000000,-8.000000,-1.000000,-4.000000,0.000000,-1.000000
1303326.600107,5.000000,-9.000000,3.000000,-4.000000,-4.000000,0.000000,-1.000000,3.000000
1303326.600117,-7.000000,8.000000,-5.000000,3.000000,-4.000000,-1.000000,-1.000000,-6.000000
1303326.614489,1.000000,-6.000000,-4.000000,-5.000000,6.000000,-2.000000,-1.000000,-1.000000
1303326.614501,-1.000000,-4.000000,3.000000,6.000000,-8.000000,-1.000000,-1.000000,-2.000000
1303326.622223,-2.000000,7.000000,-3.000000,-5.000000,-1.000000,3.000000,-1.000000,1.000000
1303326.622247,-1.000000,-10.000000,6.000000,-12.000000,-4.000000,0.000000,-3.000000,-1.000000
1303326.659588,0.000000,-4.000000,-4.000000,27.000000,2.000000,2.000000,-4.000000,-1.000000
1303326.659599,1.000000,11.000000,10.000000,-4.000000,4.000000,-1.000000,-3.000000,1.000000
1303326.667007,-1.000000,-4.000000,-9.000000,-16.000000,-3.000000,0.000000,-2.000000,1.000000
1303326.667042,-6.000000,0.000000,1.000000,-2.000000,-5.000000,-3.000000,-1.000000,0.000000
1303326.668065,0.000000,4.000000,-3.000000,4.000000,2.000000,0.000000,3.000000,0.000000
1303326.668073,-2.000000,1.000000,-5.000000,-9.000000,0.000000,2.000000,-2.000000,0.000000
1303326.668704,0.000000,-13.000000,4.000000,1.000000,2.000000,6.000000,2.000000,0.000000
1303326.668715,-5.000000,5.000000,-2.000000,1.000000,3.000000,0.000000,-5.000000,-3.000000
1303326.670153,-3.000000,-5.000000,0.000000,-3.000000,-3.000000,1.000000,-3.000000,0.000000
1303326.670162,-3.000000,-3.000000,-2.000000,-2.000000,-2.000000,-2.000000,0.000000,0.000000
1303326.682093,0.000000,0.000000,1.000000,1.000000,5.000000,0.000000,2.000000,3.000000
1303326.682129,-4.000000,5.000000,-2.000000,-4.000000,-2.000000,-1.000000,-4.000000,2.000000
1303326.690253,1.000000,3.000000,-1.000000,-1.000000,-1.000000,-2.000000,0.000000,-1.000000
1303326.690265,3.000000,-3.000000,-2.000000,9.000000,1.000000,5.000000,0.000000,-3.000000
1303326.704489,0.000000,4.000000,4.000000,5.000000,0.000000,3.000000,-5.000000,-2.000000
1303326.704502,-4.000000,13.000000,0.000000,-4.000000,-5.000000,-2.000000,4.000000,-2.000000
1303326.719247,3.000000,1.000000,-5.000000,1.000000,-1.000000,1.000000,1.000000,1.000000
1303326.719258,-2.000000,-4.000000,-8.000000,-1.000000,-3.000000,1.000000,-2.000000,-1.000000
1303326.720050,-5.000000,-3.000000,1.000000,0.000000,1.000000,-6.000000,-3.000000,-6.000000
1303326.720059,4.000000,-4.000000,-9.000000,-10.000000,-3.000000,2.000000,1.000000,0.000000
1303326.742103,-1.000000,3.000000,3.000000,-1.000000,-2.000000,-2.000000,-1.000000,0.000000
1303326.742114,-1.000000,3.000000,-5.000000,-8.000000,0.000000,0.000000,1.000000,2.000000
1303326.757058,6.000000,6.000000,7.000000,1.000000,-5.000000,-3.000000,2.000000,-3.000000
1303326.757070,1.000000,-2.000000,-17.000000,0.000000,4.000000,-1.000000,-1.000000,-3.000000
1303326.779799,-4.000000,-2.000000,-1.000000,-8.000000,-1.000000,3.000000,-3.000000,1.000000
1303326.780063,-1.000000,-3.000000,4.000000,26.000000,3.000000,2.000000,5.000000,1.000000
1303326.780252,0.000000,5.000000,-2.000000,-8.000000,-3.000000,-6.000000,0.000000,-2.000000
1303326.780261,-4.000000,-5.000000,9.000000,0.000000,1.000000,5.000000,0.000000,-1.000000
1303326.781116,-2.000000,-1.000000,-8.000000,-4.000000,2.000000,2.000000,0.000000,0.000000
1303326.781125,0.000000,17.000000,-2.000000,-3.000000,-6.000000,-4.000000,1.000000,-4.000000
1303326.782010,-4.000000,-6.000000,-3.000000,0.000000,-1.000000,-2.000000,-4.000000,-8.000000
1303326.782023,1.000000,5.000000,-1.000000,5.000000,3.000000,-5.000000,-2.000000,-1.000000
1303326.802580,-1.000000,4.000000,-4.000000,-2.000000,2.000000,-1.000000,-3.000000,-1.000000
1303326.802591,-1.000000,1.000000,0.000000,-1.000000,-2.000000,3.000000,0.000000,-3.000000
1303326.803277,-6.000000,-12.000000,4.000000,0.000000,-2.000000,-3.000000,-4.000000,-5.000000
1303326.803287,6.000000,11.000000,-18.000000,-4.000000,-2.000000,-4.000000,-4.000000,-1.000000
1303326.824129,0.000000,-17.000000,0.000000,9.000000,3.000000,-2.000000,-2.000000,-3.000000
1303326.824175,3.000000,-2.000000,-6.000000,0.000000,-1.000000,1.000000,0.000000,0.000000
1303326.824808,1.000000,8.000000,6.000000,-4.000000,-2.000000,-2.000000,-4.000000,-1.000000
1303326.824816,-3.000000,-1.000000,-9.000000,-4.000000,-1.000000,-6.000000,1.000000,-1.000000
1303326.839732,-3.000000,-3.000000,-5.000000,-3.000000,-7.000000,-3.000000,-3.000000,0.000000
1303326.839742,-2.000000,4.000000,-9.000000,-2.000000,-1.000000,-6.000000,-5.000000,-4.000000
1303326.862023,-5.000000,2.000000,-1.000000,3.000000,-3.000000,-1.000000,3.000000,-2.000000
1303326.862033,2.000000,7.000000,11.000000,0.000000,-1.000000,-1.000000,1.000000,0.000000
1303326.884336,-2.000000,-1.000000,-6.000000,-7.000000,-4.000000,-1.000000,-4.000000,-4.000000
1303326.884346,1.000000,6.000000,0.000000,-6.000000,3.000000,1.000000,3.000000,3.000000
1303326.899505,0.000000,-3.000000,-2.000000,-1.000000,4.000000,5.000000,3.000000,0.000000
1303326.899516,-4.000000,-6.000000,-4.000000,-4.000000,-5.000000,-3.000000,-1.000000,2.000000
1303326.937117,2.000000,4.000000,9.000000,-1.000000,1.000000,0.000000,-1.000000,3.000000
1303326.937129,-1.000000,-2.000000,-5.000000,-5.000000,-4.000000,-1.000000,-1.000000,-1.000000
1303326.944759,-5.000000,-7.000000,14.000000,13.000000,6.000000,-2.000000,-1.000000,-1.000000
1303326.944770,1.000000,2.000000,-23.000000,-17.000000,-2.000000,-1.000000,-4.000000,-2.000000
1303326.966997,2.000000,11.000000,2.000000,8.000000,6.000000,-1.000000,1.000000,-1.000000
1303326.967012,-3.000000,2.000000,-5.000000,-3.000000,-4.000000,-2.000000,-2.000000,1.000000
1303326.982004,1.000000,3.000000,0.000000,-12.000000,-1.000000,2.000000,-1.000000,-3.000000
1303326.982041,-7.000000,3.000000,-6.000000,16.000000,1.000000,-3.000000,1.000000,1.000000
1303326.997163,-2.000000,-1.000000,-3.000000,-1.000000,-2.000000,2.000000,-4.000000,-2.000000
1303326.997175,-5.000000,-8.000000,-8.000000,-2.000000,-6.000000,-2.000000,-3.000000,0.000000
1303327.004470,-6.000000,1.000000,-17.000000,-5.000000,-3.000000,-5.000000,-1.000000,1.000000
1303327.004481,-3.000000,-3.000000,-2.000000,-9.000000,-1.000000,-4.000000,0.000000,-3.000000
1303327.019330,-2.000000,5.000000,4.000000,-7.000000,-4.000000,-4.000000,-2.000000,0.000000
1303327.019349,-1.000000,9.000000,-7.000000,9.000000,1.000000,1.000000,-3.000000,0.000000
1303327.027157,2.000000,-6.000000,4.000000,-1.000000,4.000000,-1.000000,3.000000,-1.000000
1303327.027170,-3.000000,3.000000,-8.000000,5.000000,3.000000,1.000000,-2.000000,-2.000000
1303327.034632,-6.000000,-5.000000,-1.000000,-1.000000,4.000000,1.000000,-2.000000,-3.000000
1303327.034645,-5.000000,-5.000000,-1.000000,-7.000000,6.000000,-2.000000,1.000000,0.000000
1303327.035507,-4.000000,1.000000,-1.000000,2.000000,-3.000000,-3.000000,-3.000000,0.000000
1303327.035517,2.000000,9.000000,3.000000,-16.000000,-8.000000,-3.000000,-2.000000,1.000000
1303327.036108,0.000000,3.000000,3.000000,24.000000,3.000000,1.000000,-1.000000,1.000000
1303327.036118,-5.000000,-10.000000,-1.000000,-12.000000,-3.000000,4.000000,-3.000000,-3.000000
1303327.036959,3.000000,9.000000,12.000000,7.000000,1.000000,4.000000,0.000000,2.000000
1303327.036969,-1.000000,7.000000,-14.000000,-4.000000,1.000000,-1.000000,0.000000,-3.000000
1303327.042162,-5.000000,-5.000000,-8.000000,-4.000000,-1.000000,3.000000,1.000000,-1.000000
1303327.042174,6.000000,-5.000000,-5.000000,-13.000000,2.000000,-1.000000,1.000000,-2.000000
1303327.056910,-2.000000,-1.000000,-8.000000,13.000000,-1.000000,6.000000,-3.000000,-3.000000
1303327.056921,-2.000000,4.000000,-6.000000,6.000000,-9.000000,-4.000000,-4.000000,1.000000
1303327.079710,0.000000,-8.000000,-3.000000,-5.000000,-1.000000,-4.000000,-2.000000,-3.000000
1303327.079721,-6.000000,-2.000000,5.000000,-2.000000,-1.000000,-3.000000,-1.000000,-3.000000
1303327.094922,-4.000000,-2.000000,0.000000,-4.000000,0.000000,-1.000000,1.000000,-2.000000
1303327.094941,0.000000,-11.000000,4.000000,4.000000,3.000000,1.000000,2.000000,-1.000000
1303327.095503,2.000000,-6.000000,2.000000,12.000000,2.000000,0.000000,-2.000000,0.000000
1303327.095513,-2.000000,0.000000,-4.000000,-12.000000,-4.000000,0.000000,-4.000000,-1.000000
1303327.097102,1.000000,-7.000000,-3.000000,16.000000,5.000000,3.000000,3.000000,1.000000
1303327.097115,-1.000000,1.000000,-7.000000,-4.000000,0.000000,-1.000000,-1.000000,-4.000000
1303327.102029,-5.000000,-7.000000,-13.000000,1.000000,0.000000,2.000000,-4.000000,-2.000000
1303327.102040,1.000000,8.000000,8.000000,-4.000000,-6.000000,-3.000000,0.000000,2.000000
1303327.117343,1.000000,-4.000000,-2.000000,-13.000000,1.000000,-1.000000,1.000000,3.000000
1303327.117352,-2.000000,6.000000,5.000000,9.000000,4.000000,3.000000,0.000000,-1.000000
1303327.118112,2.000000,-13.000000,-5.000000,-4.000000,-3.000000,-2.000000,0.000000,0.000000
1303327.118139,0.000000,-27.000000,-12.000000,-7.000000,-1.000000,-1.000000,1.000000,-1.000000
1303327.131981,7.000000,33.000000,25.000000,11.000000,1.000000,-3.000000,-3.000000,2.000000
1303327.131992,4.000000,-11.000000,0.000000,-9.000000,-3.000000,-6.000000,-7.000000,-2.000000
1303327.139557,1.000000,3.000000,-2.000000,7.000000,-5.000000,2.000000,4.000000,4.000000
1303327.139567,0.000000,-5.000000,-9.000000,10.000000,5.000000,0.000000,-1.000000,-2.000000
1303327.155194,-3.000000,-4.000000,10.000000,-17.000000,0.000000,-2.000000,-1.000000,-3.000000
1303327.155210,0.000000,2.000000,-13.000000,10.000000,-2.000000,1.000000,3.000000,-3.000000
1303327.161934,2.000000,-6.000000,2.000000,-11.000000,-8.000000,-3.000000,-2.000000,0.000000
1303327.161960,0.000000,-2.000000,2.000000,-2.000000,-2.000000,-3.000000,-6.000000,2.000000
1303327.170308,-2.000000,3.000000,-3.000000,-1.000000,-2.000000,1.000000,-3.000000,-2.000000
1303327.170316,1.000000,-2.000000,1.000000,-9.000000,-3.000000,-3.000000,2.000000,-1.000000
1303327.177149,-3.000000,-9.000000,-4.000000,0.000000,2.000000,-3.000000,0.000000,-1.000000
1303327.177160,-2.000000,1.000000,8.000000,-6.000000,-4.000000,1.000000,-1.000000,-1.000000
1303327.206993,3.000000,1.000000,-9.000000,5.000000,1.000000,-4.000000,3.000000,-1.000000
1303327.207003,-4.000000,-9.000000,1.000000,-10.000000,1.000000,-1.000000,-4.000000,0.000000
1303327.214791,1.000000,3.000000,-5.000000,3.000000,0.000000,1.000000,-1.000000,-2.000000
1303327.214802,3.000000,-4.000000,-7.000000,-1.000000,-4.000000,-1.000000,1.000000,0.000000
1303327.237067,-8.000000,11.000000,-4.000000,5.000000,1.000000,2.000000,0.000000,-4.000000
1303327.237079,0.000000,0.000000,-4.000000,2.000000,7.000000,8.000000,1.000000,1.000000
1303327.244358,-3.000000,-1.000000,-3.000000,-6.000000,-3.000000,-2.000000,0.000000,-2.000000
1303327.244396,2.000000,-15.000000,-1.000000,1.000000,3.000000,-1.000000,-1.000000,0.000000
1303327.245407,-2.000000,-12.000000,4.000000,3.000000,0.000000,-6.000000,-2.000000,-3.000000
1303327.245416,-3.000000,0.000000,-1.000000,-7.000000,2.000000,6.000000,1.000000,-1.000000
1303327.251759,1.000000,-5.000000,-6.000000,12.000000,-2.000000,-6.000000,-5.000000,-2.000000
1303327.251771,-1.000000,-2.000000,-1.000000,1.000000,3.000000,1.000000,1.000000,-3.000000
1303327.259831,-4.000000,3.000000,7.000000,-4.000000,-9.000000,-2.000000,1.000000,-3.000000
1303327.259842,3.000000,-1.000000,-16.000000,-3.000000,-5.000000,-4.000000,-2.000000,-4.000000
1303327.260754,-4.000000,-4.000000,-6.000000,-8.000000,3.000000,1.000000,1.000000,1.000000
1303327.260763,-3.000000,-5.000000,3.000000,9.000000,0.000000,1.000000,-3.000000,-3.000000
1303327.275200,-1.000000,3.000000,1.000000,-1.000000,-3.000000,1.000000,1.000000,-2.000000
1303327.275212,-2.000000,-6.000000,-9.000000,-9.000000,3.000000,1.000000,2.000000,-1.000000
1303327.282153,-4.000000,-8.000000,8.000000,11.000000,1.000000,0.000000,-1.000000,-4.000000
1303327.282165,-1.000000,1.000000,2.000000,-1.000000,3.000000,3.000000,4.000000,-4.000000
1303327.297425,1.000000,8.000000,-7.000000,-9.000000,-6.000000,-2.000000,-3.000000,1.000000
1303327.297441,-1.000000,-5.000000,-2.000000,-4.000000,-1.000000,-1.000000,-3.000000,-3.000000
1303327.298055,1.000000,1.000000,-4.000000,-4.000000,-1.000000,3.000000,-3.000000,-1.000000
1303327.298064,-1.000000,-1.000000,0.000000,-1.000000,-3.000000,-2.000000,3.000000,3.000000
1303327.319851,6.000000,-2.000000,8.000000,-7.000000,-3.000000,-7.000000,-5.000000,-2.000000
1303327.319862,-1.000000,5.000000,7.000000,-5.000000,-2.000000,0.000000,-5.000000,-4.000000
1303327.327001,3.000000,11.000000,12.000000,8.000000,3.000000,-1.000000,0.000000,-3.000000
1303327.327013,1.000000,-12.000000,-4.000000,10.000000,2.000000,-3.000000,-3.000000,0.000000
1303327.357130,-3.000000,1.000000,3.000000,-10.000000,-1.000000,-2.000000,0.000000,-1.000000
1303327.357141,1.000000,-2.000000,-16.000000,-2.000000,1.000000,-4.000000,1.000000,2.000000
1303327.364807,1.000000,10.000000,5.000000,-2.000000,-3.000000,0.000000,-1.000000,-5.000000
1303327.364818,1.000000,-6.000000,-2.000000,-4.000000,-1.000000,0.000000,-3.000000,-2.000000
1303327.379789,-4.000000,-3.000000,-7.000000,-3.000000,-5.000000,-3.000000,-5.000000,-2.000000
1303327.379809,-3.000000,5.000000,-5.000000,-5.000000,-3.000000,-2.000000,1.000000,-2.000000
1303327.394343,-4.000000,-9.000000,1.000000,-17.000000,0.000000,2.000000,-2.000000,-1.000000
1303327.394379,-2.000000,8.000000,-6.000000,39.000000,0.000000,2.000000,-3.000000,-2.000000
1303327.395422,2.000000,-3.000000,1.000000,-15.000000,-1.000000,-3.000000,-1.000000,-2.000000
1303327.395430,-3.000000,0.000000,1.000000,-3.000000,0.000000,1.000000,0.000000,0.000000
1303327.396168,-2.000000,1.000000,4.000000,-5.000000,0.000000,4.000000,0.000000,-1.000000
1303327.396177,-5.000000,0.000000,3.000000,6.000000,-4.000000,-1.000000,-4.000000,-2.000000
1303327.397621,0.000000,-1.000000,-3.000000,1.000000,0.000000,-4.000000,1.000000,0.000000
1303327.397651,-1.000000,-6.000000,-3.000000,-5.000000,-3.000000,-3.000000,4.000000,-1.000000
1303327.417076,0.000000,10.000000,8.000000,1.000000,-3.000000,-2.000000,-2.000000,0.000000
1303327.417088,-3.000000,4.000000,-15.000000,-11.000000,-7.000000,2.000000,-1.000000,0.000000
1303327.418278,5.000000,-6.000000,12.000000,1.000000,-2.000000,-1.000000,-4.000000,0.000000
1303327.418288,1.000000,1.000000,-15.000000,-5.000000,9.000000,1.000000,-2.000000,-2.000000
1303327.432077,-6.000000,13.000000,0.000000,-10.000000,-4.000000,-5.000000,1.000000,-1.000000
1303327.432099,4.000000,-7.000000,1.000000,1.000000,-3.000000,-4.000000,-4.000000,0.000000
1303327.454760,1.000000,5.000000,1.000000,4.000000,7.000000,0.000000,-1.000000,2.000000
1303327.454771,-1.000000,10.000000,11.000000,-4.000000,-4.000000,-4.000000,0.000000,1.000000
1303327.476946,-2.000000,-12.000000,1.000000,-7.000000,-1.000000,-6.000000,2.000000,-2.000000
1303327.476975,-9.000000,-7.000000,-11.000000,0.000000,-1.000000,-3.000000,-1.000000,-1.000000
1303327.491852,-5.000000,3.000000,0.000000,-5.000000,-5.000000,1.000000,0.000000,0.000000
1303327.491862,4.000000,-1.000000,-2.000000,12.000000,2.000000,1.000000,2.000000,0.000000
1303327.499501,-1.000000,2.000000,-2.000000,-5.000000,2.000000,-1.000000,-1.000000,-1.000000
1303327.499512,-2.000000,-1.000000,0.000000,-3.000000,-1.000000,-1.000000,-4.000000,-2.000000
1303327.514951,4.000000,7.000000,-10.000000,-10.000000,-4.000000,2.000000,7.000000,3.000000
1303327.514967,0.000000,-1.000000,3.000000,8.000000,-1.000000,-4.000000,1.000000,-3.000000
1303327.515685,-4.000000,-2.000000,-4.000000,-4.000000,3.000000,13.000000,0.000000,-3.000000
1303327.515702,0.000000,3.000000,2.000000,-5.000000,1.000000,3.000000,-4.000000,-2.000000
1303327.516138,-2.000000,1.000000,-3.000000,3.000000,-7.000000,-4.000000,-2.000000,-2.000000
1303327.516152,2.000000,-8.000000,4.000000,4.000000,-1.000000,0.000000,-1.000000,-2.000000
1303327.516763,-1.000000,-2.000000,2.000000,5.000000,-4.000000,-3.000000,0.000000,-1.000000
1303327.516773,-5.000000,2.000000,-7.000000,-4.000000,-2.000000,-1.000000,-1.000000,0.000000
1303327.518306,-2.000000,11.000000,-7.000000,0.000000,4.000000,2.000000,1.000000,-2.000000
1303327.518322,-3.000000,-5.000000,5.000000,-2.000000,-1.000000,1.000000,-5.000000,2.000000
1303327.522072,2.000000,-3.000000,-14.000000,-6.000000,-1.000000,-1.000000,2.000000,1.000000
1303327.522098,-5.000000,-9.000000,6.000000,-3.000000,0.000000,1.000000,0.000000,-4.000000
1303327.536873,4.000000,-8.000000,20.000000,26.000000,2.000000,5.000000,-1.000000,-1.000000
1303327.536902,-2.000000,-3.000000,-1.000000,-7.000000,-3.000000,-4.000000,0.000000,0.000000
1303327.552309,1.000000,-7.000000,-4.000000,1.000000,-2.000000,1.000000,3.000000,-2.000000
1303327.552322,-4.000000,-7.000000,3.000000,-2.000000,-5.000000,-3.000000,-2.000000,-2.000000
1303327.589840,-1.000000,2.000000,-2.000000,-8.000000,0.000000,-2.000000,-1.000000,-1.000000
1303327.589853,0.000000,2.000000,-8.000000,5.000000,2.000000,1.000000,0.000000,1.000000
1303327.597382,0.000000,0.000000,2.000000,18.000000,1.000000,3.000000,1.000000,0.000000
1303327.597395,-3.000000,10.000000,5.000000,-9.000000,-5.000000,1.000000,-4.000000,1.000000
1303327.612083,-2.000000,6.000000,-10.000000,-5.000000,-5.000000,-1.000000,-3.000000,-1.000000
1303327.612093,0.000000,-5.000000,3.000000,-4.000000,-2.000000,-1.000000,-3.000000,0.000000
1303327.634728,-4.000000,-7.000000,-1.000000,-2.000000,4.000000,-2.000000,-3.000000,-1.000000
1303327.634942,-3.000000,-2.000000,-6.000000,2.000000,-1.000000,0.000000,-2.000000,-4.000000
1303327.635627,0.000000,6.000000,7.000000,-2.000000,-3.000000,1.000000,-2.000000,0.000000
1303327.635638,0.000000,-7.000000,-8.000000,-8.000000,2.000000,-3.000000,-4.000000,-2.000000
1303327.636121,-2.000000,4.000000,-1.000000,-5.000000,2.000000,-2.000000,-1.000000,-1.000000
1303327.636130,3.000000,-11.000000,-1.000000,-4.000000,-6.000000,-4.000000,2.000000,1.000000
1303327.636749,1.000000,2.000000,0.000000,4.000000,0.000000,1.000000,-2.000000,2.000000
1303327.636759,0.000000,-8.000000,2.000000,2.000000,-1.000000,-1.000000,-3.000000,-2.000000
1303327.637428,-1.000000,8.000000,-7.000000,-11.000000,-6.000000,-3.000000,1.000000,-1.000000
1303327.637438,-2.000000,-2.000000,-3.000000,-3.000000,-5.000000,-7.000000,-6.000000,-5.000000
1303327.649498,-3.000000,2.000000,-3.000000,-3.000000,-3.000000,-1.000000,3.000000,-4.000000
1303327.649510,-1.000000,-7.000000,-1.000000,-1.000000,1.000000,2.000000,-4.000000,-1.000000
1303327.650919,4.000000,15.000000,-1.000000,-3.000000,-3.000000,-1.000000,1.000000,-3.000000
1303327.650937,-1.000000,3.000000,-2.000000,-4.000000,2.000000,-4.000000,2.000000,2.000000
1303327.672011,2.000000,-4.000000,-6.000000,13.000000,4.000000,0.000000,2.000000,-1.000000
1303327.672047,-3.000000,1.000000,2.000000,-6.000000,1.000000,1.000000,-3.000000,2.000000
1303327.694411,-2.000000,3.000000,-11.000000,-3.000000,-9.000000,-8.000000,-4.000000,-2.000000
1303327.694440,6.000000,-1.000000,16.000000,-3.000000,2.000000,2.000000,2.000000,2.000000
1303327.709497,4.000000,14.000000,26.000000,25.000000,6.000000,2.000000,-1.000000,-3.000000
1303327.709517,3.000000,-10.000000,1.000000,-13.000000,-6.000000,2.000000,-6.000000,-4.000000
1303327.732052,-10.000000,10.000000,-12.000000,-12.000000,-3.000000,-4.000000,-3.000000,-4.000000
1303327.732062,-1.000000,-15.000000,5.000000,18.000000,6.000000,3.000000,-3.000000,3.000000
1303327.754736,0.000000,11.000000,-2.000000,-8.000000,-1.000000,2.000000,-3.000000,1.000000
1303327.754760,-4.000000,0.000000,-2.000000,-15.000000,-2.000000,-6.000000,0.000000,-2.000000
1303327.769815,1.000000,-5.000000,-2.000000,22.000000,2.000000,2.000000,-1.000000,1.000000
1303327.769824,-2.000000,-12.000000,-1.000000,-10.000000,0.000000,-6.000000,-6.000000,-3.000000
1303327.770506,3.000000,17.000000,7.000000,-5.000000,-9.000000,-1.000000,-3.000000,-3.000000
1303327.770514,4.000000,2.000000,1.000000,1.000000,-3.000000,0.000000,2.000000,-1.000000
1303327.771738,-2.000000,-9.000000,4.000000,0.000000,4.000000,2.000000,-3.000000,-2.000000
1303327.771745,1.000000,2.000000,1.000000,-4.000000,4.000000,3.000000,3.000000,0.000000
1303327.792058,-4.000000,-18.000000,-7.000000,-9.000000,-3.000000,3.000000,1.000000,2.000000
1303327.792069,7.000000,27.000000,15.000000,-7.000000,-4.000000,2.000000,1.000000,-1.000000
1303327.806835,-3.000000,-7.000000,-2.000000,15.000000,3.000000,-1.000000,1.000000,0.000000
1303327.806908,3.000000,-6.000000,8.000000,2.000000,8.000000,2.000000,0.000000,1.000000
1303327.814321,0.000000,5.000000,-3.000000,-4.000000,-5.000000,-3.000000,-2.000000,-1.000000
1303327.814353,2.000000,1.000000,6.000000,-8.000000,2.000000,-2.000000,-1.000000,-1.000000
1303327.844349,-1.000000,-2.000000,-15.000000,-1.000000,2.000000,-1.000000,-1.000000,0.000000
1303327.844369,-4.000000,-2.000000,-4.000000,-5.000000,3.000000,-1.000000,-4.000000,-1.000000
1303327.852103,3.000000,6.000000,5.000000,4.000000,-3.000000,-2.000000,1.000000,1.000000
1303327.852126,-2.000000,-5.000000,-5.000000,-5.000000,-4.000000,-6.000000,-2.000000,-1.000000
1303327.867375,2.000000,-2.000000,2.000000,2.000000,0.000000,1.000000,0.000000,-2.000000
1303327.867386,2.000000,1.000000,-4.000000,-2.000000,0.000000,3.000000,-1.000000,1.000000
1303327.867953,-1.000000,1.000000,8.000000,-1.000000,0.000000,-6.000000,3.000000,1.000000
1303327.867961,-1.000000,-17.000000,11.000000,0.000000,-3.000000,-1.000000,-4.000000,2.000000
1303327.869584,2.000000,3.000000,-3.000000,12.000000,10.000000,2.000000,0.000000,-1.000000
1303327.869595,-6.000000,4.000000,-1.000000,0.000000,-1.000000,0.000000,-1.000000,-1.000000
1303327.870216,-2.000000,0.000000,-4.000000,-11.000000,-8.000000,-1.000000,-3.000000,1.000000
1303327.870227,1.000000,9.000000,-4.000000,-4.000000,3.000000,0.000000,-3.000000,-1.000000
1303327.874826,2.000000,4.000000,-5.000000,-12.000000,-1.000000,-4.000000,-1.000000,-2.000000
1303327.874837,-4.000000,-1.000000,1.000000,9.000000,2.000000,0.000000,-2.000000,0.000000
1303327.889483,-1.000000,-16.000000,11.000000,-6.000000,4.000000,1.000000,1.000000,-2.000000
1303327.889493,1.000000,23.000000,-3.000000,9.000000,-2.000000,0.000000,-1.000000,-3.000000
1303327.890685,1.000000,-11.000000,4.000000,1.000000,1.000000,1.000000,-1.000000,1.000000
1303327.890694,-5.000000,-5.000000,-3.000000,-8.000000,-1.000000,1.000000,0.000000,-1.000000
1303327.927147,2.000000,7.000000,3.000000,7.000000,-8.000000,-4.000000,-1.000000,-2.000000
1303327.927159,1.000000,5.000000,-13.000000,-15.000000,3.000000,-4.000000,2.000000,-1.000000
1303327.950126,-3.000000,-10.000000,11.000000,22.000000,4.000000,-2.000000,0.000000,-5.000000
1303327.950151,1.000000,3.000000,-14.000000,-1.000000,2.000000,-2.000000,-3.000000,-1.000000
1303327.972057,1.000000,1.000000,6.000000,3.000000,-6.000000,-6.000000,-3.000000,-3.000000
1303327.972069,-2.000000,-8.000000,-1.000000,4.000000,-3.000000,-2.000000,1.000000,-2.000000
1303327.973033,-2.000000,1.000000,3.000000,0.000000,1.000000,0.000000,-3.000000,0.000000
1303327.973046,-4.000000,-7.000000,-7.000000,0.000000,8.000000,4.000000,1.000000,-1.000000
1303327.973533,-1.000000,0.000000,-3.000000,6.000000,8.000000,-3.000000,1.000000,-1.000000
1303327.973541,-3.000000,2.000000,10.000000,1.000000,-7.000000,-1.000000,-5.000000,0.000000
1303327.974973,-4.000000,-8.000000,-6.000000,-9.000000,4.000000,0.000000,1.000000,-1.000000
1303327.974989,-3.000000,-16.000000,-10.000000,-18.000000,-4.000000,-5.000000,0.000000,-1.000000
1303327.975927,2.000000,3.000000,5.000000,25.000000,1.000000,-1.000000,-2.000000,-1.000000
1303327.975937,0.000000,-5.000000,6.000000,-13.000000,-5.000000,0.000000,1.000000,3.000000
1303327.986858,-3.000000,-10.000000,2.000000,2.000000,-3.000000,1.000000,-3.000000,-2.000000
1303327.986869,-1.000000,-1.000000,-1.000000,-7.000000,-6.000000,-3.000000,-3.000000,-2.000000
1303327.994289,-1.000000,-3.000000,3.000000,-6.000000,-3.000000,-3.000000,-4.000000,0.000000
1303327.994299,-8.000000,-5.000000,-1.000000,-2.000000,5.000000,-2.000000,-2.000000,-2.000000
1303328.009359,-2.000000,-2.000000,0.000000,25.000000,-1.000000,-1.000000,1.000000,-2.000000
1303328.009371,3.000000,2.000000,5.000000,4.000000,-1.000000,-5.000000,1.000000,2.000000
1303328.010722,-5.000000,-6.000000,-10.000000,-19.000000,-1.000000,4.000000,-3.000000,-3.000000
1303328.010730,-7.000000,4.000000,0.000000,24.000000,-1.000000,-6.000000,-1.000000,-4.000000
1303328.032443,1.000000,0.000000,-12.000000,-23.000000,-9.000000,-4.000000,2.000000,1.000000
1303328.032485,-1.000000,5.000000,-4.000000,26.000000,13.000000,6.000000,4.000000,1.000000
1303328.054827,1.000000,-9.000000,12.000000,0.000000,-1.000000,-4.000000,-5.000000,0.000000
1303328.054840,-3.000000,8.000000,-10.000000,-9.000000,-1.000000,-3.000000,-4.000000,0.000000
1303328.069562,-4.000000,-7.000000,1.000000,-3.000000,3.000000,1.000000,0.000000,-2.000000
1303328.069574,-5.000000,4.000000,3.000000,-1.000000,-1.000000,2.000000,0.000000,0.000000
1303328.107014,-2.000000,-1.000000,-10.000000,-14.000000,-1.000000,-1.000000,-3.000000,-4.000000
1303328.107026,0.000000,1.000000,1.000000,9.000000,1.000000,-3.000000,2.000000,0.000000
1303328.107516,-1.000000,-5.000000,-4.000000,2.000000,-1.000000,-2.000000,0.000000,-3.000000
1303328.107524,-1.000000,0.000000,-8.000000,0.000000,-3.000000,2.000000,0.000000,0.000000
1303328.108526,0.000000,-6.000000,-4.000000,-4.000000,-1.000000,-1.000000,0.000000,1.000000
1303328.108534,1.000000,-8.000000,1.000000,3.000000,-1.000000,-3.000000,-3.000000,-2.000000
1303328.109144,0.000000,1.000000,1.000000,2.000000,-1.000000,1.000000,0.000000,0.000000
1303328.109152,-5.000000,2.000000,-4.000000,0.000000,1.000000,-2.000000,0.000000,-1.000000
1303328.114559,-9.000000,-9.000000,3.000000,-3.000000,1.000000,3.000000,0.000000,-3.000000
1303328.114573,-2.000000,1.000000,16.000000,16.000000,0.000000,2.000000,0.000000,-2.000000
1303328.129441,5.000000,22.000000,-14.000000,-7.000000,-4.000000,-1.000000,-1.000000,-3.000000
1303328.129453,1.000000,-4.000000,0.000000,4.000000,-2.000000,-7.000000,-2.000000,2.000000
1303328.130821,-1.000000,-9.000000,-10.000000,-8.000000,-3.000000,-3.000000,-4.000000,0.000000
1303328.130830,-9.000000,6.000000,-5.000000,3.000000,-3.000000,0.000000,0.000000,-3.000000
1303328.144752,-1.000000,2.000000,4.000000,-3.000000,0.000000,-3.000000,0.000000,-1.000000
1303328.144762,1.000000,-6.000000,6.000000,4.000000,4.000000,1.000000,-2.000000,0.000000
1303328.167052,-4.000000,-1.000000,-6.000000,-2.000000,3.000000,-3.000000,-3.000000,-2.000000
1303328.167067,4.000000,-5.000000,1.000000,-4.000000,-6.000000,-6.000000,0.000000,0.000000
1303328.189868,-2.000000,-5.000000,-4.000000,0.000000,2.000000,2.000000,-1.000000,-1.000000
1303328.189882,0.000000,-4.000000,1.000000,0.000000,-1.000000,1.000000,0.000000,-2.000000
1303328.204851,0.000000,5.000000,-4.000000,-1.000000,-5.000000,0.000000,-1.000000,0.000000
1303328.204863,-4.000000,-3.000000,4.000000,-2.000000,-8.000000,-1.000000,-1.000000,2.000000
1303328.212001,-1.000000,-15.000000,0.000000,17.000000,-1.000000,3.000000,1.000000,0.000000
1303328.212013,-1.000000,9.000000,2.000000,-2.000000,2.000000,-3.000000,-4.000000,-2.000000
1303328.249674,-4.000000,-5.000000,-3.000000,-1.000000,5.000000,2.000000,-1.000000,1.000000
1303328.249685,-4.000000,2.000000,-1.000000,1.000000,2.000000,-3.000000,-4.000000,0.000000
1303328.250025,-6.000000,6.000000,-4.000000,-9.000000,-5.000000,0.000000,0.000000,-2.000000
1303328.250034,3.000000,3.000000,3.000000,27.000000,8.000000,1.000000,2.000000,0.000000
1303328.256985,-2.000000,-3.000000,-1.000000,-12.000000,-3.000000,-3.000000,-2.000000,-3.000000
1303328.256996,1.000000,-5.000000,0.000000,-1.000000,3.000000,-4.000000,-4.000000,0.000000
1303328.264484,1.000000,9.000000,-15.000000,-10.000000,-7.000000,0.000000,2.000000,-1.000000
1303328.264496,-6.000000,-2.000000,5.000000,-2.000000,-2.000000,-1.000000,1.000000,-4.000000
1303328.287437,2.000000,-3.000000,3.000000,3.000000,1.000000,-4.000000,-1.000000,-3.000000
1303328.287457,-1.000000,-7.000000,-5.000000,4.000000,-4.000000,1.000000,-2.000000,-1.000000
1303328.309621,-1.000000,-5.000000,9.000000,-9.000000,-5.000000,3.000000,0.000000,-3.000000
1303328.309643,-2.000000,-7.000000,-16.000000,6.000000,-8.000000,0.000000,-3.000000,-1.000000
1303328.332041,0.000000,-7.000000,2.000000,-15.000000,-6.000000,-3.000000,1.000000,0.000000
1303328.332052,4.000000,23.000000,-1.000000,-3.000000,-2.000000,-5.000000,-1.000000,0.000000
1303328.347030,-1.000000,-1.000000,-2.000000,-2.000000,-5.000000,-3.000000,-3.000000,-3.000000
1303328.347040,1.000000,11.000000,-3.000000,-1.000000,-3.000000,0.000000,1.000000,0.000000
1303328.361616,-3.000000,1.000000,-5.000000,-4.000000,5.000000,-1.000000,1.000000,0.000000
1303328.361626,-4.000000,-8.000000,9.000000,2.000000,-2.000000,3.000000,0.000000,1.000000
1303328.369467,-5.000000,0.000000,-11.000000,-15.000000,-4.000000,2.000000,0.000000,3.000000
1303328.369495,5.000000,-3.000000,16.000000,21.000000,2.000000,-3.000000,4.000000,1.000000
1303328.384625,0.000000,0.000000,2.000000,-7.000000,-2.000000,0.000000,2.000000,-4.000000
1303328.384636,3.000000,-4.000000,5.000000,-3.000000,1.000000,2.000000,1.000000,0.000000
1303328.392100,0.000000,-2.000000,-8.000000,2.000000,-5.000000,-1.000000,-1.000000,-1.000000
1303328.392111,-2.000000,-9.000000,1.000000,-6.000000,1.000000,3.000000,-1.000000,0.000000
1303328.406990,-3.000000,-25.000000,5.000000,-3.000000,0.000000,1.000000,-4.000000,-2.000000
1303328.407007,-1.000000,19.000000,3.000000,0.000000,-5.000000,-2.000000,-4.000000,-1.000000
1303328.429658,0.000000,1.000000,-4.000000,-9.000000,-4.000000,-1.000000,0.000000,-1.000000
1303328.429669,-3.000000,-5.000000,-5.000000,1.000000,1.000000,0.000000,-1.000000,0.000000
1303328.437028,-2.000000,1.000000,4.000000,0.000000,1.000000,-1.000000,-2.000000,-1.000000
1303328.437040,1.000000,2.000000,-5.000000,2.000000,-7.000000,1.000000,2.000000,1.000000
1303328.444382,-5.000000,0.000000,6.000000,24.000000,-5.000000,2.000000,-1.000000,-1.000000
1303328.444394,2.000000,-5.000000,-6.000000,-12.000000,-2.000000,0.000000,2.000000,-2.000000
1303328.445631,-1.000000,-2.000000,0.000000,-2.000000,1.000000,-2.000000,-1.000000,-1.000000
1303328.445657,-2.000000,-9.000000,-1.000000,-12.000000,-4.000000,-1.000000,-2.000000,2.000000
1303328.447490,1.000000,-2.000000,5.000000,15.000000,3.000000,4.000000,2.000000,1.000000
1303328.447527,-1.000000,6.000000,8.000000,1.000000,-8.000000,-2.000000,-1.000000,0.000000
1303328.448300,1.000000,6.000000,-1.000000,-3.000000,1.000000,1.000000,-2.000000,-1.000000
1303328.448329,0.000000,-2.000000,-8.000000,-1.000000,1.000000,0.000000,-3.000000,-1.000000
1303328.448803,3.000000,-3.000000,-2.000000,-3.000000,1.000000,-1.000000,-1.000000,-2.000000
1303328.449080,-1.000000,3.000000,6.000000,-1.000000,0.000000,5.000000,-3.000000,-4.000000
1303328.468220,-5.000000,-2.000000,1.000000,4.000000,0.000000,0.000000,0.000000,-1.000000
1303328.468243,-7.000000,1.000000,-22.000000,-4.000000,3.000000,-2.000000,-3.000000,-3.000000
1303328.468750,1.000000,-10.000000,13.000000,-2.000000,-4.000000,0.000000,-5.000000,0.000000
1303328.468971,0.000000,1.000000,-8.000000,-1.000000,4.000000,-5.000000,-5.000000,2.000000
1303328.482716,2.000000,8.000000,4.000000,10.000000,0.000000,-6.000000,-1.000000,0.000000
1303328.482744,2.000000,-8.000000,-1.000000,-5.000000,2.000000,-2.000000,2.000000,0.000000
1303328.483346,1.000000,6.000000,2.000000,-3.000000,-2.000000,0.000000,-2.000000,-2.000000
1303328.483367,-2.000000,-1.000000,-6.000000,-4.000000,-4.000000,-2.000000,3.000000,1.000000
1303328.512109,1.000000,1.000000,-1.000000,-1.000000,-4.000000,-1.000000,-2.000000,0.000000
1303328.512123,-1.000000,-8.000000,1.000000,-3.000000,4.000000,2.000000,-3.000000,-4.000000
1303328.519792,0.000000,17.000000,1.000000,1.000000,1.000000,-1.000000,1.000000,0.000000
1303328.519837,0.000000,2.000000,-4.000000,0.000000,4.000000,-3.000000,-1.000000,-1.000000
1303328.534926,-3.000000,-11.000000,1.000000,-5.000000,-1.000000,1.000000,-2.000000,-1.000000
1303328.534940,-1.000000,-5.000000,-10.000000,6.000000,-2.000000,1.000000,-1.000000,2.000000
1303328.542117,-1.000000,5.000000,-8.000000,-10.000000,-7.000000,-1.000000,0.000000,-1.000000
1303328.542156,0.000000,-9.000000,0.000000,1.000000,-1.000000,-4.000000,-1.000000,0.000000
1303328.549970,0.000000,9.000000,1.000000,-7.000000,3.000000,2.000000,-2.000000,-1.000000
1303328.549988,-7.000000,7.000000,0.000000,9.000000,-3.000000,-1.000000,-1.000000,-3.000000
1303328.550573,-9.000000,-6.000000,-16.000000,6.000000,3.000000,0.000000,-1.000000,-2.000000
1303328.550600,-3.000000,-11.000000,7.000000,4.000000,1.000000,3.000000,-1.000000,-1.000000
1303328.556992,-2.000000,0.000000,-4.000000,-6.000000,-4.000000,-1.000000,-1.000000,1.000000
1303328.557002,0.000000,1.000000,4.000000,0.000000,1.000000,-3.000000,-1.000000,-3.000000
1303328.564567,2.000000,-11.000000,4.000000,7.000000,4.000000,3.000000,3.000000,1.000000
1303328.564591,-2.000000,-6.000000,-5.000000,-2.000000,-2.000000,2.000000,0.000000,1.000000
1303328.587033,9.000000,29.000000,11.000000,6.000000,4.000000,1.000000,5.000000,5.000000
1303328.587061,-2.000000,-17.000000,-15.000000,-2.000000,-1.000000,0.000000,-4.000000,-3.000000
1303328.587493,3.000000,-10.000000,7.000000,-7.000000,-5.000000,-4.000000,-2.000000,0.000000
1303328.587520,-3.000000,-2.000000,-20.000000,5.000000,0.000000,-5.000000,2.000000,1.000000
1303328.594439,-1.000000,-8.000000,-11.000000,-10.000000,-3.000000,-3.000000,-3.000000,-1.000000
1303328.594455,-1.000000,-1.000000,8.000000,22.000000,2.000000,0.000000,-4.000000,1.000000
1303328.601971,2.000000,4.000000,-3.000000,-7.000000,-5.000000,-3.000000,-2.000000,-5.000000
1303328.601982,-2.000000,-2.000000,-6.000000,-20.000000,-1.000000,-1.000000,-1.000000,1.000000
1303328.624466,-1.000000,-1.000000,-2.000000,24.000000,5.000000,2.000000,-1.000000,-3.000000
1303328.624477,-1.000000,0.000000,-1.000000,-3.000000,2.000000,-2.000000,-2.000000,0.000000
1303328.647539,-1.000000,-3.000000,-5.000000,-11.000000,-5.000000,-1.000000,1.000000,-3.000000
1303328.647551,-1.000000,0.000000,0.000000,5.000000,3.000000,-1.000000,0.000000,-1.000000
1303328.669395,-3.000000,4.000000,1.000000,-6.000000,-4.000000,-6.000000,-1.000000,0.000000
1303328.669405,-7.000000,-1.000000,-9.000000,-7.000000,-4.000000,-3.000000,-2.000000,-2.000000
1303328.669896,-5.000000,2.000000,-2.000000,16.000000,1.000000,0.000000,-4.000000,-5.000000
1303328.669923,-2.000000,-5.000000,-2.000000,-2.000000,-6.000000,2.000000,-3.000000,-1.000000
1303328.671085,-4.000000,8.000000,-2.000000,8.000000,1.000000,1.000000,0.000000,0.000000
1303328.671094,2.000000,2.000000,1.000000,-5.000000,-4.000000,-3.000000,-3.000000,0.000000
1303328.672087,-4.000000,-15.000000,7.000000,0.000000,-3.000000,1.000000,0.000000,1.000000
1303328.672115,-1.000000,0.000000,-15.000000,-9.000000,5.000000,-2.000000,-2.000000,0.000000
1303328.684632,7.000000,-3.000000,1.000000,-5.000000,-6.000000,-4.000000,-4.000000,1.000000
1303328.684660,-5.000000,-6.000000,-3.000000,-5.000000,-1.000000,0.000000,-1.000000,-4.000000
1303328.685073,-4.000000,3.000000,-2.000000,-9.000000,-3.000000,1.000000,1.000000,2.000000
1303328.685110,-2.000000,7.000000,-9.000000,-8.000000,-1.000000,-2.000000,1.000000,-1.000000
1303328.699437,-5.000000,-1.000000,-3.000000,-7.000000,2.000000,-6.000000,-4.000000,-3.000000
1303328.699448,0.000000,2.000000,5.000000,32.000000,15.000000,4.000000,-2.000000,-2.000000
1303328.707246,-1.000000,4.000000,-7.000000,-10.000000,-6.000000,-2.000000,-1.000000,1.000000
1303328.707258,0.000000,1.000000,3.000000,1.000000,4.000000,0.000000,0.000000,-1.000000
1303328.714606,-3.000000,0.000000,2.000000,0.000000,0.000000,-4.000000,-3.000000,-1.000000
1303328.714618,-7.000000,-11.000000,1.000000,-11.000000,1.000000,-2.000000,-4.000000,-4.000000
1303328.722272,-4.000000,-1.000000,-4.000000,19.000000,7.000000,0.000000,4.000000,0.000000
1303328.722287,0.000000,4.000000,1.000000,5.000000,1.000000,-2.000000,-1.000000,-4.000000
1303328.744361,3.000000,2.000000,1.000000,-12.000000,-2.000000,-2.000000,1.000000,0.000000
1303328.744380,-2.000000,9.000000,-6.000000,-7.000000,-3.000000,-4.000000,1.000000,0.000000
1303328.752162,4.000000,-6.000000,-1.000000,-3.000000,-2.000000,0.000000,1.000000,1.000000
1303328.752173,-1.000000,5.000000,-5.000000,0.000000,-10.000000,-6.000000,-7.000000,1.000000
1303328.767201,2.000000,11.000000,1.000000,-2.000000,0.000000,-1.000000,-1.000000,-3.000000
1303328.767213,-4.000000,-16.000000,1.000000,-5.000000,3.000000,-1.000000,2.000000,0.000000
1303328.782061,-2.000000,-12.000000,-2.000000,18.000000,3.000000,2.000000,-2.000000,-2.000000
1303328.782071,6.000000,5.000000,7.000000,4.000000,-1.000000,0.000000,3.000000,1.000000
1303328.819418,0.000000,-5.000000,-14.000000,-3.000000,-3.000000,0.000000,1.000000,2.000000
1303328.819430,0.000000,-11.000000,6.000000,-12.000000,-5.000000,-1.000000,-4.000000,-1.000000
1303328.820450,-5.000000,6.000000,9.000000,12.000000,0.000000,-4.000000,0.000000,-2.000000
1303328.820460,-3.000000,-3.000000,-32.000000,-15.000000,-4.000000,-4.000000,-2.000000,-3.000000
1303328.821178,-3.000000,-4.000000,-2.000000,1.000000,-3.000000,-1.000000,1.000000,-1.000000
1303328.821193,-1.000000,2.000000,4.000000,-2.000000,-4.000000,0.000000,-2.000000,-2.000000
1303328.822809,-3.000000,11.000000,-3.000000,0.000000,-3.000000,-1.000000,-1.000000,-2.000000
1303328.822821,-8.000000,-9.000000,-11.000000,0.000000,-1.000000,1.000000,0.000000,-4.000000
1303328.827749,4.000000,0.000000,7.000000,-1.000000,-2.000000,-3.000000,-2.000000,-1.000000
1303328.827790,-2.000000,-6.000000,-6.000000,-6.000000,-3.000000,2.000000,1.000000,-1.000000
1303328.834317,-6.000000,-9.000000,-5.000000,-5.000000,0.000000,0.000000,-2.000000,1.000000
1303328.834334,-3.000000,1.000000,-13.000000,5.000000,-3.000000,-5.000000,-1.000000,1.000000
1303328.872102,0.000000,-5.000000,3.000000,2.000000,2.000000,2.000000,4.000000,-3.000000
1303328.872112,1.000000,0.000000,-3.000000,-4.000000,-2.000000,-5.000000,0.000000,-1.000000
1303328.879485,-1.000000,12.000000,-1.000000,-5.000000,-3.000000,5.000000,3.000000,0.000000
1303328.879515,-1.000000,-21.000000,-5.000000,-4.000000,4.000000,0.000000,-1.000000,0.000000
1303328.902184,0.000000,28.000000,20.000000,11.000000,-1.000000,-8.000000,-7.000000,-2.000000
1303328.902195,-7.000000,9.000000,-10.000000,-7.000000,-8.000000,2.000000,-1.000000,-1.000000
1303328.909608,1.000000,-9.000000,3.000000,12.000000,6.000000,-3.000000,1.000000,-2.000000
1303328.909620,4.000000,-9.000000,6.000000,-13.000000,0.000000,1.000000,-1.000000,0.000000
1303328.924957,2.000000,2.000000,-2.000000,1.000000,0.000000,-4.000000,-2.000000,-3.000000
1303328.924974,-4.000000,-8.000000,-5.000000,-8.000000,-4.000000,-4.000000,-3.000000,-3.000000
1303328.925701,3.000000,-1.000000,-2.000000,1.000000,-3.000000,2.000000,0.000000,1.000000
1303328.925710,0.000000,-3.000000,-4.000000,-3.000000,-4.000000,2.000000,-1.000000,0.000000
1303328.926787,1.000000,2.000000,-10.000000,-1.000000,0.000000,-1.000000,-3.000000,0.000000
1303328.926795,-4.000000,-11.000000,-11.000000,2.000000,3.000000,-3.000000,0.000000,0.000000
1303328.927431,-1.000000,9.000000,16.000000,9.000000,0.000000,1.000000,-1.000000,-1.000000
1303328.927440,-3.000000,-9.000000,-5.000000,-3.000000,-1.000000,2.000000,1.000000,-3.000000
1303328.939754,1.000000,-4.000000,-5.000000,-6.000000,0.000000,0.000000,0.000000,-1.000000
1303328.939764,-7.000000,0.000000,-14.000000,-7.000000,-1.000000,-3.000000,-2.000000,-4.000000
1303328.947768,1.000000,5.000000,9.000000,-5.000000,1.000000,0.000000,-1.000000,2.000000
1303328.947778,-2.000000,-9.000000,3.000000,6.000000,10.000000,-2.000000,-1.000000,-1.000000
1303328.976934,0.000000,0.000000,-4.000000,-6.000000,-5.000000,1.000000,-3.000000,0.000000
1303328.976944,4.000000,-10.000000,12.000000,35.000000,9.000000,4.000000,3.000000,2.000000
1303328.999834,0.000000,2.000000,-9.000000,-13.000000,2.000000,0.000000,1.000000,1.000000
1303328.999846,-1.000000,6.000000,5.000000,2.000000,4.000000,5.000000,0.000000,0.000000
1303329.037100,2.000000,-6.000000,-1.000000,2.000000,0.000000,-8.000000,-1.000000,-1.000000
1303329.037112,-5.000000,-16.000000,1.000000,-2.000000,2.000000,-3.000000,-2.000000,-1.000000
1303329.059507,0.000000,-1.000000,-7.000000,-4.000000,-1.000000,-1.000000,-3.000000,0.000000
1303329.059525,-6.000000,-10.000000,-4.000000,-6.000000,-3.000000,-4.000000,-4.000000,0.000000
1303329.074396,1.000000,-10.000000,-3.000000,-6.000000,-2.000000,-1.000000,-2.000000,-2.000000
1303329.074406,-5.000000,1.000000,-1.000000,3.000000,0.000000,1.000000,1.000000,-1.000000
1303329.097264,0.000000,4.000000,-8.000000,-3.000000,0.000000,0.000000,-2.000000,-2.000000
1303329.097277,-4.000000,-5.000000,0.000000,-2.000000,2.000000,1.000000,-2.000000,3.000000
1303329.104532,-3.000000,-2.000000,6.000000,-2.000000,0.000000,-3.000000,-2.000000,1.000000
1303329.104544,-1.000000,-3.000000,-4.000000,2.000000,-5.000000,1.000000,-1.000000,1.000000
1303329.119582,-1.000000,3.000000,4.000000,-4.000000,-10.000000,3.000000,-3.000000,2.000000
1303329.119606,-3.000000,5.000000,-8.000000,-11.000000,0.000000,-1.000000,-3.000000,-4.000000
1303329.157029,0.000000,-3.000000,-7.000000,-4.000000,2.000000,1.000000,2.000000,-1.000000
1303329.157040,-2.000000,-9.000000,13.000000,-2.000000,-3.000000,-2.000000,0.000000,1.000000
1303329.164693,-1.000000,-3.000000,2.000000,-5.000000,-6.000000,-2.000000,-1.000000,-1.000000
1303329.164702,-4.000000,1.000000,-4.000000,6.000000,4.000000,-1.000000,0.000000,0.000000
1303329.165530,-7.000000,0.000000,1.000000,1.000000,-1.000000,-2.000000,-1.000000,-1.000000
1303329.165555,4.000000,-6.000000,2.000000,-1.000000,0.000000,4.000000,1.000000,-1.000000
1303329.166697,-1.000000,10.000000,2.000000,-3.000000,-1.000000,-4.000000,-2.000000,-1.000000
1303329.166725,0.000000,-6.000000,-4.000000,-8.000000,6.000000,-2.000000,4.000000,-1.000000
1303329.167562,1.000000,-3.000000,0.000000,-8.000000,-8.000000,-8.000000,-4.000000,-1.000000
1303329.167589,3.000000,6.000000,-6.000000,5.000000,8.000000,-1.000000,1.000000,-1.000000
1303329.179712,-3.000000,-8.000000,-3.000000,8.000000,1.000000,-1.000000,2.000000,-1.000000
1303329.179722,-1.000000,-5.000000,1.000000,-14.000000,-9.000000,2.000000,-5.000000,-1.000000
1303329.217119,1.000000,12.000000,6.000000,-5.000000,4.000000,-3.000000,-1.000000,-2.000000
1303329.217130,5.000000,15.000000,0.000000,3.000000,-2.000000,-2.000000,-1.000000,0.000000
1303329.224677,-1.000000,0.000000,-1.000000,-3.000000,0.000000,3.000000,3.000000,-5.000000
1303329.224688,-7.000000,-3.000000,-7.000000,-4.000000,-3.000000,-4.000000,-8.000000,-3.000000
1303329.239511,0.000000,10.000000,7.000000,3.000000,-4.000000,0.000000,1.000000,-5.000000
1303329.239523,1.000000,1.000000,-9.000000,-6.000000,2.000000,-5.000000,-1.000000,-1.000000
1303329.254382,-1.000000,2.000000,8.000000,0.000000,-6.000000,-2.000000,2.000000,0.000000
1303329.254393,1.000000,3.000000,2.000000,0.000000,-6.000000,3.000000,-2.000000,-1.000000
1303329.269451,3.000000,-11.000000,-1.000000,-6.000000,3.000000,3.000000,3.000000,6.000000
1303329.269463,-1.000000,-10.000000,3.000000,-5.000000,-4.000000,0.000000,-3.000000,-1.000000
1303329.276919,0.000000,3.000000,1.000000,-3.000000,-2.000000,-1.000000,0.000000,-4.000000
1303329.276931,0.000000,0.000000,-3.000000,-3.000000,0.000000,-6.000000,-2.000000,-3.000000
1303329.277910,-3.000000,-10.000000,-1.000000,0.000000,-4.000000,-3.000000,-1.000000,-3.000000
1303329.277919,1.000000,17.000000,16.000000,-1.000000,4.000000,-1.000000,-2.000000,-1.000000
1303329.278615,3.000000,3.000000,-15.000000,-12.000000,-5.000000,1.000000,1.000000,-1.000000
1303329.278624,-5.000000,-12.000000,-4.000000,-1.000000,2.000000,-5.000000,0.000000,0.000000
1303329.280378,0.000000,9.000000,7.000000,23.000000,0.000000,-3.000000,-1.000000,1.000000
1303329.280388,6.000000,-11.000000,-6.000000,-15.000000,-1.000000,2.000000,0.000000,2.000000
1303329.301524,-6.000000,-3.000000,-2.000000,-4.000000,-3.000000,-3.000000,-4.000000,-2.000000
1303329.301550,2.000000,-9.000000,-1.000000,-9.000000,3.000000,0.000000,3.000000,2.000000
1303329.301825,2.000000,-6.000000,2.000000,-1.000000,2.000000,0.000000,-1.000000,1.000000
1303329.301883,-3.000000,11.000000,-8.000000,1.000000,-2.000000,-4.000000,-2.000000,3.000000
1303329.314836,-2.000000,-5.000000,-8.000000,-9.000000,-4.000000,-2.000000,0.000000,2.000000
1303329.314857,0.000000,-7.000000,-6.000000,2.000000,0.000000,1.000000,1.000000,1.000000
1303329.322335,-7.000000,-1.000000,-1.000000,-1.000000,-5.000000,2.000000,-3.000000,-3.000000
1303329.322359,3.000000,1.000000,-7.000000,0.000000,-4.000000,1.000000,-2.000000,1.000000
1303329.345010,2.000000,-3.000000,-2.000000,-2.000000,-2.000000,-2.000000,-2.000000,0.000000
1303329.345031,-2.000000,-12.000000,3.000000,-4.000000,1.000000,5.000000,1.000000,-3.000000
1303329.360012,-1.000000,6.000000,-2.000000,5.000000,0.000000,0.000000,-1.000000,1.000000
1303329.360034,-1.000000,-1.000000,-2.000000,2.000000,-2.000000,0.000000,0.000000,-2.000000
1303329.375700,3.000000,-6.000000,-1.000000,-8.000000,-1.000000,-2.000000,-5.000000,-1.000000
1303329.375712,-7.000000,-7.000000,-1.000000,-3.000000,-4.000000,-1.000000,0.000000,-2.000000
1303329.375929,-4.000000,0.000000,-10.000000,-3.000000,-2.000000,-2.000000,-1.000000,0.000000
1303329.375953,0.000000,-6.000000,1.000000,-7.000000,-4.000000,1.000000,-3.000000,-1.000000
1303329.376824,0.000000,1.000000,12.000000,28.000000,6.000000,4.000000,-4.000000,0.000000
1303329.376834,0.000000,-6.000000,-5.000000,11.000000,-2.000000,2.000000,2.000000,-3.000000
1303329.377995,-5.000000,-2.000000,6.000000,-4.000000,-4.000000,-3.000000,2.000000,-4.000000
1303329.378012,0.000000,-8.000000,-11.000000,-3.000000,0.000000,0.000000,-4.000000,2.000000
1303329.389459,3.000000,13.000000,2.000000,-7.000000,1.000000,1.000000,0.000000,-3.000000
1303329.389472,-2.000000,-9.000000,-4.000000,-7.000000,2.000000,-5.000000,3.000000,0.000000
1303329.397195,-1.000000,7.000000,-2.000000,21.000000,3.000000,4.000000,-2.000000,-3.000000
1303329.397208,-3.000000,-1.000000,1.000000,-2.000000,4.000000,-1.000000,0.000000,-4.000000
1303329.419797,-1.000000,-5.000000,-10.000000,-3.000000,-3.000000,-2.000000,1.000000,0.000000
1303329.419808,6.000000,5.000000,7.000000,-8.000000,2.000000,-6.000000,-3.000000,-4.000000
1303329.420790,1.000000,9.000000,5.000000,-1.000000,0.000000,6.000000,-4.000000,-1.000000
1303329.420800,3.000000,10.000000,-5.000000,0.000000,-1.000000,-2.000000,-2.000000,0.000000
1303329.442020,-1.000000,1.000000,1.000000,-2.000000,-7.000000,-6.000000,-3.000000,-1.000000
1303329.442080,-3.000000,-14.000000,7.000000,0.000000,2.000000,-4.000000,-3.000000,-2.000000
1303329.457264,-5.000000,1.000000,-4.000000,-4.000000,-5.000000,-3.000000,2.000000,0.000000
1303329.457277,1.000000,-3.000000,1.000000,0.000000,-1.000000,-3.000000,0.000000,0.000000
1303329.479650,0.000000,-3.000000,6.000000,-1.000000,1.000000,2.000000,-2.000000,-2.000000
1303329.479716,-2.000000,2.000000,3.000000,-7.000000,0.000000,-5.000000,-3.000000,-2.000000
1303329.494594,-2.000000,5.000000,-7.000000,1.000000,-3.000000,-3.000000,1.000000,-4.000000
1303329.494609,2.000000,1.000000,3.000000,11.000000,0.000000,3.000000,-2.000000,0.000000
1303329.517292,-5.000000,7.000000,-1.000000,11.000000,4.000000,0.000000,1.000000,-2.000000
1303329.517308,0.000000,6.000000,-9.000000,-10.000000,-5.000000,-2.000000,0.000000,-1.000000
1303329.532061,-3.000000,2.000000,0.000000,1.000000,2.000000,1.000000,-2.000000,0.000000
1303329.532075,0.000000,-7.000000,5.000000,2.000000,-4.000000,0.000000,0.000000,-3.000000
1303329.547099,-3.000000,-5.000000,-2.000000,-1.000000,-5.000000,-3.000000,-2.000000,3.000000
1303329.547112,4.000000,-9.000000,-4.000000,-12.000000,-1.000000,0.000000,-2.000000,3.000000
1303329.554801,0.000000,0.000000,-3.000000,4.000000,7.000000,2.000000,-2.000000,0.000000
1303329.554815,6.000000,4.000000,2.000000,-3.000000,-1.000000,1.000000,2.000000,0.000000
1303329.576954,3.000000,9.000000,10.000000,-4.000000,-2.000000,0.000000,-1.000000,-1.000000
1303329.576967,0.000000,3.000000,-19.000000,-23.000000,-4.000000,-4.000000,-3.000000,-4.000000
1303329.577327,3.000000,1.000000,25.000000,51.000000,10.000000,4.000000,2.000000,2.000000
1303329.577338,2.000000,5.000000,-17.000000,-9.000000,0.000000,4.000000,0.000000,-1.000000
1303329.577978,-3.000000,-1.000000,-1.000000,13.000000,5.000000,-1.000000,1.000000,-2.000000
1303329.578000,0.000000,-3.000000,0.000000,-5.000000,-1.000000,-1.000000,1.000000,0.000000
1303329.579327,0.000000,9.000000,2.000000,-1.000000,-4.000000,1.000000,0.000000,-2.000000
1303329.579343,1.000000,-2.000000,4.000000,3.000000,-5.000000,-1.000000,0.000000,2.000000
1303329.580807,-1.000000,5.000000,5.000000,2.000000,1.000000,-2.000000,-4.000000,-1.000000
1303329.580819,1.000000,9.000000,-7.000000,-2.000000,-7.000000,-2.000000,-2.000000,-5.000000
1303329.592507,-2.000000,10.000000,1.000000,1.000000,4.000000,-4.000000,-2.000000,-1.000000
1303329.592518,-5.000000,0.000000,-8.000000,-4.000000,-4.000000,1.000000,1.000000,0.000000
1303329.599793,1.000000,14.000000,6.000000,0.000000,6.000000,0.000000,-2.000000,-3.000000
1303329.599807,3.000000,8.000000,-11.000000,3.000000,2.000000,-4.000000,0.000000,0.000000
1303329.622030,-10.000000,1.000000,-15.000000,-9.000000,2.000000,1.000000,-2.000000,-4.000000
1303329.622042,1.000000,6.000000,6.000000,9.000000,-4.000000,1.000000,-3.000000,3.000000
1303329.636929,2.000000,2.000000,3.000000,4.000000,2.000000,0.000000,0.000000,0.000000
1303329.636942,0.000000,7.000000,-6.000000,-1.000000,-7.000000,-6.000000,1.000000,2.000000
1303329.637968,-1.000000,-2.000000,1.000000,5.000000,-1.000000,4.000000,-1.000000,-1.000000
1303329.637978,-6.000000,3.000000,7.000000,-17.000000,-10.000000,-8.000000,-9.000000,-6.000000
1303329.638809,-3.000000,2.000000,-7.000000,22.000000,9.000000,5.000000,3.000000,-2.000000
1303329.638819,2.000000,-6.000000,8.000000,4.000000,2.000000,-2.000000,0.000000,1.000000
1303329.667052,-4.000000,-5.000000,0.000000,-3.000000,0.000000,1.000000,-1.000000,0.000000
1303329.667066,-1.000000,3.000000,-6.000000,-2.000000,-2.000000,-3.000000,0.000000,0.000000
1303329.674566,0.000000,1.000000,-6.000000,-4.000000,-4.000000,-5.000000,-2.000000,-3.000000
1303329.674588,-1.000000,5.000000,0.000000,1.000000,-1.000000,-4.000000,1.000000,-1.000000
1303329.712048,0.000000,2.000000,2.000000,-2.000000,-2.000000,2.000000,-1.000000,1.000000
1303329.712058,0.000000,1.000000,-11.000000,-4.000000,-10.000000,1.000000,-2.000000,-2.000000
1303329.719346,0.000000,1.000000,8.000000,2.000000,3.000000,2.000000,0.000000,-1.000000
1303329.719391,-2.000000,-4.000000,1.000000,2.000000,0.000000,-1.000000,0.000000,0.000000
1303329.735200,0.000000,-2.000000,-2.000000,2.000000,-7.000000,-7.000000,-4.000000,-3.000000
1303329.735212,1.000000,-10.000000,-5.000000,-1.000000,-7.000000,0.000000,-2.000000,-1.000000
1303329.735565,-2.000000,22.000000,3.000000,-1.000000,5.000000,0.000000,-4.000000,0.000000
1303329.735579,2.000000,-2.000000,-1.000000,0.000000,-3.000000,8.000000,3.000000,0.000000
1303329.736746,3.000000,1.000000,12.000000,-9.000000,-3.000000,1.000000,-1.000000,0.000000
1303329.736756,2.000000,2.000000,-6.000000,-1.000000,-3.000000,-1.000000,0.000000,1.000000
1303329.738756,3.000000,-4.000000,-4.000000,21.000000,4.000000,0.000000,-2.000000,2.000000
1303329.738769,0.000000,-9.000000,-9.000000,1.000000,-1.000000,-1.000000,-3.000000,0.000000
1303329.757253,-1.000000,-4.000000,1.000000,-7.000000,1.000000,-4.000000,-5.000000,-1.000000
1303329.757263,0.000000,-3.000000,-5.000000,-15.000000,-1.000000,0.000000,-4.000000,0.000000
1303329.758276,-1.000000,-5.000000,-8.000000,7.000000,0.000000,0.000000,0.000000,-5.000000
1303329.758285,-3.000000,3.000000,-6.000000,-8.000000,-1.000000,-1.000000,1.000000,5.000000
1303329.772458,-1.000000,7.000000,1.000000,-1.000000,-1.000000,-4.000000,-4.000000,1.000000
1303329.772467,0.000000,10.000000,-3.000000,2.000000,-3.000000,-4.000000,3.000000,-3.000000
1303329.779559,1.000000,-9.000000,-10.000000,-4.000000,-1.000000,0.000000,-1.000000,3.000000
1303329.779573,-1.000000,8.000000,9.000000,4.000000,0.000000,1.000000,2.000000,1.000000
1303329.794632,0.000000,2.000000,-3.000000,-2.000000,-5.000000,-1.000000,-3.000000,-3.000000
1303329.794644,1.000000,-3.000000,-5.000000,-3.000000,1.000000,-1.000000,-3.000000,4.000000
1303329.809472,-5.000000,-5.000000,-4.000000,-2.000000,7.000000,-3.000000,-1.000000,-4.000000
1303329.809501,-5.000000,-6.000000,-8.000000,-6.000000,-3.000000,-3.000000,0.000000,0.000000
1303329.824622,3.000000,-8.000000,0.000000,5.000000,-5.000000,0.000000,1.000000,3.000000
1303329.824633,-6.000000,17.000000,0.000000,-1.000000,0.000000,0.000000,-3.000000,-6.000000
1303329.832180,0.000000,1.000000,-15.000000,-4.000000,-7.000000,-2.000000,0.000000,1.000000
1303329.832205,2.000000,-2.000000,-5.000000,-1.000000,-1.000000,4.000000,1.000000,2.000000
1303329.854854,-4.000000,-9.000000,-1.000000,9.000000,2.000000,-3.000000,1.000000,1.000000
1303329.854866,1.000000,1.000000,3.000000,3.000000,5.000000,4.000000,-2.000000,2.000000
