# participant_id: P8
# gesture: baseline
# trial_number: 1
# stream_name: Myo_EMG
# stream_type: emg
# timestamp: 20260420_151916
# samples: 5186
# duration_sec: 30.234
# nominal_sample_rate: 200.0
# effective_sample_rate: 171.50
#
timestamp,emg_1,emg_2,emg_3,emg_4,emg_5,emg_6,emg_7,emg_8
1303048.049279,7.000000,12.000000,-7.000000,5.000000,-4.000000,-12.000000,8.000000,-2.000000
1303048.049289,-3.000000,-1.000000,5.000000,-4.000000,-4.000000,3.000000,-5.000000,-5.000000
1303048.086525,-9.000000,0.000000,0.000000,-7.000000,-4.000000,-2.000000,-8.000000,1.000000
1303048.086537,3.000000,-4.000000,-7.000000,-1.000000,1.000000,-1.000000,3.000000,-5.000000
1303048.094337,1.000000,-7.000000,2.000000,2.000000,0.000000,-7.000000,1.000000,-3.000000
1303048.094350,-7.000000,-11.000000,1.000000,-4.000000,4.000000,0.000000,-7.000000,4.000000
1303048.146662,1.000000,7.000000,-3.000000,1.000000,2.000000,-3.000000,2.000000,-1.000000
1303048.146672,6.000000,-3.000000,-3.000000,-1.000000,0.000000,-7.000000,5.000000,-5.000000
1303048.154102,-2.000000,-13.000000,4.000000,-5.000000,-3.000000,-2.000000,-11.000000,2.000000
1303048.154121,-1.000000,1.000000,-5.000000,-2.000000,3.000000,9.000000,-2.000000,4.000000
1303048.192764,-2.000000,-19.000000,7.000000,-9.000000,-1.000000,7.000000,-6.000000,0.000000
1303048.192887,-8.000000,6.000000,0.000000,3.000000,-6.000000,4.000000,4.000000,-1.000000
1303048.193096,3.000000,0.000000,-11.000000,0.000000,-5.000000,-7.000000,6.000000,-4.000000
1303048.193106,-1.000000,-11.000000,4.000000,1.000000,1.000000,2.000000,-7.000000,0.000000
1303048.193879,-5.000000,-11.000000,1.000000,0.000000,6.000000,6.000000,-7.000000,3.000000
1303048.193887,10.000000,9.000000,-2.000000,7.000000,-1.000000,0.000000,6.000000,-1.000000
1303048.195415,2.000000,12.000000,-1.000000,6.000000,-1.000000,-1.000000,1.000000,0.000000
1303048.195424,2.000000,-3.000000,-9.000000,-7.000000,-4.000000,-11.000000,-1.000000,-2.000000
1303048.206296,-1.000000,-7.000000,8.000000,-6.000000,-2.000000,-2.000000,-6.000000,2.000000
1303048.206305,-1.000000,2.000000,-6.000000,0.000000,-1.000000,3.000000,-1.000000,-1.000000
1303048.207163,5.000000,-3.000000,-11.000000,4.000000,-1.000000,3.000000,2.000000,-2.000000
1303048.207176,-9.000000,-6.000000,8.000000,-2.000000,-1.000000,2.000000,-8.000000,3.000000
1303048.229186,-5.000000,-3.000000,3.000000,-10.000000,-3.000000,-1.000000,-6.000000,4.000000
1303048.229197,2.000000,10.000000,-10.000000,6.000000,-6.000000,-2.000000,4.000000,-7.000000
1303048.236879,-2.000000,-7.000000,6.000000,5.000000,0.000000,-10.000000,-2.000000,-4.000000
1303048.236890,-6.000000,-8.000000,6.000000,-10.000000,-1.000000,-6.000000,-11.000000,2.000000
1303048.266684,6.000000,0.000000,-5.000000,3.000000,-7.000000,0.000000,2.000000,0.000000
1303048.266702,6.000000,5.000000,-2.000000,3.000000,2.000000,-14.000000,3.000000,-5.000000
1303048.274301,-9.000000,-8.000000,-2.000000,-1.000000,5.000000,1.000000,-7.000000,0.000000
1303048.274317,-2.000000,6.000000,-1.000000,4.000000,-6.000000,1.000000,3.000000,3.000000
1303048.275317,3.000000,3.000000,-1.000000,2.000000,-4.000000,-2.000000,12.000000,-3.000000
1303048.275326,2.000000,-7.000000,6.000000,1.000000,5.000000,-3.000000,-6.000000,-1.000000
1303048.275882,1.000000,1.000000,-1.000000,-1.000000,11.000000,6.000000,2.000000,4.000000
1303048.275890,-4.000000,0.000000,-7.000000,2.000000,-4.000000,-7.000000,6.000000,-3.000000
1303048.277168,-2.000000,-8.000000,-8.000000,-2.000000,-2.000000,-8.000000,0.000000,-6.000000
1303048.277176,-9.000000,-1.000000,-1.000000,-6.000000,-1.000000,12.000000,-5.000000,4.000000
1303048.288929,1.000000,7.000000,-5.000000,3.000000,-2.000000,4.000000,4.000000,-4.000000
1303048.288939,5.000000,0.000000,-1.000000,2.000000,2.000000,-9.000000,3.000000,-3.000000
1303048.311530,-3.000000,2.000000,4.000000,-7.000000,3.000000,7.000000,-7.000000,0.000000
1303048.311541,4.000000,1.000000,-3.000000,-4.000000,-3.000000,0.000000,-2.000000,3.000000
1303048.311845,5.000000,9.000000,-8.000000,5.000000,0.000000,-5.000000,8.000000,-4.000000
1303048.311853,-7.000000,-5.000000,0.000000,-6.000000,-3.000000,-3.000000,-3.000000,1.000000
1303048.326547,-9.000000,-4.000000,1.000000,-1.000000,-2.000000,5.000000,-7.000000,-1.000000
1303048.326559,3.000000,6.000000,-8.000000,1.000000,2.000000,-3.000000,8.000000,-7.000000
1303048.327345,-3.000000,-8.000000,8.000000,7.000000,-4.000000,-5.000000,-4.000000,1.000000
1303048.327353,-10.000000,-2.000000,0.000000,-4.000000,1.000000,9.000000,-3.000000,3.000000
1303048.349118,2.000000,-14.000000,3.000000,-1.000000,-4.000000,-3.000000,1.000000,3.000000
1303048.349141,0.000000,2.000000,-1.000000,1.000000,1.000000,-11.000000,4.000000,-3.000000
1303048.364194,-7.000000,-9.000000,4.000000,-5.000000,4.000000,2.000000,-3.000000,1.000000
1303048.364203,0.000000,5.000000,-20.000000,8.000000,0.000000,4.000000,1.000000,-5.000000
1303048.393779,8.000000,11.000000,7.000000,6.000000,-4.000000,-2.000000,3.000000,-5.000000
1303048.393830,-5.000000,-7.000000,8.000000,-1.000000,-2.000000,0.000000,-2.000000,-1.000000
1303048.394400,-4.000000,5.000000,-5.000000,-3.000000,4.000000,-1.000000,-1.000000,1.000000
1303048.394416,3.000000,4.000000,-15.000000,2.000000,-2.000000,-10.000000,3.000000,-2.000000
1303048.395953,-6.000000,-13.000000,17.000000,1.000000,-8.000000,-4.000000,3.000000,0.000000
1303048.395967,-5.000000,1.000000,-1.000000,-2.000000,-1.000000,5.000000,-4.000000,5.000000
1303048.396722,5.000000,7.000000,0.000000,1.000000,-2.000000,11.000000,1.000000,-2.000000
1303048.396744,2.000000,1.000000,0.000000,-1.000000,-3.000000,-2.000000,-1.000000,-5.000000
1303048.398284,-9.000000,-6.000000,3.000000,-1.000000,-1.000000,-11.000000,-8.000000,2.000000
1303048.398293,3.000000,6.000000,-3.000000,9.000000,-4.000000,1.000000,2.000000,2.000000
1303048.408954,8.000000,2.000000,-3.000000,1.000000,-2.000000,-7.000000,4.000000,-7.000000
1303048.408967,0.000000,-9.000000,1.000000,-5.000000,-4.000000,-5.000000,-6.000000,1.000000
1303048.424301,-1.000000,6.000000,2.000000,3.000000,2.000000,-2.000000,-1.000000,2.000000
1303048.424319,5.000000,5.000000,-7.000000,0.000000,-2.000000,-7.000000,3.000000,-4.000000
1303048.425054,0.000000,-8.000000,6.000000,-5.000000,-1.000000,0.000000,-6.000000,-2.000000
1303048.425093,-6.000000,3.000000,4.000000,-5.000000,4.000000,4.000000,-9.000000,2.000000
1303048.446564,11.000000,13.000000,-4.000000,8.000000,-2.000000,4.000000,7.000000,-1.000000
1303048.446573,2.000000,-7.000000,-4.000000,-5.000000,-6.000000,-2.000000,5.000000,-2.000000
1303048.469275,-5.000000,-3.000000,4.000000,-1.000000,6.000000,3.000000,-7.000000,4.000000
1303048.469286,-5.000000,4.000000,-9.000000,6.000000,-4.000000,3.000000,2.000000,-1.000000
1303048.484004,3.000000,4.000000,-8.000000,3.000000,-3.000000,-4.000000,-1.000000,-5.000000
1303048.484021,-4.000000,-3.000000,0.000000,-8.000000,-4.000000,-5.000000,-9.000000,-2.000000
1303048.506914,-4.000000,-3.000000,-4.000000,0.000000,-5.000000,7.000000,-3.000000,1.000000
1303048.506929,4.000000,7.000000,-15.000000,3.000000,0.000000,-4.000000,6.000000,-4.000000
1303048.507836,-2.000000,-10.000000,5.000000,0.000000,1.000000,-7.000000,-7.000000,-2.000000
1303048.507845,-3.000000,-10.000000,5.000000,-7.000000,-3.000000,3.000000,-4.000000,2.000000
1303048.508407,3.000000,9.000000,6.000000,4.000000,-2.000000,-5.000000,7.000000,0.000000
1303048.508419,6.000000,0.000000,1.000000,-3.000000,-4.000000,-6.000000,-1.000000,-7.000000
1303048.509457,-5.000000,-6.000000,10.000000,-5.000000,-1.000000,5.000000,-8.000000,7.000000
1303048.509465,4.000000,8.000000,-9.000000,6.000000,-4.000000,1.000000,4.000000,-1.000000
1303048.510616,1.000000,-3.000000,-4.000000,-3.000000,-3.000000,-10.000000,3.000000,-5.000000
1303048.510627,-6.000000,-9.000000,9.000000,-4.000000,-3.000000,3.000000,-5.000000,-3.000000
1303048.529505,-2.000000,5.000000,-17.000000,-3.000000,1.000000,7.000000,0.000000,-1.000000
1303048.529521,6.000000,10.000000,-2.000000,7.000000,0.000000,-1.000000,4.000000,0.000000
1303048.530023,-1.000000,-1.000000,8.000000,-10.000000,0.000000,-4.000000,-6.000000,-2.000000
1303048.530030,-2.000000,0.000000,-1.000000,-9.000000,0.000000,-2.000000,-3.000000,0.000000
1303048.544170,1.000000,2.000000,-2.000000,3.000000,-1.000000,-2.000000,3.000000,-7.000000
1303048.544185,2.000000,-9.000000,3.000000,-5.000000,-2.000000,-3.000000,0.000000,-1.000000
1303048.551579,-5.000000,-14.000000,11.000000,1.000000,4.000000,4.000000,-10.000000,1.000000
1303048.551592,1.000000,1.000000,-7.000000,0.000000,4.000000,2.000000,2.000000,-2.000000
1303048.566679,3.000000,0.000000,-7.000000,6.000000,-9.000000,-4.000000,5.000000,-3.000000
1303048.566690,-9.000000,-6.000000,11.000000,1.000000,3.000000,-7.000000,-5.000000,3.000000
1303048.589204,-9.000000,0.000000,3.000000,-4.000000,1.000000,0.000000,-4.000000,1.000000
1303048.589222,5.000000,6.000000,-13.000000,6.000000,-1.000000,0.000000,3.000000,-2.000000
1303048.619290,0.000000,2.000000,9.000000,3.000000,0.000000,8.000000,-3.000000,-1.000000
1303048.619300,-6.000000,-4.000000,1.000000,0.000000,8.000000,2.000000,-6.000000,-1.000000
1303048.626432,4.000000,8.000000,-9.000000,4.000000,-7.000000,-5.000000,4.000000,-6.000000
1303048.626470,-1.000000,0.000000,2.000000,-2.000000,-6.000000,-3.000000,0.000000,-2.000000
1303048.627608,-6.000000,-18.000000,9.000000,-4.000000,-1.000000,9.000000,-10.000000,1.000000
1303048.627625,6.000000,2.000000,-8.000000,5.000000,-2.000000,-15.000000,0.000000,-3.000000
1303048.628067,2.000000,-3.000000,1.000000,5.000000,1.000000,-5.000000,7.000000,-6.000000
1303048.628075,-14.000000,-8.000000,9.000000,-4.000000,-1.000000,0.000000,-8.000000,0.000000
1303048.629698,-4.000000,0.000000,10.000000,-1.000000,1.000000,2.000000,-2.000000,-3.000000
1303048.629706,-10.000000,-2.000000,0.000000,0.000000,1.000000,4.000000,-4.000000,7.000000
1303048.656947,6.000000,8.000000,-4.000000,2.000000,9.000000,-3.000000,5.000000,-6.000000
1303048.656959,-6.000000,-3.000000,1.000000,-6.000000,-6.000000,-7.000000,1.000000,-2.000000
1303048.671653,-10.000000,-15.000000,11.000000,-4.000000,4.000000,2.000000,-8.000000,0.000000
1303048.671663,4.000000,0.000000,6.000000,3.000000,0.000000,-3.000000,3.000000,-2.000000
1303048.686487,5.000000,0.000000,-12.000000,6.000000,-11.000000,-6.000000,1.000000,-3.000000
1303048.686515,-2.000000,4.000000,8.000000,-6.000000,4.000000,2.000000,-2.000000,0.000000
1303048.701866,-9.000000,7.000000,-5.000000,3.000000,-5.000000,3.000000,-1.000000,3.000000
1303048.701877,3.000000,-6.000000,-9.000000,3.000000,-1.000000,-4.000000,7.000000,-5.000000
1303048.716480,-3.000000,-14.000000,-2.000000,-6.000000,-2.000000,-4.000000,-7.000000,-1.000000
1303048.716497,-4.000000,-6.000000,12.000000,-6.000000,2.000000,10.000000,-4.000000,-3.000000
1303048.724119,3.000000,6.000000,-13.000000,0.000000,0.000000,1.000000,3.000000,-3.000000
1303048.724130,3.000000,-1.000000,0.000000,-1.000000,-5.000000,-4.000000,4.000000,-1.000000
1303048.754112,-12.000000,-8.000000,2.000000,-6.000000,-1.000000,6.000000,-8.000000,4.000000
1303048.754122,4.000000,3.000000,-15.000000,-1.000000,-3.000000,2.000000,5.000000,-3.000000
1303048.761687,0.000000,-6.000000,0.000000,3.000000,-1.000000,-5.000000,2.000000,-4.000000
1303048.761833,-7.000000,-8.000000,5.000000,1.000000,1.000000,-2.000000,-6.000000,4.000000
1303048.762088,2.000000,-4.000000,-6.000000,-4.000000,-4.000000,0.000000,3.000000,1.000000
1303048.762107,5.000000,7.000000,-12.000000,11.000000,-2.000000,-3.000000,6.000000,-5.000000
1303048.762524,-11.000000,-12.000000,5.000000,-6.000000,-1.000000,-3.000000,-10.000000,-1.000000
1303048.762546,-10.000000,-2.000000,1.000000,-3.000000,-3.000000,5.000000,-9.000000,2.000000
1303048.763767,-5.000000,-8.000000,11.000000,-5.000000,-7.000000,6.000000,-7.000000,0.000000
1303048.763775,2.000000,12.000000,4.000000,1.000000,0.000000,6.000000,3.000000,3.000000
1303048.764782,7.000000,1.000000,-8.000000,1.000000,-3.000000,-4.000000,5.000000,-5.000000
1303048.764810,-9.000000,-16.000000,5.000000,-9.000000,1.000000,-2.000000,-7.000000,0.000000
1303048.768778,0.000000,-5.000000,-15.000000,0.000000,-1.000000,8.000000,-3.000000,6.000000
1303048.768806,6.000000,6.000000,1.000000,6.000000,-5.000000,-4.000000,4.000000,-4.000000
1303048.784640,-12.000000,-19.000000,4.000000,0.000000,2.000000,-3.000000,-2.000000,3.000000
1303048.784649,-10.000000,0.000000,0.000000,-1.000000,-3.000000,0.000000,-4.000000,3.000000
1303048.806825,8.000000,8.000000,-12.000000,3.000000,3.000000,-8.000000,7.000000,-4.000000
1303048.806836,-2.000000,-4.000000,4.000000,2.000000,-4.000000,-3.000000,-3.000000,-3.000000
1303048.829008,-7.000000,-7.000000,2.000000,-5.000000,-3.000000,6.000000,-6.000000,1.000000
1303048.829037,2.000000,3.000000,-7.000000,9.000000,3.000000,2.000000,5.000000,0.000000
1303048.836794,6.000000,-5.000000,-4.000000,-7.000000,-11.000000,-3.000000,3.000000,-3.000000
1303048.836805,-9.000000,-11.000000,9.000000,-3.000000,-7.000000,2.000000,-5.000000,3.000000
1303048.866589,2.000000,8.000000,-4.000000,2.000000,7.000000,3.000000,1.000000,0.000000
1303048.866607,-1.000000,-5.000000,-15.000000,2.000000,-2.000000,-6.000000,3.000000,-4.000000
1303048.881415,-6.000000,-6.000000,13.000000,-6.000000,-1.000000,0.000000,-5.000000,-1.000000
1303048.881445,-1.000000,-3.000000,-1.000000,-4.000000,-6.000000,7.000000,-7.000000,4.000000
1303048.882506,0.000000,6.000000,-5.000000,6.000000,-4.000000,0.000000,3.000000,-3.000000
1303048.882514,-6.000000,6.000000,3.000000,-9.000000,-3.000000,3.000000,-4.000000,-1.000000
1303048.883202,-6.000000,-3.000000,2.000000,6.000000,4.000000,1.000000,-8.000000,2.000000
1303048.883210,6.000000,6.000000,-6.000000,3.000000,-8.000000,-3.000000,3.000000,0.000000
1303048.884517,8.000000,-3.000000,6.000000,-2.000000,-5.000000,-8.000000,7.000000,-3.000000
1303048.884525,-8.000000,-20.000000,2.000000,-3.000000,-3.000000,-7.000000,-2.000000,0.000000
1303048.885384,-1.000000,0.000000,8.000000,-6.000000,-6.000000,-3.000000,-6.000000,-5.000000
1303048.885392,-8.000000,2.000000,0.000000,-2.000000,-5.000000,2.000000,-4.000000,2.000000
1303048.888725,8.000000,-3.000000,-19.000000,0.000000,0.000000,-3.000000,6.000000,-1.000000
1303048.888733,0.000000,5.000000,7.000000,-3.000000,10.000000,-5.000000,-5.000000,-1.000000
1303048.904101,-13.000000,-8.000000,6.000000,-9.000000,5.000000,9.000000,-6.000000,0.000000
1303048.904110,4.000000,6.000000,-4.000000,7.000000,-2.000000,0.000000,7.000000,-6.000000
1303048.926535,2.000000,-2.000000,-2.000000,-4.000000,-2.000000,-10.000000,4.000000,-1.000000
1303048.926563,-8.000000,-11.000000,6.000000,-4.000000,7.000000,1.000000,-8.000000,3.000000
1303048.964161,-2.000000,2.000000,-8.000000,2.000000,2.000000,3.000000,2.000000,-1.000000
1303048.964172,6.000000,4.000000,-2.000000,2.000000,-2.000000,-11.000000,7.000000,-10.000000
1303048.979176,-3.000000,6.000000,-3.000000,-4.000000,-2.000000,0.000000,-4.000000,-2.000000
1303048.979191,-6.000000,0.000000,-5.000000,1.000000,3.000000,2.000000,-3.000000,1.000000
1303049.001773,-8.000000,-5.000000,-8.000000,10.000000,-2.000000,-2.000000,6.000000,-5.000000
1303049.001797,-4.000000,-15.000000,9.000000,-7.000000,-4.000000,-1.000000,-4.000000,-3.000000
1303049.023942,-3.000000,6.000000,3.000000,-6.000000,-3.000000,13.000000,-13.000000,5.000000
1303049.023953,2.000000,2.000000,-9.000000,5.000000,3.000000,-1.000000,7.000000,-4.000000
1303049.025213,4.000000,3.000000,-7.000000,2.000000,0.000000,1.000000,5.000000,-2.000000
1303049.025222,3.000000,1.000000,-8.000000,10.000000,-3.000000,-4.000000,2.000000,-8.000000
1303049.025717,-1.000000,-5.000000,11.000000,0.000000,-1.000000,-5.000000,-9.000000,2.000000
1303049.025725,-5.000000,3.000000,-8.000000,-4.000000,4.000000,-1.000000,-3.000000,2.000000
1303049.027143,-8.000000,1.000000,1.000000,-3.000000,5.000000,9.000000,-6.000000,5.000000
1303049.027150,5.000000,7.000000,1.000000,0.000000,6.000000,-3.000000,7.000000,-1.000000
1303049.031205,0.000000,-1.000000,11.000000,-7.000000,2.000000,3.000000,-2.000000,1.000000
1303049.031212,-6.000000,-3.000000,-2.000000,1.000000,6.000000,-1.000000,-2.000000,0.000000
1303049.046695,2.000000,5.000000,-7.000000,-8.000000,-8.000000,-5.000000,4.000000,-3.000000
1303049.046710,4.000000,-1.000000,-3.000000,1.000000,-3.000000,0.000000,-5.000000,-1.000000
1303049.061549,-7.000000,-8.000000,6.000000,-6.000000,-7.000000,6.000000,-8.000000,1.000000
1303049.061559,5.000000,6.000000,-6.000000,-4.000000,-3.000000,2.000000,1.000000,-4.000000
1303049.099243,8.000000,2.000000,-2.000000,0.000000,-1.000000,-6.000000,0.000000,-3.000000
1303049.099272,-8.000000,2.000000,8.000000,-7.000000,-2.000000,3.000000,-10.000000,-2.000000
1303049.106436,-3.000000,1.000000,-12.000000,1.000000,-1.000000,1.000000,7.000000,1.000000
1303049.106486,0.000000,3.000000,-10.000000,4.000000,0.000000,-8.000000,7.000000,-4.000000
1303049.107752,-6.000000,-4.000000,2.000000,-5.000000,-2.000000,-4.000000,-4.000000,1.000000
1303049.107769,-3.000000,-10.000000,-1.000000,-4.000000,1.000000,2.000000,0.000000,1.000000
1303049.108358,5.000000,-1.000000,-19.000000,9.000000,2.000000,-1.000000,7.000000,-2.000000
1303049.108369,-6.000000,-6.000000,-1.000000,-4.000000,-4.000000,6.000000,-3.000000,1.000000
1303049.109879,-10.000000,-9.000000,-2.000000,-11.000000,3.000000,5.000000,-5.000000,3.000000
1303049.109901,5.000000,-6.000000,-13.000000,2.000000,3.000000,5.000000,2.000000,-5.000000
1303049.122353,3.000000,6.000000,-1.000000,-1.000000,4.000000,-8.000000,2.000000,-3.000000
1303049.122364,5.000000,-5.000000,0.000000,3.000000,-6.000000,-6.000000,5.000000,-4.000000
1303049.143880,-7.000000,-8.000000,3.000000,-7.000000,-1.000000,2.000000,-8.000000,2.000000
1303049.143909,-4.000000,3.000000,-1.000000,-4.000000,-4.000000,10.000000,0.000000,2.000000
1303049.145339,0.000000,3.000000,-6.000000,0.000000,-3.000000,1.000000,6.000000,-4.000000
1303049.145355,-6.000000,-7.000000,2.000000,-5.000000,-1.000000,2.000000,-6.000000,-3.000000
1303049.151377,-5.000000,1.000000,6.000000,-4.000000,0.000000,3.000000,-10.000000,-2.000000
1303049.151394,6.000000,9.000000,-9.000000,6.000000,3.000000,-6.000000,1.000000,-3.000000
1303049.159071,-5.000000,-9.000000,-8.000000,-3.000000,-4.000000,-10.000000,4.000000,-4.000000
1303049.159102,-5.000000,-14.000000,13.000000,-4.000000,-1.000000,4.000000,-6.000000,0.000000
1303049.166749,-1.000000,-5.000000,-10.000000,-1.000000,-10.000000,9.000000,7.000000,1.000000
1303049.166761,6.000000,6.000000,-5.000000,-4.000000,-7.000000,-12.000000,4.000000,-5.000000
1303049.188915,-4.000000,-9.000000,6.000000,0.000000,-4.000000,2.000000,-3.000000,2.000000
1303049.188924,-3.000000,9.000000,-1.000000,-3.000000,1.000000,3.000000,-2.000000,3.000000
1303049.204075,3.000000,8.000000,-7.000000,4.000000,-1.000000,-7.000000,4.000000,-1.000000
1303049.204104,1.000000,-8.000000,-2.000000,-8.000000,-1.000000,-6.000000,-4.000000,0.000000
1303049.227065,-7.000000,2.000000,2.000000,-9.000000,-2.000000,7.000000,-8.000000,4.000000
1303049.227156,2.000000,3.000000,-7.000000,7.000000,-6.000000,-1.000000,5.000000,-7.000000
1303049.227552,1.000000,-8.000000,-2.000000,-3.000000,-1.000000,-1.000000,-3.000000,-2.000000
1303049.227560,-7.000000,-10.000000,10.000000,-6.000000,-1.000000,6.000000,-8.000000,1.000000
1303049.228923,3.000000,2.000000,-9.000000,0.000000,-4.000000,-2.000000,8.000000,-3.000000
1303049.228940,6.000000,3.000000,2.000000,4.000000,-7.000000,-10.000000,9.000000,-4.000000
1303049.229858,-6.000000,-5.000000,7.000000,-4.000000,-2.000000,-2.000000,-10.000000,4.000000
1303049.229874,-5.000000,4.000000,-1.000000,-2.000000,6.000000,0.000000,-6.000000,2.000000
1303049.242039,12.000000,14.000000,-17.000000,7.000000,-7.000000,1.000000,5.000000,-5.000000
1303049.242055,-1.000000,0.000000,10.000000,-2.000000,4.000000,3.000000,-5.000000,0.000000
1303049.256948,-2.000000,-7.000000,3.000000,0.000000,4.000000,9.000000,-3.000000,4.000000
1303049.256959,8.000000,4.000000,-12.000000,5.000000,2.000000,-9.000000,2.000000,1.000000
1303049.258109,-2.000000,-3.000000,-6.000000,-1.000000,3.000000,-6.000000,-5.000000,-4.000000
1303049.258120,-9.000000,-6.000000,18.000000,-2.000000,-2.000000,6.000000,-1.000000,2.000000
1303049.279154,1.000000,6.000000,-19.000000,4.000000,-2.000000,3.000000,5.000000,-3.000000
1303049.279165,4.000000,-10.000000,-9.000000,0.000000,-3.000000,-9.000000,-1.000000,-5.000000
1303049.316871,0.000000,-8.000000,8.000000,-1.000000,-4.000000,6.000000,-8.000000,-1.000000
1303049.316881,1.000000,13.000000,-9.000000,-2.000000,4.000000,4.000000,-2.000000,4.000000
1303049.339243,7.000000,8.000000,-3.000000,7.000000,-1.000000,-11.000000,10.000000,-6.000000
1303049.339255,-1.000000,-1.000000,6.000000,-7.000000,2.000000,-6.000000,-7.000000,-1.000000
1303049.362122,-9.000000,5.000000,-1.000000,0.000000,-3.000000,6.000000,-5.000000,5.000000
1303049.362148,-2.000000,0.000000,-8.000000,-3.000000,4.000000,3.000000,7.000000,0.000000
1303049.376399,-2.000000,-4.000000,-2.000000,-3.000000,-3.000000,-3.000000,-2.000000,-1.000000
1303049.376429,-10.000000,-17.000000,5.000000,-5.000000,0.000000,6.000000,-10.000000,0.000000
1303049.377582,5.000000,7.000000,3.000000,5.000000,-8.000000,-10.000000,3.000000,-3.000000
1303049.377650,2.000000,11.000000,-1.000000,-4.000000,-8.000000,-13.000000,7.000000,-9.000000
1303049.378234,12.000000,8.000000,-12.000000,5.000000,-2.000000,-2.000000,7.000000,-1.000000
1303049.378242,-3.000000,-12.000000,2.000000,-7.000000,4.000000,-2.000000,-2.000000,-1.000000
1303049.379529,1.000000,-1.000000,-4.000000,0.000000,2.000000,4.000000,0.000000,-1.000000
1303049.379541,-5.000000,-10.000000,1.000000,1.000000,-3.000000,-5.000000,1.000000,-6.000000
1303049.380227,-7.000000,0.000000,-5.000000,-8.000000,2.000000,1.000000,-9.000000,-1.000000
1303049.380236,-1.000000,7.000000,-6.000000,7.000000,4.000000,5.000000,0.000000,-1.000000
1303049.399378,4.000000,1.000000,-3.000000,6.000000,-1.000000,-14.000000,11.000000,-5.000000
1303049.399391,-3.000000,-7.000000,8.000000,-1.000000,1.000000,4.000000,-2.000000,-3.000000
1303049.429019,-9.000000,-6.000000,6.000000,-9.000000,3.000000,0.000000,-5.000000,1.000000
1303049.429029,2.000000,3.000000,-7.000000,4.000000,-2.000000,-1.000000,2.000000,0.000000
1303049.436460,0.000000,-9.000000,4.000000,-6.000000,1.000000,0.000000,-4.000000,0.000000
1303049.436489,-3.000000,-12.000000,5.000000,-10.000000,-3.000000,6.000000,-7.000000,4.000000
1303049.459163,5.000000,5.000000,-12.000000,7.000000,2.000000,3.000000,1.000000,1.000000
1303049.459181,7.000000,-5.000000,-9.000000,2.000000,-5.000000,-9.000000,1.000000,-6.000000
1303049.466254,-4.000000,-6.000000,10.000000,-2.000000,1.000000,-2.000000,-8.000000,5.000000
1303049.466274,0.000000,8.000000,-6.000000,1.000000,-1.000000,1.000000,0.000000,0.000000
1303049.467534,10.000000,5.000000,-11.000000,5.000000,4.000000,-7.000000,9.000000,-4.000000
1303049.467543,-4.000000,-6.000000,2.000000,-4.000000,-3.000000,4.000000,-4.000000,0.000000
1303049.481382,0.000000,1.000000,-4.000000,-5.000000,1.000000,3.000000,-1.000000,0.000000
1303049.481410,5.000000,12.000000,-9.000000,5.000000,-1.000000,2.000000,8.000000,-3.000000
1303049.504018,0.000000,-12.000000,2.000000,-6.000000,-1.000000,-6.000000,-4.000000,-5.000000
1303049.504028,-8.000000,-13.000000,1.000000,-8.000000,-4.000000,3.000000,-8.000000,1.000000
1303049.505186,5.000000,5.000000,-13.000000,4.000000,2.000000,3.000000,5.000000,-1.000000
1303049.505213,2.000000,-5.000000,0.000000,-3.000000,2.000000,-5.000000,3.000000,-3.000000
1303049.505825,-9.000000,-12.000000,4.000000,2.000000,0.000000,7.000000,-9.000000,-1.000000
1303049.505865,6.000000,25.000000,0.000000,-2.000000,-2.000000,5.000000,5.000000,6.000000
1303049.507151,6.000000,1.000000,-13.000000,1.000000,-1.000000,-3.000000,4.000000,-4.000000
1303049.507200,-3.000000,-14.000000,-8.000000,-8.000000,-1.000000,0.000000,-6.000000,2.000000
1303049.508186,-4.000000,-3.000000,2.000000,7.000000,-1.000000,7.000000,-4.000000,0.000000
1303049.508197,4.000000,1.000000,-9.000000,-3.000000,-4.000000,-9.000000,7.000000,-4.000000
1303049.534284,-2.000000,-8.000000,2.000000,-4.000000,-8.000000,-6.000000,1.000000,-1.000000
1303049.534295,-9.000000,-8.000000,-1.000000,-11.000000,-2.000000,7.000000,-11.000000,6.000000
1303049.541673,8.000000,12.000000,1.000000,3.000000,-2.000000,-3.000000,1.000000,-4.000000
1303049.541683,-2.000000,0.000000,-2.000000,6.000000,0.000000,-4.000000,5.000000,-5.000000
1303049.556537,-5.000000,-9.000000,4.000000,-9.000000,2.000000,-1.000000,-7.000000,4.000000
1303049.556548,0.000000,2.000000,-14.000000,-8.000000,-1.000000,2.000000,3.000000,0.000000
1303049.579224,9.000000,15.000000,-10.000000,3.000000,-1.000000,-5.000000,5.000000,-5.000000
1303049.579237,-7.000000,-5.000000,1.000000,-4.000000,4.000000,3.000000,-11.000000,0.000000
1303049.580186,-3.000000,2.000000,-4.000000,0.000000,3.000000,2.000000,-6.000000,0.000000
1303049.580196,3.000000,6.000000,-11.000000,-3.000000,-1.000000,-9.000000,11.000000,0.000000
1303049.580672,4.000000,-2.000000,8.000000,-5.000000,-6.000000,2.000000,1.000000,-3.000000
1303049.580682,-5.000000,4.000000,6.000000,-4.000000,-3.000000,8.000000,-8.000000,1.000000
1303049.582047,3.000000,10.000000,0.000000,4.000000,1.000000,-1.000000,2.000000,0.000000
1303049.582056,7.000000,-3.000000,-10.000000,0.000000,0.000000,-6.000000,3.000000,-1.000000
1303049.582894,-8.000000,-14.000000,6.000000,-4.000000,-5.000000,2.000000,-8.000000,1.000000
1303049.582904,3.000000,7.000000,-6.000000,3.000000,-4.000000,-2.000000,2.000000,0.000000
1303049.594824,5.000000,6.000000,-14.000000,0.000000,-5.000000,-3.000000,7.000000,-3.000000
1303049.594835,-6.000000,-3.000000,4.000000,-2.000000,1.000000,-3.000000,-6.000000,2.000000
1303049.601933,-6.000000,-6.000000,-10.000000,2.000000,1.000000,7.000000,-5.000000,-1.000000
1303049.601945,2.000000,7.000000,-8.000000,2.000000,-1.000000,-4.000000,8.000000,0.000000
1303049.617129,-1.000000,-5.000000,7.000000,-3.000000,-7.000000,-1.000000,-2.000000,0.000000
1303049.617139,-6.000000,0.000000,2.000000,-4.000000,-1.000000,0.000000,-6.000000,7.000000
1303049.631534,2.000000,6.000000,-10.000000,1.000000,-6.000000,4.000000,4.000000,-6.000000
1303049.631545,3.000000,-2.000000,1.000000,2.000000,-4.000000,-8.000000,1.000000,0.000000
1303049.654561,-5.000000,-1.000000,13.000000,0.000000,0.000000,-4.000000,-10.000000,-1.000000
1303049.654576,-5.000000,9.000000,-6.000000,11.000000,-1.000000,-2.000000,7.000000,-1.000000
1303049.661734,7.000000,3.000000,-5.000000,2.000000,3.000000,-3.000000,4.000000,-2.000000
1303049.661752,-3.000000,-11.000000,9.000000,-3.000000,5.000000,0.000000,-8.000000,1.000000
1303049.699364,2.000000,7.000000,-6.000000,-1.000000,6.000000,5.000000,-1.000000,1.000000
1303049.699376,7.000000,1.000000,-17.000000,0.000000,-5.000000,-9.000000,4.000000,-4.000000
1303049.699758,-3.000000,-9.000000,2.000000,-1.000000,2.000000,-4.000000,-5.000000,-1.000000
1303049.699767,-9.000000,-7.000000,3.000000,-3.000000,0.000000,4.000000,-7.000000,3.000000
1303049.700734,6.000000,0.000000,-7.000000,3.000000,-3.000000,-6.000000,3.000000,2.000000
1303049.700744,2.000000,-5.000000,-3.000000,-5.000000,-1.000000,-2.000000,-2.000000,-7.000000
1303049.701466,-8.000000,-11.000000,7.000000,-5.000000,5.000000,6.000000,-6.000000,-2.000000
1303049.701476,-2.000000,5.000000,-5.000000,-3.000000,-8.000000,-5.000000,3.000000,2.000000
1303049.702984,2.000000,-3.000000,-4.000000,2.000000,-1.000000,-4.000000,9.000000,-6.000000
1303049.702997,-4.000000,-4.000000,9.000000,-4.000000,3.000000,2.000000,-9.000000,-1.000000
1303049.714648,-4.000000,-4.000000,0.000000,-6.000000,-6.000000,-7.000000,2.000000,0.000000
1303049.714657,-5.000000,-1.000000,0.000000,4.000000,7.000000,5.000000,-6.000000,2.000000
1303049.721415,6.000000,8.000000,-7.000000,-11.000000,-4.000000,-5.000000,6.000000,-5.000000
1303049.721427,2.000000,-7.000000,-4.000000,7.000000,4.000000,-7.000000,4.000000,-5.000000
1303049.759121,-5.000000,-3.000000,11.000000,-11.000000,3.000000,2.000000,-12.000000,5.000000
1303049.759132,-3.000000,1.000000,-10.000000,0.000000,3.000000,-1.000000,8.000000,0.000000
1303049.796558,-3.000000,-9.000000,-5.000000,2.000000,0.000000,-8.000000,4.000000,-5.000000
1303049.796568,-9.000000,-10.000000,8.000000,-3.000000,2.000000,2.000000,0.000000,-2.000000
1303049.811436,-3.000000,7.000000,-2.000000,1.000000,-2.000000,2.000000,0.000000,4.000000
1303049.811447,1.000000,10.000000,-8.000000,4.000000,-1.000000,-7.000000,12.000000,-6.000000
1303049.819053,1.000000,2.000000,2.000000,-2.000000,2.000000,-1.000000,-3.000000,2.000000
1303049.819063,-5.000000,-5.000000,-8.000000,-5.000000,-2.000000,6.000000,-5.000000,-1.000000
1303049.834603,5.000000,5.000000,-13.000000,4.000000,4.000000,-1.000000,2.000000,-1.000000
1303049.834613,-5.000000,-11.000000,0.000000,-10.000000,-6.000000,-1.000000,-2.000000,-3.000000
1303049.835073,-9.000000,-4.000000,14.000000,-4.000000,-4.000000,3.000000,-7.000000,4.000000
1303049.835081,1.000000,10.000000,-11.000000,3.000000,0.000000,-8.000000,5.000000,1.000000
1303049.836340,7.000000,16.000000,-8.000000,1.000000,-1.000000,-5.000000,5.000000,-5.000000
1303049.836348,4.000000,-10.000000,-4.000000,6.000000,-5.000000,-10.000000,4.000000,-3.000000
1303049.856711,-3.000000,-5.000000,11.000000,-7.000000,0.000000,2.000000,-5.000000,2.000000
1303049.856728,-2.000000,9.000000,-14.000000,-4.000000,-1.000000,0.000000,2.000000,3.000000
1303049.857132,7.000000,0.000000,-13.000000,4.000000,-1.000000,-3.000000,6.000000,-3.000000
1303049.857140,-6.000000,0.000000,12.000000,-10.000000,-4.000000,1.000000,-6.000000,0.000000
1303049.858500,-2.000000,5.000000,-5.000000,5.000000,-2.000000,7.000000,-2.000000,0.000000
1303049.858509,7.000000,6.000000,-10.000000,1.000000,-5.000000,-4.000000,8.000000,-4.000000
1303049.879374,-5.000000,-10.000000,9.000000,-5.000000,-5.000000,0.000000,-5.000000,-3.000000
1303049.879386,-2.000000,-5.000000,2.000000,-4.000000,-7.000000,1.000000,-6.000000,-3.000000
1303049.916530,5.000000,8.000000,-7.000000,1.000000,-3.000000,-2.000000,7.000000,-4.000000
1303049.916540,0.000000,-7.000000,3.000000,-1.000000,-2.000000,-7.000000,-4.000000,-1.000000
1303049.931906,-12.000000,-12.000000,8.000000,-6.000000,1.000000,3.000000,-8.000000,-2.000000
1303049.931917,5.000000,3.000000,-3.000000,1.000000,-4.000000,4.000000,5.000000,-3.000000
1303049.954188,7.000000,0.000000,1.000000,-1.000000,0.000000,-3.000000,3.000000,-4.000000
1303049.954202,-5.000000,-14.000000,10.000000,-3.000000,0.000000,4.000000,-8.000000,0.000000
1303049.976823,-3.000000,6.000000,-8.000000,2.000000,0.000000,-2.000000,-4.000000,1.000000
1303049.976834,11.000000,8.000000,-15.000000,0.000000,1.000000,-7.000000,4.000000,1.000000
1303050.014247,-5.000000,-6.000000,-6.000000,-4.000000,1.000000,-2.000000,-6.000000,-1.000000
1303050.014258,-2.000000,-1.000000,5.000000,-3.000000,0.000000,4.000000,-8.000000,2.000000
1303050.059018,-1.000000,9.000000,-6.000000,-2.000000,3.000000,5.000000,4.000000,2.000000
1303050.059028,9.000000,7.000000,-7.000000,6.000000,-2.000000,-8.000000,10.000000,-4.000000
1303050.076649,0.000000,-8.000000,4.000000,-1.000000,-4.000000,-6.000000,1.000000,-3.000000
1303050.076664,-6.000000,-8.000000,5.000000,-1.000000,-3.000000,1.000000,-5.000000,2.000000
1303050.078115,6.000000,16.000000,-6.000000,3.000000,0.000000,-1.000000,9.000000,-5.000000
1303050.078146,-8.000000,-15.000000,6.000000,-5.000000,1.000000,-7.000000,-1.000000,-2.000000
1303050.088875,-8.000000,-7.000000,11.000000,-3.000000,2.000000,4.000000,-13.000000,1.000000
1303050.088885,5.000000,5.000000,-4.000000,15.000000,6.000000,-1.000000,2.000000,-1.000000
1303050.090414,1.000000,1.000000,3.000000,-1.000000,-4.000000,-5.000000,3.000000,-5.000000
1303050.090430,-12.000000,-11.000000,10.000000,-3.000000,1.000000,5.000000,-6.000000,3.000000
1303050.111970,-1.000000,3.000000,-17.000000,0.000000,0.000000,2.000000,-1.000000,-2.000000
1303050.111982,6.000000,6.000000,-13.000000,2.000000,-6.000000,-5.000000,7.000000,-3.000000
1303050.141546,-1.000000,-5.000000,2.000000,-4.000000,0.000000,6.000000,-2.000000,-2.000000
1303050.141565,-4.000000,3.000000,-2.000000,-7.000000,-3.000000,10.000000,-4.000000,-3.000000
1303050.149018,8.000000,12.000000,2.000000,14.000000,2.000000,-11.000000,7.000000,-4.000000
1303050.149028,-6.000000,-9.000000,12.000000,-1.000000,-3.000000,-3.000000,-6.000000,4.000000
1303050.171622,-9.000000,-11.000000,1.000000,-6.000000,1.000000,6.000000,-8.000000,3.000000
1303050.171633,2.000000,4.000000,-3.000000,6.000000,3.000000,2.000000,5.000000,-1.000000
1303050.171974,7.000000,-3.000000,-2.000000,-1.000000,-1.000000,-7.000000,0.000000,-6.000000
1303050.172004,-8.000000,-12.000000,8.000000,-6.000000,-5.000000,2.000000,-9.000000,1.000000
1303050.173377,1.000000,8.000000,-10.000000,0.000000,4.000000,-1.000000,-2.000000,-2.000000
1303050.173389,6.000000,8.000000,-2.000000,4.000000,-10.000000,-12.000000,8.000000,-2.000000
1303050.174071,-4.000000,-12.000000,5.000000,-7.000000,-2.000000,5.000000,-5.000000,-1.000000
1303050.174081,-5.000000,3.000000,-2.000000,1.000000,3.000000,5.000000,-6.000000,5.000000
1303050.175472,8.000000,6.000000,-9.000000,2.000000,-6.000000,2.000000,6.000000,-2.000000
1303050.175481,-5.000000,1.000000,6.000000,7.000000,4.000000,-6.000000,1.000000,-4.000000
1303050.178921,0.000000,-1.000000,5.000000,-7.000000,7.000000,-1.000000,-9.000000,6.000000
1303050.178931,1.000000,2.000000,-6.000000,-5.000000,-4.000000,1.000000,6.000000,-6.000000
1303050.194516,4.000000,-5.000000,2.000000,-5.000000,-1.000000,-7.000000,1.000000,-1.000000
1303050.194524,-10.000000,-8.000000,7.000000,-6.000000,-2.000000,6.000000,-11.000000,3.000000
1303050.209417,0.000000,5.000000,-7.000000,0.000000,1.000000,-3.000000,5.000000,-3.000000
1303050.209428,3.000000,-1.000000,-6.000000,0.000000,-2.000000,-6.000000,6.000000,-5.000000
1303050.210251,1.000000,-8.000000,2.000000,0.000000,-3.000000,2.000000,-8.000000,2.000000
1303050.210363,-4.000000,-3.000000,-9.000000,-4.000000,7.000000,6.000000,1.000000,3.000000
1303050.254256,4.000000,13.000000,-4.000000,1.000000,-1.000000,-4.000000,9.000000,-3.000000
1303050.254267,-1.000000,-4.000000,3.000000,-4.000000,-5.000000,1.000000,-6.000000,5.000000
1303050.276631,-8.000000,0.000000,-6.000000,-7.000000,1.000000,5.000000,-9.000000,1.000000
1303050.276652,7.000000,8.000000,4.000000,13.000000,-3.000000,-4.000000,11.000000,-4.000000
1303050.291715,-6.000000,-5.000000,-4.000000,2.000000,-1.000000,-7.000000,-2.000000,-3.000000
1303050.291726,-10.000000,-18.000000,5.000000,-3.000000,1.000000,2.000000,-7.000000,0.000000
1303050.314125,5.000000,2.000000,-5.000000,-3.000000,0.000000,4.000000,6.000000,-2.000000
1303050.314135,6.000000,4.000000,-7.000000,-3.000000,0.000000,-6.000000,7.000000,-4.000000
1303050.321278,-7.000000,-6.000000,5.000000,-2.000000,-10.000000,1.000000,-6.000000,-1.000000
1303050.321288,-4.000000,2.000000,-7.000000,-3.000000,6.000000,-1.000000,3.000000,3.000000
1303050.344348,-9.000000,-4.000000,-7.000000,-3.000000,3.000000,-1.000000,-7.000000,1.000000
1303050.344361,0.000000,8.000000,-5.000000,8.000000,-5.000000,-6.000000,4.000000,-6.000000
1303050.381593,4.000000,5.000000,-8.000000,7.000000,-5.000000,-5.000000,5.000000,-8.000000
1303050.381606,0.000000,-8.000000,-1.000000,2.000000,0.000000,-5.000000,-9.000000,-3.000000
1303050.426429,-8.000000,-11.000000,6.000000,-5.000000,-4.000000,9.000000,-8.000000,0.000000
1303050.426439,7.000000,4.000000,-6.000000,-3.000000,-1.000000,-9.000000,3.000000,-5.000000
1303050.428240,-6.000000,-3.000000,5.000000,-4.000000,1.000000,7.000000,-5.000000,5.000000
1303050.428267,2.000000,7.000000,-7.000000,5.000000,-7.000000,-2.000000,7.000000,-3.000000
1303050.429496,3.000000,5.000000,-7.000000,-1.000000,-1.000000,2.000000,5.000000,-1.000000
1303050.429523,1.000000,4.000000,-2.000000,1.000000,-7.000000,-11.000000,2.000000,-5.000000
1303050.448925,-1.000000,-4.000000,-5.000000,-5.000000,1.000000,3.000000,-6.000000,0.000000
1303050.448936,6.000000,9.000000,-9.000000,5.000000,-5.000000,2.000000,5.000000,-2.000000
1303050.449350,-1.000000,-11.000000,8.000000,4.000000,-2.000000,-10.000000,1.000000,-4.000000
1303050.449358,-8.000000,-4.000000,15.000000,-4.000000,5.000000,8.000000,-10.000000,3.000000
1303050.456672,-1.000000,10.000000,-8.000000,4.000000,-2.000000,-6.000000,2.000000,-4.000000
1303050.456684,5.000000,7.000000,-5.000000,0.000000,2.000000,-6.000000,4.000000,-6.000000
1303050.463999,0.000000,-10.000000,2.000000,-3.000000,1.000000,-2.000000,-8.000000,3.000000
1303050.464010,-2.000000,12.000000,-3.000000,0.000000,-2.000000,7.000000,-1.000000,-2.000000
1303050.486908,5.000000,2.000000,-9.000000,7.000000,-6.000000,-9.000000,5.000000,-3.000000
1303050.486920,-1.000000,2.000000,1.000000,-3.000000,-6.000000,0.000000,-3.000000,-1.000000
1303050.509266,-4.000000,-6.000000,11.000000,-7.000000,-3.000000,7.000000,-3.000000,4.000000
1303050.509283,6.000000,5.000000,-14.000000,2.000000,2.000000,-2.000000,7.000000,-2.000000
1303050.546612,-3.000000,-19.000000,6.000000,-12.000000,-1.000000,-3.000000,-1.000000,-3.000000
1303050.546626,-9.000000,3.000000,9.000000,-15.000000,-3.000000,3.000000,-7.000000,3.000000
1303050.547233,3.000000,7.000000,-6.000000,7.000000,-5.000000,-3.000000,5.000000,1.000000
1303050.547243,2.000000,-4.000000,-4.000000,-2.000000,1.000000,-5.000000,4.000000,-7.000000
1303050.548190,-4.000000,10.000000,4.000000,0.000000,-5.000000,1.000000,-7.000000,2.000000
1303050.548208,-1.000000,3.000000,-1.000000,-1.000000,2.000000,3.000000,3.000000,3.000000
1303050.548865,5.000000,7.000000,-4.000000,0.000000,-3.000000,-6.000000,8.000000,-5.000000
1303050.548874,0.000000,-5.000000,2.000000,1.000000,-2.000000,-1.000000,-7.000000,-1.000000
1303050.550571,0.000000,-5.000000,8.000000,0.000000,2.000000,-9.000000,0.000000,-5.000000
1303050.550579,-10.000000,-2.000000,3.000000,-4.000000,-2.000000,8.000000,-14.000000,2.000000
1303050.554583,5.000000,-1.000000,-9.000000,2.000000,0.000000,-9.000000,3.000000,1.000000
1303050.554591,7.000000,-1.000000,-1.000000,1.000000,2.000000,-12.000000,3.000000,-3.000000
1303050.568999,-8.000000,-3.000000,4.000000,-6.000000,0.000000,7.000000,-9.000000,-1.000000
1303050.569014,1.000000,6.000000,-6.000000,0.000000,3.000000,6.000000,1.000000,1.000000
1303050.591644,5.000000,5.000000,-2.000000,-3.000000,-4.000000,-8.000000,3.000000,1.000000
1303050.591655,-10.000000,-14.000000,4.000000,1.000000,0.000000,-2.000000,-3.000000,3.000000
1303050.614079,-1.000000,-8.000000,6.000000,2.000000,0.000000,2.000000,-5.000000,4.000000
1303050.614088,4.000000,5.000000,-8.000000,-3.000000,0.000000,0.000000,5.000000,-1.000000
1303050.644090,6.000000,-2.000000,0.000000,-4.000000,3.000000,-1.000000,-6.000000,0.000000
1303050.644109,-6.000000,-10.000000,-3.000000,-7.000000,1.000000,3.000000,-6.000000,1.000000
1303050.651394,4.000000,14.000000,-4.000000,1.000000,1.000000,-2.000000,3.000000,3.000000
1303050.651409,2.000000,-8.000000,-4.000000,-3.000000,2.000000,-11.000000,5.000000,-3.000000
1303050.666481,-7.000000,-2.000000,5.000000,-6.000000,-5.000000,0.000000,-11.000000,-1.000000
1303050.666492,2.000000,5.000000,-10.000000,-1.000000,-1.000000,-1.000000,0.000000,-5.000000
1303050.667011,3.000000,1.000000,-8.000000,-3.000000,-2.000000,-8.000000,2.000000,-3.000000
1303050.667022,-5.000000,-6.000000,15.000000,-1.000000,-1.000000,1.000000,-7.000000,0.000000
1303050.668142,-4.000000,-13.000000,4.000000,-3.000000,2.000000,-7.000000,1.000000,1.000000
1303050.668150,0.000000,-7.000000,1.000000,-11.000000,1.000000,2.000000,-11.000000,1.000000
1303050.668997,-10.000000,-8.000000,6.000000,-4.000000,6.000000,7.000000,-5.000000,1.000000
1303050.669005,1.000000,8.000000,-16.000000,0.000000,0.000000,2.000000,4.000000,-3.000000
1303050.689598,9.000000,-1.000000,0.000000,2.000000,-4.000000,-11.000000,3.000000,-2.000000
1303050.689612,-3.000000,-3.000000,3.000000,1.000000,-3.000000,-3.000000,-6.000000,-1.000000
1303050.690533,-8.000000,-9.000000,-5.000000,4.000000,-5.000000,1.000000,-5.000000,4.000000
1303050.690552,7.000000,14.000000,1.000000,0.000000,-5.000000,-8.000000,7.000000,-5.000000
1303050.711903,0.000000,-8.000000,6.000000,5.000000,3.000000,1.000000,-2.000000,1.000000
1303050.711916,-9.000000,-13.000000,3.000000,-1.000000,0.000000,13.000000,-8.000000,1.000000
1303050.726904,3.000000,7.000000,-1.000000,2.000000,-1.000000,-7.000000,8.000000,0.000000
1303050.726916,-1.000000,-3.000000,-8.000000,-5.000000,0.000000,-8.000000,-1.000000,-3.000000
1303050.764152,-3.000000,0.000000,1.000000,1.000000,2.000000,0.000000,-5.000000,0.000000
1303050.764163,7.000000,5.000000,-4.000000,10.000000,2.000000,-1.000000,3.000000,3.000000
1303050.771750,0.000000,-2.000000,-10.000000,1.000000,-9.000000,-6.000000,4.000000,-2.000000
1303050.771763,-6.000000,-7.000000,9.000000,-5.000000,3.000000,2.000000,-4.000000,-4.000000
1303050.772667,-8.000000,-8.000000,1.000000,1.000000,0.000000,3.000000,-2.000000,2.000000
1303050.772676,4.000000,8.000000,-10.000000,5.000000,-2.000000,-10.000000,6.000000,-5.000000
1303050.773580,-5.000000,-8.000000,6.000000,-2.000000,-5.000000,1.000000,-4.000000,0.000000
1303050.773630,-7.000000,-14.000000,2.000000,-5.000000,3.000000,2.000000,-9.000000,0.000000
1303050.774539,-4.000000,-23.000000,11.000000,-7.000000,6.000000,4.000000,-4.000000,6.000000
1303050.774548,2.000000,5.000000,-5.000000,-2.000000,-1.000000,-1.000000,3.000000,-1.000000
1303050.786429,-1.000000,2.000000,-8.000000,-2.000000,-1.000000,8.000000,-7.000000,3.000000
1303050.786442,3.000000,7.000000,-1.000000,-1.000000,-2.000000,-10.000000,3.000000,-5.000000
1303050.824185,2.000000,1.000000,3.000000,-7.000000,-5.000000,-9.000000,-5.000000,-1.000000
1303050.824195,-7.000000,-8.000000,-2.000000,-8.000000,7.000000,8.000000,-7.000000,1.000000
1303050.831497,0.000000,11.000000,-10.000000,-3.000000,2.000000,4.000000,2.000000,-3.000000
1303050.831507,-2.000000,-12.000000,1.000000,4.000000,0.000000,-5.000000,0.000000,-5.000000
1303050.869147,-4.000000,0.000000,5.000000,-9.000000,2.000000,5.000000,-8.000000,3.000000
1303050.869162,-1.000000,-2.000000,-9.000000,0.000000,-9.000000,1.000000,1.000000,-1.000000
1303050.891403,6.000000,4.000000,-10.000000,5.000000,0.000000,-4.000000,4.000000,-2.000000
1303050.891433,-1.000000,-2.000000,8.000000,-6.000000,-2.000000,-6.000000,-7.000000,-1.000000
1303050.892425,-4.000000,10.000000,-5.000000,3.000000,-3.000000,2.000000,-1.000000,0.000000
1303050.892452,4.000000,1.000000,-11.000000,8.000000,-4.000000,-14.000000,11.000000,-1.000000
1303050.893106,-9.000000,-11.000000,6.000000,-6.000000,-3.000000,-1.000000,-4.000000,1.000000
1303050.893113,-7.000000,-4.000000,0.000000,-6.000000,0.000000,8.000000,-9.000000,6.000000
1303050.894404,-7.000000,-21.000000,10.000000,-10.000000,-4.000000,7.000000,-5.000000,1.000000
1303050.894430,4.000000,7.000000,-9.000000,2.000000,4.000000,3.000000,6.000000,0.000000
1303050.895185,-7.000000,-10.000000,-20.000000,9.000000,5.000000,2.000000,-3.000000,3.000000
1303050.895192,5.000000,6.000000,-9.000000,3.000000,-8.000000,-7.000000,9.000000,-4.000000
1303050.906584,4.000000,9.000000,-9.000000,2.000000,5.000000,-3.000000,8.000000,-1.000000
1303050.906594,3.000000,-12.000000,2.000000,-2.000000,-1.000000,-12.000000,-5.000000,-3.000000
1303050.921944,-4.000000,-10.000000,8.000000,2.000000,2.000000,7.000000,-6.000000,4.000000
1303050.921952,-1.000000,2.000000,-1.000000,-1.000000,-1.000000,3.000000,3.000000,-6.000000
1303050.922997,5.000000,-2.000000,-2.000000,-3.000000,-3.000000,-11.000000,5.000000,-1.000000
1303050.923017,-3.000000,-1.000000,12.000000,-2.000000,-7.000000,3.000000,-10.000000,7.000000
1303050.966671,-5.000000,8.000000,2.000000,-11.000000,-3.000000,-2.000000,0.000000,-1.000000
1303050.966726,-2.000000,-1.000000,-9.000000,3.000000,6.000000,-7.000000,7.000000,-9.000000
1303050.981628,-3.000000,-8.000000,8.000000,-6.000000,1.000000,-1.000000,-7.000000,0.000000
1303050.981646,0.000000,-7.000000,2.000000,6.000000,4.000000,8.000000,-5.000000,1.000000
1303050.989578,6.000000,5.000000,-4.000000,8.000000,-3.000000,-4.000000,4.000000,-1.000000
1303050.989587,1.000000,-9.000000,3.000000,-5.000000,5.000000,-6.000000,-2.000000,-3.000000
1303051.004208,-8.000000,-6.000000,6.000000,-6.000000,-2.000000,3.000000,-7.000000,2.000000
1303051.004220,6.000000,-2.000000,-8.000000,0.000000,2.000000,6.000000,3.000000,2.000000
1303051.005046,5.000000,-2.000000,-11.000000,-1.000000,-4.000000,-10.000000,6.000000,-6.000000
1303051.005054,-5.000000,-8.000000,8.000000,-8.000000,-4.000000,7.000000,-6.000000,-2.000000
1303051.005758,-5.000000,4.000000,-10.000000,4.000000,-3.000000,6.000000,2.000000,2.000000
1303051.005771,7.000000,12.000000,-13.000000,6.000000,0.000000,-12.000000,10.000000,-4.000000
1303051.006488,-2.000000,-5.000000,3.000000,-3.000000,-2.000000,1.000000,-3.000000,-1.000000
1303051.006497,-3.000000,6.000000,7.000000,-2.000000,0.000000,3.000000,-4.000000,2.000000
1303051.007295,8.000000,-1.000000,-6.000000,-1.000000,6.000000,-2.000000,6.000000,-2.000000
1303051.007304,0.000000,-7.000000,-1.000000,-2.000000,-9.000000,-10.000000,0.000000,1.000000
1303051.026565,-9.000000,-4.000000,8.000000,-13.000000,1.000000,8.000000,-9.000000,3.000000
1303051.026596,1.000000,2.000000,-1.000000,4.000000,2.000000,2.000000,1.000000,-3.000000
1303051.027158,-1.000000,-7.000000,-7.000000,3.000000,-3.000000,-7.000000,2.000000,0.000000
1303051.027167,-10.000000,-10.000000,7.000000,-5.000000,-3.000000,-4.000000,-10.000000,-1.000000
1303051.041741,-3.000000,6.000000,-9.000000,0.000000,3.000000,6.000000,1.000000,0.000000
1303051.041784,4.000000,13.000000,-6.000000,8.000000,-7.000000,-5.000000,6.000000,0.000000
1303051.042480,-6.000000,-9.000000,2.000000,-6.000000,-5.000000,1.000000,-6.000000,-2.000000
1303051.042502,-5.000000,5.000000,-7.000000,-5.000000,0.000000,2.000000,-4.000000,1.000000
1303051.064345,2.000000,-2.000000,-9.000000,4.000000,-4.000000,-8.000000,3.000000,-7.000000
1303051.064383,6.000000,3.000000,7.000000,-4.000000,-1.000000,2.000000,-2.000000,-4.000000
1303051.086515,-6.000000,-10.000000,12.000000,-2.000000,-2.000000,5.000000,-9.000000,2.000000
1303051.086525,6.000000,10.000000,-9.000000,7.000000,1.000000,-7.000000,4.000000,1.000000
1303051.109310,3.000000,-6.000000,-7.000000,1.000000,5.000000,-2.000000,3.000000,-5.000000
1303051.109321,-3.000000,-12.000000,12.000000,-3.000000,-2.000000,8.000000,-5.000000,0.000000
1303051.124116,4.000000,7.000000,-11.000000,1.000000,0.000000,2.000000,0.000000,2.000000
1303051.124165,9.000000,8.000000,-2.000000,0.000000,-1.000000,-3.000000,2.000000,-4.000000
1303051.125315,-4.000000,-10.000000,11.000000,-6.000000,-3.000000,-8.000000,-1.000000,-1.000000
1303051.125325,-3.000000,1.000000,-6.000000,0.000000,-1.000000,0.000000,-3.000000,3.000000
1303051.131400,2.000000,-4.000000,4.000000,2.000000,-1.000000,-4.000000,5.000000,-3.000000
1303051.131410,-2.000000,-11.000000,6.000000,-2.000000,-1.000000,-2.000000,-2.000000,-3.000000
1303051.139660,-9.000000,-5.000000,6.000000,-6.000000,-5.000000,-1.000000,-8.000000,3.000000
1303051.139695,7.000000,13.000000,-1.000000,6.000000,2.000000,7.000000,7.000000,0.000000
1303051.140310,3.000000,-10.000000,-7.000000,0.000000,-8.000000,1.000000,2.000000,-5.000000
1303051.140319,-12.000000,-9.000000,5.000000,-8.000000,1.000000,10.000000,-12.000000,2.000000
1303051.146873,-1.000000,0.000000,-14.000000,0.000000,3.000000,-4.000000,4.000000,7.000000
1303051.146881,2.000000,10.000000,0.000000,4.000000,-8.000000,-9.000000,5.000000,-6.000000
1303051.147891,-9.000000,-7.000000,2.000000,-9.000000,5.000000,-3.000000,-6.000000,-1.000000
1303051.147918,-3.000000,-2.000000,-1.000000,1.000000,4.000000,6.000000,-4.000000,3.000000
1303051.184089,-4.000000,2.000000,-7.000000,-6.000000,-4.000000,-3.000000,6.000000,-3.000000
1303051.184099,-2.000000,-10.000000,4.000000,-4.000000,1.000000,-8.000000,-4.000000,-2.000000
1303051.199178,-3.000000,-6.000000,1.000000,-6.000000,-4.000000,8.000000,-8.000000,2.000000
1303051.199208,4.000000,4.000000,-7.000000,3.000000,-11.000000,5.000000,5.000000,-2.000000
1303051.221819,0.000000,2.000000,6.000000,6.000000,6.000000,-12.000000,2.000000,-4.000000
1303051.221831,-7.000000,-4.000000,7.000000,-4.000000,1.000000,2.000000,-8.000000,6.000000
1303051.244142,1.000000,12.000000,-3.000000,3.000000,7.000000,1.000000,6.000000,0.000000
1303051.244154,7.000000,-2.000000,-10.000000,6.000000,4.000000,-10.000000,7.000000,-5.000000
1303051.266545,-5.000000,-4.000000,10.000000,0.000000,-3.000000,-2.000000,-5.000000,-3.000000
1303051.266557,-8.000000,-6.000000,2.000000,-1.000000,3.000000,12.000000,-4.000000,0.000000
1303051.281807,5.000000,3.000000,-10.000000,6.000000,4.000000,1.000000,7.000000,2.000000
1303051.281820,-6.000000,-9.000000,13.000000,-2.000000,-1.000000,-2.000000,0.000000,-3.000000
1303051.319387,1.000000,1.000000,4.000000,-2.000000,-4.000000,-16.000000,-1.000000,-4.000000
1303051.319398,-10.000000,-14.000000,15.000000,-5.000000,-3.000000,10.000000,-9.000000,-1.000000
1303051.326764,-1.000000,16.000000,-7.000000,-4.000000,-5.000000,1.000000,6.000000,0.000000
1303051.326776,6.000000,10.000000,-11.000000,-3.000000,7.000000,-7.000000,8.000000,-6.000000
1303051.341616,-6.000000,0.000000,7.000000,-4.000000,6.000000,6.000000,-4.000000,4.000000
1303051.341627,-1.000000,-4.000000,-8.000000,-4.000000,-1.000000,-2.000000,1.000000,-2.000000
1303051.343159,3.000000,-4.000000,7.000000,2.000000,3.000000,7.000000,-3.000000,4.000000
1303051.343178,-2.000000,4.000000,-10.000000,-1.000000,-9.000000,0.000000,-3.000000,3.000000
1303051.343840,2.000000,-4.000000,-4.000000,-2.000000,0.000000,0.000000,1.000000,-5.000000
1303051.343848,-7.000000,-5.000000,6.000000,-6.000000,1.000000,4.000000,-9.000000,1.000000
1303051.344653,4.000000,4.000000,-9.000000,1.000000,2.000000,11.000000,1.000000,-1.000000
1303051.344670,6.000000,0.000000,-3.000000,4.000000,-13.000000,-11.000000,5.000000,-2.000000
1303051.364380,-8.000000,-3.000000,-2.000000,-3.000000,-3.000000,0.000000,-6.000000,0.000000
1303051.364393,2.000000,4.000000,2.000000,0.000000,4.000000,-1.000000,2.000000,-4.000000
1303051.379673,4.000000,3.000000,-12.000000,-8.000000,-2.000000,-4.000000,6.000000,-2.000000
1303051.379684,-5.000000,-7.000000,-2.000000,1.000000,-7.000000,-2.000000,-4.000000,3.000000
1303051.380180,-10.000000,-2.000000,2.000000,-3.000000,-3.000000,9.000000,-3.000000,2.000000
1303051.380194,6.000000,6.000000,-7.000000,-1.000000,-1.000000,-3.000000,4.000000,-6.000000
1303051.381661,0.000000,-4.000000,-1.000000,-7.000000,-5.000000,-10.000000,2.000000,-3.000000
1303051.381671,-11.000000,-17.000000,5.000000,-10.000000,-1.000000,5.000000,-6.000000,0.000000
1303051.386706,2.000000,6.000000,-7.000000,12.000000,6.000000,3.000000,0.000000,0.000000
1303051.386717,4.000000,11.000000,-8.000000,-8.000000,-7.000000,-8.000000,2.000000,-2.000000
1303051.416834,-8.000000,-12.000000,4.000000,-4.000000,3.000000,0.000000,-7.000000,5.000000
1303051.416846,-1.000000,3.000000,-10.000000,-5.000000,-3.000000,1.000000,-6.000000,1.000000
1303051.424318,9.000000,11.000000,-12.000000,2.000000,-4.000000,-4.000000,6.000000,-5.000000
1303051.424331,-2.000000,-12.000000,7.000000,-6.000000,1.000000,-2.000000,-5.000000,-2.000000
1303051.461828,-7.000000,-9.000000,0.000000,-3.000000,2.000000,11.000000,-2.000000,0.000000
1303051.461841,1.000000,11.000000,-8.000000,0.000000,3.000000,2.000000,3.000000,-3.000000
1303051.476621,-2.000000,-9.000000,0.000000,0.000000,-3.000000,-11.000000,-5.000000,-1.000000
1303051.476634,0.000000,-1.000000,7.000000,-6.000000,1.000000,2.000000,-11.000000,0.000000
1303051.477649,-1.000000,-7.000000,-4.000000,-2.000000,-2.000000,1.000000,5.000000,-3.000000
1303051.477660,-7.000000,-6.000000,-16.000000,-1.000000,-6.000000,-9.000000,2.000000,-6.000000
1303051.478263,1.000000,-7.000000,-2.000000,-3.000000,5.000000,4.000000,-7.000000,-6.000000
1303051.478284,0.000000,16.000000,-1.000000,-4.000000,-6.000000,13.000000,2.000000,1.000000
1303051.479671,-8.000000,0.000000,4.000000,-1.000000,-1.000000,0.000000,-5.000000,3.000000
1303051.479682,7.000000,0.000000,-5.000000,-4.000000,-1.000000,1.000000,7.000000,-1.000000
1303051.480406,-6.000000,-4.000000,8.000000,-4.000000,-2.000000,-7.000000,0.000000,0.000000
1303051.480416,-7.000000,-10.000000,5.000000,-6.000000,-2.000000,-1.000000,-6.000000,5.000000
1303051.483987,3.000000,0.000000,-8.000000,6.000000,-5.000000,-2.000000,3.000000,0.000000
1303051.484008,8.000000,1.000000,-2.000000,3.000000,-2.000000,-2.000000,2.000000,-3.000000
1303051.499743,-4.000000,-12.000000,11.000000,-10.000000,-3.000000,-5.000000,-7.000000,-1.000000
1303051.499759,-3.000000,4.000000,-10.000000,1.000000,1.000000,0.000000,-3.000000,-4.000000
1303051.521630,5.000000,1.000000,-8.000000,7.000000,-2.000000,-7.000000,4.000000,-3.000000
1303051.521642,-6.000000,-7.000000,12.000000,2.000000,-1.000000,-3.000000,-3.000000,-3.000000
1303051.544303,5.000000,9.000000,5.000000,-7.000000,-5.000000,6.000000,-10.000000,3.000000
1303051.544315,-1.000000,-1.000000,-4.000000,6.000000,1.000000,-1.000000,7.000000,-2.000000
1303051.559345,6.000000,-2.000000,3.000000,1.000000,-5.000000,-1.000000,-5.000000,-2.000000
1303051.559358,-5.000000,-17.000000,2.000000,-7.000000,3.000000,1.000000,-8.000000,-1.000000
1303051.581676,-1.000000,2.000000,-9.000000,-2.000000,-5.000000,-2.000000,-1.000000,-4.000000
1303051.581685,9.000000,5.000000,-1.000000,2.000000,-3.000000,-12.000000,1.000000,-3.000000
1303051.596769,-7.000000,0.000000,6.000000,0.000000,3.000000,2.000000,-7.000000,1.000000
1303051.596780,-1.000000,-1.000000,-8.000000,1.000000,0.000000,3.000000,-3.000000,3.000000
1303051.619221,6.000000,7.000000,-11.000000,-2.000000,-3.000000,1.000000,6.000000,-4.000000
1303051.619233,-7.000000,-11.000000,-4.000000,0.000000,0.000000,-4.000000,-9.000000,1.000000
1303051.641794,-5.000000,-9.000000,-4.000000,-6.000000,-3.000000,6.000000,-4.000000,1.000000
1303051.641806,1.000000,5.000000,-6.000000,5.000000,-1.000000,-6.000000,3.000000,-1.000000
1303051.656679,0.000000,-2.000000,4.000000,-4.000000,-4.000000,-6.000000,-2.000000,-6.000000
1303051.656691,-6.000000,-4.000000,3.000000,-4.000000,4.000000,-4.000000,-5.000000,0.000000
1303051.664277,0.000000,9.000000,-9.000000,1.000000,1.000000,-4.000000,2.000000,1.000000
1303051.664328,5.000000,-4.000000,0.000000,4.000000,-4.000000,-2.000000,0.000000,-7.000000
1303051.679071,-9.000000,3.000000,8.000000,-1.000000,-1.000000,2.000000,-10.000000,1.000000
1303051.679080,1.000000,1.000000,-9.000000,7.000000,-3.000000,-1.000000,5.000000,3.000000
1303051.694157,-5.000000,-2.000000,-1.000000,-3.000000,-2.000000,2.000000,-3.000000,3.000000
1303051.694169,4.000000,4.000000,-5.000000,0.000000,0.000000,-3.000000,8.000000,-6.000000
1303051.701758,5.000000,6.000000,-4.000000,3.000000,-2.000000,1.000000,4.000000,-3.000000
1303051.701772,1.000000,-2.000000,0.000000,-5.000000,2.000000,-4.000000,-2.000000,0.000000
1303051.702176,1.000000,11.000000,-7.000000,0.000000,-1.000000,-9.000000,10.000000,-2.000000
1303051.702186,-4.000000,-5.000000,2.000000,-6.000000,-3.000000,2.000000,-6.000000,2.000000
1303051.703208,-2.000000,-1.000000,9.000000,-1.000000,0.000000,-7.000000,-2.000000,-3.000000
1303051.703217,-2.000000,13.000000,7.000000,-4.000000,-2.000000,4.000000,-9.000000,2.000000
1303051.704078,1.000000,-5.000000,5.000000,-4.000000,-8.000000,3.000000,-8.000000,6.000000
1303051.704088,2.000000,4.000000,-5.000000,3.000000,4.000000,-1.000000,4.000000,0.000000
1303051.724046,6.000000,7.000000,-9.000000,-1.000000,0.000000,-4.000000,6.000000,-4.000000
1303051.724058,-5.000000,-1.000000,5.000000,2.000000,5.000000,-4.000000,-6.000000,0.000000
1303051.724976,-12.000000,-15.000000,8.000000,1.000000,-1.000000,12.000000,0.000000,5.000000
1303051.725003,6.000000,1.000000,-21.000000,3.000000,-6.000000,-7.000000,4.000000,-2.000000
1303051.725921,3.000000,-6.000000,0.000000,-4.000000,4.000000,-3.000000,-3.000000,-2.000000
1303051.725947,-9.000000,-6.000000,3.000000,-8.000000,-4.000000,8.000000,-11.000000,-1.000000
1303051.739716,7.000000,3.000000,-3.000000,3.000000,-7.000000,-8.000000,3.000000,-3.000000
1303051.739726,2.000000,-4.000000,-3.000000,-2.000000,0.000000,-8.000000,5.000000,-4.000000
1303051.754170,-5.000000,2.000000,8.000000,-4.000000,-6.000000,-1.000000,-9.000000,-1.000000
1303051.754182,2.000000,2.000000,-11.000000,-2.000000,-5.000000,3.000000,1.000000,2.000000
1303051.769813,6.000000,4.000000,-1.000000,-1.000000,-9.000000,-8.000000,3.000000,-2.000000
1303051.769839,-9.000000,-7.000000,11.000000,0.000000,-1.000000,-1.000000,-6.000000,2.000000
1303051.777379,-2.000000,-2.000000,-7.000000,0.000000,-1.000000,5.000000,-3.000000,-1.000000
1303051.777413,0.000000,5.000000,-5.000000,2.000000,-4.000000,-8.000000,9.000000,-3.000000
1303051.814751,7.000000,-1.000000,8.000000,1.000000,-3.000000,-4.000000,-5.000000,-5.000000
1303051.814774,-5.000000,-3.000000,-9.000000,-5.000000,-2.000000,6.000000,-9.000000,-1.000000
1303051.823119,-4.000000,0.000000,-2.000000,5.000000,-3.000000,-1.000000,3.000000,-3.000000
1303051.823887,-3.000000,-2.000000,1.000000,3.000000,0.000000,-6.000000,-3.000000,-4.000000
1303051.825621,-9.000000,-29.000000,2.000000,-6.000000,3.000000,3.000000,-4.000000,4.000000
1303051.825644,-4.000000,3.000000,-3.000000,12.000000,-1.000000,-1.000000,4.000000,-2.000000
1303051.825746,4.000000,1.000000,1.000000,3.000000,-5.000000,-10.000000,5.000000,-3.000000
1303051.825756,-3.000000,0.000000,3.000000,-5.000000,2.000000,-1.000000,-4.000000,-4.000000
1303051.837254,1.000000,5.000000,-4.000000,-1.000000,7.000000,3.000000,-3.000000,2.000000
1303051.837276,3.000000,8.000000,-15.000000,3.000000,-2.000000,-9.000000,1.000000,-6.000000
1303051.844682,-1.000000,-7.000000,-1.000000,-2.000000,-6.000000,-6.000000,-5.000000,-4.000000
1303051.844704,-13.000000,1.000000,2.000000,1.000000,0.000000,5.000000,-7.000000,1.000000
1303051.859356,4.000000,5.000000,-7.000000,2.000000,0.000000,2.000000,2.000000,-4.000000
1303051.859394,2.000000,-3.000000,0.000000,-1.000000,-5.000000,0.000000,3.000000,-3.000000
1303051.874231,-4.000000,-7.000000,3.000000,-3.000000,-1.000000,-1.000000,-9.000000,3.000000
1303051.874288,4.000000,18.000000,3.000000,4.000000,-5.000000,0.000000,3.000000,2.000000
1303051.920541,5.000000,2.000000,-4.000000,7.000000,0.000000,-7.000000,6.000000,-5.000000
1303051.920574,-10.000000,-9.000000,3.000000,-8.000000,-2.000000,6.000000,-5.000000,1.000000
1303051.935307,-1.000000,2.000000,-1.000000,0.000000,-2.000000,-3.000000,-4.000000,0.000000
1303051.935338,5.000000,8.000000,-8.000000,-2.000000,-6.000000,-3.000000,4.000000,-3.000000
1303051.958010,-5.000000,-13.000000,6.000000,5.000000,3.000000,4.000000,-3.000000,-2.000000
1303051.958055,-10.000000,-9.000000,-1.000000,-8.000000,-6.000000,3.000000,-7.000000,4.000000
1303051.958827,-4.000000,-10.000000,5.000000,-5.000000,4.000000,1.000000,-7.000000,-2.000000
1303051.958857,2.000000,5.000000,-6.000000,6.000000,4.000000,11.000000,4.000000,-4.000000
1303051.960201,7.000000,5.000000,-18.000000,5.000000,2.000000,-9.000000,1.000000,-3.000000
1303051.960231,0.000000,-4.000000,4.000000,-7.000000,1.000000,-13.000000,2.000000,-4.000000
1303051.981005,5.000000,5.000000,-6.000000,6.000000,2.000000,-3.000000,2.000000,-3.000000
1303051.981041,3.000000,2.000000,0.000000,-4.000000,0.000000,-4.000000,0.000000,0.000000
1303051.981283,-7.000000,-9.000000,14.000000,-1.000000,-4.000000,0.000000,-7.000000,1.000000
1303051.981304,6.000000,6.000000,-4.000000,-1.000000,-2.000000,4.000000,3.000000,-1.000000
1303051.981985,5.000000,-5.000000,-2.000000,0.000000,0.000000,-4.000000,1.000000,-4.000000
1303051.982018,-11.000000,-10.000000,3.000000,0.000000,2.000000,5.000000,-8.000000,2.000000
1303052.001910,-2.000000,4.000000,1.000000,-2.000000,-3.000000,3.000000,-1.000000,2.000000
1303052.001928,7.000000,8.000000,-11.000000,11.000000,-6.000000,-5.000000,3.000000,-7.000000
1303052.031593,-3.000000,-5.000000,1.000000,2.000000,6.000000,-1.000000,-2.000000,0.000000
1303052.031602,-9.000000,-7.000000,1.000000,-9.000000,6.000000,2.000000,-8.000000,4.000000
1303052.039210,4.000000,13.000000,-3.000000,-7.000000,-1.000000,-11.000000,4.000000,-2.000000
1303052.039221,1.000000,2.000000,-8.000000,4.000000,-1.000000,0.000000,1.000000,-4.000000
1303052.054318,-5.000000,-8.000000,23.000000,-3.000000,-1.000000,-1.000000,-9.000000,3.000000
1303052.054328,4.000000,1.000000,-5.000000,-3.000000,0.000000,5.000000,4.000000,-3.000000
1303052.055292,6.000000,-5.000000,-2.000000,-7.000000,3.000000,-6.000000,3.000000,-10.000000
1303052.055302,-6.000000,-11.000000,9.000000,-3.000000,1.000000,3.000000,-8.000000,0.000000
1303052.061426,-4.000000,-3.000000,-5.000000,1.000000,-3.000000,4.000000,-1.000000,2.000000
1303052.061436,13.000000,9.000000,-8.000000,2.000000,-12.000000,-5.000000,7.000000,-3.000000
1303052.077242,-6.000000,-7.000000,8.000000,-3.000000,0.000000,8.000000,-8.000000,0.000000
1303052.077251,-2.000000,5.000000,-1.000000,3.000000,-4.000000,-6.000000,7.000000,-2.000000
1303052.077729,5.000000,2.000000,1.000000,1.000000,0.000000,-8.000000,3.000000,-6.000000
1303052.077737,-2.000000,-14.000000,6.000000,-5.000000,0.000000,-4.000000,-10.000000,3.000000
1303052.078211,-1.000000,12.000000,-6.000000,-2.000000,2.000000,6.000000,1.000000,1.000000
1303052.078219,3.000000,9.000000,-13.000000,4.000000,-2.000000,0.000000,10.000000,-1.000000
1303052.080071,-8.000000,0.000000,0.000000,-7.000000,-4.000000,-7.000000,-4.000000,0.000000
1303052.080082,-7.000000,-10.000000,2.000000,0.000000,1.000000,5.000000,-2.000000,-1.000000
1303052.084307,7.000000,-1.000000,-4.000000,4.000000,-5.000000,-1.000000,5.000000,-1.000000
1303052.084318,-5.000000,-8.000000,-5.000000,-2.000000,-6.000000,0.000000,1.000000,-1.000000
1303052.099037,-4.000000,-5.000000,9.000000,-8.000000,3.000000,7.000000,-10.000000,-3.000000
1303052.099053,5.000000,18.000000,-4.000000,4.000000,-1.000000,-3.000000,2.000000,-3.000000
1303052.114267,8.000000,-3.000000,-3.000000,-12.000000,1.000000,-4.000000,0.000000,-6.000000
1303052.114278,-12.000000,-8.000000,6.000000,4.000000,-1.000000,-5.000000,-3.000000,1.000000
1303052.136535,-1.000000,0.000000,-5.000000,-3.000000,1.000000,4.000000,-3.000000,1.000000
1303052.136546,7.000000,7.000000,-12.000000,7.000000,-3.000000,-4.000000,11.000000,0.000000
1303052.151451,-9.000000,-8.000000,11.000000,3.000000,-5.000000,-5.000000,-15.000000,-2.000000
1303052.151462,-2.000000,8.000000,1.000000,-3.000000,3.000000,0.000000,-5.000000,3.000000
1303052.166719,3.000000,3.000000,-8.000000,-1.000000,-1.000000,-7.000000,5.000000,-2.000000
1303052.166731,0.000000,-11.000000,8.000000,0.000000,2.000000,-2.000000,-4.000000,0.000000
1303052.189098,-8.000000,-1.000000,3.000000,-5.000000,3.000000,6.000000,-11.000000,1.000000
1303052.189110,6.000000,4.000000,-4.000000,-2.000000,2.000000,-4.000000,8.000000,2.000000
1303052.196950,2.000000,0.000000,0.000000,0.000000,-1.000000,-5.000000,8.000000,-9.000000
1303052.196959,-4.000000,-4.000000,7.000000,2.000000,-2.000000,1.000000,-8.000000,1.000000
1303052.197687,1.000000,10.000000,-7.000000,5.000000,3.000000,8.000000,1.000000,-1.000000
1303052.197705,2.000000,4.000000,-14.000000,5.000000,-7.000000,-2.000000,5.000000,-5.000000
1303052.198831,-5.000000,-5.000000,9.000000,-1.000000,-3.000000,-2.000000,-6.000000,1.000000
1303052.198839,-6.000000,1.000000,3.000000,-9.000000,2.000000,-4.000000,-6.000000,2.000000
1303052.199580,9.000000,4.000000,-5.000000,-3.000000,-7.000000,-3.000000,5.000000,-3.000000
1303052.199589,-2.000000,4.000000,-5.000000,-4.000000,2.000000,-1.000000,0.000000,0.000000
1303052.200365,-6.000000,-4.000000,8.000000,-12.000000,1.000000,3.000000,-8.000000,-1.000000
1303052.200375,6.000000,-4.000000,-6.000000,-4.000000,-2.000000,-4.000000,3.000000,-1.000000
1303052.211925,3.000000,-3.000000,0.000000,-4.000000,-2.000000,-9.000000,4.000000,0.000000
1303052.211937,-5.000000,-7.000000,7.000000,-5.000000,1.000000,2.000000,-8.000000,2.000000
1303052.219278,1.000000,14.000000,-12.000000,5.000000,3.000000,3.000000,4.000000,1.000000
1303052.219290,9.000000,3.000000,-1.000000,5.000000,-2.000000,1.000000,5.000000,-5.000000
1303052.234138,0.000000,-5.000000,1.000000,-1.000000,-1.000000,-5.000000,-6.000000,-1.000000
1303052.234150,-7.000000,-2.000000,-9.000000,2.000000,-1.000000,4.000000,-5.000000,-1.000000
1303052.279283,7.000000,6.000000,-3.000000,-3.000000,-2.000000,5.000000,4.000000,-3.000000
1303052.279295,-2.000000,-5.000000,7.000000,7.000000,-3.000000,1.000000,-2.000000,1.000000
1303052.294084,-11.000000,-6.000000,10.000000,0.000000,0.000000,10.000000,-8.000000,0.000000
1303052.294094,5.000000,2.000000,-7.000000,0.000000,-1.000000,-3.000000,6.000000,2.000000
1303052.309684,5.000000,9.000000,-1.000000,-4.000000,-2.000000,-7.000000,1.000000,-6.000000
1303052.309694,-4.000000,-6.000000,6.000000,7.000000,1.000000,-1.000000,-9.000000,1.000000
1303052.310190,2.000000,1.000000,3.000000,-7.000000,-3.000000,-3.000000,2.000000,2.000000
1303052.310203,2.000000,-3.000000,-18.000000,1.000000,-5.000000,-9.000000,4.000000,-5.000000
1303052.311393,-7.000000,-8.000000,8.000000,-8.000000,-3.000000,1.000000,-5.000000,-4.000000
1303052.311403,-1.000000,0.000000,4.000000,0.000000,1.000000,10.000000,-4.000000,3.000000
1303052.311986,-7.000000,-7.000000,-4.000000,-6.000000,-4.000000,6.000000,-8.000000,3.000000
1303052.311996,3.000000,1.000000,-5.000000,4.000000,2.000000,-6.000000,8.000000,-3.000000
1303052.312953,-5.000000,1.000000,3.000000,-1.000000,-1.000000,-1.000000,-3.000000,-4.000000
1303052.312964,-5.000000,-4.000000,10.000000,0.000000,1.000000,7.000000,-7.000000,4.000000
1303052.316819,-3.000000,8.000000,-4.000000,4.000000,-1.000000,-2.000000,4.000000,2.000000
1303052.316833,9.000000,8.000000,-2.000000,-1.000000,-1.000000,-8.000000,5.000000,-4.000000
1303052.331438,-6.000000,-9.000000,1.000000,3.000000,1.000000,3.000000,-6.000000,0.000000
1303052.331449,-2.000000,3.000000,4.000000,1.000000,6.000000,3.000000,0.000000,5.000000
1303052.354329,6.000000,3.000000,-9.000000,5.000000,2.000000,-5.000000,4.000000,0.000000
1303052.354341,-6.000000,-7.000000,6.000000,0.000000,1.000000,-6.000000,-2.000000,-3.000000
1303052.369164,-5.000000,-9.000000,0.000000,-3.000000,0.000000,10.000000,-8.000000,3.000000
1303052.369176,7.000000,10.000000,0.000000,1.000000,4.000000,-4.000000,7.000000,1.000000
1303052.399306,2.000000,-3.000000,-3.000000,1.000000,-2.000000,-5.000000,3.000000,-2.000000
1303052.399318,-10.000000,-5.000000,9.000000,-9.000000,-1.000000,2.000000,-8.000000,-4.000000
1303052.406798,0.000000,20.000000,-1.000000,-1.000000,0.000000,0.000000,0.000000,3.000000
1303052.406811,4.000000,-4.000000,-5.000000,6.000000,-2.000000,-1.000000,3.000000,-4.000000
1303052.430749,-4.000000,-7.000000,6.000000,0.000000,7.000000,2.000000,-6.000000,-1.000000
1303052.430978,-4.000000,-4.000000,-8.000000,0.000000,0.000000,2.000000,-3.000000,1.000000
1303052.431980,11.000000,3.000000,-17.000000,-1.000000,-7.000000,-9.000000,6.000000,-2.000000
1303052.432078,-5.000000,-6.000000,4.000000,6.000000,1.000000,4.000000,-3.000000,-5.000000
1303052.432795,4.000000,-1.000000,0.000000,0.000000,1.000000,-6.000000,-2.000000,-3.000000
1303052.432812,-7.000000,-12.000000,7.000000,-8.000000,-5.000000,5.000000,-4.000000,-4.000000
1303052.432912,6.000000,2.000000,2.000000,-3.000000,1.000000,-2.000000,0.000000,1.000000
1303052.432946,7.000000,6.000000,-3.000000,10.000000,-1.000000,-5.000000,4.000000,-5.000000
1303052.433311,-7.000000,-3.000000,2.000000,-3.000000,5.000000,4.000000,-6.000000,0.000000
1303052.433356,-7.000000,4.000000,-5.000000,-4.000000,-5.000000,0.000000,-2.000000,2.000000
1303052.436932,11.000000,12.000000,-9.000000,3.000000,-3.000000,-3.000000,9.000000,-3.000000
1303052.436954,-1.000000,-5.000000,11.000000,3.000000,-5.000000,-1.000000,-4.000000,-1.000000
1303052.452101,-4.000000,-10.000000,1.000000,-4.000000,3.000000,4.000000,-7.000000,-1.000000
1303052.452122,4.000000,16.000000,-6.000000,5.000000,0.000000,-5.000000,4.000000,-1.000000
1303052.474918,2.000000,-4.000000,2.000000,1.000000,6.000000,-10.000000,3.000000,-5.000000
1303052.474959,-4.000000,-9.000000,0.000000,-9.000000,1.000000,6.000000,-6.000000,3.000000
1303052.489778,5.000000,6.000000,0.000000,1.000000,-2.000000,0.000000,1.000000,-2.000000
1303052.489799,4.000000,-6.000000,-10.000000,5.000000,2.000000,-4.000000,5.000000,0.000000
1303052.512176,-4.000000,-6.000000,11.000000,-6.000000,4.000000,7.000000,-5.000000,-2.000000
1303052.512199,-1.000000,1.000000,-5.000000,6.000000,2.000000,2.000000,2.000000,3.000000
1303052.519715,4.000000,9.000000,-10.000000,5.000000,-7.000000,-10.000000,4.000000,-3.000000
1303052.519736,-5.000000,-12.000000,7.000000,-2.000000,0.000000,3.000000,-6.000000,1.000000
1303052.556684,-6.000000,-2.000000,-3.000000,1.000000,5.000000,10.000000,-8.000000,0.000000
1303052.556698,1.000000,-3.000000,-6.000000,4.000000,0.000000,-4.000000,6.000000,-5.000000
1303052.564072,-4.000000,-3.000000,3.000000,-4.000000,-3.000000,-6.000000,-3.000000,-2.000000
1303052.564094,-3.000000,-7.000000,10.000000,-4.000000,-5.000000,4.000000,-11.000000,-1.000000
1303052.572511,-1.000000,5.000000,-4.000000,1.000000,-3.000000,1.000000,4.000000,-1.000000
1303052.572531,8.000000,6.000000,1.000000,6.000000,-5.000000,-3.000000,8.000000,-1.000000
1303052.572961,-5.000000,-6.000000,4.000000,-9.000000,-1.000000,-3.000000,-7.000000,4.000000
1303052.572977,-1.000000,10.000000,-1.000000,-3.000000,4.000000,5.000000,-1.000000,1.000000
1303052.573368,2.000000,-3.000000,-18.000000,-2.000000,-4.000000,-1.000000,4.000000,-6.000000
1303052.573379,-2.000000,-4.000000,-8.000000,-4.000000,1.000000,-3.000000,-3.000000,0.000000
1303052.575719,-1.000000,5.000000,-4.000000,-1.000000,0.000000,-4.000000,1.000000,0.000000
1303052.575733,-1.000000,-2.000000,-11.000000,-4.000000,5.000000,-1.000000,2.000000,-6.000000
1303052.587023,-5.000000,-8.000000,10.000000,-4.000000,-2.000000,4.000000,-6.000000,-3.000000
1303052.587038,4.000000,6.000000,-8.000000,2.000000,-5.000000,3.000000,1.000000,2.000000
1303052.601684,3.000000,-3.000000,-10.000000,-5.000000,-2.000000,-2.000000,8.000000,-5.000000
1303052.601698,-5.000000,-2.000000,-3.000000,-5.000000,-5.000000,-8.000000,-6.000000,-5.000000
1303052.609455,1.000000,4.000000,3.000000,-2.000000,4.000000,0.000000,-6.000000,3.000000
1303052.609469,4.000000,10.000000,-12.000000,-1.000000,3.000000,-2.000000,4.000000,-1.000000
1303052.646831,1.000000,-6.000000,-1.000000,-4.000000,-1.000000,-10.000000,-5.000000,0.000000
1303052.646845,-4.000000,-2.000000,1.000000,-1.000000,2.000000,4.000000,-10.000000,6.000000
1303052.654373,0.000000,-1.000000,-8.000000,-7.000000,-6.000000,-5.000000,4.000000,-1.000000
1303052.654586,4.000000,1.000000,-2.000000,3.000000,-5.000000,-3.000000,4.000000,-2.000000
1303052.655504,-8.000000,-7.000000,5.000000,-1.000000,-1.000000,4.000000,-7.000000,3.000000
1303052.655581,0.000000,7.000000,1.000000,4.000000,-2.000000,7.000000,-2.000000,1.000000
1303052.656018,6.000000,9.000000,-9.000000,5.000000,-6.000000,-9.000000,7.000000,1.000000
1303052.656031,-5.000000,-6.000000,1.000000,-8.000000,1.000000,-1.000000,-4.000000,-3.000000
1303052.657366,-9.000000,-10.000000,1.000000,-3.000000,1.000000,2.000000,-1.000000,1.000000
1303052.657379,8.000000,4.000000,-7.000000,4.000000,4.000000,-9.000000,3.000000,-3.000000
1303052.668999,-5.000000,-3.000000,0.000000,-1.000000,2.000000,-6.000000,-2.000000,-2.000000
1303052.669012,-7.000000,-1.000000,9.000000,-6.000000,-5.000000,8.000000,-11.000000,2.000000
1303052.670490,1.000000,-4.000000,-23.000000,-3.000000,-4.000000,-1.000000,3.000000,-5.000000
1303052.670607,7.000000,-2.000000,7.000000,20.000000,1.000000,-5.000000,2.000000,0.000000
1303052.692035,-7.000000,-12.000000,6.000000,-6.000000,3.000000,6.000000,-7.000000,-2.000000
1303052.692218,0.000000,11.000000,-8.000000,3.000000,-4.000000,0.000000,-2.000000,1.000000
1303052.693008,10.000000,4.000000,-9.000000,2.000000,9.000000,-4.000000,8.000000,-5.000000
1303052.693020,-8.000000,-14.000000,10.000000,-2.000000,-1.000000,0.000000,-6.000000,1.000000
1303052.706735,0.000000,2.000000,3.000000,2.000000,-6.000000,3.000000,-3.000000,-1.000000
1303052.706785,6.000000,-3.000000,-12.000000,10.000000,4.000000,0.000000,2.000000,-1.000000
1303052.729327,-2.000000,-10.000000,1.000000,-10.000000,-3.000000,-7.000000,-5.000000,0.000000
1303052.729341,-7.000000,-1.000000,2.000000,1.000000,4.000000,3.000000,-9.000000,3.000000
1303052.751710,3.000000,5.000000,0.000000,4.000000,10.000000,-5.000000,1.000000,0.000000
1303052.751723,1.000000,-3.000000,-3.000000,-4.000000,2.000000,-4.000000,3.000000,-5.000000
1303052.767511,-5.000000,-3.000000,9.000000,1.000000,-4.000000,-1.000000,-9.000000,-2.000000
1303052.767523,-1.000000,11.000000,-9.000000,5.000000,-8.000000,2.000000,1.000000,-1.000000
1303052.767870,3.000000,-3.000000,-4.000000,1.000000,-7.000000,-5.000000,2.000000,-3.000000
1303052.767887,-7.000000,-5.000000,8.000000,1.000000,-1.000000,1.000000,-6.000000,-2.000000
1303052.769007,-3.000000,1.000000,3.000000,-1.000000,0.000000,8.000000,-2.000000,1.000000
1303052.769065,5.000000,7.000000,-12.000000,3.000000,1.000000,-8.000000,6.000000,-6.000000
1303052.769622,1.000000,-8.000000,4.000000,3.000000,-3.000000,2.000000,-4.000000,3.000000
1303052.769634,-8.000000,-11.000000,-1.000000,-6.000000,1.000000,6.000000,-5.000000,7.000000
1303052.789064,-10.000000,-5.000000,4.000000,-4.000000,-2.000000,-3.000000,-6.000000,1.000000
1303052.789077,-1.000000,4.000000,-11.000000,-4.000000,2.000000,-6.000000,4.000000,1.000000
1303052.790478,5.000000,-1.000000,-5.000000,6.000000,-1.000000,3.000000,6.000000,-2.000000
1303052.790490,-3.000000,6.000000,5.000000,-4.000000,-2.000000,2.000000,-3.000000,-5.000000
1303052.796593,-7.000000,3.000000,-5.000000,-4.000000,-2.000000,4.000000,0.000000,2.000000
1303052.796619,6.000000,9.000000,-5.000000,1.000000,0.000000,-4.000000,4.000000,-3.000000
1303052.812265,-4.000000,-5.000000,5.000000,-5.000000,-11.000000,3.000000,-9.000000,-1.000000
1303052.812278,-12.000000,-5.000000,8.000000,1.000000,-1.000000,5.000000,-7.000000,5.000000
1303052.834261,3.000000,2.000000,-13.000000,-1.000000,9.000000,-3.000000,8.000000,0.000000
1303052.834275,-1.000000,-1.000000,8.000000,2.000000,-1.000000,-4.000000,6.000000,-4.000000
1303052.849382,-4.000000,-4.000000,1.000000,-10.000000,-1.000000,5.000000,-9.000000,4.000000
1303052.849396,2.000000,4.000000,-10.000000,3.000000,-7.000000,5.000000,2.000000,-2.000000
1303052.864368,4.000000,-1.000000,-4.000000,1.000000,-6.000000,-10.000000,6.000000,-3.000000
1303052.864383,-5.000000,-1.000000,4.000000,-1.000000,3.000000,0.000000,-5.000000,-1.000000
1303052.879346,-10.000000,-2.000000,-3.000000,0.000000,3.000000,8.000000,-6.000000,0.000000
1303052.879361,3.000000,4.000000,-3.000000,4.000000,2.000000,-4.000000,8.000000,-3.000000
1303052.909537,1.000000,-12.000000,1.000000,-4.000000,2.000000,-7.000000,-4.000000,2.000000
1303052.909551,-9.000000,1.000000,0.000000,-7.000000,2.000000,5.000000,-6.000000,0.000000
1303052.924430,8.000000,10.000000,-7.000000,7.000000,-1.000000,1.000000,-2.000000,0.000000
1303052.924445,-3.000000,-8.000000,1.000000,-5.000000,-9.000000,-6.000000,-1.000000,-2.000000
1303052.925025,-6.000000,-10.000000,6.000000,-3.000000,2.000000,6.000000,-7.000000,0.000000
1303052.925037,0.000000,-5.000000,-8.000000,1.000000,4.000000,9.000000,5.000000,-4.000000
1303052.925808,10.000000,9.000000,4.000000,4.000000,-8.000000,-10.000000,5.000000,-3.000000
1303052.925819,-9.000000,-12.000000,2.000000,-3.000000,-5.000000,-3.000000,-5.000000,-6.000000
1303052.926736,-4.000000,-8.000000,0.000000,0.000000,12.000000,0.000000,-5.000000,7.000000
1303052.926747,0.000000,7.000000,-7.000000,6.000000,0.000000,-5.000000,4.000000,-6.000000
1303052.946764,-9.000000,-1.000000,4.000000,0.000000,6.000000,-2.000000,-7.000000,1.000000
1303052.946778,0.000000,9.000000,-7.000000,0.000000,2.000000,-3.000000,3.000000,1.000000
1303052.954437,10.000000,6.000000,9.000000,-4.000000,-4.000000,-10.000000,0.000000,-7.000000
1303052.954452,-6.000000,1.000000,-5.000000,-5.000000,1.000000,4.000000,-7.000000,-2.000000
1303052.984192,-1.000000,4.000000,-1.000000,5.000000,-2.000000,6.000000,-1.000000,5.000000
1303052.984206,8.000000,2.000000,-6.000000,0.000000,-12.000000,-1.000000,5.000000,-7.000000
1303052.991620,-2.000000,-11.000000,7.000000,-6.000000,-4.000000,-2.000000,-6.000000,-3.000000
1303052.991633,-2.000000,-2.000000,3.000000,-10.000000,-1.000000,3.000000,-12.000000,1.000000
1303053.006927,3.000000,-7.000000,-9.000000,6.000000,0.000000,1.000000,1.000000,-4.000000
1303053.006960,4.000000,13.000000,3.000000,3.000000,1.000000,-8.000000,3.000000,-2.000000
1303053.029024,-4.000000,-10.000000,5.000000,-5.000000,-3.000000,4.000000,-7.000000,2.000000
1303053.029037,1.000000,6.000000,-4.000000,-3.000000,-1.000000,-3.000000,1.000000,0.000000
1303053.030161,7.000000,1.000000,-5.000000,6.000000,4.000000,-5.000000,8.000000,-6.000000
1303053.030175,-8.000000,-5.000000,14.000000,4.000000,-6.000000,8.000000,-4.000000,-1.000000
1303053.030753,-4.000000,2.000000,-4.000000,-6.000000,-1.000000,11.000000,0.000000,-4.000000
1303053.030800,2.000000,6.000000,-18.000000,1.000000,0.000000,-13.000000,6.000000,-3.000000
1303053.033262,-1.000000,3.000000,-11.000000,0.000000,0.000000,-8.000000,7.000000,-4.000000
1303053.033285,0.000000,-11.000000,-3.000000,-1.000000,2.000000,-8.000000,1.000000,-7.000000
1303053.044250,1.000000,0.000000,-2.000000,3.000000,-4.000000,-4.000000,5.000000,-5.000000
1303053.044263,-1.000000,-4.000000,6.000000,-5.000000,5.000000,2.000000,-8.000000,4.000000
1303053.052263,-5.000000,0.000000,2.000000,12.000000,7.000000,-1.000000,1.000000,2.000000
1303053.052276,7.000000,11.000000,-8.000000,2.000000,0.000000,-11.000000,5.000000,-1.000000
1303053.066710,-3.000000,-8.000000,8.000000,-7.000000,0.000000,-3.000000,-4.000000,1.000000
1303053.066723,-2.000000,-6.000000,3.000000,-4.000000,-3.000000,8.000000,-3.000000,0.000000
1303053.089325,5.000000,7.000000,-18.000000,7.000000,-3.000000,-1.000000,6.000000,-5.000000
1303053.089339,0.000000,-3.000000,5.000000,1.000000,-7.000000,-5.000000,-5.000000,-4.000000
1303053.111950,-7.000000,-14.000000,5.000000,-4.000000,0.000000,4.000000,-7.000000,-1.000000
1303053.111968,3.000000,23.000000,-7.000000,2.000000,6.000000,-5.000000,0.000000,0.000000
1303053.126601,-1.000000,0.000000,9.000000,5.000000,0.000000,-8.000000,2.000000,-5.000000
1303053.126613,-9.000000,-17.000000,13.000000,-4.000000,2.000000,-4.000000,-4.000000,-1.000000
1303053.141591,0.000000,5.000000,-5.000000,-2.000000,2.000000,-3.000000,0.000000,3.000000
1303053.141601,8.000000,9.000000,-14.000000,4.000000,2.000000,-6.000000,8.000000,-1.000000
1303053.164262,-2.000000,-7.000000,-1.000000,-10.000000,-9.000000,-3.000000,-7.000000,-4.000000
1303053.164278,-5.000000,2.000000,0.000000,-3.000000,4.000000,-3.000000,-6.000000,3.000000
1303053.186907,2.000000,8.000000,-16.000000,0.000000,-3.000000,1.000000,3.000000,-3.000000
1303053.186917,1.000000,-7.000000,5.000000,-7.000000,0.000000,6.000000,-3.000000,0.000000
1303053.187941,2.000000,4.000000,-5.000000,0.000000,1.000000,-10.000000,4.000000,0.000000
1303053.187959,-6.000000,-1.000000,10.000000,0.000000,-4.000000,-4.000000,-8.000000,2.000000
1303053.188892,-2.000000,7.000000,9.000000,-3.000000,-5.000000,0.000000,-6.000000,-1.000000
1303053.188901,-8.000000,-4.000000,-5.000000,-2.000000,1.000000,0.000000,-3.000000,2.000000
1303053.190370,-14.000000,-6.000000,15.000000,-4.000000,4.000000,1.000000,-6.000000,3.000000
1303053.190378,3.000000,3.000000,-7.000000,3.000000,-2.000000,-6.000000,5.000000,-1.000000
1303053.201476,1.000000,11.000000,-4.000000,0.000000,-3.000000,-1.000000,0.000000,3.000000
1303053.201486,4.000000,5.000000,-16.000000,2.000000,-2.000000,-7.000000,6.000000,-2.000000
1303053.209652,-3.000000,-6.000000,6.000000,-3.000000,0.000000,-1.000000,-8.000000,-6.000000
1303053.209674,-5.000000,0.000000,3.000000,-3.000000,-5.000000,2.000000,-4.000000,2.000000
1303053.224142,2.000000,4.000000,-15.000000,1.000000,-2.000000,-3.000000,4.000000,-3.000000
1303053.224152,-2.000000,-4.000000,9.000000,-1.000000,-4.000000,-9.000000,-4.000000,-2.000000
1303053.246940,-7.000000,2.000000,-6.000000,-1.000000,7.000000,10.000000,-11.000000,2.000000
1303053.246949,6.000000,7.000000,3.000000,1.000000,-12.000000,-5.000000,5.000000,-3.000000
1303053.247764,2.000000,1.000000,-4.000000,1.000000,6.000000,-10.000000,2.000000,-5.000000
1303053.247772,-9.000000,-10.000000,10.000000,9.000000,-3.000000,5.000000,-8.000000,-4.000000
1303053.262261,-1.000000,6.000000,-3.000000,-5.000000,0.000000,8.000000,3.000000,2.000000
1303053.262270,8.000000,7.000000,-6.000000,9.000000,0.000000,3.000000,9.000000,2.000000
1303053.262820,-3.000000,-9.000000,2.000000,-1.000000,-6.000000,-1.000000,-4.000000,1.000000
1303053.262847,-4.000000,3.000000,2.000000,-1.000000,-4.000000,0.000000,-4.000000,3.000000
1303053.269744,5.000000,7.000000,-10.000000,0.000000,3.000000,-6.000000,4.000000,-6.000000
1303053.269754,-1.000000,-9.000000,0.000000,-4.000000,4.000000,-8.000000,-5.000000,-4.000000
1303053.284071,-11.000000,-3.000000,2.000000,-1.000000,0.000000,5.000000,-11.000000,2.000000
1303053.284081,3.000000,8.000000,-6.000000,2.000000,-1.000000,-4.000000,6.000000,-1.000000
1303053.314106,1.000000,-3.000000,-5.000000,-6.000000,1.000000,-6.000000,-1.000000,-5.000000
1303053.314124,-5.000000,-5.000000,1.000000,-3.000000,0.000000,6.000000,-5.000000,4.000000
1303053.321504,-3.000000,5.000000,-4.000000,4.000000,1.000000,-2.000000,1.000000,2.000000
1303053.321512,5.000000,7.000000,-1.000000,4.000000,-5.000000,-6.000000,7.000000,-4.000000
1303053.344236,-7.000000,0.000000,-1.000000,-5.000000,1.000000,-2.000000,-2.000000,0.000000
1303053.344249,-3.000000,0.000000,-8.000000,-2.000000,-3.000000,6.000000,-3.000000,-4.000000
1303053.344639,2.000000,7.000000,-12.000000,-2.000000,2.000000,-3.000000,6.000000,-1.000000
1303053.344654,-2.000000,-7.000000,3.000000,-4.000000,2.000000,-5.000000,2.000000,-1.000000
1303053.345673,-8.000000,-3.000000,4.000000,-5.000000,3.000000,6.000000,-7.000000,3.000000
1303053.345682,2.000000,7.000000,-7.000000,5.000000,4.000000,-7.000000,4.000000,-2.000000
1303053.346513,-4.000000,-7.000000,0.000000,5.000000,-2.000000,-4.000000,4.000000,-3.000000
1303053.346522,-3.000000,9.000000,14.000000,-4.000000,-5.000000,-6.000000,-12.000000,0.000000
1303053.366317,0.000000,8.000000,-11.000000,-3.000000,3.000000,6.000000,-1.000000,-2.000000
1303053.366349,7.000000,-2.000000,-5.000000,-1.000000,1.000000,-8.000000,5.000000,-5.000000
1303053.366849,-4.000000,-7.000000,-1.000000,-10.000000,2.000000,5.000000,-5.000000,-4.000000
1303053.366876,-8.000000,-5.000000,-3.000000,6.000000,0.000000,0.000000,-5.000000,3.000000
1303053.389181,8.000000,21.000000,2.000000,6.000000,0.000000,-9.000000,9.000000,-5.000000
1303053.389194,-5.000000,-6.000000,-2.000000,-1.000000,-6.000000,-4.000000,-7.000000,-1.000000
1303053.389699,-9.000000,1.000000,-1.000000,2.000000,6.000000,10.000000,-6.000000,-3.000000
1303053.389714,-1.000000,3.000000,-3.000000,2.000000,0.000000,-1.000000,5.000000,2.000000
1303053.391131,0.000000,0.000000,0.000000,0.000000,-3.000000,-1.000000,5.000000,-3.000000
1303053.391143,-10.000000,-9.000000,11.000000,-4.000000,-5.000000,-1.000000,-7.000000,0.000000
1303053.404070,2.000000,5.000000,-5.000000,2.000000,-1.000000,1.000000,2.000000,0.000000
1303053.404092,7.000000,1.000000,-9.000000,2.000000,1.000000,-5.000000,8.000000,-4.000000
1303053.434600,-8.000000,-5.000000,-3.000000,-7.000000,6.000000,7.000000,-8.000000,-1.000000
1303053.434620,-2.000000,8.000000,-2.000000,-3.000000,2.000000,0.000000,-1.000000,0.000000
1303053.464690,9.000000,0.000000,-9.000000,0.000000,3.000000,-7.000000,5.000000,-4.000000
1303053.464730,-3.000000,0.000000,1.000000,-2.000000,3.000000,-1.000000,-1.000000,1.000000
1303053.466058,-12.000000,-17.000000,6.000000,-3.000000,-2.000000,9.000000,-7.000000,0.000000
1303053.466081,5.000000,7.000000,-2.000000,4.000000,3.000000,-5.000000,3.000000,1.000000
1303053.466159,-2.000000,-1.000000,0.000000,-4.000000,2.000000,-3.000000,-2.000000,-4.000000
1303053.466170,-8.000000,-12.000000,8.000000,-6.000000,-1.000000,1.000000,-8.000000,-2.000000
1303053.467708,3.000000,5.000000,-6.000000,3.000000,0.000000,6.000000,4.000000,-3.000000
1303053.467774,6.000000,9.000000,-6.000000,3.000000,1.000000,-12.000000,8.000000,-6.000000
1303053.468595,-13.000000,-5.000000,1.000000,-6.000000,-5.000000,-5.000000,-8.000000,0.000000
1303053.468612,-4.000000,-1.000000,-7.000000,3.000000,-2.000000,4.000000,0.000000,0.000000
1303053.479841,2.000000,6.000000,-5.000000,2.000000,-2.000000,-6.000000,10.000000,-5.000000
1303053.479858,-1.000000,-9.000000,-6.000000,-4.000000,1.000000,-2.000000,-2.000000,-3.000000
1303053.480692,-6.000000,1.000000,10.000000,-8.000000,-3.000000,11.000000,-5.000000,3.000000
1303053.480710,1.000000,7.000000,-20.000000,3.000000,-1.000000,2.000000,5.000000,0.000000
1303053.502093,0.000000,3.000000,5.000000,6.000000,-2.000000,-5.000000,1.000000,-3.000000
1303053.502230,-6.000000,0.000000,7.000000,-4.000000,5.000000,-1.000000,-4.000000,1.000000
1303053.502782,0.000000,5.000000,-12.000000,6.000000,-3.000000,-6.000000,1.000000,-3.000000
1303053.502821,1.000000,0.000000,-3.000000,-1.000000,-1.000000,-8.000000,8.000000,-4.000000
1303053.525160,-5.000000,-10.000000,-1.000000,-1.000000,-6.000000,-4.000000,-8.000000,3.000000
1303053.525188,-6.000000,5.000000,-3.000000,3.000000,7.000000,3.000000,-2.000000,3.000000
1303053.539635,7.000000,6.000000,-9.000000,8.000000,-6.000000,2.000000,7.000000,-3.000000
1303053.539655,0.000000,-8.000000,2.000000,-4.000000,3.000000,0.000000,-4.000000,1.000000
1303053.562162,-4.000000,5.000000,3.000000,-3.000000,6.000000,-3.000000,-6.000000,1.000000
1303053.562184,0.000000,-4.000000,-7.000000,0.000000,-3.000000,-3.000000,5.000000,-2.000000
1303053.569336,0.000000,1.000000,5.000000,2.000000,-6.000000,-5.000000,3.000000,-5.000000
1303053.569355,-7.000000,-10.000000,6.000000,-10.000000,-10.000000,3.000000,-10.000000,0.000000
1303053.585314,2.000000,0.000000,-6.000000,2.000000,-3.000000,-9.000000,6.000000,-2.000000
1303053.585336,0.000000,1.000000,-6.000000,-1.000000,-5.000000,-1.000000,3.000000,-4.000000
1303053.585666,-3.000000,-8.000000,3.000000,-10.000000,-3.000000,-2.000000,-9.000000,-1.000000
1303053.585690,-1.000000,4.000000,-10.000000,0.000000,1.000000,1.000000,0.000000,4.000000
1303053.587310,3.000000,7.000000,-16.000000,2.000000,-4.000000,-2.000000,9.000000,-7.000000
1303053.587345,-5.000000,-9.000000,-9.000000,-4.000000,0.000000,-1.000000,-5.000000,1.000000
1303053.587950,-6.000000,5.000000,5.000000,-7.000000,0.000000,6.000000,-10.000000,3.000000
1303053.587970,4.000000,15.000000,-13.000000,5.000000,-1.000000,-1.000000,3.000000,-3.000000
1303053.600372,-4.000000,-14.000000,0.000000,-5.000000,-9.000000,-7.000000,-2.000000,-1.000000
1303053.600528,-8.000000,-6.000000,18.000000,-8.000000,2.000000,6.000000,-9.000000,-1.000000
1303053.600909,6.000000,12.000000,-14.000000,2.000000,-7.000000,-2.000000,3.000000,-3.000000
1303053.600926,4.000000,-1.000000,-8.000000,4.000000,-5.000000,-9.000000,4.000000,-6.000000
1303053.621985,-7.000000,-5.000000,13.000000,-4.000000,3.000000,2.000000,-6.000000,0.000000
1303053.622006,2.000000,12.000000,1.000000,5.000000,-4.000000,2.000000,-2.000000,4.000000
1303053.622564,1.000000,5.000000,-6.000000,4.000000,-8.000000,-8.000000,5.000000,-6.000000
1303053.622582,1.000000,-8.000000,9.000000,3.000000,7.000000,3.000000,0.000000,1.000000
1303053.667210,-9.000000,-7.000000,-3.000000,-8.000000,0.000000,-1.000000,-9.000000,-1.000000
1303053.667227,5.000000,7.000000,-13.000000,6.000000,0.000000,0.000000,4.000000,-4.000000
1303053.682099,4.000000,-12.000000,6.000000,-7.000000,4.000000,-7.000000,2.000000,0.000000
1303053.682118,-6.000000,-8.000000,6.000000,-2.000000,-3.000000,5.000000,-11.000000,3.000000
1303053.697735,2.000000,11.000000,-5.000000,-3.000000,-6.000000,4.000000,1.000000,1.000000
1303053.697762,3.000000,4.000000,-8.000000,-1.000000,5.000000,-5.000000,3.000000,-9.000000
1303053.698461,-10.000000,-9.000000,10.000000,2.000000,-2.000000,-1.000000,-5.000000,4.000000
1303053.698481,-1.000000,8.000000,0.000000,-9.000000,0.000000,-2.000000,-5.000000,-1.000000
1303053.699650,3.000000,9.000000,-2.000000,10.000000,0.000000,-2.000000,7.000000,-1.000000
1303053.699668,-7.000000,-13.000000,6.000000,-6.000000,4.000000,5.000000,-2.000000,1.000000
1303053.704669,2.000000,-4.000000,1.000000,-2.000000,-5.000000,2.000000,4.000000,4.000000
1303053.704703,7.000000,1.000000,3.000000,3.000000,-4.000000,-10.000000,5.000000,-3.000000
1303053.712645,-9.000000,-5.000000,12.000000,-5.000000,-2.000000,5.000000,-11.000000,5.000000
1303053.712664,-4.000000,3.000000,-6.000000,0.000000,3.000000,6.000000,4.000000,2.000000
1303053.719794,5.000000,9.000000,-12.000000,-1.000000,-8.000000,-4.000000,8.000000,-3.000000
1303053.719813,0.000000,-4.000000,8.000000,-3.000000,-7.000000,-2.000000,-5.000000,-1.000000
1303053.742609,-4.000000,-4.000000,5.000000,-2.000000,3.000000,4.000000,-5.000000,4.000000
1303053.742628,4.000000,2.000000,-10.000000,3.000000,-7.000000,-7.000000,10.000000,-2.000000
1303053.743254,1.000000,-8.000000,7.000000,-1.000000,-3.000000,-6.000000,3.000000,1.000000
1303053.743274,-6.000000,-3.000000,12.000000,-9.000000,-4.000000,-2.000000,-12.000000,1.000000
1303053.764788,4.000000,2.000000,-7.000000,2.000000,3.000000,6.000000,2.000000,1.000000
1303053.764817,6.000000,6.000000,1.000000,-8.000000,-3.000000,3.000000,7.000000,-2.000000
1303053.779731,-10.000000,-7.000000,10.000000,-6.000000,3.000000,2.000000,-12.000000,-1.000000
1303053.779752,-1.000000,3.000000,-8.000000,1.000000,-3.000000,1.000000,-1.000000,0.000000
1303053.816718,5.000000,3.000000,-8.000000,3.000000,-5.000000,-6.000000,8.000000,-4.000000
1303053.816731,-2.000000,-2.000000,4.000000,-6.000000,-2.000000,-1.000000,-7.000000,2.000000
1303053.824390,-13.000000,-3.000000,7.000000,-3.000000,-4.000000,3.000000,-6.000000,2.000000
1303053.824403,0.000000,-11.000000,-13.000000,1.000000,-3.000000,-2.000000,0.000000,-2.000000
1303053.839513,0.000000,-7.000000,3.000000,-5.000000,-5.000000,-8.000000,-5.000000,-3.000000
1303053.839525,-5.000000,-10.000000,11.000000,1.000000,-1.000000,5.000000,-6.000000,3.000000
1303053.840082,1.000000,4.000000,-8.000000,3.000000,-1.000000,-7.000000,7.000000,2.000000
1303053.840093,0.000000,1.000000,-6.000000,-5.000000,-6.000000,-2.000000,5.000000,-3.000000
1303053.841362,-1.000000,-17.000000,-3.000000,1.000000,-4.000000,-3.000000,9.000000,-4.000000
1303053.841372,-8.000000,-6.000000,5.000000,-2.000000,0.000000,-4.000000,-4.000000,-4.000000
1303053.842943,-3.000000,-4.000000,4.000000,-4.000000,-3.000000,-6.000000,-5.000000,-2.000000
1303053.842954,-8.000000,-6.000000,9.000000,-7.000000,-3.000000,10.000000,-11.000000,2.000000
1303053.884174,3.000000,3.000000,-13.000000,7.000000,2.000000,0.000000,2.000000,-5.000000
1303053.884189,6.000000,3.000000,6.000000,-1.000000,2.000000,-8.000000,1.000000,-2.000000
1303053.899435,-4.000000,-7.000000,11.000000,-4.000000,8.000000,-4.000000,-5.000000,2.000000
1303053.899449,0.000000,5.000000,-12.000000,-2.000000,-1.000000,2.000000,5.000000,-2.000000
1303053.923952,5.000000,-3.000000,-6.000000,3.000000,-6.000000,-6.000000,5.000000,-3.000000
1303053.923995,-2.000000,-4.000000,11.000000,1.000000,-1.000000,-1.000000,-4.000000,-2.000000
1303053.924412,-6.000000,-5.000000,-1.000000,-2.000000,-4.000000,5.000000,-7.000000,4.000000
1303053.924469,7.000000,1.000000,-8.000000,4.000000,0.000000,2.000000,4.000000,0.000000
1303053.927014,-4.000000,-9.000000,7.000000,1.000000,-4.000000,0.000000,-5.000000,-6.000000
1303053.927043,-10.000000,-9.000000,4.000000,1.000000,-4.000000,2.000000,-8.000000,4.000000
1303053.927174,-6.000000,-8.000000,4.000000,1.000000,-1.000000,7.000000,-13.000000,0.000000
1303053.927227,2.000000,6.000000,-4.000000,5.000000,4.000000,1.000000,1.000000,0.000000
1303053.928047,0.000000,6.000000,-6.000000,-3.000000,2.000000,-1.000000,4.000000,-2.000000
1303053.928075,1.000000,4.000000,-5.000000,3.000000,-3.000000,-10.000000,2.000000,-7.000000
1303053.946324,-6.000000,5.000000,-8.000000,-4.000000,-4.000000,8.000000,-3.000000,3.000000
1303053.946342,3.000000,6.000000,-13.000000,2.000000,1.000000,-11.000000,8.000000,-1.000000
1303053.946422,-4.000000,-9.000000,6.000000,-9.000000,0.000000,-3.000000,-4.000000,-3.000000
1303053.946433,-7.000000,-3.000000,3.000000,5.000000,1.000000,3.000000,-8.000000,3.000000
1303053.960057,8.000000,1.000000,-11.000000,4.000000,-1.000000,-1.000000,2.000000,-3.000000
1303053.960074,-6.000000,-7.000000,-2.000000,1.000000,-1.000000,0.000000,3.000000,-2.000000
1303053.960670,-8.000000,-3.000000,9.000000,-7.000000,-4.000000,0.000000,-12.000000,1.000000
1303053.960687,3.000000,8.000000,-4.000000,0.000000,0.000000,-4.000000,4.000000,0.000000
1303053.975144,7.000000,2.000000,-9.000000,-1.000000,-3.000000,-5.000000,10.000000,-2.000000
1303053.975161,-4.000000,3.000000,7.000000,2.000000,-1.000000,-4.000000,-4.000000,4.000000
1303053.981902,-2.000000,-4.000000,6.000000,0.000000,1.000000,7.000000,-1.000000,3.000000
1303053.981920,3.000000,13.000000,-9.000000,5.000000,-3.000000,-1.000000,7.000000,-1.000000
1303054.012025,1.000000,-6.000000,11.000000,-5.000000,-7.000000,-1.000000,-5.000000,-2.000000
1303054.012066,-10.000000,-4.000000,-5.000000,-6.000000,5.000000,6.000000,-11.000000,0.000000
1303054.020019,-4.000000,-1.000000,-4.000000,9.000000,-2.000000,-6.000000,7.000000,1.000000
1303054.020047,6.000000,-2.000000,-2.000000,-4.000000,1.000000,-2.000000,1.000000,-3.000000
1303054.041970,-5.000000,-3.000000,9.000000,-3.000000,1.000000,6.000000,-7.000000,2.000000
1303054.041989,1.000000,3.000000,-9.000000,-1.000000,-2.000000,-1.000000,3.000000,-2.000000
1303054.057075,3.000000,1.000000,-4.000000,2.000000,-3.000000,-10.000000,2.000000,-5.000000
1303054.057119,-4.000000,-4.000000,6.000000,-3.000000,3.000000,-5.000000,-4.000000,-2.000000
1303054.058322,-6.000000,7.000000,2.000000,-1.000000,-2.000000,5.000000,0.000000,4.000000
1303054.058339,5.000000,15.000000,-15.000000,4.000000,2.000000,-6.000000,6.000000,0.000000
1303054.059001,-1.000000,1.000000,11.000000,-7.000000,2.000000,1.000000,-3.000000,-3.000000
1303054.059017,-6.000000,5.000000,1.000000,-2.000000,5.000000,3.000000,-5.000000,2.000000
1303054.060535,4.000000,4.000000,-5.000000,5.000000,0.000000,0.000000,6.000000,-2.000000
1303054.060559,-2.000000,-4.000000,-15.000000,0.000000,0.000000,-2.000000,-4.000000,-5.000000
1303054.078923,-8.000000,-12.000000,5.000000,-8.000000,-4.000000,2.000000,-10.000000,2.000000
1303054.078952,2.000000,10.000000,-4.000000,5.000000,0.000000,5.000000,2.000000,-3.000000
1303054.080011,3.000000,-2.000000,-8.000000,-2.000000,-5.000000,-6.000000,5.000000,-3.000000
1303054.080018,-6.000000,-5.000000,5.000000,-2.000000,2.000000,3.000000,-8.000000,0.000000
1303054.080939,0.000000,6.000000,-5.000000,-5.000000,2.000000,4.000000,-4.000000,0.000000
1303054.080947,1.000000,2.000000,-25.000000,-2.000000,1.000000,-5.000000,3.000000,-7.000000
1303054.094786,-4.000000,-12.000000,2.000000,2.000000,-2.000000,2.000000,-2.000000,0.000000
1303054.094795,-11.000000,-6.000000,2.000000,-6.000000,-4.000000,7.000000,-10.000000,3.000000
1303054.101570,4.000000,3.000000,-5.000000,2.000000,-1.000000,-3.000000,3.000000,-2.000000
1303054.101580,-1.000000,-3.000000,2.000000,1.000000,1.000000,-2.000000,3.000000,0.000000
1303054.139307,-3.000000,-5.000000,8.000000,-2.000000,-5.000000,-4.000000,-9.000000,4.000000
1303054.139319,-1.000000,10.000000,-11.000000,7.000000,-2.000000,-2.000000,9.000000,-1.000000
1303054.154166,3.000000,1.000000,-1.000000,-1.000000,-2.000000,-6.000000,2.000000,-2.000000
1303054.154179,-3.000000,-10.000000,5.000000,-5.000000,1.000000,-3.000000,-6.000000,-1.000000
1303054.176789,-1.000000,2.000000,-5.000000,-5.000000,-3.000000,-2.000000,-5.000000,3.000000
1303054.176800,9.000000,9.000000,-1.000000,10.000000,-4.000000,-4.000000,7.000000,-4.000000
1303054.198932,1.000000,-8.000000,5.000000,2.000000,0.000000,1.000000,-5.000000,-1.000000
1303054.198951,-5.000000,-1.000000,0.000000,-4.000000,0.000000,8.000000,-9.000000,4.000000
1303054.200725,3.000000,5.000000,-7.000000,0.000000,-6.000000,6.000000,2.000000,-3.000000
1303054.200734,0.000000,-6.000000,-1.000000,-8.000000,-2.000000,-6.000000,-2.000000,-5.000000
1303054.201439,-7.000000,-17.000000,4.000000,-6.000000,-1.000000,2.000000,-9.000000,-2.000000
1303054.201462,2.000000,6.000000,-5.000000,7.000000,-4.000000,4.000000,9.000000,-4.000000
1303054.221628,-6.000000,-1.000000,-7.000000,-1.000000,-4.000000,2.000000,2.000000,0.000000
1303054.221639,3.000000,4.000000,-7.000000,1.000000,-11.000000,-8.000000,5.000000,-4.000000
1303054.259334,-7.000000,-12.000000,4.000000,-5.000000,1.000000,8.000000,-7.000000,0.000000
1303054.259347,2.000000,6.000000,-17.000000,1.000000,0.000000,-3.000000,2.000000,-5.000000
1303054.274373,5.000000,4.000000,-9.000000,3.000000,2.000000,-9.000000,6.000000,-2.000000
1303054.274386,-9.000000,-13.000000,8.000000,-4.000000,-5.000000,0.000000,-5.000000,0.000000
1303054.296318,0.000000,-2.000000,-1.000000,1.000000,-5.000000,8.000000,-1.000000,-3.000000
1303054.296331,8.000000,5.000000,-11.000000,3.000000,-2.000000,-11.000000,6.000000,-5.000000
1303054.296963,-4.000000,-5.000000,3.000000,-6.000000,2.000000,1.000000,-7.000000,-1.000000
1303054.296976,-9.000000,4.000000,-1.000000,4.000000,0.000000,2.000000,-4.000000,4.000000
1303054.298269,-8.000000,-13.000000,8.000000,-8.000000,1.000000,2.000000,-7.000000,-1.000000
1303054.298286,2.000000,8.000000,-4.000000,-1.000000,1.000000,-2.000000,4.000000,-5.000000
1303054.298910,0.000000,-13.000000,-6.000000,3.000000,-6.000000,-2.000000,1.000000,1.000000
1303054.298918,-5.000000,-5.000000,4.000000,-8.000000,2.000000,2.000000,-5.000000,0.000000
1303054.300362,-3.000000,-3.000000,1.000000,-4.000000,-1.000000,1.000000,1.000000,1.000000
1303054.300379,-12.000000,4.000000,7.000000,1.000000,2.000000,11.000000,-8.000000,5.000000
1303054.311809,5.000000,0.000000,-13.000000,2.000000,-3.000000,-10.000000,6.000000,-6.000000
1303054.311989,1.000000,-5.000000,13.000000,-3.000000,0.000000,-9.000000,-4.000000,-3.000000
1303054.312813,-10.000000,-10.000000,5.000000,3.000000,-3.000000,4.000000,-5.000000,4.000000
1303054.312821,-5.000000,4.000000,-3.000000,-9.000000,-5.000000,-4.000000,-1.000000,-3.000000
1303054.334091,-2.000000,0.000000,5.000000,5.000000,8.000000,0.000000,3.000000,-2.000000
1303054.334105,-1.000000,-7.000000,5.000000,-11.000000,-3.000000,-5.000000,-6.000000,-1.000000
1303054.335406,1.000000,9.000000,-10.000000,-4.000000,-2.000000,0.000000,1.000000,5.000000
1303054.335454,10.000000,2.000000,-5.000000,2.000000,-2.000000,-4.000000,7.000000,-2.000000
1303054.356807,-4.000000,-12.000000,-3.000000,-7.000000,1.000000,1.000000,-5.000000,-1.000000
1303054.356818,-4.000000,1.000000,4.000000,-5.000000,6.000000,8.000000,-3.000000,3.000000
1303054.394004,6.000000,8.000000,-12.000000,8.000000,-5.000000,-2.000000,8.000000,-3.000000
1303054.394027,4.000000,-8.000000,7.000000,-5.000000,-1.000000,-2.000000,-3.000000,0.000000
1303054.394437,-8.000000,-8.000000,7.000000,-4.000000,-6.000000,7.000000,-8.000000,0.000000
1303054.394445,6.000000,4.000000,-5.000000,0.000000,-3.000000,-7.000000,4.000000,-3.000000
1303054.395599,1.000000,3.000000,-2.000000,-1.000000,-2.000000,-9.000000,-3.000000,-4.000000
1303054.395627,-7.000000,-6.000000,3.000000,-5.000000,-4.000000,1.000000,-4.000000,5.000000
1303054.396521,-3.000000,-5.000000,2.000000,1.000000,0.000000,-5.000000,1.000000,-2.000000
1303054.396548,2.000000,-2.000000,-11.000000,0.000000,-6.000000,-9.000000,5.000000,-2.000000
1303054.424183,-3.000000,-7.000000,1.000000,-4.000000,9.000000,0.000000,-8.000000,-4.000000
1303054.424195,0.000000,0.000000,5.000000,-4.000000,1.000000,3.000000,-3.000000,3.000000
1303054.431624,2.000000,6.000000,-14.000000,0.000000,7.000000,-4.000000,4.000000,1.000000
1303054.431641,4.000000,-2.000000,8.000000,-9.000000,-6.000000,-4.000000,-4.000000,-4.000000
1303054.439465,-9.000000,1.000000,3.000000,8.000000,1.000000,11.000000,-6.000000,3.000000
1303054.439489,5.000000,0.000000,-10.000000,-3.000000,2.000000,-10.000000,2.000000,0.000000
1303054.440080,-3.000000,-1.000000,-2.000000,1.000000,-1.000000,-7.000000,2.000000,-3.000000
1303054.440094,-5.000000,-7.000000,13.000000,-6.000000,-6.000000,-4.000000,-8.000000,2.000000
1303054.441541,5.000000,6.000000,-10.000000,-7.000000,3.000000,-4.000000,1.000000,0.000000
1303054.441568,5.000000,4.000000,0.000000,11.000000,-9.000000,0.000000,10.000000,-5.000000
1303054.454226,-5.000000,-7.000000,-3.000000,-6.000000,-2.000000,0.000000,-7.000000,0.000000
1303054.454236,-6.000000,-5.000000,-3.000000,-3.000000,-6.000000,4.000000,-3.000000,1.000000
1303054.499240,4.000000,0.000000,-13.000000,-3.000000,2.000000,2.000000,5.000000,-5.000000
1303054.499250,-1.000000,-12.000000,1.000000,-4.000000,-2.000000,4.000000,-2.000000,-1.000000
1303054.514206,-4.000000,-1.000000,17.000000,-4.000000,-4.000000,2.000000,-9.000000,2.000000
1303054.514220,-1.000000,1.000000,-7.000000,-3.000000,-1.000000,-11.000000,0.000000,-2.000000
1303054.515165,3.000000,1.000000,-6.000000,-4.000000,0.000000,-6.000000,2.000000,-5.000000
1303054.515177,-1.000000,-1.000000,4.000000,-2.000000,-2.000000,1.000000,-11.000000,1.000000
1303054.515662,-2.000000,4.000000,-9.000000,1.000000,1.000000,-1.000000,1.000000,0.000000
1303054.515672,5.000000,-2.000000,-8.000000,-5.000000,-2.000000,-9.000000,1.000000,-3.000000
1303054.517039,-1.000000,3.000000,0.000000,-2.000000,-4.000000,4.000000,-7.000000,0.000000
1303054.517049,-9.000000,1.000000,-6.000000,6.000000,8.000000,12.000000,-2.000000,2.000000
1303054.517887,-1.000000,-4.000000,2.000000,-2.000000,1.000000,-4.000000,-5.000000,6.000000
1303054.517896,3.000000,6.000000,-8.000000,6.000000,-6.000000,-6.000000,1.000000,-2.000000
1303054.529212,2.000000,7.000000,-2.000000,-1.000000,-5.000000,-4.000000,0.000000,-4.000000
1303054.529226,-3.000000,-9.000000,-4.000000,-8.000000,3.000000,8.000000,-7.000000,6.000000
1303054.536621,3.000000,14.000000,0.000000,3.000000,-4.000000,-6.000000,3.000000,-4.000000
1303054.536632,9.000000,1.000000,-9.000000,7.000000,-3.000000,0.000000,8.000000,1.000000
1303054.551502,-5.000000,-5.000000,3.000000,-2.000000,3.000000,-1.000000,-8.000000,-1.000000
1303054.551512,0.000000,3.000000,-6.000000,-2.000000,3.000000,0.000000,-1.000000,1.000000
1303054.552752,6.000000,9.000000,-7.000000,5.000000,3.000000,-4.000000,8.000000,-3.000000
1303054.552762,-3.000000,-2.000000,-2.000000,-3.000000,-4.000000,-3.000000,-1.000000,1.000000
1303054.574363,-8.000000,-4.000000,3.000000,-2.000000,4.000000,1.000000,-7.000000,-1.000000
1303054.574375,5.000000,6.000000,-12.000000,4.000000,2.000000,-5.000000,3.000000,-4.000000
1303054.634120,1.000000,-9.000000,3.000000,-4.000000,4.000000,-3.000000,7.000000,1.000000
1303054.634130,-9.000000,-13.000000,3.000000,-2.000000,-3.000000,7.000000,-10.000000,-3.000000
1303054.649185,9.000000,13.000000,-11.000000,2.000000,2.000000,6.000000,8.000000,1.000000
1303054.649197,8.000000,4.000000,-2.000000,-2.000000,-5.000000,-6.000000,2.000000,-4.000000
1303054.650151,-3.000000,-5.000000,0.000000,-3.000000,-1.000000,-4.000000,-6.000000,0.000000
1303054.650164,-5.000000,-1.000000,-8.000000,-5.000000,-2.000000,5.000000,-7.000000,1.000000
1303054.650613,7.000000,7.000000,-7.000000,6.000000,0.000000,-3.000000,7.000000,-3.000000
1303054.650622,-5.000000,-5.000000,-1.000000,7.000000,12.000000,-4.000000,-1.000000,-2.000000
1303054.652017,-6.000000,-2.000000,4.000000,0.000000,-3.000000,6.000000,-11.000000,1.000000
1303054.652025,6.000000,7.000000,-2.000000,3.000000,-5.000000,-3.000000,4.000000,-3.000000
1303054.656805,6.000000,8.000000,-9.000000,4.000000,3.000000,-2.000000,7.000000,-5.000000
1303054.656817,-5.000000,-7.000000,8.000000,-3.000000,-4.000000,-4.000000,-6.000000,0.000000
1303054.664380,-4.000000,3.000000,2.000000,-4.000000,-3.000000,12.000000,-8.000000,3.000000
1303054.664393,1.000000,9.000000,-8.000000,7.000000,2.000000,2.000000,5.000000,-1.000000
1303054.672372,-6.000000,-12.000000,3.000000,1.000000,-1.000000,-6.000000,0.000000,-3.000000
1303054.672383,-7.000000,-3.000000,13.000000,0.000000,7.000000,2.000000,-6.000000,-3.000000
1303054.701793,0.000000,0.000000,-11.000000,-3.000000,0.000000,3.000000,2.000000,-6.000000
1303054.701803,5.000000,-2.000000,-10.000000,1.000000,-9.000000,-1.000000,1.000000,-5.000000
1303054.716957,-9.000000,-18.000000,11.000000,-5.000000,3.000000,3.000000,-6.000000,3.000000
1303054.716969,-4.000000,8.000000,-2.000000,2.000000,2.000000,2.000000,-1.000000,3.000000
1303054.731981,1.000000,-2.000000,-5.000000,11.000000,-5.000000,-3.000000,7.000000,-5.000000
1303054.731994,-6.000000,-3.000000,-1.000000,-2.000000,6.000000,-10.000000,-2.000000,-3.000000
1303054.746405,-7.000000,3.000000,3.000000,-4.000000,-7.000000,5.000000,-8.000000,2.000000
1303054.746433,-2.000000,9.000000,-15.000000,-3.000000,5.000000,-3.000000,5.000000,-5.000000
1303054.776873,2.000000,-7.000000,2.000000,-7.000000,-2.000000,-4.000000,-1.000000,0.000000
1303054.777036,-9.000000,4.000000,15.000000,-10.000000,-4.000000,3.000000,-7.000000,2.000000
1303054.777742,4.000000,-6.000000,1.000000,4.000000,2.000000,4.000000,2.000000,-1.000000
1303054.777752,2.000000,4.000000,1.000000,1.000000,-5.000000,-6.000000,2.000000,-1.000000
1303054.778270,-6.000000,-11.000000,-1.000000,-1.000000,0.000000,-4.000000,-10.000000,0.000000
1303054.778280,-3.000000,5.000000,1.000000,4.000000,0.000000,5.000000,-6.000000,0.000000
1303054.779559,1.000000,4.000000,-8.000000,5.000000,-4.000000,-6.000000,7.000000,-6.000000
1303054.779570,-3.000000,-9.000000,7.000000,-5.000000,-1.000000,-1.000000,-4.000000,-1.000000
1303054.780403,-4.000000,-4.000000,5.000000,-5.000000,3.000000,8.000000,-9.000000,4.000000
1303054.780413,2.000000,0.000000,-6.000000,5.000000,1.000000,1.000000,6.000000,-3.000000
1303054.784097,2.000000,7.000000,1.000000,3.000000,-4.000000,1.000000,5.000000,-1.000000
1303054.784108,4.000000,2.000000,-6.000000,-6.000000,-5.000000,-1.000000,3.000000,-7.000000
1303054.792137,-10.000000,-14.000000,10.000000,1.000000,0.000000,2.000000,-8.000000,-1.000000
1303054.792146,-1.000000,-6.000000,-2.000000,-5.000000,3.000000,2.000000,6.000000,2.000000
1303054.806887,8.000000,12.000000,-11.000000,6.000000,-8.000000,-3.000000,6.000000,-3.000000
1303054.806898,-1.000000,-6.000000,7.000000,-2.000000,5.000000,-4.000000,-5.000000,-3.000000
1303054.814332,-1.000000,4.000000,7.000000,0.000000,1.000000,2.000000,-3.000000,-2.000000
1303054.814344,8.000000,10.000000,-13.000000,2.000000,-3.000000,-1.000000,6.000000,-1.000000
1303054.829169,-6.000000,-14.000000,8.000000,-4.000000,-1.000000,-6.000000,0.000000,-3.000000
1303054.829182,-4.000000,-7.000000,10.000000,-2.000000,1.000000,3.000000,-11.000000,0.000000
1303054.866997,1.000000,9.000000,-4.000000,3.000000,-5.000000,-1.000000,4.000000,-1.000000
1303054.867009,1.000000,-2.000000,-3.000000,5.000000,-2.000000,-6.000000,-1.000000,-2.000000
1303054.874008,-4.000000,-11.000000,7.000000,-4.000000,1.000000,2.000000,-9.000000,2.000000
1303054.874018,1.000000,3.000000,-4.000000,-5.000000,-9.000000,9.000000,0.000000,1.000000
1303054.889277,6.000000,-7.000000,-7.000000,4.000000,-1.000000,-1.000000,8.000000,-1.000000
1303054.889286,-1.000000,-7.000000,12.000000,-4.000000,2.000000,4.000000,-5.000000,-1.000000
1303054.889871,-12.000000,-2.000000,-3.000000,2.000000,-1.000000,7.000000,-6.000000,6.000000
1303054.889898,4.000000,8.000000,-9.000000,2.000000,0.000000,-4.000000,5.000000,-1.000000
1303054.891408,1.000000,-6.000000,2.000000,2.000000,0.000000,-1.000000,-5.000000,-4.000000
1303054.891434,-4.000000,-3.000000,3.000000,-13.000000,2.000000,0.000000,-13.000000,1.000000
1303054.911829,4.000000,-1.000000,-4.000000,0.000000,1.000000,-5.000000,5.000000,-2.000000
1303054.911840,4.000000,-1.000000,-1.000000,13.000000,3.000000,-4.000000,2.000000,-4.000000
1303054.912615,-6.000000,-8.000000,4.000000,-8.000000,-2.000000,0.000000,-6.000000,0.000000
1303054.912624,-4.000000,16.000000,-3.000000,-1.000000,-2.000000,8.000000,3.000000,1.000000
1303054.913131,7.000000,9.000000,-19.000000,5.000000,-6.000000,-13.000000,2.000000,0.000000
1303054.913139,-5.000000,-11.000000,6.000000,1.000000,-3.000000,-4.000000,-5.000000,0.000000
1303054.915115,-7.000000,-7.000000,-1.000000,-8.000000,2.000000,7.000000,-5.000000,2.000000
1303054.915126,3.000000,2.000000,-10.000000,1.000000,3.000000,-1.000000,7.000000,-3.000000
1303054.926859,0.000000,-5.000000,8.000000,-1.000000,-7.000000,-3.000000,0.000000,-3.000000
1303054.926883,-7.000000,3.000000,1.000000,-1.000000,-4.000000,3.000000,-8.000000,0.000000
1303054.949290,3.000000,7.000000,-5.000000,4.000000,1.000000,2.000000,1.000000,3.000000
1303054.949301,2.000000,-2.000000,-2.000000,2.000000,-5.000000,-4.000000,0.000000,1.000000
1303054.971676,-9.000000,-12.000000,7.000000,-5.000000,0.000000,-2.000000,-12.000000,0.000000
1303054.971701,-1.000000,12.000000,-5.000000,-3.000000,2.000000,1.000000,2.000000,-1.000000
1303054.994302,1.000000,3.000000,-9.000000,4.000000,0.000000,-7.000000,7.000000,-6.000000
1303054.994312,-9.000000,-1.000000,17.000000,4.000000,-2.000000,-2.000000,-4.000000,-1.000000
1303055.009218,-4.000000,1.000000,-7.000000,-8.000000,-2.000000,10.000000,-8.000000,7.000000
1303055.009235,-1.000000,-1.000000,-7.000000,11.000000,1.000000,0.000000,4.000000,-4.000000
1303055.010753,-3.000000,-4.000000,-4.000000,-4.000000,3.000000,-9.000000,-7.000000,-1.000000
1303055.010764,-6.000000,-5.000000,9.000000,-5.000000,-1.000000,0.000000,-6.000000,-1.000000
1303055.011422,0.000000,6.000000,-10.000000,2.000000,3.000000,2.000000,9.000000,2.000000
1303055.011433,0.000000,7.000000,0.000000,1.000000,-6.000000,-8.000000,2.000000,-5.000000
1303055.012748,4.000000,3.000000,-7.000000,0.000000,-2.000000,-7.000000,9.000000,1.000000
1303055.012758,-5.000000,-5.000000,14.000000,-3.000000,-2.000000,-2.000000,-5.000000,1.000000
1303055.023844,-3.000000,10.000000,1.000000,-1.000000,4.000000,4.000000,0.000000,-1.000000
1303055.023854,8.000000,8.000000,-11.000000,4.000000,-5.000000,-5.000000,2.000000,-5.000000
1303055.024523,3.000000,-9.000000,15.000000,-1.000000,0.000000,-8.000000,1.000000,-3.000000
1303055.024539,-8.000000,-3.000000,3.000000,-6.000000,-9.000000,9.000000,-10.000000,-2.000000
1303055.032351,5.000000,1.000000,-4.000000,2.000000,1.000000,2.000000,9.000000,-1.000000
1303055.032362,4.000000,1.000000,-4.000000,1.000000,0.000000,-2.000000,2.000000,-5.000000
1303055.054053,-7.000000,-15.000000,6.000000,-6.000000,1.000000,-5.000000,-11.000000,-5.000000
1303055.054063,3.000000,6.000000,-14.000000,10.000000,6.000000,1.000000,1.000000,-5.000000
1303055.084286,4.000000,1.000000,-4.000000,-2.000000,0.000000,-10.000000,6.000000,-7.000000
1303055.084297,-2.000000,0.000000,8.000000,3.000000,-2.000000,2.000000,-8.000000,-3.000000
1303055.091924,-4.000000,3.000000,-3.000000,-4.000000,-10.000000,-1.000000,-4.000000,2.000000
1303055.091935,3.000000,6.000000,-6.000000,5.000000,4.000000,-3.000000,8.000000,0.000000
1303055.129288,-2.000000,-9.000000,0.000000,0.000000,4.000000,2.000000,0.000000,-1.000000
1303055.129299,-7.000000,-6.000000,10.000000,-6.000000,-4.000000,3.000000,-11.000000,0.000000
1303055.144217,3.000000,5.000000,-6.000000,4.000000,-2.000000,-4.000000,5.000000,-5.000000
1303055.144229,-1.000000,-6.000000,-2.000000,0.000000,1.000000,-6.000000,1.000000,-1.000000
1303055.145146,-14.000000,-10.000000,-2.000000,-10.000000,0.000000,4.000000,-9.000000,-4.000000
1303055.145159,4.000000,2.000000,-11.000000,-5.000000,-1.000000,-3.000000,1.000000,-1.000000
1303055.146220,3.000000,3.000000,-1.000000,-3.000000,2.000000,-6.000000,3.000000,-2.000000
1303055.146243,-5.000000,-9.000000,3.000000,-4.000000,1.000000,6.000000,-3.000000,-2.000000
1303055.147857,1.000000,-4.000000,9.000000,-3.000000,3.000000,-9.000000,-1.000000,-2.000000
1303055.147881,-10.000000,-2.000000,8.000000,-9.000000,-1.000000,9.000000,-10.000000,0.000000
1303055.148645,-8.000000,-15.000000,10.000000,-9.000000,1.000000,-2.000000,-9.000000,-1.000000
1303055.148667,4.000000,4.000000,-1.000000,2.000000,-3.000000,0.000000,2.000000,-3.000000
1303055.182595,5.000000,-1.000000,-2.000000,4.000000,-5.000000,-7.000000,7.000000,-4.000000
1303055.182629,-1.000000,-8.000000,7.000000,0.000000,-8.000000,-3.000000,-3.000000,2.000000
1303055.189771,-7.000000,0.000000,-10.000000,1.000000,3.000000,4.000000,-2.000000,1.000000
1303055.189797,7.000000,9.000000,-12.000000,5.000000,0.000000,-5.000000,4.000000,-3.000000
1303055.212439,-1.000000,-3.000000,3.000000,0.000000,-4.000000,6.000000,-1.000000,0.000000
1303055.212491,-5.000000,1.000000,6.000000,-10.000000,-3.000000,7.000000,-8.000000,5.000000
1303055.220182,7.000000,8.000000,-6.000000,0.000000,8.000000,-5.000000,7.000000,-1.000000
1303055.220226,-1.000000,4.000000,-5.000000,-1.000000,1.000000,-4.000000,0.000000,2.000000
1303055.257374,-8.000000,-10.000000,13.000000,-3.000000,0.000000,-1.000000,-8.000000,2.000000
1303055.257401,-1.000000,-1.000000,-10.000000,4.000000,-6.000000,-9.000000,4.000000,-3.000000
1303055.265501,4.000000,-11.000000,-8.000000,8.000000,-1.000000,-7.000000,5.000000,-4.000000
1303055.265547,-6.000000,-9.000000,4.000000,-9.000000,2.000000,-2.000000,-7.000000,-4.000000
1303055.266220,0.000000,0.000000,-2.000000,0.000000,1.000000,-1.000000,-3.000000,3.000000
1303055.266232,-1.000000,9.000000,-12.000000,11.000000,-1.000000,-6.000000,7.000000,-1.000000
1303055.266756,-1.000000,-11.000000,-3.000000,-2.000000,-5.000000,0.000000,-5.000000,0.000000
1303055.266887,-6.000000,-3.000000,3.000000,-7.000000,-1.000000,1.000000,-5.000000,2.000000
1303055.266964,0.000000,1.000000,-8.000000,4.000000,-7.000000,-4.000000,4.000000,-2.000000
1303055.266978,-2.000000,-7.000000,7.000000,2.000000,0.000000,-9.000000,0.000000,-4.000000
1303055.267288,-11.000000,-7.000000,0.000000,-6.000000,3.000000,12.000000,-6.000000,-2.000000
1303055.267300,4.000000,14.000000,-8.000000,4.000000,2.000000,4.000000,7.000000,-1.000000
1303055.268133,-6.000000,-4.000000,2.000000,-5.000000,-3.000000,1.000000,0.000000,0.000000
1303055.268173,0.000000,1.000000,-15.000000,8.000000,0.000000,-2.000000,9.000000,-4.000000
1303055.286877,-4.000000,-12.000000,8.000000,-6.000000,-2.000000,-7.000000,-3.000000,0.000000
1303055.286891,-1.000000,3.000000,5.000000,-8.000000,-6.000000,15.000000,-9.000000,2.000000
1303055.301629,5.000000,-2.000000,-3.000000,1.000000,-3.000000,1.000000,5.000000,-1.000000
1303055.301639,2.000000,-1.000000,-6.000000,-4.000000,-1.000000,0.000000,2.000000,-2.000000
1303055.331573,-9.000000,-4.000000,11.000000,-3.000000,-3.000000,2.000000,-7.000000,-5.000000
1303055.331583,1.000000,9.000000,1.000000,4.000000,0.000000,-5.000000,5.000000,6.000000
1303055.346760,5.000000,5.000000,-4.000000,-2.000000,2.000000,-9.000000,5.000000,-2.000000
1303055.346804,-2.000000,-9.000000,8.000000,-10.000000,1.000000,-2.000000,-10.000000,3.000000
1303055.361901,-3.000000,3.000000,-10.000000,0.000000,1.000000,4.000000,-4.000000,-1.000000
1303055.361910,3.000000,9.000000,-9.000000,-7.000000,-8.000000,-2.000000,8.000000,-6.000000
1303055.362539,-3.000000,-7.000000,2.000000,-4.000000,0.000000,-6.000000,-5.000000,1.000000
1303055.362547,-9.000000,-20.000000,8.000000,-3.000000,4.000000,6.000000,-9.000000,0.000000
1303055.363866,7.000000,14.000000,0.000000,1.000000,-5.000000,3.000000,7.000000,0.000000
1303055.363874,-2.000000,-21.000000,1.000000,-6.000000,0.000000,-3.000000,4.000000,1.000000
1303055.364746,5.000000,-1.000000,-4.000000,-5.000000,-2.000000,-6.000000,10.000000,-4.000000
1303055.364754,-6.000000,-10.000000,16.000000,3.000000,2.000000,-1.000000,-12.000000,1.000000
1303055.368829,-3.000000,4.000000,-6.000000,7.000000,-4.000000,4.000000,-1.000000,-4.000000
1303055.368840,5.000000,9.000000,-4.000000,9.000000,0.000000,-3.000000,6.000000,-3.000000
1303055.384065,-4.000000,1.000000,6.000000,-2.000000,-6.000000,-5.000000,-7.000000,-2.000000
1303055.384074,-9.000000,-3.000000,6.000000,-5.000000,-2.000000,3.000000,-9.000000,0.000000
1303055.384733,3.000000,5.000000,-19.000000,9.000000,1.000000,-5.000000,9.000000,1.000000
1303055.384760,1.000000,-5.000000,1.000000,2.000000,-1.000000,-3.000000,-3.000000,-1.000000
1303055.429336,-8.000000,0.000000,9.000000,-4.000000,1.000000,6.000000,-7.000000,3.000000
1303055.429365,2.000000,-1.000000,-7.000000,-1.000000,-3.000000,8.000000,-1.000000,-2.000000
1303055.444402,4.000000,-1.000000,-6.000000,0.000000,-4.000000,1.000000,-1.000000,-4.000000
1303055.444412,-7.000000,-9.000000,8.000000,-8.000000,-3.000000,1.000000,-8.000000,4.000000
1303055.481644,0.000000,8.000000,-11.000000,6.000000,-4.000000,3.000000,5.000000,2.000000
1303055.481656,2.000000,2.000000,-2.000000,6.000000,-10.000000,-6.000000,8.000000,-2.000000
1303055.488771,0.000000,-3.000000,6.000000,-5.000000,0.000000,4.000000,-6.000000,0.000000
1303055.488781,-5.000000,-10.000000,-14.000000,-9.000000,0.000000,9.000000,-7.000000,1.000000
1303055.489927,3.000000,14.000000,0.000000,8.000000,-2.000000,-3.000000,6.000000,-2.000000
1303055.489954,-1.000000,-9.000000,-1.000000,-9.000000,3.000000,-13.000000,-1.000000,-5.000000
1303055.490696,-10.000000,-11.000000,12.000000,1.000000,-3.000000,-4.000000,-7.000000,0.000000
1303055.490705,1.000000,11.000000,-6.000000,-6.000000,-3.000000,-2.000000,2.000000,-7.000000
1303055.491292,3.000000,2.000000,5.000000,3.000000,3.000000,-7.000000,3.000000,-5.000000
1303055.491300,-3.000000,-4.000000,-1.000000,0.000000,4.000000,3.000000,-7.000000,3.000000
1303055.492185,6.000000,4.000000,-9.000000,5.000000,-5.000000,-5.000000,7.000000,-5.000000
1303055.492194,6.000000,-9.000000,-5.000000,-8.000000,-1.000000,2.000000,-3.000000,-1.000000
1303055.504059,-9.000000,-4.000000,1.000000,-2.000000,-1.000000,-3.000000,-12.000000,4.000000
1303055.504076,-3.000000,1.000000,-9.000000,1.000000,-1.000000,-2.000000,2.000000,-2.000000
1303055.504803,3.000000,4.000000,-6.000000,-4.000000,1.000000,-4.000000,3.000000,-4.000000
1303055.504813,-5.000000,-8.000000,11.000000,-4.000000,0.000000,5.000000,-4.000000,-2.000000
1303055.534084,2.000000,3.000000,-9.000000,2.000000,0.000000,1.000000,-1.000000,4.000000
1303055.534093,4.000000,5.000000,2.000000,5.000000,-6.000000,-1.000000,6.000000,0.000000
1303055.541580,1.000000,-10.000000,4.000000,-4.000000,-3.000000,-3.000000,-6.000000,0.000000
1303055.541590,-3.000000,-5.000000,-3.000000,-5.000000,5.000000,3.000000,-5.000000,-1.000000
1303055.579029,6.000000,4.000000,-7.000000,-3.000000,-1.000000,-5.000000,4.000000,-3.000000
1303055.579040,-4.000000,-11.000000,2.000000,-6.000000,-3.000000,-9.000000,-1.000000,-1.000000
1303055.586504,-6.000000,-7.000000,5.000000,-7.000000,-5.000000,2.000000,-7.000000,-2.000000
1303055.586534,3.000000,9.000000,2.000000,5.000000,4.000000,2.000000,5.000000,-4.000000
1303055.609802,2.000000,-4.000000,-8.000000,1.000000,0.000000,0.000000,2.000000,-2.000000
1303055.609814,-6.000000,-8.000000,6.000000,-2.000000,-4.000000,7.000000,-7.000000,1.000000
1303055.610152,-3.000000,2.000000,-11.000000,6.000000,-2.000000,1.000000,-3.000000,0.000000
1303055.610161,6.000000,9.000000,-7.000000,-1.000000,2.000000,-7.000000,9.000000,-4.000000
1303055.611359,-7.000000,-1.000000,4.000000,-3.000000,3.000000,4.000000,-1.000000,2.000000
1303055.611369,-8.000000,-1.000000,3.000000,1.000000,-4.000000,8.000000,-6.000000,-2.000000
1303055.612069,-1.000000,0.000000,4.000000,-5.000000,-2.000000,-3.000000,-8.000000,1.000000
1303055.612079,0.000000,3.000000,-4.000000,4.000000,1.000000,0.000000,0.000000,-3.000000
1303055.612886,2.000000,-4.000000,-2.000000,-5.000000,0.000000,-9.000000,1.000000,-3.000000
1303055.612896,-4.000000,-17.000000,11.000000,0.000000,0.000000,-4.000000,-4.000000,-1.000000
1303055.616524,3.000000,9.000000,-14.000000,2.000000,1.000000,1.000000,1.000000,1.000000
1303055.616536,2.000000,6.000000,-1.000000,2.000000,0.000000,-1.000000,7.000000,3.000000
1303055.624204,-9.000000,-20.000000,-2.000000,-4.000000,1.000000,-2.000000,-8.000000,2.000000
1303055.624253,5.000000,20.000000,19.000000,5.000000,-4.000000,6.000000,-4.000000,4.000000
1303055.654290,6.000000,1.000000,-15.000000,0.000000,1.000000,-4.000000,7.000000,-3.000000
1303055.654301,-3.000000,-16.000000,8.000000,-4.000000,1.000000,-4.000000,-6.000000,-5.000000
1303055.684220,-9.000000,-3.000000,1.000000,-12.000000,-2.000000,-1.000000,-9.000000,1.000000
