# participant_id: P7
# gesture: hard
# trial_number: 1
# stream_name: Myo_EMG
# stream_type: emg
# timestamp: 20260420_151256
# samples: 5296
# duration_sec: 30.315
# nominal_sample_rate: 200.0
# effective_sample_rate: 174.67
#
timestamp,emg_1,emg_2,emg_3,emg_4,emg_5,emg_6,emg_7,emg_8
1302668.541497,-3.000000,-33.000000,-109.000000,-87.000000,-47.000000,-34.000000,-65.000000,68.000000
1302668.541512,7.000000,84.000000,127.000000,87.000000,33.000000,20.000000,50.000000,-55.000000
1302668.570991,-73.000000,-90.000000,-31.000000,-44.000000,-50.000000,-3.000000,84.000000,1.000000
1302668.571001,10.000000,14.000000,53.000000,11.000000,3.000000,-15.000000,-21.000000,-19.000000
1302668.586484,50.000000,35.000000,80.000000,25.000000,50.000000,33.000000,64.000000,80.000000
1302668.586503,-88.000000,-27.000000,27.000000,-15.000000,17.000000,-9.000000,-116.000000,-19.000000
1302668.608657,65.000000,-24.000000,-92.000000,126.000000,87.000000,53.000000,127.000000,11.000000
1302668.608674,5.000000,63.000000,6.000000,39.000000,25.000000,16.000000,100.000000,-27.000000
1302668.615967,-25.000000,-3.000000,127.000000,127.000000,89.000000,15.000000,-51.000000,-14.000000
1302668.615996,-5.000000,-39.000000,8.000000,-60.000000,-107.000000,-2.000000,118.000000,34.000000
1302668.631223,-32.000000,-76.000000,-50.000000,-46.000000,-30.000000,-7.000000,-9.000000,-14.000000
1302668.631238,-32.000000,-35.000000,-41.000000,-63.000000,-33.000000,-69.000000,-128.000000,-58.000000
1302668.668695,-19.000000,19.000000,127.000000,81.000000,84.000000,46.000000,-4.000000,-71.000000
1302668.668706,28.000000,-4.000000,-84.000000,38.000000,23.000000,17.000000,-58.000000,-6.000000
1302668.691064,22.000000,38.000000,-50.000000,-8.000000,7.000000,-7.000000,-36.000000,-11.000000
1302668.691076,-2.000000,32.000000,-58.000000,30.000000,20.000000,-14.000000,75.000000,-19.000000
1302668.691853,10.000000,-18.000000,-68.000000,-12.000000,-20.000000,-36.000000,-115.000000,-29.000000
1302668.691861,-28.000000,-41.000000,-20.000000,-14.000000,5.000000,-2.000000,64.000000,15.000000
1302668.692513,13.000000,-86.000000,-29.000000,-16.000000,-10.000000,-1.000000,55.000000,61.000000
1302668.692567,8.000000,42.000000,10.000000,-9.000000,-2.000000,-32.000000,-128.000000,-122.000000
1302668.693960,71.000000,127.000000,127.000000,104.000000,84.000000,55.000000,97.000000,127.000000
1302668.693973,-22.000000,-41.000000,-119.000000,-112.000000,-66.000000,-37.000000,91.000000,-75.000000
1302668.705884,5.000000,25.000000,127.000000,-1.000000,-2.000000,-4.000000,-15.000000,-13.000000
1302668.705914,-14.000000,-33.000000,27.000000,-26.000000,-16.000000,-24.000000,-46.000000,38.000000
1302668.728626,-2.000000,-24.000000,54.000000,19.000000,43.000000,32.000000,25.000000,16.000000
1302668.728644,-47.000000,-115.000000,-128.000000,-128.000000,-54.000000,-26.000000,-128.000000,-97.000000
1302668.735785,26.000000,61.000000,-62.000000,90.000000,78.000000,42.000000,127.000000,21.000000
1302668.735803,-17.000000,-74.000000,-49.000000,-31.000000,-19.000000,-21.000000,-128.000000,6.000000
1302668.773719,12.000000,44.000000,24.000000,-58.000000,-36.000000,-30.000000,30.000000,-71.000000
1302668.773728,9.000000,-32.000000,-61.000000,0.000000,6.000000,23.000000,-12.000000,87.000000
1302668.788511,1.000000,-18.000000,17.000000,21.000000,-7.000000,32.000000,12.000000,24.000000
1302668.788552,-38.000000,-36.000000,-114.000000,5.000000,-10.000000,-58.000000,-128.000000,-75.000000
1302668.789439,3.000000,-7.000000,-8.000000,-46.000000,-37.000000,-22.000000,56.000000,0.000000
1302668.789448,77.000000,83.000000,127.000000,-20.000000,-74.000000,57.000000,127.000000,127.000000
1302668.790245,-14.000000,-25.000000,-96.000000,-38.000000,-28.000000,-30.000000,-36.000000,48.000000
1302668.790261,-22.000000,-10.000000,18.000000,17.000000,5.000000,-15.000000,-72.000000,-13.000000
1302668.791558,-19.000000,33.000000,-128.000000,-83.000000,-74.000000,-18.000000,-19.000000,-26.000000
1302668.791566,-8.000000,-43.000000,-97.000000,-31.000000,0.000000,-51.000000,-22.000000,-27.000000
1302668.792341,29.000000,100.000000,127.000000,127.000000,107.000000,85.000000,88.000000,34.000000
1302668.792350,-3.000000,-84.000000,-128.000000,-30.000000,-4.000000,-11.000000,-7.000000,25.000000
1302668.803360,0.000000,59.000000,-21.000000,-2.000000,7.000000,-6.000000,-128.000000,-101.000000
1302668.803389,10.000000,24.000000,28.000000,-47.000000,-39.000000,15.000000,127.000000,85.000000
1302668.810990,-40.000000,-128.000000,-97.000000,-24.000000,-3.000000,-24.000000,-17.000000,-13.000000
1302668.811001,-3.000000,50.000000,111.000000,27.000000,15.000000,3.000000,-40.000000,-10.000000
1302668.818900,-17.000000,-13.000000,-86.000000,-39.000000,-34.000000,-6.000000,45.000000,-32.000000
1302668.818915,-19.000000,-7.000000,64.000000,51.000000,5.000000,-9.000000,-28.000000,-13.000000
1302668.848577,-29.000000,-59.000000,-103.000000,-68.000000,-80.000000,-27.000000,-101.000000,-69.000000
1302668.848588,0.000000,-12.000000,5.000000,-9.000000,-14.000000,-30.000000,-50.000000,14.000000
1302668.863682,53.000000,59.000000,55.000000,-30.000000,-3.000000,30.000000,127.000000,96.000000
1302668.863693,1.000000,-36.000000,-67.000000,-13.000000,14.000000,17.000000,-41.000000,-41.000000
1302668.886471,14.000000,31.000000,62.000000,20.000000,-15.000000,-11.000000,-87.000000,-31.000000
1302668.886488,-29.000000,-26.000000,-12.000000,-52.000000,-5.000000,-2.000000,-36.000000,-6.000000
1302668.886986,-19.000000,-27.000000,-9.000000,4.000000,-9.000000,-22.000000,-28.000000,-45.000000
1302668.887006,5.000000,-24.000000,-32.000000,-52.000000,-27.000000,-21.000000,-17.000000,-12.000000
1302668.888225,-1.000000,-41.000000,-41.000000,-82.000000,-15.000000,1.000000,-3.000000,9.000000
1302668.888254,17.000000,-41.000000,-74.000000,4.000000,-12.000000,-9.000000,16.000000,-20.000000
1302668.889078,-16.000000,22.000000,61.000000,50.000000,25.000000,0.000000,16.000000,46.000000
1302668.889092,46.000000,27.000000,78.000000,-39.000000,4.000000,25.000000,-48.000000,-31.000000
1302668.908676,15.000000,59.000000,-35.000000,-30.000000,-32.000000,-16.000000,-6.000000,21.000000
1302668.908687,-37.000000,-107.000000,-105.000000,-57.000000,-69.000000,-61.000000,-17.000000,-89.000000
1302668.909114,-32.000000,-62.000000,-34.000000,26.000000,11.000000,26.000000,127.000000,33.000000
1302668.909121,127.000000,127.000000,94.000000,72.000000,44.000000,0.000000,55.000000,113.000000
1302668.910561,25.000000,-39.000000,-51.000000,-28.000000,-8.000000,-3.000000,5.000000,48.000000
1302668.910572,-52.000000,-44.000000,15.000000,-19.000000,-5.000000,-1.000000,-117.000000,-42.000000
1302668.923739,21.000000,73.000000,9.000000,73.000000,33.000000,-7.000000,-41.000000,-20.000000
1302668.923762,-8.000000,30.000000,-89.000000,-82.000000,-33.000000,-2.000000,20.000000,-30.000000
1302668.930941,0.000000,-54.000000,-10.000000,-10.000000,-75.000000,14.000000,25.000000,-23.000000
1302668.930958,-32.000000,20.000000,-10.000000,-128.000000,-110.000000,-45.000000,-27.000000,-23.000000
1302668.938265,7.000000,6.000000,8.000000,64.000000,50.000000,12.000000,-8.000000,-18.000000
1302668.938274,16.000000,-36.000000,-94.000000,-67.000000,-5.000000,10.000000,15.000000,22.000000
1302668.968728,-30.000000,-1.000000,74.000000,-103.000000,-63.000000,-20.000000,-83.000000,-29.000000
1302668.968739,17.000000,-6.000000,4.000000,18.000000,-14.000000,15.000000,89.000000,20.000000
1302668.983619,-29.000000,-33.000000,-36.000000,-72.000000,-45.000000,-25.000000,55.000000,19.000000
1302668.983667,-31.000000,-64.000000,-81.000000,-57.000000,-15.000000,-39.000000,-128.000000,-62.000000
1302668.991401,35.000000,74.000000,-8.000000,-13.000000,-18.000000,12.000000,127.000000,-59.000000
1302668.991413,5.000000,13.000000,-128.000000,-58.000000,-55.000000,-27.000000,-104.000000,-26.000000
1302668.991927,-35.000000,-7.000000,40.000000,-13.000000,5.000000,-24.000000,-128.000000,-47.000000
1302668.991936,-20.000000,-22.000000,67.000000,39.000000,25.000000,24.000000,57.000000,29.000000
1302668.993416,14.000000,-11.000000,33.000000,-32.000000,-7.000000,17.000000,127.000000,-57.000000
1302668.993438,16.000000,-5.000000,4.000000,-48.000000,4.000000,2.000000,43.000000,59.000000
1302669.006037,-32.000000,-1.000000,33.000000,78.000000,73.000000,7.000000,-35.000000,53.000000
1302669.006054,-17.000000,9.000000,11.000000,-36.000000,6.000000,-3.000000,-100.000000,-108.000000
1302669.021052,-45.000000,-19.000000,-18.000000,-57.000000,-92.000000,-33.000000,-39.000000,-17.000000
1302669.021069,30.000000,28.000000,-4.000000,60.000000,37.000000,32.000000,127.000000,45.000000
1302669.028631,-4.000000,4.000000,-11.000000,18.000000,48.000000,-3.000000,-44.000000,-8.000000
1302669.028652,-12.000000,-16.000000,-12.000000,-25.000000,-9.000000,-19.000000,-54.000000,-30.000000
1302669.029827,-1.000000,3.000000,107.000000,-71.000000,-95.000000,-36.000000,-10.000000,14.000000
1302669.029835,-25.000000,-22.000000,-42.000000,-17.000000,1.000000,-11.000000,-77.000000,-22.000000
1302669.051147,-9.000000,-26.000000,56.000000,21.000000,10.000000,20.000000,81.000000,1.000000
1302669.051158,30.000000,71.000000,-37.000000,-36.000000,-21.000000,-6.000000,27.000000,48.000000
1302669.052390,-14.000000,8.000000,-11.000000,-37.000000,-21.000000,-10.000000,-69.000000,-29.000000
1302669.052419,14.000000,-17.000000,65.000000,-68.000000,-8.000000,-8.000000,39.000000,14.000000
1302669.065973,12.000000,-37.000000,59.000000,80.000000,33.000000,17.000000,-50.000000,-63.000000
1302669.065983,1.000000,-59.000000,-82.000000,-6.000000,10.000000,-2.000000,83.000000,65.000000
1302669.088373,-9.000000,57.000000,28.000000,10.000000,0.000000,-25.000000,15.000000,13.000000
1302669.088404,-27.000000,15.000000,22.000000,-5.000000,13.000000,-32.000000,-128.000000,-70.000000
1302669.126083,41.000000,82.000000,85.000000,127.000000,106.000000,78.000000,127.000000,126.000000
1302669.126113,-19.000000,33.000000,-11.000000,-33.000000,-17.000000,-15.000000,-52.000000,-29.000000
1302669.141171,18.000000,15.000000,33.000000,-49.000000,-22.000000,-23.000000,-66.000000,-47.000000
1302669.141182,21.000000,-61.000000,-64.000000,54.000000,58.000000,28.000000,47.000000,51.000000
1302669.148522,-53.000000,-31.000000,-3.000000,-38.000000,-12.000000,4.000000,-56.000000,-36.000000
1302669.148533,-9.000000,112.000000,-10.000000,-56.000000,-71.000000,-14.000000,21.000000,-30.000000
1302669.163504,1.000000,-33.000000,6.000000,70.000000,14.000000,31.000000,62.000000,66.000000
1302669.163514,-1.000000,-77.000000,-96.000000,-128.000000,-76.000000,-40.000000,-83.000000,-19.000000
1302669.170819,-13.000000,-31.000000,-109.000000,-8.000000,32.000000,-21.000000,-128.000000,-36.000000
1302669.170829,10.000000,6.000000,101.000000,62.000000,27.000000,44.000000,127.000000,15.000000
1302669.185959,-34.000000,-21.000000,-16.000000,-9.000000,-5.000000,-9.000000,7.000000,-48.000000
1302669.185988,-14.000000,-59.000000,-57.000000,-19.000000,-16.000000,-25.000000,-53.000000,-27.000000
1302669.200906,-31.000000,-48.000000,-65.000000,-78.000000,-66.000000,-28.000000,-7.000000,-26.000000
1302669.200917,-5.000000,-67.000000,-27.000000,-35.000000,-24.000000,-18.000000,-75.000000,-27.000000
1302669.201245,33.000000,73.000000,90.000000,116.000000,118.000000,40.000000,89.000000,23.000000
1302669.201252,-18.000000,38.000000,38.000000,11.000000,-6.000000,21.000000,15.000000,-19.000000
1302669.202617,11.000000,-35.000000,-80.000000,-41.000000,6.000000,-12.000000,1.000000,16.000000
1302669.202627,-9.000000,21.000000,-3.000000,-50.000000,-19.000000,-20.000000,-64.000000,-60.000000
1302669.203247,10.000000,-19.000000,70.000000,63.000000,11.000000,22.000000,79.000000,65.000000
1302669.203264,36.000000,127.000000,53.000000,36.000000,11.000000,-3.000000,5.000000,48.000000
1302669.203852,-20.000000,-39.000000,-4.000000,-128.000000,-96.000000,-43.000000,-59.000000,-26.000000
1302669.203867,-9.000000,14.000000,5.000000,70.000000,63.000000,31.000000,-3.000000,39.000000
1302669.208571,30.000000,66.000000,-22.000000,26.000000,7.000000,-15.000000,68.000000,-8.000000
1302669.208600,26.000000,28.000000,86.000000,51.000000,24.000000,8.000000,-53.000000,10.000000
1302669.223916,28.000000,38.000000,-56.000000,-42.000000,-13.000000,-3.000000,-24.000000,-12.000000
1302669.223945,-50.000000,-67.000000,46.000000,-47.000000,-40.000000,-37.000000,-128.000000,-128.000000
1302669.246233,-34.000000,-11.000000,-20.000000,27.000000,6.000000,19.000000,127.000000,7.000000
1302669.246289,10.000000,13.000000,-6.000000,1.000000,-10.000000,-3.000000,-53.000000,-12.000000
1302669.247344,-43.000000,-37.000000,44.000000,-12.000000,-12.000000,-13.000000,-41.000000,-11.000000
1302669.247353,-5.000000,0.000000,50.000000,-32.000000,-42.000000,3.000000,23.000000,76.000000
1302669.260788,27.000000,65.000000,51.000000,96.000000,-17.000000,26.000000,44.000000,-3.000000
1302669.260802,-10.000000,-17.000000,-45.000000,-18.000000,-9.000000,-2.000000,0.000000,-15.000000
1302669.262244,-22.000000,-19.000000,-4.000000,-17.000000,-26.000000,-48.000000,-128.000000,-42.000000
1302669.262283,33.000000,56.000000,82.000000,-73.000000,-37.000000,44.000000,127.000000,94.000000
1302669.268367,-4.000000,-17.000000,-78.000000,7.000000,7.000000,-13.000000,-44.000000,-14.000000
1302669.268391,13.000000,16.000000,4.000000,-6.000000,4.000000,0.000000,-21.000000,11.000000
1302669.284291,33.000000,95.000000,70.000000,36.000000,30.000000,14.000000,49.000000,21.000000
1302669.284301,19.000000,7.000000,35.000000,2.000000,-2.000000,5.000000,17.000000,45.000000
1302669.298565,-30.000000,-98.000000,-19.000000,-5.000000,-11.000000,2.000000,-21.000000,-19.000000
1302669.298576,-9.000000,-18.000000,-6.000000,-11.000000,19.000000,10.000000,-39.000000,-26.000000
1302669.336163,-23.000000,-45.000000,-76.000000,23.000000,18.000000,19.000000,5.000000,9.000000
1302669.336173,-9.000000,-25.000000,-21.000000,-17.000000,-41.000000,-7.000000,-15.000000,-15.000000
1302669.343602,-6.000000,30.000000,46.000000,5.000000,0.000000,8.000000,-29.000000,7.000000
1302669.343612,17.000000,-39.000000,-111.000000,-2.000000,30.000000,9.000000,76.000000,-20.000000
1302669.403475,15.000000,-14.000000,28.000000,-24.000000,-26.000000,-7.000000,-16.000000,22.000000
1302669.403485,8.000000,18.000000,-45.000000,-46.000000,24.000000,-4.000000,-48.000000,-39.000000
1302669.410878,-22.000000,-24.000000,3.000000,37.000000,25.000000,-7.000000,-76.000000,-23.000000
1302669.410888,4.000000,-33.000000,32.000000,-27.000000,-4.000000,23.000000,107.000000,71.000000
1302669.426132,-5.000000,37.000000,57.000000,59.000000,4.000000,-3.000000,-93.000000,-28.000000
1302669.426142,-37.000000,-102.000000,-128.000000,-63.000000,-39.000000,-31.000000,83.000000,-15.000000
1302669.441120,31.000000,34.000000,-2.000000,-25.000000,-33.000000,-16.000000,-29.000000,-43.000000
1302669.441137,-49.000000,-37.000000,-93.000000,-69.000000,-7.000000,-5.000000,-96.000000,19.000000
1302669.463678,-8.000000,-27.000000,-38.000000,-28.000000,-22.000000,-14.000000,-55.000000,-15.000000
1302669.463688,23.000000,16.000000,69.000000,-22.000000,14.000000,1.000000,-27.000000,3.000000
1302669.485866,-50.000000,-64.000000,12.000000,6.000000,-18.000000,-5.000000,-63.000000,-39.000000
1302669.485885,3.000000,67.000000,-93.000000,-47.000000,0.000000,1.000000,127.000000,23.000000
1302669.501213,50.000000,7.000000,-19.000000,16.000000,37.000000,24.000000,43.000000,53.000000
1302669.501234,2.000000,-36.000000,-2.000000,-13.000000,-14.000000,-24.000000,-92.000000,-19.000000
1302669.524691,5.000000,7.000000,-32.000000,9.000000,23.000000,-33.000000,-107.000000,-18.000000
1302669.524717,0.000000,-42.000000,17.000000,29.000000,15.000000,25.000000,127.000000,70.000000
1302669.525994,-22.000000,-31.000000,-29.000000,-36.000000,-29.000000,-43.000000,-113.000000,-14.000000
1302669.526010,1.000000,-48.000000,-115.000000,-64.000000,-40.000000,-14.000000,-1.000000,-34.000000
1302669.538306,38.000000,67.000000,113.000000,100.000000,50.000000,53.000000,127.000000,23.000000
1302669.538316,9.000000,31.000000,54.000000,-27.000000,-40.000000,13.000000,44.000000,95.000000
1302669.561178,-10.000000,-46.000000,-67.000000,7.000000,-2.000000,-7.000000,-79.000000,-3.000000
1302669.561194,-50.000000,-72.000000,8.000000,-61.000000,-21.000000,-40.000000,-107.000000,-57.000000
1302669.583696,20.000000,70.000000,-9.000000,47.000000,18.000000,23.000000,127.000000,17.000000
1302669.583715,23.000000,2.000000,-64.000000,-39.000000,-30.000000,-28.000000,-77.000000,49.000000
1302669.584645,26.000000,64.000000,127.000000,34.000000,23.000000,33.000000,-21.000000,-28.000000
1302669.584654,-24.000000,-99.000000,-88.000000,-23.000000,-1.000000,6.000000,30.000000,41.000000
1302669.585343,-10.000000,-48.000000,-77.000000,-73.000000,-26.000000,-29.000000,-108.000000,-17.000000
1302669.585351,-10.000000,-13.000000,-7.000000,-24.000000,-14.000000,-16.000000,-7.000000,-77.000000
1302669.586723,8.000000,5.000000,-88.000000,-16.000000,-22.000000,-1.000000,-3.000000,17.000000
1302669.586734,-21.000000,23.000000,127.000000,39.000000,28.000000,-6.000000,-44.000000,-40.000000
1302669.606012,-33.000000,-85.000000,-117.000000,-18.000000,1.000000,20.000000,39.000000,10.000000
1302669.606027,22.000000,-5.000000,-44.000000,-14.000000,1.000000,-7.000000,-34.000000,-11.000000
1302669.607147,-3.000000,23.000000,62.000000,-33.000000,-13.000000,-8.000000,-8.000000,-13.000000
1302669.607160,-17.000000,3.000000,-12.000000,41.000000,25.000000,16.000000,-5.000000,-11.000000
1302669.621149,16.000000,-11.000000,92.000000,20.000000,22.000000,-9.000000,38.000000,127.000000
1302669.621160,20.000000,127.000000,16.000000,4.000000,12.000000,24.000000,-41.000000,-69.000000
1302669.622277,35.000000,11.000000,-27.000000,2.000000,-3.000000,23.000000,127.000000,81.000000
1302669.622289,12.000000,-16.000000,-16.000000,-12.000000,-4.000000,-3.000000,-65.000000,-27.000000
1302669.636511,-9.000000,-37.000000,-47.000000,-67.000000,-25.000000,-15.000000,-49.000000,22.000000
1302669.636521,-51.000000,-19.000000,-33.000000,31.000000,-15.000000,-23.000000,-105.000000,-113.000000
1302669.644247,5.000000,9.000000,12.000000,-44.000000,-35.000000,5.000000,127.000000,96.000000
1302669.644260,19.000000,38.000000,122.000000,127.000000,32.000000,23.000000,100.000000,50.000000
1302669.658525,-34.000000,-42.000000,15.000000,-62.000000,-57.000000,-35.000000,-38.000000,-14.000000
1302669.658535,-46.000000,-93.000000,-128.000000,-35.000000,-34.000000,-57.000000,-103.000000,-72.000000
1302669.688872,-7.000000,7.000000,9.000000,-25.000000,-14.000000,-20.000000,-13.000000,-64.000000
1302669.688891,23.000000,-38.000000,58.000000,86.000000,35.000000,2.000000,17.000000,27.000000
1302669.696354,21.000000,33.000000,-32.000000,5.000000,5.000000,11.000000,91.000000,60.000000
1302669.696373,2.000000,41.000000,106.000000,-11.000000,-12.000000,-15.000000,-6.000000,-25.000000
1302669.719272,-54.000000,-90.000000,75.000000,58.000000,20.000000,-22.000000,-128.000000,-79.000000
1302669.719303,89.000000,127.000000,74.000000,35.000000,24.000000,88.000000,127.000000,98.000000
1302669.719769,-9.000000,-61.000000,-83.000000,-16.000000,44.000000,5.000000,-17.000000,-15.000000
1302669.719790,-39.000000,-12.000000,61.000000,74.000000,4.000000,1.000000,-41.000000,2.000000
1302669.720946,-54.000000,12.000000,-31.000000,-15.000000,2.000000,-6.000000,-128.000000,-95.000000
1302669.720959,43.000000,-15.000000,-7.000000,-96.000000,-64.000000,16.000000,127.000000,87.000000
1302669.721838,8.000000,-32.000000,-70.000000,39.000000,76.000000,36.000000,-28.000000,36.000000
1302669.721860,17.000000,39.000000,127.000000,55.000000,6.000000,-18.000000,-128.000000,-3.000000
1302669.740833,-30.000000,10.000000,-31.000000,-63.000000,-15.000000,24.000000,51.000000,5.000000
1302669.740866,56.000000,77.000000,-31.000000,-8.000000,-14.000000,-32.000000,2.000000,30.000000
1302669.741530,-13.000000,8.000000,-29.000000,-18.000000,-14.000000,5.000000,-1.000000,-21.000000
1302669.741558,-10.000000,-2.000000,111.000000,60.000000,34.000000,2.000000,9.000000,-40.000000
1302669.743120,-7.000000,-5.000000,-37.000000,-35.000000,-27.000000,6.000000,22.000000,-33.000000
1302669.743161,40.000000,20.000000,90.000000,100.000000,12.000000,34.000000,127.000000,70.000000
1302669.756182,3.000000,-56.000000,-100.000000,60.000000,36.000000,1.000000,33.000000,26.000000
1302669.756192,5.000000,36.000000,51.000000,-32.000000,-4.000000,20.000000,-13.000000,-3.000000
1302669.770949,-26.000000,-3.000000,25.000000,-38.000000,-9.000000,-15.000000,-102.000000,-39.000000
1302669.770959,-15.000000,15.000000,38.000000,62.000000,9.000000,4.000000,-63.000000,-83.000000
1302669.778919,-10.000000,-32.000000,39.000000,-2.000000,19.000000,11.000000,2.000000,-51.000000
1302669.778930,-52.000000,-95.000000,-128.000000,-70.000000,-34.000000,-50.000000,-39.000000,-26.000000
1302669.816188,4.000000,15.000000,56.000000,11.000000,7.000000,29.000000,54.000000,19.000000
1302669.816202,36.000000,11.000000,-119.000000,-23.000000,18.000000,1.000000,118.000000,21.000000
1302669.838635,-1.000000,25.000000,73.000000,21.000000,-28.000000,-39.000000,-128.000000,-16.000000
1302669.838645,10.000000,119.000000,111.000000,127.000000,97.000000,34.000000,127.000000,11.000000
1302669.860964,13.000000,-16.000000,-24.000000,1.000000,37.000000,12.000000,-112.000000,70.000000
1302669.860982,8.000000,-4.000000,-45.000000,24.000000,23.000000,3.000000,-15.000000,-11.000000
1302669.883531,-11.000000,-6.000000,54.000000,4.000000,-15.000000,-6.000000,-42.000000,2.000000
1302669.883542,-39.000000,-39.000000,-69.000000,-97.000000,-34.000000,-29.000000,-48.000000,-31.000000
1302669.913869,4.000000,44.000000,42.000000,36.000000,14.000000,-10.000000,-63.000000,56.000000
1302669.913883,16.000000,34.000000,25.000000,59.000000,25.000000,27.000000,95.000000,-2.000000
1302669.921474,-1.000000,49.000000,22.000000,50.000000,93.000000,23.000000,48.000000,111.000000
1302669.921529,-24.000000,-32.000000,53.000000,-51.000000,-59.000000,-15.000000,-38.000000,-42.000000
1302669.922676,24.000000,-5.000000,104.000000,41.000000,39.000000,28.000000,1.000000,-3.000000
1302669.922696,-21.000000,-41.000000,-93.000000,7.000000,-27.000000,-40.000000,-76.000000,-10.000000
1302669.924119,22.000000,73.000000,1.000000,8.000000,-4.000000,8.000000,8.000000,18.000000
1302669.924147,-22.000000,-49.000000,-33.000000,-6.000000,-11.000000,-32.000000,-16.000000,-35.000000
1302669.936181,-23.000000,-33.000000,-21.000000,-55.000000,-20.000000,-21.000000,-65.000000,7.000000
1302669.936192,-21.000000,-36.000000,57.000000,4.000000,32.000000,1.000000,-106.000000,-107.000000
1302669.958897,92.000000,127.000000,127.000000,-1.000000,3.000000,83.000000,127.000000,127.000000
1302669.958932,2.000000,-60.000000,-128.000000,-4.000000,-1.000000,-2.000000,-19.000000,28.000000
1302669.959472,-16.000000,-7.000000,108.000000,-10.000000,-31.000000,-16.000000,-81.000000,-21.000000
1302669.959488,-19.000000,3.000000,30.000000,18.000000,-11.000000,-26.000000,-96.000000,-53.000000
1302669.973402,-15.000000,-21.000000,-41.000000,-45.000000,-14.000000,-24.000000,-18.000000,-20.000000
1302669.973431,-10.000000,7.000000,30.000000,-16.000000,-28.000000,-21.000000,-36.000000,-27.000000
1302669.974124,35.000000,2.000000,-63.000000,-65.000000,-50.000000,7.000000,124.000000,79.000000
1302669.974150,-23.000000,-49.000000,-128.000000,-10.000000,81.000000,14.000000,-35.000000,13.000000
1302669.981695,16.000000,101.000000,127.000000,127.000000,63.000000,41.000000,72.000000,-43.000000
1302669.981704,2.000000,-31.000000,-104.000000,-59.000000,-56.000000,3.000000,-21.000000,16.000000
1302669.996223,-46.000000,-17.000000,40.000000,64.000000,21.000000,20.000000,-128.000000,-114.000000
1302669.996234,75.000000,116.000000,89.000000,19.000000,67.000000,38.000000,127.000000,127.000000
1302670.018388,-16.000000,-18.000000,-83.000000,-52.000000,-21.000000,-33.000000,-54.000000,4.000000
1302670.018403,-47.000000,-41.000000,97.000000,24.000000,-6.000000,-2.000000,-53.000000,-72.000000
1302670.033961,45.000000,10.000000,17.000000,6.000000,15.000000,20.000000,105.000000,74.000000
1302670.033975,-35.000000,4.000000,7.000000,-92.000000,-28.000000,10.000000,-40.000000,-31.000000
1302670.048353,-18.000000,-42.000000,-115.000000,9.000000,10.000000,12.000000,62.000000,7.000000
1302670.048393,-3.000000,8.000000,99.000000,10.000000,-4.000000,5.000000,-37.000000,9.000000
1302670.056151,15.000000,34.000000,2.000000,-15.000000,8.000000,-1.000000,48.000000,-11.000000
1302670.056165,-38.000000,-44.000000,-23.000000,-60.000000,-29.000000,-18.000000,-58.000000,-54.000000
1302670.079058,12.000000,9.000000,-54.000000,-6.000000,-12.000000,7.000000,7.000000,17.000000
1302670.079068,-4.000000,0.000000,80.000000,51.000000,29.000000,3.000000,-19.000000,-20.000000
1302670.079554,-12.000000,42.000000,104.000000,-7.000000,-56.000000,-15.000000,-5.000000,43.000000
1302670.079562,-13.000000,-13.000000,-24.000000,-27.000000,-40.000000,-23.000000,-25.000000,-24.000000
1302670.080813,2.000000,-51.000000,-55.000000,-48.000000,-18.000000,6.000000,110.000000,37.000000
1302670.080822,-16.000000,-49.000000,36.000000,-8.000000,-20.000000,-11.000000,-28.000000,-39.000000
1302670.081402,8.000000,29.000000,-7.000000,54.000000,27.000000,-13.000000,-105.000000,30.000000
1302670.081411,-48.000000,4.000000,-38.000000,-88.000000,-21.000000,-23.000000,-40.000000,-102.000000
1302670.093487,-3.000000,-67.000000,-104.000000,51.000000,27.000000,29.000000,-74.000000,55.000000
1302670.093504,9.000000,68.000000,127.000000,8.000000,-17.000000,-25.000000,8.000000,-53.000000
1302670.094076,22.000000,22.000000,-7.000000,-24.000000,-14.000000,5.000000,29.000000,15.000000
1302670.094086,8.000000,-11.000000,-14.000000,-56.000000,-44.000000,-28.000000,41.000000,0.000000
1302670.101476,-11.000000,-65.000000,-107.000000,-36.000000,8.000000,4.000000,2.000000,-1.000000
1302670.101485,-61.000000,46.000000,29.000000,19.000000,8.000000,-4.000000,-59.000000,-24.000000
1302670.116267,-15.000000,-9.000000,-7.000000,-44.000000,-20.000000,-28.000000,-51.000000,-32.000000
1302670.116279,-5.000000,-24.000000,-30.000000,-116.000000,-78.000000,-56.000000,-33.000000,-35.000000
1302670.138694,33.000000,43.000000,107.000000,67.000000,27.000000,29.000000,30.000000,33.000000
1302670.138709,-11.000000,-51.000000,-76.000000,6.000000,0.000000,-16.000000,2.000000,-2.000000
1302670.168660,-8.000000,11.000000,27.000000,3.000000,-12.000000,-34.000000,-65.000000,-15.000000
1302670.168689,-14.000000,-64.000000,-113.000000,-22.000000,-31.000000,-11.000000,-28.000000,-45.000000
1302670.198517,-20.000000,-30.000000,45.000000,-16.000000,-29.000000,-15.000000,15.000000,-11.000000
1302670.198533,4.000000,7.000000,-60.000000,56.000000,22.000000,-25.000000,23.000000,45.000000
1302670.198875,3.000000,-9.000000,-59.000000,-26.000000,-16.000000,-31.000000,-128.000000,-75.000000
1302670.198883,-12.000000,1.000000,-26.000000,-5.000000,12.000000,10.000000,6.000000,-12.000000
1302670.200039,2.000000,-1.000000,-74.000000,-9.000000,-27.000000,-12.000000,-21.000000,-48.000000
1302670.200048,63.000000,76.000000,127.000000,-1.000000,11.000000,10.000000,127.000000,113.000000
1302670.200851,10.000000,-37.000000,-7.000000,113.000000,93.000000,34.000000,18.000000,55.000000
1302670.200874,26.000000,34.000000,-111.000000,-112.000000,-64.000000,-18.000000,106.000000,-18.000000
1302670.202346,-15.000000,-30.000000,-105.000000,-12.000000,-3.000000,-20.000000,-102.000000,-39.000000
1302670.202364,15.000000,21.000000,24.000000,-2.000000,-20.000000,23.000000,-46.000000,11.000000
1302670.213413,-1.000000,13.000000,125.000000,113.000000,41.000000,-5.000000,15.000000,-38.000000
1302670.213423,-1.000000,10.000000,-77.000000,-28.000000,-29.000000,-33.000000,-98.000000,-23.000000
1302670.214111,-21.000000,-9.000000,2.000000,-88.000000,-93.000000,-7.000000,-24.000000,-42.000000
1302670.214120,5.000000,-32.000000,55.000000,4.000000,-13.000000,-2.000000,-85.000000,-14.000000
1302670.243586,-24.000000,42.000000,25.000000,-24.000000,-22.000000,-27.000000,64.000000,-16.000000
1302670.243615,-55.000000,-63.000000,-85.000000,-21.000000,-48.000000,-33.000000,-128.000000,-101.000000
1302670.250855,31.000000,-45.000000,-86.000000,-15.000000,-9.000000,-22.000000,69.000000,40.000000
1302670.250864,8.000000,34.000000,-24.000000,-5.000000,0.000000,-44.000000,-128.000000,-33.000000
1302670.273699,-4.000000,16.000000,38.000000,127.000000,107.000000,8.000000,-24.000000,-51.000000
1302670.273710,-7.000000,-12.000000,-36.000000,-41.000000,-3.000000,-41.000000,-39.000000,86.000000
1302670.288643,-39.000000,31.000000,59.000000,15.000000,-14.000000,18.000000,127.000000,-20.000000
1302670.288653,-18.000000,-42.000000,19.000000,13.000000,17.000000,4.000000,-17.000000,33.000000
1302670.311186,26.000000,13.000000,70.000000,38.000000,17.000000,-24.000000,-128.000000,-69.000000
1302670.311199,12.000000,-13.000000,-58.000000,9.000000,-12.000000,-3.000000,76.000000,-22.000000
1302670.311707,-13.000000,-26.000000,-89.000000,-18.000000,-9.000000,-26.000000,-47.000000,-28.000000
1302670.311715,12.000000,-23.000000,16.000000,54.000000,18.000000,-6.000000,-27.000000,5.000000
1302670.312569,-33.000000,-28.000000,-128.000000,-128.000000,-87.000000,-45.000000,-48.000000,-51.000000
1302670.312577,-14.000000,-24.000000,49.000000,50.000000,15.000000,19.000000,48.000000,64.000000
1302670.313176,0.000000,-40.000000,-2.000000,13.000000,14.000000,-7.000000,-128.000000,-12.000000
1302670.313184,-3.000000,-22.000000,-77.000000,-61.000000,-16.000000,6.000000,127.000000,83.000000
1302670.315224,85.000000,32.000000,-128.000000,-79.000000,25.000000,35.000000,127.000000,127.000000
1302670.315235,24.000000,82.000000,127.000000,79.000000,65.000000,40.000000,-115.000000,-53.000000
1302670.333479,-62.000000,-15.000000,-43.000000,0.000000,-36.000000,-64.000000,-124.000000,-91.000000
1302670.333493,12.000000,21.000000,40.000000,2.000000,61.000000,18.000000,60.000000,70.000000
1302670.333980,12.000000,-48.000000,6.000000,-11.000000,6.000000,24.000000,70.000000,55.000000
1302670.333989,-2.000000,-11.000000,-38.000000,62.000000,24.000000,-13.000000,-43.000000,4.000000
1302670.363903,-13.000000,-16.000000,-12.000000,-80.000000,-43.000000,2.000000,34.000000,-41.000000
1302670.363915,23.000000,34.000000,36.000000,127.000000,44.000000,44.000000,38.000000,12.000000
1302670.371305,7.000000,28.000000,19.000000,-52.000000,-9.000000,-38.000000,-103.000000,-83.000000
1302670.371336,-14.000000,14.000000,81.000000,38.000000,38.000000,77.000000,127.000000,127.000000
1302670.393440,40.000000,120.000000,9.000000,-32.000000,-76.000000,-12.000000,36.000000,-20.000000
1302670.393451,5.000000,-29.000000,-69.000000,-19.000000,12.000000,4.000000,-46.000000,27.000000
1302670.393814,15.000000,-22.000000,27.000000,37.000000,-11.000000,-13.000000,37.000000,0.000000
1302670.393836,-39.000000,-49.000000,3.000000,29.000000,12.000000,12.000000,45.000000,1.000000
1302670.395246,15.000000,14.000000,-88.000000,-23.000000,0.000000,7.000000,-91.000000,-43.000000
1302670.395268,-16.000000,-12.000000,12.000000,-26.000000,-48.000000,-33.000000,-41.000000,-33.000000
1302670.396157,0.000000,-40.000000,-25.000000,-18.000000,-3.000000,-2.000000,70.000000,67.000000
1302670.396172,1.000000,41.000000,-15.000000,-70.000000,-35.000000,-22.000000,-95.000000,-109.000000
1302670.438489,-15.000000,45.000000,118.000000,127.000000,66.000000,38.000000,73.000000,-6.000000
1302670.438501,6.000000,-86.000000,-80.000000,-99.000000,-31.000000,0.000000,107.000000,96.000000
1302670.438920,47.000000,-10.000000,40.000000,-25.000000,-4.000000,-18.000000,-128.000000,-3.000000
1302670.438934,-128.000000,-62.000000,-128.000000,-85.000000,-84.000000,-51.000000,11.000000,-42.000000
1302670.440046,15.000000,59.000000,110.000000,-18.000000,-15.000000,-4.000000,10.000000,70.000000
1302670.440054,17.000000,34.000000,43.000000,38.000000,120.000000,70.000000,127.000000,6.000000
1302670.440697,-21.000000,-16.000000,-96.000000,-49.000000,-53.000000,-49.000000,-106.000000,21.000000
1302670.440705,-59.000000,33.000000,118.000000,-13.000000,-31.000000,-21.000000,-101.000000,-128.000000
1302670.445778,20.000000,-57.000000,-128.000000,6.000000,41.000000,29.000000,127.000000,127.000000
1302670.445806,-4.000000,70.000000,87.000000,53.000000,17.000000,0.000000,-86.000000,6.000000
1302670.453716,-20.000000,-22.000000,17.000000,-41.000000,-31.000000,-26.000000,-72.000000,-64.000000
1302670.453726,-18.000000,7.000000,56.000000,111.000000,51.000000,39.000000,24.000000,13.000000
1302670.468481,19.000000,12.000000,-18.000000,-23.000000,-5.000000,-28.000000,-66.000000,-40.000000
1302670.468491,26.000000,1.000000,-36.000000,61.000000,27.000000,38.000000,127.000000,99.000000
1302670.476062,1.000000,37.000000,127.000000,82.000000,26.000000,-30.000000,-128.000000,-57.000000
1302670.476071,-1.000000,48.000000,85.000000,-73.000000,-17.000000,72.000000,127.000000,-14.000000
1302670.521190,25.000000,-41.000000,-100.000000,88.000000,52.000000,-22.000000,111.000000,84.000000
1302670.521222,-53.000000,-61.000000,-1.000000,-23.000000,-37.000000,-76.000000,-128.000000,-52.000000
1302670.528550,10.000000,32.000000,66.000000,50.000000,-18.000000,-49.000000,-128.000000,-100.000000
1302670.528578,77.000000,106.000000,0.000000,11.000000,66.000000,86.000000,127.000000,127.000000
1302670.550962,-69.000000,12.000000,-24.000000,85.000000,12.000000,15.000000,100.000000,57.000000
1302670.550985,32.000000,40.000000,-48.000000,-46.000000,-35.000000,-27.000000,-104.000000,-21.000000
1302670.551465,-26.000000,-25.000000,-46.000000,-43.000000,-29.000000,-31.000000,-102.000000,-65.000000
1302670.551476,67.000000,86.000000,122.000000,127.000000,127.000000,86.000000,52.000000,24.000000
1302670.552633,15.000000,81.000000,18.000000,127.000000,83.000000,30.000000,2.000000,-35.000000
1302670.552642,-12.000000,-26.000000,-37.000000,11.000000,0.000000,-11.000000,-9.000000,-30.000000
1302670.554140,-85.000000,-55.000000,21.000000,-61.000000,-24.000000,-56.000000,-128.000000,-128.000000
1302670.554149,116.000000,108.000000,-16.000000,10.000000,29.000000,103.000000,127.000000,78.000000
1302670.555200,0.000000,-49.000000,12.000000,-21.000000,-32.000000,-22.000000,-128.000000,-42.000000
1302670.555219,-30.000000,-35.000000,-56.000000,-96.000000,-78.000000,-73.000000,34.000000,1.000000
1302670.573646,1.000000,4.000000,-61.000000,92.000000,41.000000,2.000000,-13.000000,-53.000000
1302670.573668,-17.000000,29.000000,14.000000,-48.000000,-17.000000,-23.000000,-72.000000,-5.000000
1302670.574126,-1.000000,-62.000000,-40.000000,-50.000000,-26.000000,-30.000000,-102.000000,-31.000000
1302670.574152,-10.000000,28.000000,-7.000000,-13.000000,-37.000000,-15.000000,-3.000000,96.000000
1302670.589108,42.000000,72.000000,-29.000000,-19.000000,8.000000,11.000000,98.000000,-9.000000
1302670.589117,-15.000000,-40.000000,1.000000,22.000000,34.000000,-15.000000,-77.000000,-15.000000
1302670.596737,21.000000,-4.000000,-19.000000,-115.000000,-74.000000,-17.000000,8.000000,-60.000000
1302670.596747,-14.000000,-69.000000,-41.000000,77.000000,41.000000,17.000000,9.000000,-16.000000
1302670.633792,62.000000,64.000000,43.000000,-41.000000,-51.000000,-19.000000,-70.000000,61.000000
1302670.633803,-49.000000,-128.000000,-93.000000,-128.000000,-35.000000,-9.000000,-4.000000,-6.000000
1302670.648963,-66.000000,49.000000,-125.000000,-35.000000,-52.000000,-63.000000,-114.000000,-128.000000
1302670.648994,5.000000,100.000000,127.000000,27.000000,-68.000000,10.000000,-67.000000,49.000000
1302670.656477,21.000000,-62.000000,-128.000000,-35.000000,-15.000000,-9.000000,127.000000,51.000000
1302670.656501,-32.000000,-70.000000,73.000000,56.000000,29.000000,6.000000,48.000000,-35.000000
1302670.657070,-45.000000,-1.000000,-82.000000,-95.000000,-70.000000,-55.000000,-128.000000,-83.000000
1302670.657092,-19.000000,-2.000000,43.000000,62.000000,30.000000,14.000000,-127.000000,-83.000000
1302670.658314,-47.000000,-3.000000,42.000000,10.000000,-23.000000,-78.000000,-128.000000,-33.000000
1302670.658323,31.000000,123.000000,-9.000000,33.000000,25.000000,31.000000,127.000000,-1.000000
1302670.659332,6.000000,-36.000000,-59.000000,-58.000000,-23.000000,-8.000000,-46.000000,13.000000
1302670.659353,15.000000,20.000000,44.000000,-37.000000,-89.000000,30.000000,127.000000,84.000000
1302670.671529,-16.000000,-62.000000,-16.000000,3.000000,54.000000,2.000000,-107.000000,-20.000000
1302670.671538,4.000000,27.000000,23.000000,-40.000000,10.000000,33.000000,-128.000000,-51.000000
1302670.678341,-6.000000,-60.000000,-14.000000,21.000000,-6.000000,-87.000000,127.000000,-6.000000
1302670.678350,44.000000,41.000000,53.000000,127.000000,122.000000,125.000000,99.000000,127.000000
1302670.693685,-5.000000,8.000000,-60.000000,2.000000,-15.000000,-22.000000,-128.000000,-122.000000
1302670.693697,-18.000000,-22.000000,-99.000000,-12.000000,-36.000000,-46.000000,-128.000000,-90.000000
1302670.694344,-12.000000,11.000000,75.000000,-119.000000,-63.000000,-25.000000,127.000000,7.000000
1302670.694378,70.000000,40.000000,25.000000,4.000000,28.000000,13.000000,-38.000000,8.000000
1302670.723433,-1.000000,-128.000000,-128.000000,-47.000000,-3.000000,47.000000,127.000000,127.000000
1302670.723462,27.000000,96.000000,28.000000,22.000000,-18.000000,-32.000000,-46.000000,-3.000000
1302670.731300,-26.000000,35.000000,65.000000,7.000000,5.000000,17.000000,-70.000000,-73.000000
1302670.731312,3.000000,-56.000000,-84.000000,-56.000000,-44.000000,-43.000000,10.000000,4.000000
1302670.753455,-102.000000,-101.000000,-94.000000,-101.000000,-70.000000,-45.000000,-128.000000,-117.000000
1302670.753465,-39.000000,-89.000000,-89.000000,-48.000000,-15.000000,13.000000,102.000000,11.000000
1302670.768522,47.000000,52.000000,-31.000000,-64.000000,-24.000000,-14.000000,-74.000000,-84.000000
1302670.768532,-77.000000,-128.000000,-64.000000,1.000000,-57.000000,-17.000000,-113.000000,-21.000000
1302670.805943,65.000000,122.000000,118.000000,127.000000,91.000000,65.000000,127.000000,127.000000
1302670.805953,-11.000000,-22.000000,-75.000000,-70.000000,-12.000000,-7.000000,53.000000,54.000000
1302670.813542,-34.000000,-55.000000,127.000000,48.000000,-20.000000,8.000000,9.000000,-67.000000
1302670.813560,44.000000,49.000000,-53.000000,98.000000,59.000000,26.000000,14.000000,56.000000
1302670.814532,8.000000,60.000000,7.000000,-24.000000,-7.000000,21.000000,116.000000,24.000000
1302670.814540,-67.000000,7.000000,127.000000,26.000000,21.000000,24.000000,-128.000000,-64.000000
1302670.815176,1.000000,-111.000000,-128.000000,127.000000,16.000000,-28.000000,127.000000,-5.000000
1302670.815202,-29.000000,-28.000000,-30.000000,-41.000000,-23.000000,4.000000,-128.000000,2.000000
1302670.816639,14.000000,127.000000,90.000000,110.000000,84.000000,60.000000,-76.000000,-72.000000
1302670.816666,9.000000,-38.000000,-55.000000,18.000000,45.000000,16.000000,30.000000,62.000000
1302670.836453,-17.000000,6.000000,-10.000000,46.000000,1.000000,16.000000,-128.000000,16.000000
1302670.836464,-13.000000,17.000000,22.000000,-92.000000,-43.000000,-47.000000,-52.000000,-128.000000
1302670.850978,8.000000,-62.000000,-74.000000,-18.000000,-9.000000,12.000000,127.000000,59.000000
1302670.850990,-21.000000,46.000000,43.000000,37.000000,17.000000,-11.000000,-104.000000,-29.000000
1302670.873800,2.000000,-5.000000,-40.000000,-46.000000,-33.000000,1.000000,-67.000000,-15.000000
1302670.873824,-1.000000,1.000000,0.000000,-41.000000,-19.000000,3.000000,-22.000000,-70.000000
1302670.888776,40.000000,30.000000,13.000000,-2.000000,8.000000,35.000000,127.000000,120.000000
1302670.888805,28.000000,-92.000000,6.000000,21.000000,-5.000000,-12.000000,-93.000000,-32.000000
1302670.912004,-37.000000,-1.000000,-99.000000,-52.000000,-30.000000,-10.000000,-40.000000,47.000000
1302670.912103,21.000000,44.000000,104.000000,0.000000,-42.000000,-18.000000,40.000000,-72.000000
1302670.912426,49.000000,2.000000,-36.000000,127.000000,34.000000,13.000000,-8.000000,58.000000
1302670.912444,-29.000000,-38.000000,56.000000,9.000000,35.000000,24.000000,27.000000,53.000000
1302670.913389,-23.000000,-65.000000,-111.000000,-113.000000,-22.000000,3.000000,-100.000000,-54.000000
1302670.913416,-17.000000,-28.000000,47.000000,16.000000,11.000000,-10.000000,46.000000,54.000000
1302670.914157,-17.000000,106.000000,-67.000000,-52.000000,-32.000000,-23.000000,-7.000000,-46.000000
1302670.914183,-48.000000,-94.000000,-4.000000,-36.000000,6.000000,4.000000,-128.000000,-29.000000
1302670.918658,-44.000000,-57.000000,-58.000000,-52.000000,-14.000000,-25.000000,-124.000000,-26.000000
1302670.918688,27.000000,75.000000,100.000000,73.000000,9.000000,20.000000,-10.000000,-121.000000
1302670.927046,39.000000,-96.000000,-128.000000,-2.000000,-13.000000,4.000000,127.000000,127.000000
1302670.927061,24.000000,71.000000,10.000000,-21.000000,-5.000000,-18.000000,-50.000000,-19.000000
1302670.934158,-50.000000,-27.000000,28.000000,-15.000000,-20.000000,-20.000000,-128.000000,-65.000000
1302670.934177,57.000000,66.000000,23.000000,42.000000,22.000000,27.000000,127.000000,51.000000
1302670.971045,-47.000000,-104.000000,-100.000000,-40.000000,-69.000000,-48.000000,-128.000000,-65.000000
1302670.971056,19.000000,101.000000,127.000000,127.000000,-5.000000,60.000000,127.000000,-5.000000
1302670.993448,-24.000000,-47.000000,-82.000000,-53.000000,-21.000000,-31.000000,-90.000000,-39.000000
1302670.993458,-15.000000,-28.000000,-81.000000,-80.000000,-37.000000,-21.000000,-59.000000,-84.000000
1302671.008464,33.000000,-42.000000,64.000000,124.000000,84.000000,66.000000,57.000000,49.000000
1302671.008484,1.000000,14.000000,-124.000000,-17.000000,-19.000000,-12.000000,48.000000,-74.000000
1302671.030806,-5.000000,44.000000,127.000000,41.000000,-12.000000,13.000000,0.000000,46.000000
1302671.030821,1.000000,-5.000000,13.000000,18.000000,1.000000,-22.000000,-64.000000,-35.000000
1302671.031999,-43.000000,-14.000000,66.000000,-14.000000,-30.000000,-66.000000,-128.000000,-54.000000
1302671.032014,100.000000,65.000000,52.000000,12.000000,53.000000,127.000000,127.000000,127.000000
1302671.032628,20.000000,21.000000,106.000000,74.000000,50.000000,20.000000,-66.000000,27.000000
1302671.032645,-59.000000,-109.000000,-35.000000,-33.000000,-24.000000,-72.000000,-128.000000,-128.000000
1302671.033272,16.000000,17.000000,-12.000000,-128.000000,-64.000000,21.000000,127.000000,78.000000
1302671.033290,28.000000,4.000000,-38.000000,10.000000,8.000000,28.000000,127.000000,62.000000
1302671.033803,-32.000000,-39.000000,-58.000000,-33.000000,-4.000000,-29.000000,-128.000000,-56.000000
1302671.033811,-36.000000,-22.000000,70.000000,56.000000,16.000000,-11.000000,-89.000000,-32.000000
1302671.045979,0.000000,-41.000000,-74.000000,-17.000000,15.000000,-13.000000,-128.000000,20.000000
1302671.045989,-25.000000,-34.000000,-16.000000,19.000000,13.000000,-21.000000,-114.000000,-45.000000
1302671.083596,-11.000000,-5.000000,3.000000,-10.000000,-37.000000,-22.000000,-87.000000,-119.000000
1302671.083610,-8.000000,0.000000,2.000000,-103.000000,-70.000000,15.000000,-47.000000,41.000000
1302671.091030,-11.000000,11.000000,18.000000,-2.000000,4.000000,3.000000,127.000000,-18.000000
1302671.091047,30.000000,-8.000000,-95.000000,-29.000000,-9.000000,-9.000000,15.000000,46.000000
1302671.143545,-75.000000,-82.000000,1.000000,-75.000000,-51.000000,-43.000000,-128.000000,-81.000000
1302671.143563,77.000000,44.000000,30.000000,-50.000000,4.000000,44.000000,127.000000,67.000000
1302671.150824,0.000000,-4.000000,-55.000000,3.000000,-13.000000,-13.000000,-128.000000,-22.000000
1302671.150834,-42.000000,-38.000000,70.000000,17.000000,25.000000,14.000000,95.000000,-1.000000
1302671.166656,55.000000,86.000000,45.000000,13.000000,-1.000000,37.000000,8.000000,53.000000
1302671.166667,-36.000000,-28.000000,-30.000000,-55.000000,-37.000000,-23.000000,-31.000000,-98.000000
1302671.167163,58.000000,63.000000,7.000000,127.000000,49.000000,46.000000,127.000000,127.000000
1302671.167172,-63.000000,-82.000000,9.000000,2.000000,7.000000,1.000000,-121.000000,-24.000000
1302671.167648,-11.000000,102.000000,106.000000,29.000000,45.000000,40.000000,45.000000,-7.000000
1302671.167658,-22.000000,-38.000000,-22.000000,18.000000,61.000000,-14.000000,127.000000,42.000000
1302671.168979,-10.000000,-25.000000,-32.000000,-22.000000,-21.000000,-7.000000,49.000000,39.000000
1302671.168990,-25.000000,15.000000,-55.000000,-40.000000,-17.000000,-20.000000,-128.000000,-90.000000
1302671.170512,-3.000000,67.000000,20.000000,127.000000,68.000000,6.000000,116.000000,65.000000
1302671.170529,-1.000000,-31.000000,-48.000000,35.000000,0.000000,-27.000000,-110.000000,-90.000000
1302671.188784,9.000000,-16.000000,-18.000000,-60.000000,-40.000000,26.000000,90.000000,57.000000
1302671.188805,38.000000,-10.000000,-21.000000,-64.000000,-41.000000,-23.000000,39.000000,2.000000
1302671.203588,-49.000000,-19.000000,-37.000000,-55.000000,-37.000000,-18.000000,-26.000000,-11.000000
1302671.203618,73.000000,127.000000,109.000000,127.000000,4.000000,20.000000,-13.000000,46.000000
1302671.211401,-32.000000,-39.000000,52.000000,-34.000000,-17.000000,15.000000,-6.000000,-13.000000
1302671.211422,-34.000000,-113.000000,-117.000000,-32.000000,-15.000000,-22.000000,-75.000000,-52.000000
1302671.233450,46.000000,86.000000,117.000000,-35.000000,-18.000000,31.000000,62.000000,94.000000
1302671.233478,64.000000,26.000000,-105.000000,-44.000000,-46.000000,-14.000000,85.000000,56.000000
1302671.240870,22.000000,28.000000,-21.000000,-98.000000,-37.000000,-48.000000,-63.000000,-46.000000
1302671.240880,-55.000000,-56.000000,-23.000000,-20.000000,-28.000000,2.000000,-79.000000,-38.000000
1302671.249086,44.000000,53.000000,44.000000,-1.000000,-10.000000,-26.000000,-13.000000,-5.000000
1302671.249096,21.000000,16.000000,-45.000000,-28.000000,2.000000,23.000000,101.000000,63.000000
1302671.249600,-3.000000,-24.000000,54.000000,127.000000,88.000000,45.000000,34.000000,30.000000
1302671.249611,-36.000000,-45.000000,82.000000,-2.000000,-8.000000,-18.000000,-118.000000,-34.000000
1302671.251389,-1.000000,-46.000000,-111.000000,-94.000000,-23.000000,-41.000000,-116.000000,-47.000000
1302671.251399,30.000000,104.000000,67.000000,-6.000000,-11.000000,-1.000000,-20.000000,-5.000000
1302671.270993,17.000000,-64.000000,-109.000000,5.000000,34.000000,43.000000,58.000000,18.000000
1302671.271004,-41.000000,-36.000000,-54.000000,-35.000000,-27.000000,-34.000000,-83.000000,-37.000000
1302671.272215,13.000000,1.000000,65.000000,-17.000000,-71.000000,-31.000000,123.000000,37.000000
1302671.272227,-16.000000,9.000000,36.000000,-49.000000,-35.000000,-12.000000,-8.000000,-13.000000
1302671.285949,94.000000,18.000000,25.000000,-58.000000,-19.000000,52.000000,127.000000,127.000000
1302671.285965,-72.000000,-79.000000,-34.000000,-44.000000,-16.000000,-26.000000,-128.000000,-47.000000
1302671.287241,59.000000,69.000000,112.000000,38.000000,33.000000,24.000000,-80.000000,-18.000000
1302671.287250,-9.000000,-21.000000,-31.000000,16.000000,-48.000000,-54.000000,-12.000000,19.000000
1302671.300914,-57.000000,-21.000000,77.000000,119.000000,70.000000,52.000000,90.000000,23.000000
1302671.300925,0.000000,-22.000000,-86.000000,-66.000000,-44.000000,-22.000000,-53.000000,-33.000000
1302671.323410,-35.000000,-45.000000,-68.000000,-73.000000,-28.000000,-25.000000,-85.000000,-8.000000
1302671.323421,-14.000000,18.000000,55.000000,-43.000000,-30.000000,19.000000,52.000000,-36.000000
1302671.346214,17.000000,-14.000000,37.000000,85.000000,18.000000,-32.000000,57.000000,40.000000
1302671.346228,-24.000000,-40.000000,-57.000000,-80.000000,-20.000000,-12.000000,-80.000000,-18.000000
1302671.361467,8.000000,48.000000,-81.000000,36.000000,4.000000,24.000000,103.000000,56.000000
1302671.361481,-39.000000,-34.000000,54.000000,25.000000,13.000000,-7.000000,-47.000000,-51.000000
1302671.361976,53.000000,8.000000,45.000000,-51.000000,-29.000000,45.000000,91.000000,30.000000
1302671.361983,-28.000000,-65.000000,-100.000000,5.000000,-16.000000,-31.000000,-59.000000,31.000000
1302671.363599,-64.000000,-88.000000,-115.000000,-46.000000,-49.000000,-40.000000,-128.000000,-103.000000
1302671.363631,-39.000000,-67.000000,-49.000000,-27.000000,9.000000,-32.000000,-65.000000,-46.000000
1302671.364096,74.000000,127.000000,127.000000,95.000000,54.000000,56.000000,127.000000,113.000000
1302671.364111,-23.000000,-98.000000,-128.000000,-28.000000,-25.000000,-16.000000,-55.000000,0.000000
1302671.383242,-15.000000,23.000000,49.000000,-31.000000,5.000000,2.000000,-87.000000,72.000000
1302671.383256,66.000000,69.000000,44.000000,-12.000000,34.000000,55.000000,23.000000,-25.000000
1302671.383911,30.000000,0.000000,35.000000,41.000000,19.000000,9.000000,127.000000,57.000000
1302671.383920,-47.000000,-39.000000,7.000000,22.000000,-9.000000,-21.000000,-55.000000,5.000000
1302671.385332,49.000000,67.000000,12.000000,-20.000000,-1.000000,1.000000,-15.000000,0.000000
1302671.385343,5.000000,23.000000,-6.000000,-74.000000,-77.000000,-24.000000,-21.000000,-15.000000
1302671.405993,-25.000000,-12.000000,40.000000,5.000000,10.000000,-12.000000,-88.000000,-32.000000
1302671.406004,5.000000,-48.000000,-116.000000,26.000000,19.000000,25.000000,111.000000,81.000000
1302671.428547,0.000000,18.000000,57.000000,24.000000,20.000000,2.000000,-79.000000,-37.000000
1302671.428558,69.000000,12.000000,53.000000,-39.000000,-55.000000,24.000000,127.000000,115.000000
1302671.435890,-7.000000,37.000000,-58.000000,-66.000000,-28.000000,-19.000000,-10.000000,-2.000000
1302671.435900,9.000000,38.000000,62.000000,18.000000,7.000000,4.000000,-74.000000,-53.000000
1302671.465906,-34.000000,-70.000000,-72.000000,-36.000000,-55.000000,-39.000000,-19.000000,-17.000000
1302671.465920,2.000000,-28.000000,-44.000000,21.000000,-1.000000,16.000000,13.000000,-12.000000
1302671.481170,17.000000,8.000000,36.000000,-30.000000,-5.000000,12.000000,118.000000,30.000000
1302671.481191,25.000000,-32.000000,36.000000,37.000000,16.000000,-17.000000,-99.000000,-15.000000
1302671.488938,-63.000000,-55.000000,-128.000000,-46.000000,-22.000000,-30.000000,-106.000000,-41.000000
1302671.488950,-23.000000,22.000000,-1.000000,-7.000000,23.000000,29.000000,127.000000,79.000000
1302671.489525,43.000000,52.000000,40.000000,61.000000,14.000000,13.000000,88.000000,19.000000
1302671.489532,-27.000000,-92.000000,-75.000000,-23.000000,-21.000000,-42.000000,-128.000000,-59.000000
1302671.490764,3.000000,34.000000,64.000000,-21.000000,-16.000000,-9.000000,127.000000,-66.000000
1302671.490771,54.000000,33.000000,-57.000000,-30.000000,-22.000000,11.000000,-20.000000,37.000000
1302671.504182,5.000000,-42.000000,65.000000,-21.000000,31.000000,16.000000,-98.000000,43.000000
1302671.504206,0.000000,84.000000,54.000000,107.000000,-1.000000,20.000000,-51.000000,6.000000
1302671.505325,-9.000000,-53.000000,-68.000000,-28.000000,-3.000000,-21.000000,-69.000000,-33.000000
1302671.505334,9.000000,-7.000000,-33.000000,-35.000000,12.000000,-2.000000,5.000000,-17.000000
1302671.525786,45.000000,111.000000,127.000000,127.000000,76.000000,49.000000,115.000000,17.000000
1302671.525816,-53.000000,-116.000000,-128.000000,-52.000000,-19.000000,-10.000000,-44.000000,-17.000000
1302671.527266,-19.000000,-43.000000,127.000000,54.000000,-17.000000,-14.000000,14.000000,-8.000000
1302671.527300,4.000000,47.000000,-92.000000,-77.000000,-75.000000,-36.000000,76.000000,43.000000
1302671.548606,-20.000000,-15.000000,-28.000000,-8.000000,-13.000000,-18.000000,-18.000000,-61.000000
1302671.548617,13.000000,6.000000,19.000000,-66.000000,-1.000000,-7.000000,-128.000000,7.000000
1302671.563559,17.000000,11.000000,75.000000,119.000000,79.000000,29.000000,127.000000,53.000000
1302671.563570,-23.000000,-35.000000,-73.000000,17.000000,8.000000,-4.000000,-128.000000,-2.000000
1302671.578677,-34.000000,-9.000000,-4.000000,-15.000000,11.000000,12.000000,50.000000,17.000000
1302671.578687,-5.000000,8.000000,-19.000000,-33.000000,-14.000000,-7.000000,-27.000000,-24.000000
1302671.593457,19.000000,-17.000000,66.000000,33.000000,-12.000000,-8.000000,-63.000000,-31.000000
1302671.593468,7.000000,29.000000,22.000000,2.000000,-23.000000,-32.000000,-6.000000,-15.000000
1302671.623520,-60.000000,-84.000000,-107.000000,-50.000000,20.000000,18.000000,18.000000,-5.000000
1302671.623537,127.000000,127.000000,127.000000,127.000000,56.000000,97.000000,127.000000,127.000000
1302671.624476,18.000000,-22.000000,-28.000000,13.000000,30.000000,0.000000,-37.000000,43.000000
1302671.624484,4.000000,20.000000,66.000000,53.000000,2.000000,6.000000,-71.000000,34.000000
1302671.625158,-45.000000,-13.000000,64.000000,-8.000000,-1.000000,26.000000,-43.000000,-37.000000
1302671.625185,32.000000,27.000000,-52.000000,-39.000000,-11.000000,-3.000000,62.000000,36.000000
1302671.626402,10.000000,51.000000,61.000000,14.000000,1.000000,-1.000000,-51.000000,-36.000000
1302671.626429,-47.000000,8.000000,6.000000,-21.000000,-27.000000,-16.000000,5.000000,-20.000000
1302671.627292,23.000000,20.000000,80.000000,0.000000,9.000000,6.000000,122.000000,127.000000
1302671.627300,39.000000,43.000000,65.000000,-42.000000,-57.000000,32.000000,-78.000000,-26.000000
1302671.638628,35.000000,-18.000000,-69.000000,9.000000,29.000000,20.000000,127.000000,60.000000
1302671.638642,-8.000000,4.000000,-24.000000,7.000000,20.000000,-19.000000,-128.000000,-24.000000
1302671.638924,-31.000000,45.000000,13.000000,-115.000000,-79.000000,-47.000000,122.000000,-95.000000
1302671.638933,42.000000,-6.000000,29.000000,64.000000,78.000000,28.000000,-41.000000,70.000000
1302671.646269,33.000000,70.000000,69.000000,-9.000000,32.000000,2.000000,-46.000000,-11.000000
1302671.646282,-29.000000,-2.000000,-31.000000,-42.000000,-17.000000,11.000000,15.000000,-4.000000
1302671.660942,-19.000000,-78.000000,-46.000000,35.000000,-8.000000,-36.000000,-28.000000,17.000000
1302671.660953,-25.000000,-5.000000,37.000000,-11.000000,-38.000000,-4.000000,59.000000,20.000000
1302671.683654,13.000000,9.000000,-11.000000,7.000000,1.000000,-10.000000,-16.000000,-2.000000
1302671.683679,30.000000,2.000000,-4.000000,-5.000000,-1.000000,-8.000000,-63.000000,-12.000000
1302671.698417,-10.000000,-23.000000,-21.000000,72.000000,29.000000,11.000000,11.000000,-11.000000
1302671.698428,-11.000000,-7.000000,91.000000,0.000000,-7.000000,-10.000000,-10.000000,0.000000
1302671.743544,11.000000,19.000000,-66.000000,39.000000,32.000000,23.000000,23.000000,-7.000000
1302671.743573,-30.000000,-13.000000,-9.000000,6.000000,3.000000,-17.000000,-66.000000,-65.000000
1302671.758464,37.000000,42.000000,63.000000,95.000000,28.000000,23.000000,89.000000,96.000000
1302671.758497,-13.000000,-11.000000,-27.000000,-6.000000,-13.000000,-23.000000,-79.000000,7.000000
1302671.759466,-6.000000,28.000000,15.000000,54.000000,40.000000,16.000000,34.000000,-55.000000
1302671.759483,27.000000,26.000000,-3.000000,100.000000,23.000000,19.000000,54.000000,100.000000
1302671.760228,-30.000000,-28.000000,-19.000000,-92.000000,-58.000000,-14.000000,-25.000000,-21.000000
1302671.760237,-7.000000,14.000000,-38.000000,9.000000,15.000000,5.000000,-61.000000,-58.000000
1302671.761801,-54.000000,-84.000000,33.000000,-31.000000,-31.000000,-30.000000,-15.000000,25.000000
1302671.761811,51.000000,109.000000,-62.000000,-93.000000,-64.000000,-37.000000,-61.000000,44.000000
1302671.765920,-1.000000,46.000000,96.000000,25.000000,53.000000,49.000000,23.000000,43.000000
1302671.765948,25.000000,-8.000000,-91.000000,-32.000000,-28.000000,-28.000000,8.000000,1.000000
1302671.781042,21.000000,58.000000,111.000000,55.000000,22.000000,25.000000,-17.000000,25.000000
1302671.781052,-5.000000,-11.000000,-22.000000,-47.000000,-15.000000,7.000000,-7.000000,-22.000000
1302671.810960,3.000000,25.000000,47.000000,14.000000,14.000000,13.000000,2.000000,-23.000000
1302671.810970,-17.000000,17.000000,-14.000000,-80.000000,-13.000000,-15.000000,-29.000000,-61.000000
1302671.826404,14.000000,9.000000,6.000000,-15.000000,19.000000,6.000000,1.000000,-7.000000
1302671.826419,43.000000,20.000000,-19.000000,15.000000,28.000000,9.000000,127.000000,89.000000
1302671.841016,-48.000000,-33.000000,-117.000000,-118.000000,-59.000000,-24.000000,-98.000000,-87.000000
1302671.841036,-6.000000,-51.000000,84.000000,49.000000,0.000000,-17.000000,3.000000,-16.000000
1302671.841649,-26.000000,8.000000,-8.000000,23.000000,34.000000,-19.000000,-128.000000,-90.000000
1302671.841667,-27.000000,-32.000000,-34.000000,36.000000,25.000000,14.000000,84.000000,27.000000
1302671.842651,42.000000,11.000000,42.000000,2.000000,-8.000000,8.000000,89.000000,75.000000
1302671.842678,-1.000000,1.000000,117.000000,45.000000,48.000000,-5.000000,-105.000000,-54.000000
1302671.843291,-39.000000,-7.000000,55.000000,40.000000,17.000000,9.000000,35.000000,-31.000000
1302671.843318,-4.000000,-19.000000,-75.000000,8.000000,32.000000,10.000000,6.000000,36.000000
1302671.848423,-2.000000,9.000000,-44.000000,-30.000000,-19.000000,-32.000000,-88.000000,-44.000000
1302671.848444,-11.000000,-35.000000,37.000000,13.000000,-12.000000,4.000000,51.000000,45.000000
1302671.856201,-16.000000,43.000000,47.000000,27.000000,32.000000,-25.000000,-106.000000,-55.000000
1302671.856221,-2.000000,-3.000000,-65.000000,-63.000000,-43.000000,39.000000,127.000000,-5.000000
1302671.901152,-25.000000,-78.000000,78.000000,-12.000000,-49.000000,-7.000000,28.000000,45.000000
1302671.901175,52.000000,52.000000,-38.000000,-128.000000,-69.000000,-17.000000,46.000000,17.000000
1302671.923879,57.000000,-29.000000,-28.000000,14.000000,6.000000,0.000000,23.000000,25.000000
1302671.923952,-5.000000,-6.000000,-29.000000,-44.000000,-23.000000,-30.000000,-98.000000,-36.000000
1302671.961230,16.000000,4.000000,46.000000,-16.000000,13.000000,41.000000,127.000000,121.000000
1302671.961244,-10.000000,-35.000000,-51.000000,41.000000,0.000000,25.000000,-108.000000,-39.000000
1302671.961631,10.000000,69.000000,127.000000,127.000000,59.000000,5.000000,127.000000,9.000000
1302671.961641,6.000000,11.000000,63.000000,4.000000,24.000000,17.000000,-48.000000,21.000000
1302671.962622,-14.000000,-16.000000,-119.000000,-128.000000,-50.000000,-21.000000,18.000000,-11.000000
1302671.962632,-5.000000,32.000000,127.000000,127.000000,127.000000,53.000000,-4.000000,-5.000000
1302671.963312,13.000000,-19.000000,-34.000000,-7.000000,-25.000000,-31.000000,-49.000000,-35.000000
1302671.963322,37.000000,78.000000,75.000000,-3.000000,37.000000,70.000000,127.000000,100.000000
1302671.963878,-23.000000,10.000000,-116.000000,-106.000000,-63.000000,-46.000000,-128.000000,-98.000000
1302671.963887,16.000000,22.000000,-88.000000,20.000000,-13.000000,-24.000000,127.000000,96.000000
1302671.964884,-23.000000,-36.000000,-115.000000,-128.000000,-86.000000,22.000000,127.000000,120.000000
1302671.964894,-3.000000,-17.000000,17.000000,-18.000000,-8.000000,-16.000000,-110.000000,-14.000000
1302671.975974,1.000000,32.000000,4.000000,58.000000,79.000000,18.000000,-40.000000,13.000000
1302671.975991,-13.000000,-29.000000,-63.000000,-39.000000,-13.000000,-12.000000,-38.000000,-38.000000
1302671.976561,-33.000000,-71.000000,-91.000000,-39.000000,-44.000000,-32.000000,-47.000000,-57.000000
1302671.976575,-15.000000,-1.000000,113.000000,103.000000,21.000000,-21.000000,-59.000000,16.000000
1302671.998350,31.000000,-7.000000,-28.000000,25.000000,7.000000,32.000000,127.000000,103.000000
1302671.998361,-33.000000,-45.000000,-80.000000,-90.000000,-62.000000,-63.000000,-128.000000,-86.000000
1302671.998817,-10.000000,58.000000,127.000000,127.000000,105.000000,87.000000,127.000000,53.000000
1302671.998826,-13.000000,89.000000,-3.000000,-38.000000,-23.000000,-35.000000,-89.000000,-93.000000
1302672.021076,46.000000,27.000000,35.000000,-24.000000,6.000000,42.000000,101.000000,55.000000
1302672.021087,-67.000000,-49.000000,-26.000000,-40.000000,-16.000000,-14.000000,-74.000000,-51.000000
1302672.036052,-13.000000,56.000000,53.000000,14.000000,51.000000,60.000000,75.000000,23.000000
1302672.036063,-6.000000,-48.000000,-62.000000,-28.000000,-14.000000,-36.000000,-93.000000,-44.000000
1302672.058798,-9.000000,17.000000,101.000000,7.000000,-22.000000,-12.000000,-36.000000,-79.000000
1302672.058811,0.000000,-35.000000,-5.000000,-81.000000,-102.000000,-19.000000,127.000000,80.000000
1302672.066129,-16.000000,7.000000,-50.000000,0.000000,24.000000,6.000000,-89.000000,-12.000000
1302672.066158,-23.000000,-27.000000,-40.000000,-35.000000,-33.000000,-17.000000,18.000000,1.000000
1302672.080915,-8.000000,-16.000000,29.000000,45.000000,24.000000,16.000000,10.000000,-3.000000
1302672.080942,-8.000000,42.000000,58.000000,-11.000000,-15.000000,-8.000000,-128.000000,-34.000000
1302672.103630,14.000000,26.000000,37.000000,19.000000,27.000000,34.000000,127.000000,55.000000
1302672.103642,-29.000000,-30.000000,-43.000000,-47.000000,-31.000000,-12.000000,-100.000000,-81.000000
1302672.118951,3.000000,-59.000000,13.000000,56.000000,37.000000,5.000000,78.000000,41.000000
1302672.118974,-7.000000,15.000000,-12.000000,-81.000000,-38.000000,-18.000000,-57.000000,-53.000000
1302672.119731,-20.000000,-21.000000,-54.000000,37.000000,39.000000,21.000000,-66.000000,13.000000
1302672.119748,49.000000,40.000000,93.000000,31.000000,-3.000000,18.000000,111.000000,-6.000000
1302672.120955,2.000000,-1.000000,-38.000000,-84.000000,-43.000000,-21.000000,-32.000000,20.000000
1302672.120967,-29.000000,-15.000000,49.000000,4.000000,-3.000000,-2.000000,-77.000000,-98.000000
1302672.121501,64.000000,22.000000,-52.000000,-29.000000,-5.000000,9.000000,78.000000,119.000000
1302672.121509,-46.000000,-28.000000,-52.000000,88.000000,72.000000,6.000000,-45.000000,-15.000000
1302672.122384,-27.000000,44.000000,107.000000,15.000000,-7.000000,14.000000,8.000000,-61.000000
1302672.122402,17.000000,-82.000000,-99.000000,-94.000000,-40.000000,-32.000000,13.000000,37.000000
1302672.133471,-7.000000,-31.000000,-81.000000,-15.000000,3.000000,-27.000000,-114.000000,-51.000000
1302672.133482,-13.000000,-7.000000,-46.000000,20.000000,42.000000,18.000000,2.000000,-87.000000
1302672.140971,-38.000000,-35.000000,-62.000000,-60.000000,-27.000000,-13.000000,-93.000000,-50.000000
1302672.141000,-13.000000,-23.000000,65.000000,9.000000,-39.000000,-19.000000,-75.000000,-5.000000
1302672.156086,-38.000000,-20.000000,-72.000000,-22.000000,-53.000000,-20.000000,127.000000,15.000000
1302672.156106,-4.000000,22.000000,-11.000000,49.000000,74.000000,16.000000,-67.000000,-22.000000
1302672.178643,3.000000,15.000000,-47.000000,-21.000000,10.000000,-11.000000,-81.000000,-48.000000
1302672.178672,0.000000,6.000000,-10.000000,-124.000000,-41.000000,-23.000000,32.000000,31.000000
1302672.200999,3.000000,-12.000000,-24.000000,53.000000,40.000000,17.000000,-28.000000,58.000000
1302672.201010,26.000000,-56.000000,-43.000000,-83.000000,-55.000000,-60.000000,-128.000000,-63.000000
1302672.216024,43.000000,12.000000,14.000000,127.000000,127.000000,87.000000,127.000000,127.000000
1302672.216035,11.000000,45.000000,46.000000,31.000000,-12.000000,-5.000000,0.000000,69.000000
1302672.217011,-63.000000,-35.000000,-15.000000,-3.000000,-12.000000,-49.000000,-128.000000,-54.000000
1302672.217033,-10.000000,40.000000,-10.000000,19.000000,18.000000,0.000000,68.000000,-89.000000
1302672.217662,79.000000,79.000000,41.000000,28.000000,59.000000,72.000000,127.000000,127.000000
1302672.217680,24.000000,58.000000,-29.000000,83.000000,40.000000,19.000000,-9.000000,15.000000
1302672.218795,-32.000000,-68.000000,31.000000,-17.000000,-27.000000,-20.000000,-8.000000,-41.000000
1302672.218804,-9.000000,-5.000000,-24.000000,-41.000000,-15.000000,-35.000000,-128.000000,-79.000000
1302672.219913,24.000000,15.000000,-35.000000,-35.000000,-29.000000,38.000000,107.000000,42.000000
1302672.219922,-38.000000,-57.000000,-86.000000,-38.000000,-23.000000,-22.000000,9.000000,-13.000000
1302672.230909,3.000000,-37.000000,-5.000000,-21.000000,17.000000,15.000000,9.000000,59.000000
1302672.230925,16.000000,11.000000,-17.000000,-13.000000,-14.000000,-9.000000,71.000000,11.000000
1302672.238443,-128.000000,-128.000000,0.000000,-100.000000,-36.000000,-13.000000,-79.000000,-30.000000
1302672.238458,91.000000,92.000000,-51.000000,-22.000000,-48.000000,10.000000,54.000000,14.000000
1302672.253724,-4.000000,16.000000,65.000000,-40.000000,-30.000000,-32.000000,-42.000000,6.000000
1302672.253743,-29.000000,-54.000000,-29.000000,11.000000,-28.000000,-24.000000,-10.000000,-15.000000
1302672.261091,-30.000000,-56.000000,-66.000000,-40.000000,-16.000000,-53.000000,-128.000000,-88.000000
1302672.261107,82.000000,71.000000,108.000000,0.000000,-45.000000,42.000000,127.000000,107.000000
1302672.298583,-16.000000,63.000000,-82.000000,-26.000000,-6.000000,-10.000000,-23.000000,-54.000000
1302672.298593,-9.000000,-59.000000,-38.000000,-41.000000,-30.000000,-46.000000,27.000000,0.000000
1302672.314042,22.000000,-24.000000,42.000000,-26.000000,-7.000000,11.000000,-2.000000,25.000000
1302672.314059,-42.000000,-81.000000,-128.000000,-73.000000,-48.000000,-18.000000,-42.000000,-38.000000
1302672.314543,-12.000000,-7.000000,-63.000000,-11.000000,36.000000,-10.000000,-43.000000,-35.000000
1302672.314551,11.000000,-17.000000,38.000000,19.000000,1.000000,-7.000000,-33.000000,-37.000000
1302672.315919,-26.000000,-9.000000,-5.000000,-119.000000,-64.000000,-30.000000,-128.000000,-31.000000
1302672.315928,1.000000,-31.000000,-47.000000,50.000000,40.000000,19.000000,127.000000,36.000000
1302672.321060,13.000000,50.000000,52.000000,-15.000000,6.000000,15.000000,59.000000,69.000000
1302672.321080,-13.000000,-3.000000,-4.000000,-3.000000,13.000000,14.000000,31.000000,16.000000
1302672.343541,41.000000,98.000000,74.000000,79.000000,0.000000,3.000000,19.000000,8.000000
1302672.343558,-76.000000,-104.000000,-128.000000,-7.000000,-39.000000,-44.000000,-113.000000,-66.000000
1302672.358410,-19.000000,-35.000000,10.000000,-75.000000,-12.000000,6.000000,52.000000,-14.000000
1302672.358430,-14.000000,-12.000000,-34.000000,-6.000000,19.000000,-8.000000,-82.000000,-12.000000
1302672.359409,46.000000,76.000000,41.000000,37.000000,30.000000,38.000000,127.000000,30.000000
1302672.359423,-10.000000,-59.000000,-48.000000,-43.000000,-20.000000,-22.000000,-28.000000,5.000000
1302672.360084,-24.000000,0.000000,104.000000,55.000000,28.000000,16.000000,13.000000,-26.000000
1302672.360093,11.000000,27.000000,-85.000000,-25.000000,-42.000000,-37.000000,-96.000000,-58.000000
1302672.361616,10.000000,-6.000000,38.000000,29.000000,0.000000,13.000000,-43.000000,-41.000000
1302672.361625,21.000000,-3.000000,-51.000000,-128.000000,-59.000000,-48.000000,-14.000000,25.000000
1302672.381205,-55.000000,-68.000000,-77.000000,-17.000000,-7.000000,0.000000,22.000000,-26.000000
1302672.381216,-29.000000,-50.000000,-22.000000,-39.000000,20.000000,-7.000000,-17.000000,3.000000
1302672.396044,18.000000,47.000000,69.000000,74.000000,32.000000,32.000000,32.000000,28.000000
1302672.396061,15.000000,3.000000,-20.000000,102.000000,43.000000,10.000000,23.000000,10.000000
1302672.411162,-3.000000,-8.000000,4.000000,-6.000000,-45.000000,-25.000000,-51.000000,-21.000000
1302672.411174,11.000000,29.000000,26.000000,-3.000000,-11.000000,-1.000000,-86.000000,-11.000000
1302672.426246,0.000000,7.000000,6.000000,9.000000,25.000000,16.000000,72.000000,-20.000000
1302672.426258,-6.000000,-11.000000,-8.000000,-3.000000,-9.000000,-17.000000,-64.000000,-26.000000
1302672.433527,-27.000000,-28.000000,39.000000,-45.000000,-42.000000,-8.000000,-23.000000,-26.000000
1302672.433539,41.000000,86.000000,-46.000000,-48.000000,13.000000,23.000000,0.000000,11.000000
1302672.434569,-21.000000,8.000000,127.000000,75.000000,35.000000,14.000000,2.000000,-5.000000
1302672.434590,7.000000,9.000000,38.000000,-35.000000,-37.000000,-17.000000,-31.000000,-12.000000
1302672.435508,29.000000,-2.000000,42.000000,-1.000000,49.000000,82.000000,127.000000,127.000000
1302672.435520,47.000000,-10.000000,-99.000000,-48.000000,4.000000,-16.000000,4.000000,29.000000
1302672.448315,-27.000000,-32.000000,-36.000000,-1.000000,-33.000000,-3.000000,-53.000000,-54.000000
1302672.448324,0.000000,-31.000000,30.000000,27.000000,-27.000000,-36.000000,-104.000000,-29.000000
1302672.455898,-53.000000,-39.000000,-48.000000,90.000000,30.000000,-13.000000,-21.000000,-73.000000
1302672.455908,4.000000,-7.000000,-38.000000,-100.000000,-75.000000,-17.000000,37.000000,12.000000
1302672.471249,-9.000000,-24.000000,64.000000,46.000000,11.000000,-8.000000,-21.000000,-7.000000
1302672.471259,-1.000000,-6.000000,-6.000000,21.000000,12.000000,-15.000000,-81.000000,-59.000000
1302672.472069,-4.000000,23.000000,28.000000,-11.000000,-15.000000,1.000000,27.000000,-8.000000
1302672.472077,-2.000000,-1.000000,-38.000000,-85.000000,-48.000000,9.000000,-49.000000,-35.000000
1302672.479235,-15.000000,-7.000000,20.000000,70.000000,40.000000,7.000000,36.000000,-2.000000
1302672.479254,40.000000,39.000000,-8.000000,-8.000000,35.000000,51.000000,28.000000,19.000000
1302672.493542,-19.000000,15.000000,9.000000,18.000000,4.000000,-14.000000,-86.000000,-91.000000
1302672.493583,-14.000000,-43.000000,-48.000000,-18.000000,-8.000000,10.000000,66.000000,-42.000000
1302672.516207,31.000000,-2.000000,-15.000000,-57.000000,-26.000000,-15.000000,107.000000,92.000000
1302672.516218,-4.000000,31.000000,121.000000,16.000000,28.000000,6.000000,-128.000000,-109.000000
1302672.531157,27.000000,44.000000,-22.000000,-72.000000,-55.000000,-3.000000,127.000000,71.000000
1302672.531168,13.000000,36.000000,69.000000,44.000000,37.000000,21.000000,52.000000,25.000000
1302672.546046,-55.000000,-70.000000,-93.000000,-46.000000,-53.000000,-38.000000,-71.000000,-15.000000
1302672.546066,8.000000,2.000000,-79.000000,-35.000000,-40.000000,-37.000000,-128.000000,-54.000000
1302672.553407,3.000000,32.000000,44.000000,-97.000000,-40.000000,6.000000,127.000000,62.000000
1302672.553424,-5.000000,2.000000,94.000000,127.000000,57.000000,35.000000,73.000000,30.000000
1302672.554379,15.000000,-9.000000,27.000000,49.000000,12.000000,-14.000000,-71.000000,-19.000000
1302672.554388,4.000000,-26.000000,-19.000000,1.000000,19.000000,20.000000,-11.000000,-21.000000
1302672.555482,5.000000,25.000000,-19.000000,-51.000000,-3.000000,8.000000,12.000000,32.000000
1302672.555500,29.000000,27.000000,45.000000,4.000000,-2.000000,-11.000000,9.000000,19.000000
1302672.576468,-27.000000,-64.000000,-28.000000,-20.000000,-31.000000,-5.000000,-3.000000,-22.000000
1302672.576479,-5.000000,26.000000,-4.000000,20.000000,-12.000000,-27.000000,-60.000000,-21.000000
1302672.577359,13.000000,-17.000000,-14.000000,-30.000000,-3.000000,3.000000,95.000000,28.000000
1302672.577369,-6.000000,-24.000000,-88.000000,-26.000000,-14.000000,-32.000000,-64.000000,10.000000
1302672.591447,-57.000000,-27.000000,-53.000000,-105.000000,-67.000000,-40.000000,-128.000000,-128.000000
1302672.591470,113.000000,100.000000,127.000000,127.000000,78.000000,84.000000,127.000000,127.000000
1302672.592209,-23.000000,-33.000000,-45.000000,8.000000,-11.000000,-25.000000,-43.000000,21.000000
1302672.592235,24.000000,16.000000,27.000000,-86.000000,-69.000000,-7.000000,-95.000000,-46.000000
1302672.613715,-79.000000,-87.000000,-120.000000,-56.000000,-31.000000,-26.000000,-7.000000,-50.000000
1302672.613726,21.000000,44.000000,127.000000,109.000000,82.000000,19.000000,46.000000,27.000000
1302672.621051,-30.000000,-48.000000,-128.000000,-126.000000,-83.000000,-48.000000,-48.000000,-40.000000
1302672.621061,-35.000000,-29.000000,-76.000000,72.000000,-3.000000,-34.000000,-61.000000,-38.000000
1302672.658712,-14.000000,-64.000000,5.000000,-32.000000,-1.000000,3.000000,10.000000,-46.000000
1302672.658723,2.000000,-10.000000,-39.000000,10.000000,-5.000000,-14.000000,-25.000000,-19.000000
1302672.673490,2.000000,-26.000000,-43.000000,16.000000,22.000000,14.000000,43.000000,18.000000
1302672.673510,-13.000000,14.000000,97.000000,0.000000,-50.000000,-40.000000,-59.000000,-68.000000
1302672.688882,-21.000000,-48.000000,-120.000000,57.000000,92.000000,33.000000,63.000000,53.000000
1302672.688899,23.000000,9.000000,123.000000,31.000000,2.000000,7.000000,6.000000,14.000000
1302672.689457,10.000000,13.000000,27.000000,28.000000,-17.000000,-1.000000,9.000000,12.000000
1302672.689473,-5.000000,-42.000000,-18.000000,-24.000000,-21.000000,-12.000000,-72.000000,5.000000
1302672.690677,-15.000000,-4.000000,-10.000000,-60.000000,-24.000000,5.000000,103.000000,27.000000
1302672.690686,-10.000000,21.000000,96.000000,35.000000,19.000000,3.000000,-22.000000,-1.000000
1302672.691362,-17.000000,15.000000,-37.000000,66.000000,53.000000,1.000000,-66.000000,-15.000000
1302672.691370,8.000000,25.000000,18.000000,-72.000000,-103.000000,-13.000000,-3.000000,-5.000000
1302672.692319,25.000000,26.000000,31.000000,-10.000000,9.000000,18.000000,41.000000,127.000000
1302672.692351,-10.000000,-8.000000,-19.000000,87.000000,44.000000,3.000000,5.000000,14.000000
1302672.711619,16.000000,34.000000,-69.000000,35.000000,52.000000,2.000000,-43.000000,-33.000000
1302672.711627,-24.000000,0.000000,83.000000,127.000000,11.000000,29.000000,35.000000,6.000000
1302672.712337,21.000000,0.000000,-54.000000,-10.000000,2.000000,0.000000,-53.000000,-9.000000
1302672.712345,-8.000000,12.000000,15.000000,-15.000000,-14.000000,-18.000000,24.000000,-2.000000
1302672.748516,16.000000,30.000000,14.000000,-8.000000,-1.000000,10.000000,18.000000,26.000000
1302672.748526,-19.000000,-40.000000,-31.000000,-25.000000,-17.000000,-25.000000,-22.000000,-10.000000
1302672.756209,6.000000,-1.000000,-31.000000,-4.000000,-7.000000,6.000000,63.000000,42.000000
1302672.756220,-20.000000,22.000000,23.000000,35.000000,16.000000,-3.000000,-67.000000,-55.000000
1302672.793488,-7.000000,-75.000000,-64.000000,-13.000000,-34.000000,-11.000000,65.000000,33.000000
1302672.793500,-11.000000,13.000000,-82.000000,-67.000000,14.000000,-18.000000,-16.000000,-2.000000
1302672.793932,-21.000000,-13.000000,78.000000,107.000000,50.000000,-15.000000,-120.000000,-66.000000
1302672.793944,3.000000,-1.000000,-41.000000,21.000000,21.000000,13.000000,76.000000,19.000000
1302672.795095,9.000000,2.000000,-21.000000,5.000000,42.000000,3.000000,-14.000000,0.000000
1302672.795116,0.000000,44.000000,127.000000,-7.000000,-1.000000,2.000000,-16.000000,34.000000
1302672.795687,-6.000000,2.000000,-95.000000,-68.000000,-40.000000,-9.000000,7.000000,0.000000
1302672.795713,4.000000,29.000000,116.000000,87.000000,57.000000,23.000000,7.000000,-17.000000
1302672.797202,-8.000000,-39.000000,-35.000000,-31.000000,-16.000000,-22.000000,-31.000000,15.000000
1302672.797228,-10.000000,24.000000,67.000000,127.000000,28.000000,29.000000,12.000000,9.000000
1302672.808976,6.000000,13.000000,23.000000,0.000000,-4.000000,-17.000000,15.000000,-13.000000
1302672.808985,14.000000,-50.000000,-42.000000,-4.000000,3.000000,-6.000000,-93.000000,-10.000000
1302672.809848,-46.000000,10.000000,13.000000,-49.000000,-21.000000,-3.000000,51.000000,-34.000000
1302672.809973,22.000000,26.000000,44.000000,-26.000000,-26.000000,5.000000,-27.000000,-7.000000
1302672.831358,-17.000000,11.000000,-4.000000,-25.000000,-2.000000,-10.000000,-77.000000,-83.000000
1302672.831399,10.000000,-47.000000,-29.000000,55.000000,-5.000000,55.000000,127.000000,127.000000
1302672.832102,48.000000,40.000000,-46.000000,-43.000000,-51.000000,-30.000000,-72.000000,24.000000
1302672.832111,-20.000000,-46.000000,-89.000000,-122.000000,-51.000000,-45.000000,-116.000000,-63.000000
1302672.860906,19.000000,30.000000,30.000000,102.000000,87.000000,50.000000,127.000000,9.000000
1302672.860924,-40.000000,-33.000000,127.000000,29.000000,11.000000,3.000000,-20.000000,-46.000000
1302672.868487,13.000000,-5.000000,-62.000000,-104.000000,-47.000000,-10.000000,34.000000,31.000000
1302672.868499,-5.000000,-7.000000,-1.000000,28.000000,30.000000,5.000000,-23.000000,-20.000000
1302672.891213,-4.000000,-7.000000,5.000000,-28.000000,11.000000,20.000000,11.000000,-6.000000
1302672.891224,-5.000000,19.000000,40.000000,-88.000000,-62.000000,-6.000000,42.000000,37.000000
1302672.913609,-9.000000,19.000000,101.000000,46.000000,4.000000,-19.000000,-23.000000,-14.000000
1302672.913623,-17.000000,-32.000000,-71.000000,-70.000000,11.000000,25.000000,-54.000000,-11.000000
1302672.914462,3.000000,41.000000,-10.000000,106.000000,57.000000,5.000000,70.000000,-3.000000
1302672.914484,8.000000,-1.000000,-19.000000,-82.000000,-37.000000,4.000000,20.000000,-15.000000
1302672.915228,35.000000,-41.000000,-43.000000,14.000000,45.000000,17.000000,34.000000,59.000000
1302672.915246,0.000000,56.000000,50.000000,33.000000,53.000000,22.000000,-41.000000,-12.000000
1302672.916565,-30.000000,-57.000000,-9.000000,-16.000000,-54.000000,-16.000000,-43.000000,-27.000000
1302672.916573,16.000000,97.000000,-1.000000,-51.000000,-41.000000,-25.000000,-65.000000,-56.000000
1302672.917282,-27.000000,-56.000000,-67.000000,-46.000000,-20.000000,-33.000000,19.000000,-11.000000
1302672.917309,-23.000000,18.000000,49.000000,63.000000,29.000000,4.000000,-24.000000,-13.000000
1302672.936612,-44.000000,-15.000000,58.000000,4.000000,-51.000000,-42.000000,-19.000000,-23.000000
1302672.936621,31.000000,-16.000000,-35.000000,-110.000000,-32.000000,6.000000,14.000000,-42.000000
1302672.937266,-9.000000,-11.000000,-72.000000,127.000000,37.000000,-24.000000,18.000000,30.000000
1302672.937273,4.000000,9.000000,40.000000,30.000000,22.000000,24.000000,-4.000000,14.000000
1302672.951830,-32.000000,-65.000000,-79.000000,-47.000000,-19.000000,-43.000000,-101.000000,-78.000000
1302672.951849,48.000000,73.000000,71.000000,63.000000,63.000000,41.000000,127.000000,99.000000
1302672.952400,-15.000000,-51.000000,-32.000000,-29.000000,-6.000000,4.000000,26.000000,19.000000
1302672.952422,2.000000,-32.000000,-15.000000,2.000000,-8.000000,-13.000000,-76.000000,-55.000000
1302672.965992,-60.000000,-33.000000,-47.000000,-39.000000,-41.000000,-49.000000,-46.000000,-18.000000
1302672.966002,-28.000000,-23.000000,40.000000,21.000000,7.000000,-18.000000,-25.000000,-40.000000
1302672.973483,32.000000,47.000000,6.000000,29.000000,56.000000,54.000000,45.000000,26.000000
1302672.973501,-16.000000,-54.000000,-69.000000,-128.000000,-94.000000,-50.000000,-30.000000,-48.000000
1302673.011048,9.000000,78.000000,77.000000,72.000000,49.000000,33.000000,119.000000,127.000000
1302673.011066,37.000000,37.000000,9.000000,9.000000,45.000000,1.000000,-4.000000,41.000000
1302673.018474,-75.000000,-113.000000,-82.000000,-103.000000,-73.000000,-20.000000,-88.000000,-49.000000
1302673.018492,34.000000,-15.000000,-13.000000,-40.000000,-40.000000,-27.000000,5.000000,7.000000
1302673.033818,6.000000,12.000000,-73.000000,65.000000,55.000000,19.000000,48.000000,5.000000
1302673.033829,-13.000000,-29.000000,-30.000000,-40.000000,-21.000000,-19.000000,-65.000000,-38.000000
1302673.048650,7.000000,19.000000,8.000000,-32.000000,24.000000,28.000000,-75.000000,3.000000
1302673.048673,41.000000,46.000000,87.000000,85.000000,18.000000,23.000000,118.000000,73.000000
1302673.070938,-4.000000,-15.000000,-28.000000,-30.000000,-9.000000,-10.000000,-39.000000,-17.000000
1302673.070967,-14.000000,-65.000000,-117.000000,-43.000000,1.000000,-9.000000,-45.000000,-43.000000
1302673.086206,5.000000,104.000000,127.000000,21.000000,-51.000000,-10.000000,-11.000000,16.000000
1302673.086216,-30.000000,18.000000,-3.000000,-9.000000,-11.000000,-11.000000,62.000000,-37.000000
1302673.101121,2.000000,-7.000000,-11.000000,43.000000,35.000000,11.000000,-41.000000,34.000000
1302673.101141,12.000000,6.000000,-27.000000,-42.000000,-4.000000,-5.000000,71.000000,-4.000000
1302673.108552,5.000000,2.000000,19.000000,1.000000,-7.000000,-3.000000,-32.000000,5.000000
1302673.108563,3.000000,13.000000,8.000000,-36.000000,-23.000000,-12.000000,-23.000000,-7.000000
1302673.131103,-4.000000,16.000000,82.000000,127.000000,38.000000,7.000000,-41.000000,-8.000000
1302673.131113,6.000000,14.000000,17.000000,-91.000000,-33.000000,23.000000,70.000000,38.000000
1302673.146694,-27.000000,-10.000000,-16.000000,-33.000000,-34.000000,-5.000000,-39.000000,-31.000000
1302673.146704,17.000000,30.000000,27.000000,-1.000000,12.000000,16.000000,62.000000,76.000000
1302673.147623,-1.000000,-70.000000,-85.000000,-10.000000,-15.000000,-19.000000,-6.000000,0.000000
1302673.147632,-13.000000,25.000000,66.000000,68.000000,41.000000,-1.000000,-96.000000,-26.000000
1302673.149402,44.000000,10.000000,-33.000000,34.000000,21.000000,18.000000,66.000000,58.000000
1302673.149416,-25.000000,-54.000000,-28.000000,-68.000000,-71.000000,9.000000,-20.000000,10.000000
1302673.153804,-22.000000,-37.000000,-56.000000,-49.000000,-37.000000,-18.000000,-57.000000,-46.000000
1302673.153815,17.000000,-29.000000,-37.000000,-88.000000,-12.000000,5.000000,19.000000,42.000000
1302673.169096,-20.000000,-7.000000,69.000000,-22.000000,-86.000000,5.000000,-55.000000,-56.000000
1302673.169118,16.000000,10.000000,0.000000,20.000000,13.000000,9.000000,127.000000,47.000000
1302673.169923,-7.000000,-23.000000,-40.000000,-18.000000,-7.000000,-16.000000,-14.000000,5.000000
1302673.169945,-44.000000,-12.000000,-61.000000,-35.000000,-26.000000,-1.000000,-104.000000,-35.000000
1302673.213481,42.000000,21.000000,28.000000,-48.000000,-11.000000,-22.000000,127.000000,66.000000
1302673.213491,20.000000,44.000000,44.000000,84.000000,43.000000,9.000000,-63.000000,-33.000000
1302673.243625,-37.000000,19.000000,-30.000000,0.000000,7.000000,-5.000000,-72.000000,25.000000
1302673.243638,10.000000,18.000000,0.000000,-38.000000,-14.000000,3.000000,52.000000,-30.000000
1302673.258450,-13.000000,-7.000000,22.000000,-23.000000,-50.000000,-53.000000,-58.000000,-51.000000
1302673.258460,-26.000000,-21.000000,-53.000000,-82.000000,-59.000000,-29.000000,-23.000000,-29.000000
1302673.266352,-29.000000,-24.000000,-100.000000,-28.000000,-10.000000,-25.000000,-10.000000,-19.000000
1302673.266364,-7.000000,17.000000,68.000000,18.000000,13.000000,-3.000000,-49.000000,4.000000
1302673.267180,-6.000000,-47.000000,-4.000000,2.000000,7.000000,-4.000000,15.000000,-8.000000
1302673.267188,20.000000,3.000000,-72.000000,-67.000000,-12.000000,-2.000000,3.000000,5.000000
1302673.267695,8.000000,7.000000,116.000000,51.000000,6.000000,-5.000000,-25.000000,-8.000000
1302673.267703,-7.000000,5.000000,-29.000000,-29.000000,-8.000000,14.000000,57.000000,24.000000
1302673.281102,-6.000000,-18.000000,-6.000000,-24.000000,-35.000000,-48.000000,-61.000000,5.000000
1302673.281114,-9.000000,39.000000,51.000000,10.000000,44.000000,19.000000,53.000000,-39.000000
1302673.288882,10.000000,-18.000000,-80.000000,-25.000000,0.000000,17.000000,-1.000000,20.000000
1302673.288893,-22.000000,-30.000000,18.000000,-65.000000,-88.000000,-57.000000,-92.000000,-62.000000
1302673.289609,22.000000,13.000000,20.000000,34.000000,-5.000000,2.000000,-20.000000,-11.000000
1302673.289618,-12.000000,-12.000000,-16.000000,31.000000,77.000000,28.000000,8.000000,37.000000
1302673.303945,3.000000,37.000000,45.000000,-72.000000,-1.000000,9.000000,-41.000000,-18.000000
1302673.303953,-1.000000,-28.000000,-55.000000,62.000000,-3.000000,-19.000000,5.000000,3.000000
1302673.311186,8.000000,3.000000,79.000000,91.000000,53.000000,20.000000,51.000000,11.000000
1302673.311197,-10.000000,-22.000000,-26.000000,-15.000000,14.000000,-4.000000,-10.000000,-17.000000
1302673.340957,0.000000,4.000000,-97.000000,-106.000000,-36.000000,-14.000000,-14.000000,-12.000000
1302673.341109,52.000000,44.000000,-17.000000,34.000000,-4.000000,8.000000,34.000000,32.000000
1302673.341629,-7.000000,-28.000000,-23.000000,-7.000000,-5.000000,-19.000000,2.000000,-5.000000
1302673.341637,5.000000,22.000000,1.000000,-31.000000,-19.000000,-15.000000,-20.000000,-17.000000
1302673.363746,-67.000000,-105.000000,-70.000000,-69.000000,-16.000000,-12.000000,-44.000000,-35.000000
1302673.363756,2.000000,19.000000,20.000000,56.000000,12.000000,-9.000000,-47.000000,-45.000000
1302673.371532,20.000000,7.000000,34.000000,61.000000,14.000000,-4.000000,46.000000,22.000000
1302673.371555,18.000000,50.000000,46.000000,-2.000000,31.000000,64.000000,13.000000,19.000000
1302673.408824,-13.000000,-41.000000,-53.000000,31.000000,22.000000,-9.000000,22.000000,6.000000
1302673.408836,4.000000,46.000000,47.000000,-20.000000,-16.000000,1.000000,-26.000000,-2.000000
1302673.423461,-10.000000,14.000000,23.000000,8.000000,-11.000000,-19.000000,8.000000,-17.000000
1302673.423481,7.000000,-19.000000,-36.000000,-99.000000,-67.000000,3.000000,30.000000,-37.000000
1302673.424777,-4.000000,-37.000000,-40.000000,35.000000,37.000000,3.000000,-26.000000,30.000000
1302673.424787,22.000000,38.000000,-1.000000,-49.000000,-23.000000,-25.000000,-66.000000,-23.000000
1302673.431073,-37.000000,-86.000000,-26.000000,-9.000000,34.000000,24.000000,27.000000,7.000000
1302673.431082,2.000000,-18.000000,-94.000000,-63.000000,-62.000000,-52.000000,-49.000000,-23.000000
1302673.468695,39.000000,49.000000,44.000000,-15.000000,-59.000000,-6.000000,-20.000000,-10.000000
1302673.468718,-1.000000,7.000000,-11.000000,3.000000,18.000000,20.000000,7.000000,6.000000
1302673.491047,-32.000000,-42.000000,32.000000,22.000000,2.000000,-21.000000,-74.000000,-26.000000
1302673.491059,17.000000,26.000000,-82.000000,-76.000000,-12.000000,8.000000,127.000000,30.000000
1302673.506072,-20.000000,-63.000000,-128.000000,10.000000,-46.000000,-43.000000,-33.000000,-5.000000
1302673.506092,-7.000000,15.000000,5.000000,-49.000000,-26.000000,-31.000000,-128.000000,-28.000000
1302673.507216,-1.000000,-31.000000,-2.000000,-78.000000,-39.000000,15.000000,86.000000,7.000000
1302673.507227,53.000000,23.000000,11.000000,12.000000,3.000000,-17.000000,20.000000,11.000000
1302673.507921,-30.000000,-1.000000,43.000000,-30.000000,-37.000000,-45.000000,-103.000000,-42.000000
1302673.507932,29.000000,7.000000,-55.000000,-2.000000,4.000000,4.000000,6.000000,34.000000
1302673.509162,14.000000,-20.000000,-75.000000,-3.000000,-3.000000,-7.000000,-4.000000,11.000000
1302673.509179,-7.000000,59.000000,36.000000,-40.000000,-10.000000,7.000000,-55.000000,-32.000000
1302673.510080,-24.000000,-34.000000,17.000000,-39.000000,-26.000000,-10.000000,8.000000,8.000000
1302673.510091,44.000000,63.000000,-22.000000,-27.000000,0.000000,-3.000000,-12.000000,41.000000
1302673.521007,-58.000000,-50.000000,2.000000,98.000000,66.000000,12.000000,-7.000000,-13.000000
1302673.521023,9.000000,16.000000,-4.000000,-25.000000,-14.000000,-15.000000,-26.000000,-19.000000
1302673.522152,6.000000,47.000000,10.000000,2.000000,-7.000000,-2.000000,-5.000000,14.000000
1302673.522162,6.000000,-19.000000,34.000000,6.000000,11.000000,-5.000000,-31.000000,-19.000000
1302673.543811,-13.000000,-33.000000,-66.000000,-23.000000,13.000000,6.000000,41.000000,0.000000
1302673.543822,-2.000000,-18.000000,-93.000000,15.000000,21.000000,-11.000000,-10.000000,4.000000
1302673.565820,8.000000,12.000000,127.000000,37.000000,23.000000,7.000000,-91.000000,-20.000000
1302673.565830,-7.000000,23.000000,24.000000,28.000000,52.000000,15.000000,63.000000,7.000000
1302673.581041,-24.000000,13.000000,-78.000000,-104.000000,-32.000000,-11.000000,-15.000000,-23.000000
1302673.581051,11.000000,23.000000,68.000000,98.000000,50.000000,6.000000,-2.000000,20.000000
1302673.603995,-8.000000,-11.000000,-24.000000,6.000000,-5.000000,-17.000000,-42.000000,1.000000
1302673.604040,-16.000000,-11.000000,10.000000,-20.000000,4.000000,3.000000,-30.000000,-29.000000
1302673.610983,5.000000,8.000000,55.000000,-48.000000,-90.000000,-7.000000,63.000000,22.000000
1302673.610997,2.000000,-15.000000,-13.000000,77.000000,31.000000,-5.000000,-20.000000,-11.000000
1302673.641197,-12.000000,-29.000000,2.000000,-1.000000,-23.000000,-28.000000,-79.000000,-23.000000
1302673.641208,23.000000,20.000000,-56.000000,-50.000000,-3.000000,6.000000,81.000000,44.000000
1302673.648714,-29.000000,-50.000000,-77.000000,37.000000,4.000000,-11.000000,-41.000000,-25.000000
1302673.648724,9.000000,10.000000,32.000000,0.000000,-4.000000,11.000000,-32.000000,-8.000000
1302673.671126,4.000000,-4.000000,-6.000000,-20.000000,36.000000,-1.000000,14.000000,13.000000
1302673.671136,8.000000,-15.000000,-14.000000,18.000000,6.000000,-4.000000,-27.000000,-13.000000
1302673.693501,-21.000000,13.000000,5.000000,-43.000000,-92.000000,-39.000000,-13.000000,-8.000000
1302673.693511,22.000000,3.000000,20.000000,-19.000000,4.000000,18.000000,14.000000,-9.000000
1302673.708618,-29.000000,-29.000000,-83.000000,-63.000000,-58.000000,-19.000000,32.000000,23.000000
1302673.708640,12.000000,50.000000,75.000000,76.000000,59.000000,14.000000,6.000000,23.000000
1302673.723599,-7.000000,-60.000000,-2.000000,4.000000,-6.000000,-11.000000,-53.000000,11.000000
1302673.723609,21.000000,-2.000000,-43.000000,-24.000000,-26.000000,-9.000000,8.000000,-3.000000
1302673.745841,13.000000,53.000000,-16.000000,-46.000000,-7.000000,-19.000000,-59.000000,3.000000
1302673.745855,1.000000,-34.000000,-16.000000,-28.000000,-22.000000,-2.000000,111.000000,12.000000
1302673.747093,31.000000,47.000000,10.000000,26.000000,54.000000,37.000000,12.000000,12.000000
1302673.747111,-13.000000,36.000000,83.000000,10.000000,20.000000,20.000000,63.000000,25.000000
1302673.748282,37.000000,99.000000,35.000000,-9.000000,-5.000000,23.000000,63.000000,20.000000
1302673.748291,4.000000,-13.000000,-9.000000,0.000000,11.000000,8.000000,22.000000,26.000000
1302673.749688,-29.000000,-80.000000,-67.000000,-52.000000,-6.000000,-22.000000,-43.000000,-6.000000
1302673.749697,-27.000000,4.000000,-13.000000,-23.000000,-3.000000,-17.000000,-18.000000,-65.000000
1302673.768702,-15.000000,-35.000000,94.000000,98.000000,23.000000,16.000000,20.000000,31.000000
1302673.768732,4.000000,12.000000,-64.000000,16.000000,-2.000000,-17.000000,-48.000000,-7.000000
1302673.769791,-5.000000,5.000000,55.000000,100.000000,39.000000,20.000000,25.000000,-23.000000
1302673.769800,6.000000,15.000000,35.000000,6.000000,7.000000,6.000000,-30.000000,-16.000000
1302673.776126,-14.000000,-34.000000,-14.000000,-5.000000,3.000000,-6.000000,-43.000000,-15.000000
1302673.776138,10.000000,-20.000000,-35.000000,-25.000000,9.000000,26.000000,48.000000,21.000000
1302673.784032,13.000000,39.000000,97.000000,-39.000000,-18.000000,-16.000000,7.000000,4.000000
1302673.784044,-11.000000,-15.000000,-50.000000,-55.000000,-35.000000,-24.000000,-32.000000,-1.000000
1302673.798614,11.000000,4.000000,35.000000,31.000000,41.000000,12.000000,-3.000000,-11.000000
1302673.798633,33.000000,7.000000,-3.000000,-75.000000,-32.000000,19.000000,97.000000,34.000000
1302673.821301,-5.000000,57.000000,41.000000,38.000000,42.000000,0.000000,-57.000000,-31.000000
1302673.821314,45.000000,28.000000,22.000000,28.000000,24.000000,-5.000000,21.000000,45.000000
1302673.828810,-5.000000,-23.000000,-49.000000,-19.000000,12.000000,15.000000,20.000000,-17.000000
1302673.828823,23.000000,66.000000,44.000000,42.000000,-4.000000,3.000000,18.000000,60.000000
1302673.858419,4.000000,-21.000000,59.000000,-10.000000,-7.000000,-11.000000,-35.000000,-16.000000
1302673.858437,9.000000,3.000000,26.000000,5.000000,8.000000,-5.000000,-19.000000,-40.000000
1302673.858894,0.000000,10.000000,-7.000000,24.000000,-20.000000,12.000000,7.000000,-2.000000
1302673.858902,-32.000000,-36.000000,-72.000000,12.000000,14.000000,-11.000000,-23.000000,22.000000
1302673.860028,16.000000,39.000000,108.000000,50.000000,7.000000,-16.000000,-87.000000,-8.000000
1302673.860037,-35.000000,-24.000000,-18.000000,-90.000000,-8.000000,14.000000,75.000000,-61.000000
1302673.860706,21.000000,38.000000,-1.000000,79.000000,39.000000,16.000000,46.000000,3.000000
1302673.860715,0.000000,18.000000,54.000000,-29.000000,-3.000000,-8.000000,-56.000000,-3.000000
1302673.865867,37.000000,40.000000,35.000000,-28.000000,-4.000000,-14.000000,-40.000000,45.000000
1302673.865895,-6.000000,26.000000,76.000000,72.000000,13.000000,8.000000,58.000000,-19.000000
1302673.881081,36.000000,58.000000,39.000000,2.000000,15.000000,38.000000,45.000000,96.000000
1302673.881092,-45.000000,-75.000000,-56.000000,-86.000000,-45.000000,-21.000000,-67.000000,-29.000000
1302673.882246,68.000000,115.000000,123.000000,42.000000,18.000000,23.000000,75.000000,28.000000
1302673.882255,-45.000000,-37.000000,-2.000000,19.000000,9.000000,13.000000,-49.000000,-27.000000
1302673.896044,7.000000,-6.000000,-82.000000,-104.000000,-62.000000,-55.000000,-16.000000,-13.000000
1302673.896065,11.000000,35.000000,79.000000,57.000000,56.000000,21.000000,1.000000,-4.000000
1302673.918547,23.000000,28.000000,29.000000,4.000000,-12.000000,-4.000000,-9.000000,-61.000000
1302673.918558,-13.000000,-64.000000,-57.000000,-8.000000,6.000000,22.000000,91.000000,109.000000
1302673.926236,22.000000,51.000000,70.000000,47.000000,29.000000,11.000000,24.000000,31.000000
1302673.926247,-12.000000,0.000000,38.000000,0.000000,20.000000,7.000000,8.000000,-5.000000
1302673.941123,42.000000,18.000000,-11.000000,-44.000000,-32.000000,-3.000000,3.000000,11.000000
1302673.941133,-60.000000,-96.000000,-87.000000,-69.000000,-33.000000,-24.000000,-84.000000,-60.000000
1302673.948490,28.000000,30.000000,-30.000000,16.000000,40.000000,9.000000,23.000000,11.000000
1302673.948509,-29.000000,-20.000000,-19.000000,-36.000000,-11.000000,6.000000,14.000000,-10.000000
1302673.963421,-25.000000,-34.000000,24.000000,-7.000000,-23.000000,-31.000000,-58.000000,-22.000000
1302673.963431,35.000000,10.000000,-69.000000,-3.000000,-31.000000,0.000000,39.000000,10.000000
1302673.963924,-12.000000,3.000000,9.000000,-9.000000,22.000000,22.000000,-19.000000,-43.000000
1302673.963935,-24.000000,-25.000000,57.000000,6.000000,4.000000,-14.000000,29.000000,46.000000
1302673.965379,11.000000,24.000000,-25.000000,-33.000000,-3.000000,9.000000,49.000000,-13.000000
1302673.965388,33.000000,40.000000,112.000000,9.000000,-18.000000,-13.000000,-87.000000,3.000000
1302673.978385,10.000000,13.000000,33.000000,11.000000,-29.000000,24.000000,127.000000,-20.000000
1302673.978394,-3.000000,-19.000000,-80.000000,-64.000000,-29.000000,-17.000000,-57.000000,19.000000
1302673.986123,-16.000000,-23.000000,24.000000,-12.000000,-23.000000,-26.000000,-37.000000,-26.000000
1302673.986152,21.000000,44.000000,42.000000,-8.000000,41.000000,31.000000,-7.000000,8.000000
1302674.001050,-5.000000,-29.000000,-75.000000,-55.000000,-32.000000,-8.000000,-62.000000,-32.000000
1302674.001068,-9.000000,11.000000,18.000000,13.000000,12.000000,2.000000,32.000000,-1.000000
1302674.002382,-9.000000,13.000000,-55.000000,-86.000000,-14.000000,-9.000000,-25.000000,-10.000000
1302674.002407,6.000000,-10.000000,-18.000000,38.000000,-9.000000,7.000000,-7.000000,-24.000000
1302674.016158,22.000000,0.000000,17.000000,-65.000000,-31.000000,-30.000000,-48.000000,9.000000
1302674.016178,-15.000000,-22.000000,-53.000000,-11.000000,-21.000000,-1.000000,49.000000,11.000000
1302674.053967,0.000000,-4.000000,14.000000,-9.000000,4.000000,-20.000000,-79.000000,-24.000000
1302674.053978,-8.000000,-31.000000,-82.000000,-30.000000,-3.000000,-28.000000,-128.000000,-2.000000
1302674.061091,38.000000,64.000000,39.000000,-8.000000,6.000000,47.000000,127.000000,13.000000
1302674.061120,-32.000000,-50.000000,30.000000,73.000000,38.000000,-27.000000,-97.000000,-21.000000
1302674.083824,4.000000,31.000000,10.000000,-2.000000,2.000000,0.000000,6.000000,12.000000
1302674.083852,34.000000,41.000000,119.000000,-31.000000,-34.000000,6.000000,-26.000000,-20.000000
1302674.091032,-9.000000,8.000000,6.000000,29.000000,26.000000,11.000000,13.000000,1.000000
1302674.091043,16.000000,19.000000,-15.000000,11.000000,39.000000,15.000000,-19.000000,-19.000000
1302674.099373,-7.000000,-18.000000,-23.000000,-61.000000,-7.000000,19.000000,20.000000,10.000000
1302674.099480,6.000000,27.000000,39.000000,16.000000,4.000000,-1.000000,19.000000,11.000000
1302674.099724,-7.000000,-10.000000,-30.000000,-70.000000,-44.000000,-52.000000,-128.000000,-19.000000
1302674.099832,10.000000,10.000000,-38.000000,-28.000000,-12.000000,26.000000,127.000000,-26.000000
1302674.100873,-5.000000,42.000000,12.000000,-18.000000,-4.000000,-5.000000,43.000000,-120.000000
1302674.100881,38.000000,-18.000000,-67.000000,-13.000000,39.000000,26.000000,91.000000,100.000000
1302674.120987,16.000000,10.000000,-35.000000,19.000000,-18.000000,-25.000000,-128.000000,-55.000000
1302674.120998,-4.000000,-3.000000,12.000000,1.000000,19.000000,34.000000,95.000000,33.000000
1302674.128256,13.000000,39.000000,-34.000000,-15.000000,3.000000,-2.000000,-20.000000,-13.000000
1302674.128284,-15.000000,33.000000,67.000000,5.000000,-11.000000,-14.000000,-128.000000,-56.000000
1302674.129607,17.000000,25.000000,14.000000,46.000000,40.000000,33.000000,127.000000,101.000000
1302674.129633,-18.000000,-60.000000,-5.000000,-17.000000,-5.000000,-11.000000,-92.000000,0.000000
1302674.136143,2.000000,43.000000,-9.000000,-14.000000,-8.000000,5.000000,-65.000000,-48.000000
1302674.136155,-21.000000,44.000000,58.000000,56.000000,48.000000,17.000000,16.000000,-2.000000
1302674.158662,41.000000,19.000000,-26.000000,-19.000000,-15.000000,6.000000,46.000000,59.000000
1302674.158686,12.000000,20.000000,58.000000,5.000000,-2.000000,-11.000000,-41.000000,-8.000000
1302674.174947,-24.000000,-72.000000,-47.000000,16.000000,2.000000,3.000000,41.000000,-37.000000
1302674.174964,-6.000000,19.000000,-41.000000,-47.000000,-3.000000,1.000000,7.000000,10.000000
1302674.203440,-24.000000,-7.000000,22.000000,51.000000,18.000000,-27.000000,-96.000000,-55.000000
1302674.203457,27.000000,17.000000,-43.000000,-59.000000,-17.000000,15.000000,71.000000,30.000000
1302674.203851,-22.000000,-61.000000,0.000000,8.000000,-21.000000,-6.000000,57.000000,7.000000
1302674.203868,34.000000,4.000000,28.000000,62.000000,25.000000,5.000000,0.000000,5.000000
1302674.205087,-20.000000,41.000000,127.000000,-19.000000,-15.000000,-12.000000,-80.000000,-28.000000
1302674.205094,24.000000,52.000000,30.000000,26.000000,40.000000,50.000000,7.000000,46.000000
1302674.205649,22.000000,-48.000000,-16.000000,33.000000,-6.000000,10.000000,85.000000,80.000000
1302674.205657,-21.000000,-42.000000,6.000000,19.000000,1.000000,7.000000,17.000000,9.000000
1302674.207396,-2.000000,43.000000,45.000000,15.000000,-10.000000,-3.000000,-72.000000,-61.000000
1302674.207412,-19.000000,-19.000000,12.000000,34.000000,-14.000000,10.000000,55.000000,0.000000
1302674.210927,5.000000,-9.000000,54.000000,-55.000000,-78.000000,-29.000000,-128.000000,-27.000000
1302674.210936,-38.000000,-57.000000,-124.000000,-40.000000,-5.000000,-10.000000,88.000000,-34.000000
1302674.241191,24.000000,25.000000,65.000000,124.000000,69.000000,42.000000,34.000000,56.000000
1302674.241201,-26.000000,17.000000,-107.000000,-45.000000,-13.000000,-33.000000,-82.000000,-25.000000
1302674.256291,16.000000,13.000000,102.000000,14.000000,-2.000000,21.000000,26.000000,38.000000
1302674.256310,-32.000000,-56.000000,-128.000000,-128.000000,-84.000000,-39.000000,-30.000000,-20.000000
1302674.278618,17.000000,37.000000,11.000000,37.000000,28.000000,2.000000,-35.000000,-47.000000
1302674.278628,1.000000,13.000000,59.000000,48.000000,15.000000,-1.000000,-51.000000,-29.000000
1302674.285972,-25.000000,-46.000000,-34.000000,-28.000000,-33.000000,-34.000000,0.000000,49.000000
1302674.285982,22.000000,21.000000,-45.000000,-54.000000,-11.000000,13.000000,18.000000,2.000000
1302674.323714,3.000000,8.000000,127.000000,-20.000000,-7.000000,-3.000000,26.000000,18.000000
1302674.323724,15.000000,-15.000000,-40.000000,-53.000000,-31.000000,1.000000,67.000000,69.000000
1302674.331220,14.000000,5.000000,-16.000000,65.000000,63.000000,13.000000,-38.000000,3.000000
1302674.331231,-29.000000,-42.000000,-38.000000,-6.000000,11.000000,0.000000,-8.000000,-14.000000
1302674.353573,1.000000,10.000000,13.000000,-16.000000,-15.000000,-10.000000,-60.000000,-19.000000
1302674.353589,7.000000,41.000000,121.000000,-70.000000,-66.000000,7.000000,13.000000,-48.000000
1302674.353986,-71.000000,-68.000000,-128.000000,-43.000000,-21.000000,-18.000000,-65.000000,-13.000000
1302674.354001,9.000000,11.000000,58.000000,53.000000,-26.000000,-15.000000,-5.000000,-46.000000
1302674.354534,-32.000000,-127.000000,-33.000000,0.000000,-31.000000,-20.000000,-128.000000,-64.000000
1302674.354555,-11.000000,19.000000,-74.000000,-34.000000,-29.000000,-25.000000,100.000000,-59.000000
1302674.356432,6.000000,47.000000,-60.000000,-17.000000,-83.000000,-19.000000,127.000000,98.000000
1302674.356441,-36.000000,-85.000000,-59.000000,-13.000000,-26.000000,-7.000000,-13.000000,-64.000000
1302674.357436,13.000000,51.000000,124.000000,8.000000,29.000000,23.000000,-34.000000,52.000000
1302674.357454,-56.000000,-70.000000,-122.000000,-128.000000,-68.000000,-36.000000,10.000000,-63.000000
1302674.361643,27.000000,49.000000,58.000000,104.000000,44.000000,8.000000,35.000000,-9.000000
1302674.361652,32.000000,59.000000,97.000000,127.000000,76.000000,32.000000,55.000000,48.000000
1302674.376000,-8.000000,-41.000000,-75.000000,-49.000000,-12.000000,-18.000000,-87.000000,1.000000
1302674.376024,-37.000000,-44.000000,-25.000000,-48.000000,-8.000000,10.000000,91.000000,-16.000000
1302674.413537,2.000000,34.000000,7.000000,26.000000,-72.000000,-12.000000,-24.000000,8.000000
1302674.413574,29.000000,12.000000,-16.000000,-16.000000,2.000000,-9.000000,-116.000000,-10.000000
1302674.421145,-34.000000,-35.000000,-42.000000,-45.000000,-31.000000,-7.000000,127.000000,6.000000
1302674.421156,25.000000,39.000000,7.000000,63.000000,70.000000,20.000000,21.000000,29.000000
1302674.436611,-28.000000,-31.000000,78.000000,20.000000,-4.000000,-11.000000,-79.000000,-26.000000
1302674.436638,42.000000,54.000000,-37.000000,-6.000000,17.000000,21.000000,-33.000000,-5.000000
1302674.436985,-32.000000,-6.000000,58.000000,-42.000000,-67.000000,-30.000000,-83.000000,-44.000000
1302674.437012,50.000000,-4.000000,-28.000000,25.000000,20.000000,48.000000,127.000000,127.000000
1302674.438433,-32.000000,-41.000000,-47.000000,-98.000000,-24.000000,-5.000000,-89.000000,-56.000000
1302674.438451,-55.000000,-67.000000,69.000000,81.000000,52.000000,20.000000,4.000000,-21.000000
1302674.439029,-4.000000,46.000000,20.000000,13.000000,5.000000,-3.000000,11.000000,39.000000
1302674.439050,-27.000000,-19.000000,-87.000000,-47.000000,-15.000000,-14.000000,-128.000000,-93.000000
1302674.458672,16.000000,-23.000000,-38.000000,-11.000000,-50.000000,-11.000000,80.000000,30.000000
1302674.458802,-6.000000,6.000000,-25.000000,17.000000,-5.000000,-15.000000,-13.000000,-15.000000
1302674.459034,-14.000000,3.000000,12.000000,2.000000,-2.000000,-6.000000,9.000000,-20.000000
1302674.459062,-1.000000,-24.000000,31.000000,-11.000000,3.000000,-3.000000,4.000000,-15.000000
1302674.473520,25.000000,39.000000,4.000000,-36.000000,9.000000,6.000000,10.000000,4.000000
1302674.473534,-13.000000,-31.000000,80.000000,-54.000000,-29.000000,-7.000000,-65.000000,41.000000
1302674.474113,27.000000,51.000000,-33.000000,81.000000,35.000000,38.000000,127.000000,64.000000
1302674.474122,-25.000000,-15.000000,13.000000,-2.000000,-13.000000,-26.000000,-118.000000,-36.000000
1302674.488732,4.000000,3.000000,-2.000000,-32.000000,-3.000000,6.000000,-18.000000,-13.000000
1302674.488743,-13.000000,-42.000000,-53.000000,17.000000,23.000000,11.000000,53.000000,23.000000
1302674.496240,42.000000,43.000000,-35.000000,-15.000000,1.000000,-35.000000,-128.000000,-67.000000
1302674.496252,-51.000000,-11.000000,124.000000,115.000000,53.000000,54.000000,81.000000,-46.000000
1302674.533852,44.000000,40.000000,5.000000,38.000000,34.000000,27.000000,88.000000,105.000000
1302674.533863,2.000000,4.000000,28.000000,-21.000000,4.000000,-11.000000,-81.000000,-24.000000
1302674.541245,-43.000000,-22.000000,-92.000000,-66.000000,-38.000000,-24.000000,23.000000,-64.000000
1302674.541256,-25.000000,-1.000000,-56.000000,-91.000000,-27.000000,-7.000000,-41.000000,16.000000
1302674.556652,49.000000,12.000000,67.000000,127.000000,65.000000,33.000000,87.000000,8.000000
1302674.556666,22.000000,-4.000000,-58.000000,-40.000000,-21.000000,-11.000000,-14.000000,-11.000000
1302674.557163,-12.000000,5.000000,-26.000000,-38.000000,-24.000000,-16.000000,-78.000000,-15.000000
1302674.557242,-30.000000,-58.000000,-24.000000,41.000000,20.000000,-16.000000,31.000000,-55.000000
1302674.558571,44.000000,38.000000,16.000000,39.000000,-3.000000,2.000000,-37.000000,66.000000
1302674.558585,-14.000000,41.000000,39.000000,11.000000,41.000000,40.000000,16.000000,-25.000000
1302674.558988,11.000000,-23.000000,-128.000000,-57.000000,-4.000000,5.000000,103.000000,42.000000
1302674.559010,2.000000,53.000000,127.000000,127.000000,68.000000,-12.000000,-121.000000,-21.000000
1302674.563408,-11.000000,13.000000,-43.000000,38.000000,0.000000,6.000000,-59.000000,-3.000000
1302674.563435,10.000000,10.000000,-74.000000,45.000000,72.000000,43.000000,127.000000,-4.000000
1302674.578435,10.000000,8.000000,101.000000,74.000000,9.000000,-14.000000,-33.000000,18.000000
1302674.578449,42.000000,1.000000,-1.000000,-36.000000,-16.000000,-17.000000,36.000000,-20.000000
1302674.600853,-25.000000,0.000000,50.000000,-19.000000,12.000000,20.000000,-90.000000,13.000000
1302674.600869,-21.000000,-24.000000,-36.000000,-35.000000,-39.000000,-7.000000,37.000000,-41.000000
1302674.601503,17.000000,24.000000,4.000000,-24.000000,-21.000000,1.000000,-21.000000,91.000000
1302674.601515,-32.000000,-43.000000,40.000000,-6.000000,-6.000000,-30.000000,-9.000000,-71.000000
1302674.616252,35.000000,32.000000,-5.000000,24.000000,34.000000,34.000000,22.000000,34.000000
1302674.616264,-7.000000,0.000000,29.000000,40.000000,-1.000000,12.000000,-17.000000,-34.000000
1302674.624115,0.000000,2.000000,10.000000,54.000000,73.000000,26.000000,31.000000,3.000000
1302674.624127,-42.000000,-48.000000,-41.000000,75.000000,5.000000,-14.000000,-85.000000,-81.000000
1302674.638929,24.000000,91.000000,70.000000,-12.000000,55.000000,46.000000,2.000000,75.000000
1302674.638942,38.000000,84.000000,103.000000,63.000000,57.000000,21.000000,127.000000,15.000000
1302674.646187,24.000000,13.000000,-65.000000,2.000000,5.000000,11.000000,-33.000000,6.000000
1302674.646200,-8.000000,19.000000,51.000000,-16.000000,-11.000000,-6.000000,-50.000000,19.000000
1302674.653891,-31.000000,3.000000,-45.000000,-4.000000,0.000000,-2.000000,7.000000,59.000000
1302674.653910,62.000000,-9.000000,-63.000000,-51.000000,-3.000000,33.000000,127.000000,32.000000
1302674.654678,-17.000000,4.000000,96.000000,80.000000,24.000000,23.000000,43.000000,40.000000
1302674.654692,-41.000000,-48.000000,-57.000000,-47.000000,-43.000000,-51.000000,-128.000000,-101.000000
1302674.691080,10.000000,77.000000,127.000000,-4.000000,1.000000,39.000000,67.000000,40.000000
1302674.691103,1.000000,-40.000000,-105.000000,5.000000,21.000000,0.000000,44.000000,25.000000
1302674.698419,-15.000000,-47.000000,127.000000,76.000000,16.000000,-4.000000,-41.000000,-22.000000
1302674.698433,-19.000000,-1.000000,-1.000000,-57.000000,-39.000000,-32.000000,-34.000000,-55.000000
1302674.714129,19.000000,25.000000,-70.000000,-28.000000,-6.000000,1.000000,22.000000,-11.000000
1302674.714138,1.000000,32.000000,86.000000,36.000000,-20.000000,23.000000,21.000000,71.000000
1302674.714697,-15.000000,-28.000000,-51.000000,-4.000000,-11.000000,-19.000000,-21.000000,-14.000000
1302674.714705,38.000000,40.000000,112.000000,-32.000000,-6.000000,9.000000,-12.000000,81.000000
1302674.715775,1.000000,-17.000000,-55.000000,-87.000000,-20.000000,-19.000000,83.000000,9.000000
1302674.715782,30.000000,-9.000000,-8.000000,121.000000,68.000000,46.000000,49.000000,27.000000
1302674.716571,-10.000000,-2.000000,-40.000000,-49.000000,-19.000000,-8.000000,4.000000,0.000000
1302674.716579,-3.000000,36.000000,121.000000,14.000000,-2.000000,-10.000000,-77.000000,-79.000000
1302674.752726,-53.000000,-114.000000,-47.000000,-10.000000,-11.000000,-41.000000,-117.000000,-14.000000
1302674.752791,69.000000,112.000000,97.000000,-7.000000,13.000000,37.000000,127.000000,127.000000
1302674.759530,11.000000,21.000000,31.000000,5.000000,-10.000000,7.000000,72.000000,44.000000
1302674.759558,-31.000000,-22.000000,-9.000000,-26.000000,-15.000000,-21.000000,-128.000000,-51.000000
1302674.796442,-33.000000,-58.000000,-39.000000,-32.000000,-16.000000,-9.000000,120.000000,-69.000000
1302674.796464,-12.000000,-39.000000,-62.000000,-31.000000,-40.000000,-26.000000,-39.000000,37.000000
1302674.811029,-11.000000,14.000000,33.000000,46.000000,33.000000,-7.000000,-57.000000,-8.000000
1302674.811041,18.000000,-24.000000,-71.000000,-77.000000,-14.000000,-13.000000,-12.000000,-21.000000
1302674.812235,-19.000000,-67.000000,3.000000,-3.000000,-13.000000,-21.000000,-77.000000,-24.000000
1302674.812248,-2.000000,-54.000000,-67.000000,-25.000000,23.000000,-15.000000,-33.000000,-12.000000
1302674.812780,-24.000000,0.000000,38.000000,-94.000000,-36.000000,7.000000,30.000000,-37.000000
1302674.812791,27.000000,41.000000,6.000000,3.000000,19.000000,-12.000000,19.000000,-3.000000
1302674.814397,-33.000000,-50.000000,38.000000,40.000000,26.000000,-6.000000,-110.000000,-52.000000
1302674.814418,43.000000,24.000000,24.000000,-24.000000,-40.000000,-13.000000,103.000000,17.000000
1302674.818499,-12.000000,-3.000000,-40.000000,65.000000,69.000000,6.000000,-15.000000,20.000000
1302674.818518,44.000000,32.000000,99.000000,60.000000,45.000000,34.000000,28.000000,56.000000
1302674.833466,-64.000000,31.000000,-58.000000,-59.000000,-62.000000,-23.000000,-39.000000,-39.000000
1302674.833477,2.000000,54.000000,21.000000,36.000000,33.000000,4.000000,46.000000,-22.000000
1302674.834255,-11.000000,-29.000000,-23.000000,-39.000000,-13.000000,-26.000000,-68.000000,-46.000000
1302674.834304,31.000000,28.000000,-5.000000,5.000000,25.000000,31.000000,76.000000,35.000000
1302674.878549,1.000000,-35.000000,-63.000000,-22.000000,-3.000000,-16.000000,1.000000,20.000000
1302674.878578,1.000000,54.000000,71.000000,1.000000,6.000000,5.000000,-48.000000,-51.000000
1302674.886223,22.000000,-33.000000,-65.000000,-6.000000,10.000000,0.000000,-14.000000,36.000000
1302674.886234,-23.000000,-17.000000,-7.000000,-26.000000,-61.000000,-26.000000,-38.000000,-34.000000
1302674.908588,-9.000000,-5.000000,11.000000,-74.000000,-10.000000,0.000000,5.000000,63.000000
1302674.908633,62.000000,78.000000,8.000000,127.000000,56.000000,20.000000,59.000000,42.000000
1302674.916201,-32.000000,-28.000000,26.000000,3.000000,6.000000,5.000000,-31.000000,-12.000000
1302674.916225,-18.000000,13.000000,-45.000000,-40.000000,-13.000000,-6.000000,-25.000000,-47.000000
1302674.953716,-10.000000,24.000000,63.000000,-7.000000,7.000000,12.000000,-39.000000,-11.000000
1302674.953730,-5.000000,-19.000000,-47.000000,-77.000000,-63.000000,-23.000000,-12.000000,1.000000
1302674.954293,39.000000,63.000000,127.000000,127.000000,4.000000,38.000000,43.000000,22.000000
1302674.954303,8.000000,4.000000,-11.000000,-4.000000,12.000000,-1.000000,-31.000000,-3.000000
1302674.975942,-26.000000,-10.000000,-57.000000,-14.000000,-9.000000,-6.000000,-37.000000,-37.000000
1302674.975959,13.000000,-28.000000,-2.000000,2.000000,11.000000,15.000000,97.000000,92.000000
1302674.991042,23.000000,23.000000,-20.000000,16.000000,6.000000,-3.000000,-42.000000,30.000000
1302674.991058,-30.000000,-52.000000,-85.000000,-57.000000,-29.000000,-26.000000,-10.000000,-28.000000
1302675.013490,37.000000,41.000000,127.000000,73.000000,5.000000,31.000000,83.000000,14.000000
1302675.013507,-20.000000,-50.000000,-128.000000,-3.000000,-4.000000,-7.000000,76.000000,54.000000
1302675.013925,-5.000000,-34.000000,-48.000000,-36.000000,8.000000,-24.000000,-113.000000,-17.000000
1302675.013933,15.000000,61.000000,127.000000,55.000000,22.000000,-2.000000,-41.000000,-22.000000
1302675.015141,13.000000,0.000000,-90.000000,-128.000000,-58.000000,-16.000000,40.000000,69.000000
1302675.015168,13.000000,21.000000,69.000000,127.000000,127.000000,57.000000,-56.000000,-15.000000
1302675.015683,-6.000000,-27.000000,5.000000,21.000000,-16.000000,-8.000000,-31.000000,54.000000
1302675.015711,-4.000000,7.000000,-55.000000,-13.000000,-16.000000,-18.000000,-18.000000,-103.000000
1302675.016290,10.000000,52.000000,36.000000,10.000000,-9.000000,9.000000,21.000000,61.000000
1302675.016317,4.000000,-16.000000,14.000000,-24.000000,-21.000000,5.000000,85.000000,29.000000
1302675.017522,-7.000000,0.000000,14.000000,102.000000,77.000000,0.000000,-98.000000,-33.000000
1302675.017542,-12.000000,3.000000,-25.000000,-29.000000,-1.000000,-1.000000,25.000000,20.000000
1302675.029137,-12.000000,-23.000000,-31.000000,-19.000000,-2.000000,12.000000,-121.000000,2.000000
1302675.029188,11.000000,-21.000000,-53.000000,-81.000000,-66.000000,-92.000000,10.000000,-36.000000
1302675.035763,-24.000000,-4.000000,-17.000000,36.000000,46.000000,12.000000,-120.000000,-17.000000
1302675.035792,-37.000000,-33.000000,-8.000000,-115.000000,-60.000000,4.000000,12.000000,-87.000000
1302675.051138,61.000000,18.000000,-16.000000,64.000000,60.000000,-32.000000,78.000000,112.000000
1302675.051148,5.000000,-22.000000,-63.000000,16.000000,2.000000,-28.000000,-98.000000,13.000000
1302675.073569,5.000000,16.000000,28.000000,28.000000,8.000000,12.000000,57.000000,4.000000
1302675.073590,-24.000000,-59.000000,-48.000000,-80.000000,-19.000000,-13.000000,-114.000000,-60.000000
1302675.074458,5.000000,51.000000,41.000000,2.000000,22.000000,36.000000,55.000000,-31.000000
1302675.074486,21.000000,-12.000000,-19.000000,51.000000,-11.000000,-7.000000,81.000000,93.000000
1302675.075706,-1.000000,1.000000,5.000000,17.000000,2.000000,13.000000,111.000000,-11.000000
1302675.075723,-48.000000,-39.000000,-3.000000,-29.000000,-12.000000,-20.000000,-128.000000,-71.000000
1302675.096219,14.000000,34.000000,-25.000000,-38.000000,-22.000000,54.000000,127.000000,-8.000000
1302675.096230,4.000000,-60.000000,-100.000000,17.000000,24.000000,-24.000000,-80.000000,4.000000
1302675.111064,9.000000,3.000000,21.000000,-17.000000,-21.000000,0.000000,42.000000,72.000000
1302675.111082,13.000000,15.000000,70.000000,-10.000000,35.000000,12.000000,-35.000000,13.000000
1302675.156089,-19.000000,-27.000000,-35.000000,-1.000000,0.000000,-25.000000,-128.000000,-37.000000
1302675.156229,14.000000,-17.000000,-116.000000,-3.000000,-18.000000,-48.000000,54.000000,-58.000000
1302675.156456,12.000000,12.000000,10.000000,123.000000,23.000000,9.000000,121.000000,63.000000
1302675.156464,-15.000000,-23.000000,18.000000,-6.000000,-16.000000,-12.000000,-114.000000,-11.000000
1302675.157667,-16.000000,-19.000000,32.000000,-17.000000,-6.000000,0.000000,45.000000,-3.000000
1302675.157675,-21.000000,-29.000000,-51.000000,-31.000000,-18.000000,-32.000000,-121.000000,-61.000000
1302675.158184,33.000000,57.000000,67.000000,7.000000,5.000000,43.000000,127.000000,80.000000
1302675.158210,-44.000000,-62.000000,-67.000000,-27.000000,-16.000000,-77.000000,-128.000000,-56.000000
1302675.160030,64.000000,55.000000,93.000000,-105.000000,-54.000000,89.000000,127.000000,75.000000
1302675.160047,14.000000,-59.000000,-122.000000,-8.000000,-17.000000,-35.000000,-16.000000,24.000000
1302675.163400,9.000000,37.000000,35.000000,-36.000000,-7.000000,43.000000,127.000000,69.000000
1302675.163409,-2.000000,-37.000000,-128.000000,-25.000000,-22.000000,-46.000000,-47.000000,-46.000000
1302675.188447,-12.000000,-4.000000,-64.000000,-51.000000,-25.000000,-24.000000,-94.000000,-24.000000
1302675.188570,-19.000000,-14.000000,119.000000,62.000000,30.000000,-2.000000,-42.000000,-35.000000
1302675.188868,-12.000000,0.000000,4.000000,-35.000000,-43.000000,-4.000000,-119.000000,-46.000000
1302675.188892,-20.000000,33.000000,38.000000,-31.000000,-4.000000,27.000000,60.000000,0.000000
1302675.193496,31.000000,-14.000000,3.000000,6.000000,-7.000000,6.000000,59.000000,27.000000
1302675.193506,-7.000000,-6.000000,-87.000000,-91.000000,-32.000000,-10.000000,-47.000000,-11.000000
1302675.231105,0.000000,-4.000000,42.000000,66.000000,51.000000,11.000000,62.000000,2.000000
1302675.231125,-17.000000,-44.000000,17.000000,-30.000000,-5.000000,-34.000000,-101.000000,-47.000000
1302675.246278,-42.000000,-22.000000,-23.000000,31.000000,44.000000,4.000000,-105.000000,-19.000000
1302675.246290,24.000000,2.000000,-71.000000,25.000000,10.000000,2.000000,121.000000,67.000000
1302675.268471,-16.000000,2.000000,67.000000,25.000000,-17.000000,16.000000,-118.000000,-50.000000
1302675.268491,48.000000,34.000000,52.000000,65.000000,73.000000,44.000000,127.000000,127.000000
1302675.269171,9.000000,37.000000,-1.000000,-20.000000,3.000000,19.000000,-66.000000,-2.000000
1302675.269180,-58.000000,-71.000000,-40.000000,-19.000000,-11.000000,-49.000000,-3.000000,-35.000000
1302675.276004,-1.000000,-11.000000,-50.000000,-16.000000,-13.000000,13.000000,-21.000000,-72.000000
1302675.276013,15.000000,32.000000,59.000000,-13.000000,7.000000,-6.000000,-70.000000,44.000000
1302675.283437,19.000000,32.000000,7.000000,-70.000000,-20.000000,28.000000,112.000000,1.000000
1302675.283455,-28.000000,11.000000,-39.000000,10.000000,5.000000,0.000000,-8.000000,5.000000
1302675.292020,-27.000000,19.000000,3.000000,-25.000000,-7.000000,-20.000000,-80.000000,-52.000000
1302675.292083,31.000000,-2.000000,-26.000000,10.000000,-2.000000,26.000000,114.000000,35.000000
1302675.292484,22.000000,-3.000000,12.000000,58.000000,-4.000000,23.000000,38.000000,52.000000
1302675.292504,-14.000000,24.000000,127.000000,34.000000,19.000000,45.000000,-106.000000,-45.000000
1302675.293589,-23.000000,-47.000000,-5.000000,-28.000000,-11.000000,-27.000000,127.000000,1.000000
1302675.293611,11.000000,-16.000000,-3.000000,-6.000000,-21.000000,0.000000,-48.000000,37.000000
1302675.306024,33.000000,46.000000,44.000000,59.000000,19.000000,20.000000,-25.000000,12.000000
1302675.306040,-40.000000,2.000000,-55.000000,-27.000000,-4.000000,-14.000000,-80.000000,-42.000000
1302675.307247,-2.000000,38.000000,42.000000,64.000000,6.000000,-27.000000,-58.000000,-5.000000
1302675.307264,28.000000,5.000000,-36.000000,-69.000000,-28.000000,-16.000000,59.000000,0.000000
1302675.313399,-2.000000,-21.000000,5.000000,17.000000,-25.000000,-3.000000,32.000000,24.000000
1302675.313415,-15.000000,-17.000000,-41.000000,-28.000000,-9.000000,-4.000000,-72.000000,-20.000000
1302675.351272,-19.000000,0.000000,26.000000,-9.000000,-6.000000,17.000000,58.000000,-18.000000
1302675.351293,33.000000,-6.000000,11.000000,15.000000,-15.000000,-33.000000,64.000000,17.000000
1302675.358556,-1.000000,-17.000000,-43.000000,-3.000000,-11.000000,-5.000000,-63.000000,1.000000
1302675.358586,-27.000000,-14.000000,-2.000000,-18.000000,-8.000000,-1.000000,-128.000000,-50.000000
1302675.373335,5.000000,6.000000,-33.000000,-53.000000,-33.000000,20.000000,127.000000,-27.000000
1302675.373364,32.000000,-23.000000,-46.000000,50.000000,21.000000,-11.000000,72.000000,60.000000
1302675.388914,-27.000000,-6.000000,22.000000,-17.000000,2.000000,-16.000000,-128.000000,-32.000000
1302675.388926,14.000000,69.000000,77.000000,-51.000000,-29.000000,14.000000,94.000000,-67.000000
1302675.389749,13.000000,-15.000000,-1.000000,5.000000,-6.000000,47.000000,118.000000,61.000000
1302675.389769,-11.000000,-58.000000,-75.000000,-8.000000,30.000000,-44.000000,-87.000000,-11.000000
1302675.391047,17.000000,41.000000,44.000000,-26.000000,2.000000,15.000000,-61.000000,17.000000
1302675.391056,-50.000000,34.000000,-15.000000,-60.000000,-39.000000,-22.000000,22.000000,-69.000000
1302675.391930,19.000000,19.000000,59.000000,103.000000,-3.000000,17.000000,110.000000,47.000000
1302675.391949,9.000000,2.000000,-10.000000,-48.000000,6.000000,2.000000,-70.000000,36.000000
1302675.411382,-10.000000,-4.000000,17.000000,11.000000,36.000000,13.000000,-128.000000,-73.000000
1302675.411404,-3.000000,1.000000,-3.000000,-66.000000,-3.000000,27.000000,74.000000,26.000000
1302675.412168,28.000000,-37.000000,-41.000000,53.000000,-6.000000,5.000000,127.000000,104.000000
1302675.412184,-6.000000,-5.000000,12.000000,4.000000,4.000000,-5.000000,-75.000000,-29.000000
1302675.440907,-50.000000,-23.000000,-63.000000,-52.000000,-59.000000,-53.000000,-66.000000,-57.000000
1302675.440937,-13.000000,-9.000000,0.000000,22.000000,-1.000000,13.000000,-22.000000,17.000000
1302675.448347,30.000000,-20.000000,-16.000000,56.000000,43.000000,28.000000,99.000000,55.000000
