# participant_id: P3
# gesture: baseline
# trial_number: 1
# stream_name: Myo_EMG
# stream_type: emg
# timestamp: 20260420_132300
# samples: 5104
# duration_sec: 30.307
# nominal_sample_rate: 200.0
# effective_sample_rate: 168.38
#
timestamp,emg_1,emg_2,emg_3,emg_4,emg_5,emg_6,emg_7,emg_8
1296072.243675,0.000000,-1.000000,-3.000000,2.000000,-5.000000,16.000000,2.000000,-2.000000
1296072.243703,-1.000000,-3.000000,-2.000000,-5.000000,4.000000,-22.000000,0.000000,5.000000
1296072.265713,-1.000000,-6.000000,-4.000000,-3.000000,-3.000000,11.000000,-2.000000,-3.000000
1296072.265742,-2.000000,-5.000000,3.000000,-6.000000,3.000000,3.000000,1.000000,2.000000
1296072.273152,3.000000,1.000000,4.000000,1.000000,-4.000000,-4.000000,1.000000,0.000000
1296072.273179,-6.000000,1.000000,-4.000000,5.000000,-4.000000,-5.000000,-3.000000,1.000000
1296072.296282,0.000000,-5.000000,-2.000000,-4.000000,2.000000,3.000000,-1.000000,1.000000
1296072.296321,-1.000000,2.000000,-3.000000,-1.000000,-3.000000,-3.000000,-3.000000,2.000000
1296072.303442,-4.000000,-4.000000,-4.000000,1.000000,-2.000000,-13.000000,-10.000000,-5.000000
1296072.303484,-5.000000,-5.000000,-1.000000,-12.000000,-1.000000,1.000000,0.000000,-7.000000
1296072.334028,4.000000,-1.000000,-4.000000,-7.000000,4.000000,15.000000,-1.000000,2.000000
1296072.334063,0.000000,-3.000000,-5.000000,-3.000000,-3.000000,-11.000000,-1.000000,2.000000
1296072.334309,-4.000000,1.000000,3.000000,-4.000000,3.000000,-9.000000,-1.000000,-1.000000
1296072.334346,-1.000000,-9.000000,-1.000000,-4.000000,-1.000000,4.000000,2.000000,3.000000
1296072.336327,-1.000000,0.000000,2.000000,1.000000,-7.000000,-3.000000,-5.000000,1.000000
1296072.336363,-8.000000,-7.000000,5.000000,-2.000000,1.000000,-14.000000,0.000000,0.000000
1296072.336607,0.000000,0.000000,0.000000,-6.000000,-1.000000,9.000000,-1.000000,0.000000
1296072.336660,-2.000000,3.000000,-8.000000,-2.000000,3.000000,-6.000000,-7.000000,-4.000000
1296072.338240,1.000000,0.000000,-1.000000,1.000000,2.000000,-1.000000,-1.000000,-1.000000
1296072.338262,-4.000000,0.000000,-5.000000,-7.000000,2.000000,10.000000,0.000000,-7.000000
1296072.340514,-3.000000,2.000000,-3.000000,-5.000000,-1.000000,-3.000000,1.000000,0.000000
1296072.340542,3.000000,-3.000000,4.000000,-4.000000,-9.000000,0.000000,-5.000000,0.000000
1296072.371001,2.000000,-6.000000,3.000000,-3.000000,-3.000000,-3.000000,-2.000000,-4.000000
1296072.371052,-3.000000,-2.000000,-3.000000,0.000000,-2.000000,-7.000000,-1.000000,1.000000
1296072.385749,1.000000,1.000000,2.000000,-2.000000,-2.000000,12.000000,2.000000,0.000000
1296072.385778,-2.000000,0.000000,-1.000000,-4.000000,0.000000,2.000000,1.000000,-1.000000
1296072.408138,3.000000,0.000000,5.000000,-1.000000,-4.000000,1.000000,-1.000000,3.000000
1296072.408167,-3.000000,-3.000000,2.000000,0.000000,-1.000000,-3.000000,0.000000,0.000000
1296072.423266,-5.000000,-5.000000,2.000000,-4.000000,-1.000000,1.000000,2.000000,-1.000000
1296072.423436,4.000000,4.000000,-3.000000,0.000000,2.000000,-5.000000,-6.000000,-6.000000
1296072.430573,-2.000000,2.000000,2.000000,-1.000000,-1.000000,9.000000,-3.000000,-4.000000
1296072.430601,5.000000,0.000000,4.000000,-1.000000,-5.000000,-2.000000,1.000000,2.000000
1296072.453115,-5.000000,-1.000000,-3.000000,5.000000,-1.000000,-9.000000,1.000000,-4.000000
1296072.453144,-2.000000,-4.000000,3.000000,2.000000,2.000000,-11.000000,-1.000000,-4.000000
1296072.460547,-2.000000,3.000000,3.000000,3.000000,0.000000,15.000000,2.000000,-2.000000
1296072.460575,1.000000,-4.000000,-11.000000,2.000000,-2.000000,4.000000,-4.000000,-1.000000
1296072.468194,-2.000000,-1.000000,1.000000,-2.000000,0.000000,-3.000000,2.000000,-1.000000
1296072.468222,-3.000000,1.000000,6.000000,-4.000000,1.000000,9.000000,-5.000000,-1.000000
1296072.490914,0.000000,-1.000000,-10.000000,-3.000000,-4.000000,-19.000000,-1.000000,-3.000000
1296072.490945,0.000000,-1.000000,0.000000,2.000000,4.000000,18.000000,0.000000,1.000000
1296072.505745,-3.000000,1.000000,5.000000,-2.000000,-7.000000,-7.000000,-5.000000,0.000000
1296072.505773,-2.000000,-6.000000,0.000000,0.000000,0.000000,1.000000,1.000000,-3.000000
1296072.520964,-2.000000,-5.000000,-5.000000,-9.000000,3.000000,-1.000000,0.000000,-1.000000
1296072.520994,2.000000,0.000000,-5.000000,-1.000000,-1.000000,-1.000000,1.000000,-4.000000
1296072.536272,-6.000000,-3.000000,-1.000000,-2.000000,5.000000,6.000000,-1.000000,-2.000000
1296072.536322,-5.000000,0.000000,0.000000,5.000000,-2.000000,-17.000000,-2.000000,3.000000
1296072.573485,0.000000,0.000000,3.000000,2.000000,-1.000000,24.000000,-2.000000,2.000000
1296072.573537,-3.000000,4.000000,3.000000,-3.000000,3.000000,-11.000000,1.000000,-2.000000
1296072.574894,-4.000000,2.000000,3.000000,-2.000000,-5.000000,-1.000000,-4.000000,-3.000000
1296072.574957,-2.000000,-4.000000,-5.000000,3.000000,0.000000,-5.000000,0.000000,-3.000000
1296072.575194,-4.000000,-1.000000,3.000000,-5.000000,-5.000000,4.000000,0.000000,-1.000000
1296072.575255,-5.000000,-5.000000,0.000000,4.000000,-3.000000,-6.000000,1.000000,-2.000000
1296072.577007,-6.000000,-5.000000,4.000000,-3.000000,7.000000,20.000000,2.000000,-5.000000
1296072.577039,0.000000,0.000000,-3.000000,-5.000000,-3.000000,-13.000000,2.000000,10.000000
1296072.577187,-3.000000,-2.000000,-1.000000,-4.000000,0.000000,-1.000000,-4.000000,-3.000000
1296072.577208,-1.000000,3.000000,-4.000000,5.000000,-1.000000,-9.000000,-3.000000,-3.000000
1296072.578196,0.000000,0.000000,1.000000,-8.000000,-3.000000,-3.000000,-1.000000,1.000000
1296072.578224,1.000000,-2.000000,-8.000000,3.000000,-2.000000,0.000000,-1.000000,-6.000000
1296072.580579,0.000000,-3.000000,1.000000,4.000000,4.000000,-7.000000,2.000000,-3.000000
1296072.580619,-4.000000,3.000000,-9.000000,-4.000000,-5.000000,-8.000000,1.000000,-3.000000
1296072.610841,-2.000000,1.000000,4.000000,1.000000,-6.000000,-2.000000,-4.000000,-3.000000
1296072.610903,2.000000,2.000000,-3.000000,4.000000,2.000000,-8.000000,2.000000,-4.000000
1296072.625841,-1.000000,1.000000,-1.000000,4.000000,-2.000000,10.000000,2.000000,-3.000000
1296072.625873,1.000000,3.000000,5.000000,2.000000,-4.000000,5.000000,-1.000000,-3.000000
1296072.633214,5.000000,-6.000000,-3.000000,1.000000,2.000000,-8.000000,-4.000000,-2.000000
1296072.633244,-1.000000,-6.000000,-3.000000,1.000000,-1.000000,-16.000000,1.000000,0.000000
1296072.663281,-6.000000,-2.000000,-2.000000,-1.000000,2.000000,12.000000,-4.000000,-3.000000
1296072.663331,5.000000,0.000000,2.000000,6.000000,1.000000,-5.000000,-3.000000,-3.000000
1296072.685621,-1.000000,-1.000000,-6.000000,-6.000000,-3.000000,4.000000,-1.000000,-3.000000
1296072.685649,-3.000000,-5.000000,-3.000000,1.000000,1.000000,-25.000000,-4.000000,-1.000000
1296072.694657,-3.000000,3.000000,-1.000000,1.000000,1.000000,10.000000,-5.000000,3.000000
1296072.694698,0.000000,-4.000000,1.000000,2.000000,-3.000000,-7.000000,-3.000000,-3.000000
1296072.694947,-1.000000,-6.000000,3.000000,2.000000,-2.000000,26.000000,-2.000000,-1.000000
1296072.694973,6.000000,4.000000,-1.000000,2.000000,1.000000,-16.000000,3.000000,-1.000000
1296072.697166,2.000000,1.000000,-1.000000,-5.000000,3.000000,9.000000,2.000000,-5.000000
1296072.697193,3.000000,2.000000,4.000000,0.000000,1.000000,6.000000,-2.000000,2.000000
1296072.697789,-2.000000,-8.000000,4.000000,-1.000000,6.000000,-6.000000,-4.000000,-4.000000
1296072.697812,0.000000,3.000000,-5.000000,-4.000000,-7.000000,-14.000000,0.000000,1.000000
1296072.700422,-3.000000,-4.000000,-1.000000,0.000000,-4.000000,17.000000,-4.000000,1.000000
1296072.700450,3.000000,-5.000000,-5.000000,4.000000,2.000000,-5.000000,3.000000,2.000000
1296072.723211,2.000000,-1.000000,2.000000,2.000000,-7.000000,-5.000000,-3.000000,4.000000
1296072.723238,4.000000,-3.000000,-5.000000,0.000000,0.000000,6.000000,-3.000000,-4.000000
1296072.738244,-1.000000,0.000000,1.000000,-1.000000,1.000000,-13.000000,-1.000000,-5.000000
1296072.738270,2.000000,2.000000,0.000000,-7.000000,-3.000000,9.000000,-6.000000,-1.000000
1296072.745654,-2.000000,-3.000000,-7.000000,-2.000000,-2.000000,2.000000,-3.000000,-1.000000
1296072.745682,-4.000000,-3.000000,4.000000,4.000000,-1.000000,-8.000000,2.000000,-2.000000
1296072.776314,-2.000000,1.000000,0.000000,4.000000,-2.000000,15.000000,-3.000000,-3.000000
1296072.776981,0.000000,-2.000000,-3.000000,2.000000,-1.000000,-1.000000,1.000000,-1.000000
1296072.778297,-1.000000,-5.000000,-6.000000,-3.000000,0.000000,13.000000,-2.000000,-2.000000
1296072.778354,-4.000000,1.000000,0.000000,2.000000,1.000000,-18.000000,-1.000000,-1.000000
1296072.779269,4.000000,2.000000,-5.000000,0.000000,1.000000,19.000000,-9.000000,-5.000000
1296072.779315,-2.000000,0.000000,-7.000000,3.000000,-2.000000,-14.000000,0.000000,2.000000
1296072.784020,1.000000,-1.000000,1.000000,-6.000000,-2.000000,-3.000000,-2.000000,-4.000000
1296072.784474,-1.000000,-2.000000,0.000000,-11.000000,3.000000,2.000000,1.000000,-1.000000
1296072.785852,-1.000000,-5.000000,-2.000000,-1.000000,-1.000000,11.000000,-1.000000,1.000000
1296072.785906,0.000000,-12.000000,1.000000,2.000000,5.000000,-4.000000,2.000000,-5.000000
1296072.813290,1.000000,3.000000,0.000000,-5.000000,-3.000000,-3.000000,0.000000,0.000000
1296072.813321,-5.000000,-1.000000,-1.000000,-3.000000,-1.000000,-16.000000,-3.000000,0.000000
1296072.823029,-1.000000,5.000000,-6.000000,-4.000000,-1.000000,27.000000,5.000000,0.000000
1296072.823576,-1.000000,1.000000,-2.000000,-3.000000,-5.000000,-12.000000,1.000000,-1.000000
1296072.824230,0.000000,-3.000000,-4.000000,-2.000000,-1.000000,0.000000,-2.000000,-1.000000
1296072.824255,1.000000,0.000000,-4.000000,0.000000,-6.000000,-7.000000,0.000000,-3.000000
1296072.824641,-4.000000,-2.000000,-3.000000,0.000000,-4.000000,3.000000,2.000000,-2.000000
1296072.824667,2.000000,3.000000,4.000000,4.000000,0.000000,-5.000000,-1.000000,1.000000
1296072.850935,-5.000000,-1.000000,-2.000000,2.000000,-1.000000,-6.000000,-9.000000,1.000000
1296072.850964,-1.000000,6.000000,-3.000000,0.000000,-1.000000,27.000000,10.000000,-1.000000
1296072.865733,4.000000,-6.000000,5.000000,-4.000000,10.000000,-12.000000,0.000000,5.000000
1296072.865761,-3.000000,-1.000000,0.000000,2.000000,-4.000000,0.000000,-5.000000,1.000000
1296072.880906,-2.000000,-4.000000,-3.000000,-1.000000,-5.000000,-3.000000,3.000000,3.000000
1296072.880935,-2.000000,-4.000000,2.000000,-6.000000,-2.000000,4.000000,-5.000000,-2.000000
1296072.903403,-4.000000,0.000000,-3.000000,1.000000,-3.000000,-17.000000,-1.000000,1.000000
1296072.903431,-7.000000,-5.000000,-6.000000,5.000000,2.000000,22.000000,1.000000,-2.000000
1296072.911051,0.000000,1.000000,-7.000000,-2.000000,1.000000,-11.000000,1.000000,-4.000000
1296072.911098,4.000000,-1.000000,-6.000000,-4.000000,-4.000000,5.000000,-1.000000,3.000000
1296072.935090,-2.000000,-3.000000,0.000000,-1.000000,-3.000000,-14.000000,-2.000000,-2.000000
1296072.935927,1.000000,-3.000000,-1.000000,-1.000000,1.000000,13.000000,-4.000000,-7.000000
1296072.936596,0.000000,1.000000,-2.000000,-1.000000,-4.000000,-6.000000,-3.000000,-5.000000
1296072.936913,1.000000,2.000000,0.000000,1.000000,2.000000,-3.000000,0.000000,-5.000000
1296072.937301,-7.000000,-4.000000,4.000000,0.000000,-2.000000,-10.000000,5.000000,-1.000000
1296072.937323,-4.000000,-1.000000,4.000000,1.000000,-4.000000,3.000000,-2.000000,0.000000
1296072.937755,-2.000000,-2.000000,-3.000000,-6.000000,1.000000,7.000000,-1.000000,2.000000
1296072.937884,6.000000,0.000000,-3.000000,-2.000000,-2.000000,1.000000,-2.000000,-1.000000
1296072.938246,1.000000,1.000000,-1.000000,-4.000000,-4.000000,-34.000000,-9.000000,0.000000
1296072.938287,-7.000000,3.000000,-8.000000,0.000000,10.000000,26.000000,2.000000,-1.000000
1296072.948278,-1.000000,-6.000000,-6.000000,-2.000000,0.000000,18.000000,0.000000,-1.000000
1296072.948464,0.000000,2.000000,8.000000,2.000000,1.000000,-9.000000,-4.000000,3.000000
1296072.978010,2.000000,-5.000000,-1.000000,2.000000,-1.000000,-5.000000,-3.000000,-1.000000
1296072.978037,-1.000000,-7.000000,0.000000,-7.000000,-7.000000,-1.000000,-4.000000,-2.000000
1296072.985939,0.000000,0.000000,-5.000000,0.000000,-2.000000,-30.000000,-6.000000,-4.000000
1296072.985968,-7.000000,-3.000000,-3.000000,-1.000000,-5.000000,44.000000,-4.000000,-1.000000
1296073.016014,-1.000000,0.000000,-7.000000,-1.000000,1.000000,-12.000000,-2.000000,0.000000
1296073.016044,-2.000000,-5.000000,1.000000,-7.000000,-4.000000,-7.000000,-1.000000,0.000000
1296073.023783,-5.000000,-4.000000,1.000000,0.000000,2.000000,-5.000000,0.000000,1.000000
1296073.023849,-2.000000,-1.000000,1.000000,-3.000000,-9.000000,16.000000,0.000000,0.000000
1296073.025900,-4.000000,0.000000,-1.000000,-5.000000,-1.000000,3.000000,1.000000,-5.000000
1296073.025923,-6.000000,-1.000000,0.000000,-9.000000,1.000000,-8.000000,-4.000000,-1.000000
1296073.026619,0.000000,-4.000000,-3.000000,4.000000,-8.000000,-7.000000,0.000000,0.000000
1296073.026648,-7.000000,0.000000,-6.000000,2.000000,2.000000,-6.000000,-1.000000,1.000000
1296073.027219,2.000000,-5.000000,-5.000000,-3.000000,-10.000000,4.000000,4.000000,3.000000
1296073.027246,1.000000,2.000000,0.000000,-8.000000,3.000000,-8.000000,-5.000000,1.000000
1296073.054743,-1.000000,0.000000,0.000000,-5.000000,-1.000000,-3.000000,-4.000000,-3.000000
1296073.054796,-2.000000,-1.000000,1.000000,-3.000000,-2.000000,1.000000,-2.000000,-4.000000
1296073.055768,2.000000,-3.000000,0.000000,3.000000,4.000000,7.000000,0.000000,1.000000
1296073.055827,0.000000,-3.000000,-1.000000,-1.000000,0.000000,-17.000000,-3.000000,-2.000000
1296073.057438,-4.000000,-5.000000,1.000000,0.000000,1.000000,20.000000,-3.000000,-4.000000
1296073.057484,-8.000000,8.000000,7.000000,-1.000000,-1.000000,-24.000000,-1.000000,4.000000
1296073.090720,-8.000000,-10.000000,-2.000000,-4.000000,1.000000,13.000000,0.000000,-1.000000
1296073.090750,3.000000,-2.000000,1.000000,2.000000,-1.000000,-5.000000,1.000000,-1.000000
1296073.121018,0.000000,1.000000,3.000000,1.000000,0.000000,1.000000,0.000000,-3.000000
1296073.121075,2.000000,0.000000,2.000000,0.000000,3.000000,-18.000000,-5.000000,4.000000
1296073.136115,-7.000000,-3.000000,-4.000000,-4.000000,-4.000000,10.000000,0.000000,-2.000000
1296073.136171,-5.000000,-2.000000,-2.000000,1.000000,-4.000000,-1.000000,2.000000,0.000000
1296073.165809,4.000000,1.000000,1.000000,-4.000000,5.000000,6.000000,1.000000,0.000000
1296073.166028,1.000000,-3.000000,-1.000000,-5.000000,-6.000000,0.000000,-3.000000,1.000000
1296073.173404,-1.000000,1.000000,-1.000000,-3.000000,0.000000,-17.000000,-4.000000,-2.000000
1296073.173433,-3.000000,-3.000000,-2.000000,2.000000,-4.000000,21.000000,5.000000,-6.000000
1296073.210686,4.000000,-1.000000,3.000000,5.000000,2.000000,3.000000,9.000000,-2.000000
1296073.210715,-3.000000,-3.000000,-1.000000,-5.000000,-2.000000,-13.000000,-5.000000,0.000000
1296073.218512,3.000000,0.000000,-1.000000,-2.000000,-1.000000,5.000000,-1.000000,3.000000
1296073.218543,-1.000000,-7.000000,3.000000,-8.000000,-3.000000,-5.000000,-1.000000,-3.000000
1296073.249111,-2.000000,-5.000000,0.000000,1.000000,-4.000000,6.000000,0.000000,1.000000
1296073.249167,-4.000000,1.000000,2.000000,-9.000000,-2.000000,-6.000000,-2.000000,-2.000000
1296073.250138,-4.000000,-4.000000,6.000000,-3.000000,-6.000000,11.000000,0.000000,3.000000
1296073.250167,-1.000000,-6.000000,-3.000000,0.000000,0.000000,-16.000000,-2.000000,-2.000000
1296073.251552,0.000000,2.000000,1.000000,5.000000,0.000000,17.000000,-3.000000,-1.000000
1296073.251580,5.000000,3.000000,3.000000,-3.000000,0.000000,7.000000,8.000000,5.000000
1296073.252889,-2.000000,-1.000000,-2.000000,0.000000,0.000000,-1.000000,-3.000000,0.000000
1296073.252914,-1.000000,-3.000000,0.000000,-11.000000,3.000000,-7.000000,-4.000000,-2.000000
1296073.256765,-4.000000,-3.000000,1.000000,3.000000,-4.000000,-20.000000,3.000000,-1.000000
1296073.256791,2.000000,-1.000000,1.000000,-5.000000,6.000000,18.000000,-3.000000,-6.000000
1296073.263046,-1.000000,1.000000,-3.000000,1.000000,-9.000000,-3.000000,0.000000,1.000000
1296073.263073,-2.000000,5.000000,-2.000000,-5.000000,8.000000,-4.000000,-5.000000,-2.000000
1296073.287319,-1.000000,-8.000000,-3.000000,0.000000,-5.000000,2.000000,1.000000,-3.000000
1296073.287346,1.000000,2.000000,1.000000,-4.000000,-2.000000,11.000000,-4.000000,3.000000
1296073.287476,-3.000000,1.000000,1.000000,-4.000000,1.000000,1.000000,5.000000,0.000000
1296073.287516,-4.000000,1.000000,-1.000000,-6.000000,-2.000000,-11.000000,-3.000000,-3.000000
1296073.294413,5.000000,3.000000,3.000000,-2.000000,0.000000,-11.000000,0.000000,-6.000000
1296073.294452,-1.000000,-1.000000,-3.000000,-3.000000,-3.000000,3.000000,4.000000,-4.000000
1296073.323233,-2.000000,-6.000000,-7.000000,1.000000,3.000000,-1.000000,-5.000000,-1.000000
1296073.323264,3.000000,2.000000,-7.000000,-6.000000,0.000000,6.000000,-2.000000,-5.000000
1296073.338154,0.000000,1.000000,4.000000,-10.000000,-1.000000,-10.000000,-2.000000,-1.000000
1296073.338183,1.000000,3.000000,-5.000000,-5.000000,1.000000,9.000000,2.000000,-3.000000
1296073.368696,-3.000000,-1.000000,-4.000000,-3.000000,-4.000000,-4.000000,1.000000,0.000000
1296073.369288,0.000000,-2.000000,0.000000,2.000000,1.000000,-12.000000,-5.000000,1.000000
1296073.370506,4.000000,8.000000,1.000000,-12.000000,-5.000000,10.000000,2.000000,1.000000
1296073.370548,-1.000000,-5.000000,3.000000,-8.000000,-4.000000,-5.000000,-1.000000,-5.000000
1296073.371845,1.000000,4.000000,0.000000,2.000000,0.000000,-4.000000,0.000000,-3.000000
1296073.371896,-4.000000,1.000000,2.000000,-4.000000,-3.000000,-12.000000,1.000000,4.000000
1296073.373282,-2.000000,0.000000,0.000000,-5.000000,3.000000,1.000000,-2.000000,-4.000000
1296073.373309,4.000000,-2.000000,-2.000000,-7.000000,0.000000,-3.000000,-3.000000,2.000000
1296073.373513,-2.000000,3.000000,2.000000,-5.000000,-3.000000,2.000000,-1.000000,2.000000
1296073.373561,-2.000000,-6.000000,-2.000000,0.000000,-2.000000,-19.000000,-3.000000,-2.000000
1296073.405709,5.000000,-1.000000,2.000000,1.000000,-5.000000,5.000000,4.000000,-4.000000
1296073.405752,4.000000,-1.000000,7.000000,3.000000,0.000000,17.000000,7.000000,5.000000
1296073.407943,2.000000,-9.000000,-6.000000,-1.000000,2.000000,1.000000,1.000000,-2.000000
1296073.407971,-3.000000,0.000000,1.000000,0.000000,2.000000,-13.000000,-1.000000,-1.000000
1296073.408119,-3.000000,1.000000,-5.000000,4.000000,0.000000,-9.000000,-6.000000,2.000000
1296073.408162,0.000000,-2.000000,-2.000000,2.000000,-4.000000,3.000000,-1.000000,-5.000000
1296073.408618,2.000000,1.000000,1.000000,-1.000000,0.000000,19.000000,-2.000000,0.000000
1296073.408671,3.000000,0.000000,-10.000000,-5.000000,-3.000000,-12.000000,0.000000,-1.000000
1296073.413880,-1.000000,-3.000000,-2.000000,-2.000000,-10.000000,-2.000000,0.000000,2.000000
1296073.413906,-1.000000,-6.000000,-3.000000,7.000000,3.000000,-5.000000,1.000000,0.000000
1296073.428171,-6.000000,4.000000,-2.000000,4.000000,8.000000,12.000000,2.000000,-1.000000
1296073.428230,1.000000,2.000000,4.000000,-3.000000,-7.000000,-12.000000,-10.000000,2.000000
1296073.450891,-1.000000,0.000000,1.000000,-7.000000,-1.000000,-1.000000,-2.000000,-2.000000
1296073.450938,-3.000000,-5.000000,-3.000000,-3.000000,6.000000,0.000000,-2.000000,-1.000000
1296073.458150,-3.000000,0.000000,-5.000000,2.000000,-3.000000,-5.000000,-2.000000,0.000000
1296073.458179,0.000000,6.000000,-8.000000,4.000000,10.000000,2.000000,3.000000,0.000000
1296073.473195,-1.000000,-1.000000,-5.000000,-3.000000,4.000000,-3.000000,0.000000,-2.000000
1296073.473255,1.000000,1.000000,-4.000000,0.000000,-4.000000,-3.000000,-8.000000,1.000000
1296073.487978,-1.000000,2.000000,-3.000000,-1.000000,5.000000,1.000000,-2.000000,-3.000000
1296073.488002,-3.000000,-5.000000,3.000000,-5.000000,-2.000000,7.000000,-6.000000,-4.000000
1296073.489606,-1.000000,3.000000,0.000000,-1.000000,-3.000000,-3.000000,6.000000,1.000000
1296073.489635,-3.000000,-1.000000,-2.000000,-3.000000,7.000000,-1.000000,-1.000000,-3.000000
1296073.490461,-1.000000,1.000000,1.000000,3.000000,1.000000,-4.000000,0.000000,-1.000000
1296073.490487,-4.000000,0.000000,0.000000,-2.000000,-4.000000,-17.000000,1.000000,-1.000000
1296073.496232,-3.000000,-4.000000,-6.000000,-5.000000,-5.000000,22.000000,3.000000,-5.000000
1296073.496258,2.000000,4.000000,-9.000000,-1.000000,1.000000,2.000000,1.000000,0.000000
1296073.503387,5.000000,-9.000000,5.000000,1.000000,-2.000000,-21.000000,-2.000000,-3.000000
1296073.503419,-2.000000,-2.000000,-3.000000,5.000000,-1.000000,17.000000,-2.000000,0.000000
1296073.525617,4.000000,0.000000,2.000000,-3.000000,8.000000,-6.000000,2.000000,-2.000000
1296073.525668,0.000000,-5.000000,0.000000,0.000000,-5.000000,2.000000,-2.000000,-2.000000
1296073.526750,-1.000000,-1.000000,3.000000,5.000000,-5.000000,2.000000,2.000000,-3.000000
1296073.526774,0.000000,2.000000,-5.000000,4.000000,4.000000,4.000000,-6.000000,0.000000
1296073.541052,-6.000000,1.000000,-4.000000,0.000000,0.000000,-1.000000,2.000000,1.000000
1296073.541080,3.000000,-2.000000,-5.000000,-5.000000,-6.000000,5.000000,0.000000,1.000000
1296073.556012,-5.000000,-3.000000,-2.000000,-3.000000,4.000000,-5.000000,-5.000000,-2.000000
1296073.556043,-1.000000,-1.000000,-2.000000,-5.000000,-2.000000,-6.000000,-6.000000,-2.000000
1296073.571034,-4.000000,-6.000000,-2.000000,2.000000,2.000000,4.000000,3.000000,-4.000000
1296073.571066,-2.000000,-3.000000,-3.000000,8.000000,5.000000,-6.000000,0.000000,-6.000000
1296073.578534,7.000000,3.000000,-4.000000,3.000000,6.000000,6.000000,-4.000000,-1.000000
1296073.578588,-4.000000,-1.000000,-6.000000,-2.000000,-1.000000,6.000000,5.000000,-4.000000
1296073.609075,3.000000,-5.000000,-2.000000,-3.000000,1.000000,-9.000000,0.000000,0.000000
1296073.609101,2.000000,-10.000000,4.000000,4.000000,-4.000000,-2.000000,0.000000,2.000000
1296073.610609,-2.000000,2.000000,0.000000,2.000000,-1.000000,-2.000000,-3.000000,-4.000000
1296073.610638,1.000000,-6.000000,-9.000000,-5.000000,4.000000,12.000000,0.000000,-2.000000
1296073.611547,0.000000,1.000000,1.000000,0.000000,-5.000000,-10.000000,1.000000,1.000000
1296073.611575,-7.000000,1.000000,1.000000,2.000000,2.000000,-6.000000,0.000000,0.000000
1296073.612380,-1.000000,-5.000000,0.000000,3.000000,1.000000,-2.000000,-1.000000,0.000000
1296073.612407,0.000000,1.000000,0.000000,-4.000000,2.000000,-3.000000,-5.000000,4.000000
1296073.616623,-2.000000,-3.000000,-3.000000,-6.000000,0.000000,0.000000,0.000000,-1.000000
1296073.616654,0.000000,-6.000000,-8.000000,0.000000,-4.000000,4.000000,-1.000000,2.000000
1296073.630782,-2.000000,-2.000000,-5.000000,-2.000000,0.000000,-2.000000,1.000000,-9.000000
1296073.630811,1.000000,-5.000000,2.000000,-2.000000,-4.000000,23.000000,-1.000000,-1.000000
1296073.646345,-6.000000,-5.000000,3.000000,5.000000,-2.000000,-8.000000,0.000000,2.000000
1296073.646375,1.000000,3.000000,-9.000000,-5.000000,-5.000000,-4.000000,1.000000,-1.000000
1296073.646519,0.000000,-6.000000,4.000000,3.000000,3.000000,-12.000000,3.000000,2.000000
1296073.646535,-4.000000,-8.000000,-8.000000,-2.000000,1.000000,21.000000,1.000000,-5.000000
1296073.690737,-4.000000,-2.000000,-7.000000,0.000000,4.000000,-10.000000,-1.000000,0.000000
1296073.690766,4.000000,-1.000000,-9.000000,0.000000,0.000000,-10.000000,-7.000000,1.000000
1296073.698071,-1.000000,-3.000000,4.000000,-1.000000,2.000000,11.000000,1.000000,1.000000
1296073.698115,1.000000,0.000000,-4.000000,-3.000000,-7.000000,-12.000000,0.000000,0.000000
1296073.728199,-2.000000,2.000000,6.000000,4.000000,0.000000,-2.000000,-3.000000,-4.000000
1296073.728238,-4.000000,-6.000000,-5.000000,-8.000000,3.000000,3.000000,-2.000000,-1.000000
1296073.735937,0.000000,-7.000000,-9.000000,2.000000,-1.000000,5.000000,2.000000,6.000000
1296073.735967,-2.000000,-1.000000,-7.000000,1.000000,0.000000,-19.000000,-1.000000,-1.000000
1296073.765616,-2.000000,2.000000,-2.000000,-5.000000,2.000000,13.000000,0.000000,-3.000000
1296073.765658,-3.000000,2.000000,2.000000,-2.000000,-1.000000,1.000000,3.000000,-3.000000
1296073.773131,-3.000000,-3.000000,2.000000,-3.000000,4.000000,-5.000000,-7.000000,0.000000
1296073.773160,-3.000000,-1.000000,4.000000,-6.000000,-10.000000,16.000000,1.000000,-1.000000
1296073.810672,0.000000,2.000000,-4.000000,-7.000000,-5.000000,5.000000,0.000000,1.000000
1296073.810699,1.000000,-4.000000,-1.000000,-2.000000,-2.000000,0.000000,-3.000000,1.000000
1296073.833273,1.000000,3.000000,1.000000,-7.000000,-5.000000,-10.000000,-2.000000,-5.000000
1296073.833332,1.000000,1.000000,7.000000,-4.000000,1.000000,6.000000,-1.000000,2.000000
1296073.848409,1.000000,-1.000000,-3.000000,6.000000,-5.000000,-2.000000,-3.000000,1.000000
1296073.848445,-2.000000,-1.000000,2.000000,-1.000000,1.000000,-11.000000,-3.000000,-5.000000
1296073.849596,-2.000000,-6.000000,-1.000000,-5.000000,-2.000000,16.000000,-1.000000,1.000000
1296073.849717,-4.000000,1.000000,-6.000000,5.000000,5.000000,-10.000000,-4.000000,1.000000
1296073.852116,-1.000000,1.000000,-2.000000,-3.000000,-1.000000,-4.000000,-3.000000,-1.000000
1296073.852142,-1.000000,-8.000000,-14.000000,-7.000000,-1.000000,9.000000,-1.000000,-7.000000
1296073.856436,1.000000,5.000000,-3.000000,3.000000,0.000000,-2.000000,2.000000,-3.000000
1296073.856574,4.000000,0.000000,-5.000000,1.000000,-1.000000,-2.000000,2.000000,-4.000000
1296073.870341,-7.000000,-2.000000,1.000000,0.000000,1.000000,-6.000000,1.000000,1.000000
1296073.870367,-2.000000,0.000000,-6.000000,0.000000,-8.000000,5.000000,-3.000000,-4.000000
1296073.886912,0.000000,2.000000,-4.000000,-4.000000,-3.000000,6.000000,3.000000,-1.000000
1296073.886948,3.000000,-7.000000,2.000000,3.000000,-1.000000,-9.000000,-5.000000,3.000000
1296073.887369,-6.000000,2.000000,1.000000,1.000000,5.000000,2.000000,-3.000000,1.000000
1296073.887394,-6.000000,0.000000,-3.000000,-1.000000,-10.000000,-23.000000,-4.000000,5.000000
1296073.930857,5.000000,6.000000,-3.000000,-4.000000,-2.000000,18.000000,-3.000000,-1.000000
1296073.930882,-1.000000,-1.000000,-2.000000,1.000000,3.000000,11.000000,1.000000,5.000000
1296073.961527,-5.000000,-1.000000,-1.000000,-1.000000,-4.000000,-19.000000,-1.000000,-1.000000
1296073.961771,1.000000,-6.000000,2.000000,-9.000000,-1.000000,-1.000000,2.000000,-5.000000
1296073.963344,-2.000000,-3.000000,-4.000000,3.000000,-6.000000,1.000000,-1.000000,-1.000000
1296073.963376,-3.000000,1.000000,-4.000000,-1.000000,4.000000,2.000000,4.000000,-1.000000
1296073.963537,1.000000,-1.000000,2.000000,-7.000000,-2.000000,-10.000000,0.000000,-2.000000
1296073.963581,0.000000,-2.000000,-2.000000,1.000000,2.000000,1.000000,0.000000,1.000000
1296073.964530,2.000000,5.000000,-1.000000,10.000000,-3.000000,-6.000000,-3.000000,-2.000000
1296073.964555,-7.000000,1.000000,-3.000000,-3.000000,2.000000,1.000000,2.000000,-1.000000
1296073.967936,2.000000,0.000000,0.000000,3.000000,0.000000,-5.000000,0.000000,0.000000
1296073.967963,-4.000000,-2.000000,-4.000000,-5.000000,2.000000,-29.000000,0.000000,-2.000000
1296073.976130,-3.000000,-4.000000,1.000000,-4.000000,6.000000,29.000000,1.000000,-2.000000
1296073.976158,-1.000000,3.000000,4.000000,-4.000000,-1.000000,-14.000000,1.000000,-3.000000
1296073.998463,1.000000,-11.000000,-2.000000,-2.000000,1.000000,-4.000000,-1.000000,-5.000000
1296073.998499,-2.000000,4.000000,-4.000000,-2.000000,-4.000000,-15.000000,-1.000000,1.000000
1296073.999372,-1.000000,-1.000000,3.000000,1.000000,-2.000000,15.000000,0.000000,-4.000000
1296073.999391,2.000000,0.000000,-4.000000,6.000000,-4.000000,-5.000000,-3.000000,-3.000000
1296074.005737,-5.000000,1.000000,-5.000000,-1.000000,2.000000,8.000000,-3.000000,2.000000
1296074.005763,2.000000,-3.000000,-2.000000,-7.000000,6.000000,-4.000000,3.000000,2.000000
1296074.020665,2.000000,4.000000,-6.000000,-2.000000,-4.000000,-2.000000,0.000000,-1.000000
1296074.020692,-1.000000,-2.000000,1.000000,-7.000000,-2.000000,1.000000,-2.000000,0.000000
1296074.035578,0.000000,-1.000000,-8.000000,3.000000,3.000000,-5.000000,0.000000,-3.000000
1296074.035604,-4.000000,-2.000000,2.000000,-2.000000,1.000000,6.000000,-1.000000,1.000000
1296074.050329,-3.000000,-3.000000,2.000000,-2.000000,-1.000000,-12.000000,1.000000,-3.000000
1296074.050356,-3.000000,5.000000,-1.000000,0.000000,-1.000000,21.000000,4.000000,-3.000000
1296074.058161,-3.000000,-5.000000,8.000000,-4.000000,1.000000,-17.000000,-7.000000,0.000000
1296074.058223,1.000000,-4.000000,-2.000000,-6.000000,-1.000000,7.000000,-1.000000,-1.000000
1296074.074497,-3.000000,3.000000,-7.000000,-1.000000,2.000000,-5.000000,0.000000,-1.000000
1296074.074554,-9.000000,-2.000000,-3.000000,-5.000000,-5.000000,0.000000,0.000000,0.000000
1296074.075221,4.000000,3.000000,1.000000,1.000000,5.000000,5.000000,1.000000,-3.000000
1296074.075252,-7.000000,-6.000000,4.000000,-7.000000,-3.000000,-13.000000,-8.000000,1.000000
1296074.080426,1.000000,-2.000000,0.000000,-3.000000,1.000000,1.000000,-1.000000,-5.000000
1296074.080451,1.000000,-5.000000,-5.000000,0.000000,-4.000000,-8.000000,-1.000000,-1.000000
1296074.088135,-1.000000,-3.000000,-2.000000,-8.000000,7.000000,13.000000,1.000000,-1.000000
1296074.088164,1.000000,0.000000,2.000000,-1.000000,-5.000000,-5.000000,0.000000,-2.000000
1296074.096313,3.000000,4.000000,4.000000,-7.000000,-2.000000,-6.000000,-2.000000,-4.000000
1296074.096337,0.000000,-2.000000,-10.000000,-5.000000,-3.000000,-6.000000,-5.000000,-1.000000
1296074.118111,5.000000,2.000000,-6.000000,-4.000000,-5.000000,9.000000,2.000000,1.000000
1296074.118136,-1.000000,-1.000000,0.000000,4.000000,0.000000,-25.000000,-3.000000,3.000000
1296074.119581,6.000000,2.000000,-4.000000,-2.000000,-2.000000,11.000000,-1.000000,-2.000000
1296074.119627,-1.000000,4.000000,-3.000000,-3.000000,-5.000000,-7.000000,4.000000,-3.000000
1296074.125399,-5.000000,-1.000000,-1.000000,0.000000,5.000000,1.000000,-3.000000,1.000000
1296074.125438,0.000000,-2.000000,0.000000,-1.000000,-4.000000,0.000000,-4.000000,2.000000
1296074.155641,-2.000000,0.000000,3.000000,-5.000000,-2.000000,-3.000000,-3.000000,-1.000000
1296074.155698,-4.000000,-2.000000,-5.000000,-5.000000,-2.000000,-17.000000,-1.000000,-4.000000
1296074.163088,1.000000,2.000000,3.000000,-3.000000,1.000000,32.000000,-2.000000,-3.000000
1296074.163140,-2.000000,-4.000000,2.000000,-4.000000,-2.000000,-23.000000,-3.000000,4.000000
1296074.201629,-2.000000,-1.000000,-1.000000,-1.000000,-1.000000,8.000000,2.000000,-4.000000
1296074.201762,-4.000000,1.000000,3.000000,2.000000,-3.000000,0.000000,3.000000,0.000000
1296074.202500,0.000000,-5.000000,-4.000000,2.000000,0.000000,2.000000,0.000000,1.000000
1296074.203164,-4.000000,-2.000000,-8.000000,1.000000,-2.000000,-6.000000,-3.000000,2.000000
1296074.203832,2.000000,2.000000,-5.000000,-3.000000,-2.000000,-2.000000,-4.000000,0.000000
1296074.203855,0.000000,3.000000,3.000000,-1.000000,-2.000000,-6.000000,-2.000000,-5.000000
1296074.203963,-4.000000,-7.000000,-1.000000,-3.000000,-1.000000,-10.000000,-2.000000,-2.000000
1296074.203979,-5.000000,0.000000,-8.000000,-1.000000,1.000000,26.000000,6.000000,-3.000000
1296074.205107,-2.000000,0.000000,-3.000000,-4.000000,1.000000,2.000000,4.000000,2.000000
1296074.205131,0.000000,-4.000000,-4.000000,-6.000000,-5.000000,-8.000000,-5.000000,-1.000000
1296074.207974,4.000000,-6.000000,-9.000000,5.000000,-3.000000,1.000000,-4.000000,-4.000000
1296074.207998,0.000000,-6.000000,2.000000,-2.000000,-5.000000,-3.000000,1.000000,-2.000000
1296074.238618,-3.000000,4.000000,3.000000,-2.000000,-1.000000,-5.000000,-6.000000,0.000000
1296074.238642,-1.000000,-6.000000,-2.000000,2.000000,-5.000000,13.000000,3.000000,-3.000000
1296074.239726,1.000000,0.000000,-5.000000,-3.000000,2.000000,-7.000000,0.000000,-6.000000
1296074.239750,1.000000,-1.000000,0.000000,3.000000,-3.000000,-20.000000,-3.000000,-6.000000
1296074.240793,-1.000000,0.000000,4.000000,-3.000000,-1.000000,18.000000,3.000000,1.000000
1296074.240818,2.000000,-3.000000,-2.000000,-4.000000,-5.000000,-13.000000,6.000000,-1.000000
1296074.245627,-3.000000,1.000000,-8.000000,-6.000000,0.000000,-9.000000,3.000000,4.000000
1296074.245704,-1.000000,-3.000000,3.000000,-1.000000,-1.000000,21.000000,2.000000,1.000000
1296074.260378,-2.000000,5.000000,-5.000000,-1.000000,-3.000000,-10.000000,-3.000000,2.000000
1296074.260403,0.000000,-4.000000,2.000000,-7.000000,-1.000000,0.000000,-2.000000,-1.000000
1296074.267994,2.000000,0.000000,-3.000000,1.000000,5.000000,-6.000000,2.000000,-4.000000
1296074.268020,3.000000,-10.000000,-4.000000,-5.000000,3.000000,3.000000,-2.000000,-1.000000
1296074.283058,-4.000000,-7.000000,-4.000000,-6.000000,-5.000000,5.000000,0.000000,4.000000
1296074.283107,0.000000,-2.000000,-2.000000,0.000000,1.000000,-15.000000,-7.000000,-2.000000
1296074.298626,-4.000000,0.000000,0.000000,-5.000000,-5.000000,16.000000,-1.000000,-5.000000
1296074.298774,-1.000000,1.000000,-3.000000,-3.000000,-2.000000,-10.000000,4.000000,-3.000000
1296074.329108,-2.000000,0.000000,-11.000000,-1.000000,2.000000,3.000000,-4.000000,-3.000000
1296074.329158,0.000000,-6.000000,2.000000,-1.000000,0.000000,-6.000000,0.000000,-5.000000
1296074.330653,-3.000000,-7.000000,-6.000000,-1.000000,-1.000000,-3.000000,1.000000,-6.000000
1296074.330713,1.000000,0.000000,5.000000,2.000000,4.000000,-11.000000,-3.000000,2.000000
1296074.332268,-1.000000,-6.000000,6.000000,-6.000000,-3.000000,9.000000,2.000000,0.000000
1296074.332312,-9.000000,-2.000000,-2.000000,-5.000000,0.000000,-10.000000,-5.000000,-6.000000
1296074.332567,-2.000000,2.000000,1.000000,1.000000,0.000000,-1.000000,-2.000000,-4.000000
1296074.332606,0.000000,3.000000,-6.000000,-4.000000,0.000000,-6.000000,-2.000000,0.000000
1296074.336287,-3.000000,3.000000,2.000000,-3.000000,-1.000000,-5.000000,-2.000000,-3.000000
1296074.336311,-4.000000,-5.000000,-1.000000,-1.000000,2.000000,7.000000,2.000000,-3.000000
1296074.358464,1.000000,1.000000,2.000000,4.000000,-2.000000,-7.000000,2.000000,2.000000
1296074.358494,3.000000,0.000000,0.000000,-1.000000,-5.000000,5.000000,-5.000000,-2.000000
1296074.373328,-2.000000,-3.000000,-4.000000,1.000000,2.000000,-2.000000,2.000000,-4.000000
1296074.373379,-2.000000,-1.000000,-6.000000,0.000000,-3.000000,-4.000000,-9.000000,2.000000
1296074.395726,-1.000000,-7.000000,-2.000000,-1.000000,0.000000,-3.000000,-3.000000,-1.000000
1296074.395754,-3.000000,-1.000000,0.000000,-2.000000,-1.000000,-4.000000,0.000000,-3.000000
1296074.410478,-2.000000,-8.000000,-2.000000,6.000000,-3.000000,1.000000,0.000000,0.000000
1296074.410511,-2.000000,-1.000000,-4.000000,-3.000000,5.000000,-7.000000,4.000000,-5.000000
1296074.433237,-1.000000,-1.000000,-1.000000,2.000000,0.000000,18.000000,4.000000,3.000000
1296074.433267,1.000000,0.000000,-2.000000,-1.000000,0.000000,-6.000000,-1.000000,-1.000000
1296074.448012,-2.000000,2.000000,-3.000000,-4.000000,6.000000,-2.000000,0.000000,1.000000
1296074.448040,2.000000,1.000000,-5.000000,1.000000,-2.000000,-2.000000,-2.000000,0.000000
1296074.478330,-1.000000,-7.000000,-1.000000,-3.000000,-3.000000,-17.000000,3.000000,-2.000000
1296074.478389,5.000000,2.000000,4.000000,0.000000,8.000000,22.000000,-3.000000,-1.000000
1296074.515837,2.000000,-3.000000,-4.000000,2.000000,-9.000000,-30.000000,0.000000,4.000000
1296074.515867,-5.000000,2.000000,-2.000000,2.000000,-1.000000,33.000000,-3.000000,-4.000000
1296074.530609,3.000000,0.000000,-2.000000,-1.000000,-1.000000,-20.000000,-2.000000,0.000000
1296074.530637,1.000000,-5.000000,3.000000,-2.000000,-2.000000,0.000000,1.000000,2.000000
1296074.553139,-4.000000,3.000000,-3.000000,0.000000,-3.000000,6.000000,-3.000000,0.000000
1296074.553166,-3.000000,-7.000000,-3.000000,1.000000,-1.000000,4.000000,-4.000000,-2.000000
1296074.561592,-4.000000,1.000000,-8.000000,0.000000,2.000000,-1.000000,-3.000000,-2.000000
1296074.561654,6.000000,-4.000000,-2.000000,-1.000000,-4.000000,12.000000,5.000000,2.000000
1296074.563218,-1.000000,3.000000,2.000000,1.000000,-7.000000,-8.000000,-4.000000,-2.000000
1296074.563285,0.000000,-2.000000,4.000000,7.000000,-2.000000,1.000000,-1.000000,-3.000000
1296074.564853,6.000000,3.000000,1.000000,6.000000,1.000000,6.000000,5.000000,1.000000
1296074.564885,0.000000,-1.000000,2.000000,-1.000000,-8.000000,-7.000000,1.000000,1.000000
1296074.568488,-11.000000,-3.000000,-2.000000,-7.000000,3.000000,-7.000000,0.000000,-1.000000
1296074.568518,1.000000,7.000000,0.000000,4.000000,3.000000,6.000000,2.000000,-4.000000
1296074.583302,-2.000000,1.000000,-2.000000,1.000000,-8.000000,-2.000000,0.000000,1.000000
1296074.583419,2.000000,-1.000000,-1.000000,-3.000000,0.000000,3.000000,-2.000000,-1.000000
1296074.598198,-5.000000,-1.000000,-5.000000,5.000000,-2.000000,-18.000000,-2.000000,1.000000
1296074.598225,1.000000,2.000000,2.000000,1.000000,-1.000000,21.000000,-2.000000,-2.000000
1296074.628370,2.000000,-2.000000,5.000000,0.000000,3.000000,2.000000,0.000000,1.000000
1296074.628398,-1.000000,0.000000,-7.000000,3.000000,-1.000000,-14.000000,0.000000,0.000000
1296074.635856,-8.000000,-5.000000,-4.000000,0.000000,-1.000000,4.000000,3.000000,-3.000000
1296074.635884,-4.000000,0.000000,-2.000000,-4.000000,-1.000000,-4.000000,0.000000,1.000000
1296074.650965,-1.000000,5.000000,2.000000,6.000000,5.000000,-5.000000,-1.000000,1.000000
1296074.651014,0.000000,-3.000000,-7.000000,2.000000,-2.000000,8.000000,-4.000000,0.000000
1296074.672644,3.000000,4.000000,3.000000,1.000000,-2.000000,3.000000,2.000000,-2.000000
1296074.672663,3.000000,-2.000000,-1.000000,-8.000000,4.000000,-5.000000,-5.000000,3.000000
1296074.687931,-1.000000,-2.000000,0.000000,9.000000,-6.000000,-9.000000,-2.000000,-5.000000
1296074.687965,-4.000000,0.000000,0.000000,-1.000000,-3.000000,-5.000000,1.000000,-7.000000
1296074.702201,-5.000000,1.000000,1.000000,0.000000,7.000000,6.000000,8.000000,-1.000000
1296074.702211,1.000000,0.000000,-4.000000,-1.000000,-1.000000,0.000000,-1.000000,-1.000000
1296074.724847,-3.000000,1.000000,-5.000000,-4.000000,3.000000,-8.000000,-3.000000,-3.000000
1296074.724876,-3.000000,2.000000,-2.000000,0.000000,-1.000000,1.000000,0.000000,3.000000
1296074.754875,-5.000000,-1.000000,-3.000000,-5.000000,-3.000000,-1.000000,-1.000000,-1.000000
1296074.754904,-1.000000,-5.000000,-3.000000,0.000000,3.000000,3.000000,0.000000,-1.000000
1296074.762369,-2.000000,0.000000,1.000000,-6.000000,0.000000,3.000000,1.000000,1.000000
1296074.762394,-1.000000,2.000000,0.000000,-6.000000,1.000000,1.000000,0.000000,4.000000
1296074.792783,-3.000000,-6.000000,-3.000000,2.000000,-2.000000,-3.000000,-7.000000,1.000000
1296074.792811,0.000000,1.000000,-3.000000,-5.000000,3.000000,6.000000,5.000000,2.000000
1296074.793379,-3.000000,3.000000,1.000000,2.000000,-7.000000,-2.000000,-1.000000,2.000000
1296074.793393,-4.000000,-1.000000,-1.000000,2.000000,1.000000,-5.000000,-3.000000,-7.000000
1296074.794620,-2.000000,6.000000,-2.000000,0.000000,-5.000000,5.000000,2.000000,0.000000
1296074.794629,2.000000,3.000000,-3.000000,6.000000,-1.000000,-9.000000,0.000000,2.000000
1296074.795224,-2.000000,-8.000000,0.000000,-4.000000,2.000000,-17.000000,-7.000000,0.000000
1296074.795256,1.000000,5.000000,5.000000,-4.000000,-7.000000,-10.000000,2.000000,-6.000000
1296074.796078,-1.000000,-9.000000,2.000000,3.000000,-1.000000,-1.000000,3.000000,-1.000000
1296074.796106,-1.000000,2.000000,-1.000000,1.000000,6.000000,0.000000,-6.000000,2.000000
1296074.799666,-6.000000,3.000000,2.000000,6.000000,-3.000000,-6.000000,-4.000000,-1.000000
1296074.799675,-1.000000,-3.000000,4.000000,0.000000,-3.000000,-4.000000,-5.000000,-1.000000
1296074.807213,-5.000000,-4.000000,-3.000000,0.000000,11.000000,-2.000000,4.000000,-2.000000
1296074.807245,2.000000,-2.000000,2.000000,-1.000000,-2.000000,2.000000,1.000000,-1.000000
1296074.829475,0.000000,-2.000000,-10.000000,-6.000000,-5.000000,0.000000,-6.000000,-3.000000
1296074.829484,2.000000,0.000000,0.000000,-3.000000,-8.000000,-3.000000,-2.000000,-5.000000
1296074.830272,-4.000000,-1.000000,5.000000,-5.000000,5.000000,-4.000000,-1.000000,-6.000000
1296074.830280,-4.000000,4.000000,1.000000,4.000000,-1.000000,18.000000,-1.000000,2.000000
1296074.844548,4.000000,-3.000000,-6.000000,1.000000,0.000000,-11.000000,4.000000,4.000000
1296074.844576,-6.000000,0.000000,-3.000000,1.000000,-5.000000,-14.000000,-1.000000,-2.000000
1296074.852301,-1.000000,1.000000,-3.000000,-1.000000,-1.000000,23.000000,-5.000000,2.000000
1296074.852329,1.000000,-1.000000,1.000000,0.000000,-4.000000,-38.000000,-4.000000,-2.000000
1296074.881961,-1.000000,-4.000000,-5.000000,4.000000,4.000000,57.000000,1.000000,-1.000000
1296074.881970,-1.000000,-2.000000,0.000000,-1.000000,-6.000000,-9.000000,-2.000000,3.000000
1296074.912288,2.000000,-1.000000,-2.000000,0.000000,0.000000,-4.000000,-2.000000,-2.000000
1296074.912303,-4.000000,-5.000000,1.000000,-6.000000,-10.000000,-4.000000,-1.000000,-4.000000
1296074.913300,-3.000000,-2.000000,0.000000,0.000000,10.000000,-4.000000,-4.000000,1.000000
1296074.913350,-4.000000,-1.000000,-3.000000,3.000000,-5.000000,-4.000000,2.000000,0.000000
1296074.914022,0.000000,1.000000,-8.000000,-1.000000,4.000000,4.000000,1.000000,0.000000
1296074.914033,0.000000,-1.000000,-7.000000,3.000000,-3.000000,-1.000000,-2.000000,-6.000000
1296074.915170,-2.000000,-3.000000,3.000000,-1.000000,-3.000000,-2.000000,1.000000,-3.000000
1296074.915198,0.000000,-1.000000,-2.000000,5.000000,-1.000000,-1.000000,0.000000,1.000000
1296074.916267,-6.000000,-2.000000,-9.000000,-4.000000,0.000000,1.000000,3.000000,-4.000000
1296074.916275,-3.000000,1.000000,-4.000000,-4.000000,3.000000,-27.000000,-2.000000,-1.000000
1296074.919700,-3.000000,0.000000,-1.000000,0.000000,3.000000,28.000000,-7.000000,-4.000000
1296074.919727,5.000000,-1.000000,1.000000,-3.000000,-1.000000,0.000000,12.000000,2.000000
1296074.926970,2.000000,0.000000,1.000000,-5.000000,0.000000,-3.000000,-5.000000,2.000000
1296074.926978,-4.000000,-5.000000,1.000000,6.000000,3.000000,8.000000,0.000000,-7.000000
1296074.957443,-8.000000,1.000000,6.000000,0.000000,-1.000000,-7.000000,-3.000000,-3.000000
1296074.957472,-2.000000,-1.000000,1.000000,3.000000,-1.000000,-23.000000,-5.000000,1.000000
1296075.002352,4.000000,-4.000000,0.000000,-6.000000,-1.000000,13.000000,-1.000000,-10.000000
1296075.002377,-2.000000,-4.000000,-5.000000,3.000000,-3.000000,-11.000000,0.000000,3.000000
1296075.032182,-3.000000,-5.000000,1.000000,-5.000000,1.000000,8.000000,-3.000000,-3.000000
1296075.032214,3.000000,-4.000000,-3.000000,-2.000000,-1.000000,11.000000,-1.000000,3.000000
1296075.039770,-1.000000,-1.000000,1.000000,-1.000000,2.000000,-13.000000,-1.000000,-2.000000
1296075.039798,-1.000000,5.000000,1.000000,-2.000000,1.000000,-3.000000,-1.000000,3.000000
1296075.069620,-4.000000,-5.000000,5.000000,-2.000000,-2.000000,-1.000000,-4.000000,0.000000
1296075.069631,-1.000000,-2.000000,4.000000,1.000000,2.000000,-1.000000,-4.000000,2.000000
1296075.076974,6.000000,-2.000000,-4.000000,2.000000,1.000000,-4.000000,-4.000000,-1.000000
1296075.077002,0.000000,-7.000000,-6.000000,1.000000,-3.000000,0.000000,3.000000,-4.000000
1296075.077622,-3.000000,2.000000,-4.000000,5.000000,-1.000000,7.000000,-8.000000,1.000000
1296075.077649,-1.000000,-8.000000,-6.000000,-2.000000,-7.000000,-9.000000,-2.000000,-7.000000
1296075.078363,3.000000,-2.000000,0.000000,-1.000000,4.000000,-5.000000,-3.000000,2.000000
1296075.078390,2.000000,1.000000,2.000000,2.000000,1.000000,3.000000,-4.000000,-2.000000
1296075.079171,0.000000,-6.000000,2.000000,3.000000,1.000000,14.000000,0.000000,2.000000
1296075.079179,-1.000000,-1.000000,-4.000000,-3.000000,-4.000000,4.000000,2.000000,-2.000000
1296075.080651,3.000000,-2.000000,5.000000,4.000000,5.000000,-22.000000,-4.000000,-3.000000
1296075.080678,0.000000,-1.000000,-2.000000,3.000000,-7.000000,19.000000,-2.000000,-3.000000
1296075.092166,-6.000000,-4.000000,-3.000000,-1.000000,-5.000000,7.000000,0.000000,-3.000000
1296075.092204,1.000000,-6.000000,-3.000000,-2.000000,-5.000000,-5.000000,-3.000000,-1.000000
1296075.107174,-1.000000,-4.000000,5.000000,-4.000000,2.000000,-4.000000,-6.000000,-2.000000
1296075.107219,0.000000,4.000000,-7.000000,3.000000,-9.000000,8.000000,5.000000,-1.000000
1296075.107689,3.000000,-9.000000,-6.000000,0.000000,0.000000,0.000000,-1.000000,0.000000
1296075.107696,-1.000000,1.000000,3.000000,-5.000000,-6.000000,-1.000000,-3.000000,-2.000000
1296075.122140,-7.000000,3.000000,2.000000,2.000000,7.000000,8.000000,1.000000,1.000000
1296075.122150,-3.000000,-4.000000,3.000000,-3.000000,-10.000000,-9.000000,-3.000000,-8.000000
1296075.144639,-1.000000,2.000000,-1.000000,-4.000000,2.000000,3.000000,1.000000,-3.000000
1296075.144681,6.000000,-2.000000,2.000000,4.000000,-1.000000,-6.000000,-5.000000,3.000000
1296075.152625,-2.000000,-1.000000,-6.000000,4.000000,-7.000000,-1.000000,-1.000000,3.000000
1296075.152633,-2.000000,-8.000000,-1.000000,-3.000000,-1.000000,5.000000,-1.000000,2.000000
1296075.153196,-2.000000,-1.000000,-5.000000,-4.000000,1.000000,3.000000,4.000000,-3.000000
1296075.153206,6.000000,1.000000,1.000000,-5.000000,-10.000000,-20.000000,-1.000000,-2.000000
1296075.159438,0.000000,-1.000000,-7.000000,1.000000,3.000000,0.000000,-1.000000,-3.000000
1296075.159446,-4.000000,-2.000000,0.000000,-4.000000,-8.000000,32.000000,-4.000000,0.000000
1296075.167625,-1.000000,0.000000,1.000000,-2.000000,-5.000000,-13.000000,13.000000,-3.000000
1296075.167655,2.000000,1.000000,-6.000000,-1.000000,1.000000,-4.000000,-8.000000,-4.000000
1296075.189758,2.000000,4.000000,-1.000000,-4.000000,4.000000,-7.000000,-5.000000,-2.000000
1296075.189772,1.000000,-5.000000,-4.000000,-1.000000,0.000000,-16.000000,0.000000,-3.000000
1296075.197509,-3.000000,-4.000000,0.000000,2.000000,5.000000,10.000000,-3.000000,-1.000000
1296075.197569,-1.000000,2.000000,-5.000000,-2.000000,-6.000000,14.000000,1.000000,0.000000
1296075.227176,3.000000,-3.000000,-5.000000,-2.000000,4.000000,1.000000,0.000000,-3.000000
1296075.227191,-4.000000,-1.000000,-6.000000,-2.000000,-2.000000,-5.000000,-6.000000,-4.000000
1296075.242402,-4.000000,2.000000,-3.000000,-3.000000,-3.000000,1.000000,1.000000,2.000000
1296075.242429,-4.000000,-6.000000,1.000000,3.000000,-3.000000,-6.000000,-2.000000,0.000000
1296075.264568,-7.000000,-6.000000,-9.000000,4.000000,-1.000000,-5.000000,2.000000,-4.000000
1296075.264580,2.000000,-3.000000,-3.000000,2.000000,-2.000000,1.000000,2.000000,-3.000000
1296075.264987,-2.000000,7.000000,-4.000000,-1.000000,3.000000,9.000000,1.000000,4.000000
1296075.264996,1.000000,0.000000,0.000000,-2.000000,-2.000000,-1.000000,0.000000,1.000000
1296075.272716,-5.000000,1.000000,3.000000,0.000000,-6.000000,-3.000000,3.000000,-2.000000
1296075.272730,1.000000,-1.000000,-5.000000,-2.000000,5.000000,-1.000000,2.000000,0.000000
1296075.273282,-3.000000,3.000000,-2.000000,10.000000,0.000000,-6.000000,-1.000000,1.000000
1296075.273301,0.000000,3.000000,-1.000000,0.000000,-4.000000,6.000000,-4.000000,-3.000000
1296075.273845,-1.000000,-4.000000,-2.000000,-7.000000,2.000000,6.000000,-1.000000,-6.000000
1296075.273860,-2.000000,-5.000000,-5.000000,-5.000000,5.000000,-29.000000,-2.000000,-1.000000
1296075.274463,2.000000,0.000000,-2.000000,6.000000,7.000000,26.000000,-9.000000,-2.000000
1296075.274475,0.000000,-2.000000,0.000000,3.000000,-2.000000,-27.000000,-1.000000,0.000000
1296075.279922,3.000000,1.000000,2.000000,-1.000000,2.000000,7.000000,-3.000000,-4.000000
1296075.279933,3.000000,-6.000000,4.000000,0.000000,-6.000000,7.000000,2.000000,1.000000
1296075.294895,-6.000000,-4.000000,-6.000000,1.000000,-6.000000,-6.000000,3.000000,0.000000
1296075.294918,1.000000,2.000000,-7.000000,2.000000,1.000000,-17.000000,-2.000000,-5.000000
1296075.355036,0.000000,-1.000000,2.000000,-3.000000,3.000000,19.000000,2.000000,-5.000000
1296075.355055,-4.000000,-2.000000,9.000000,1.000000,4.000000,-3.000000,-3.000000,0.000000
1296075.362111,-1.000000,-2.000000,-1.000000,6.000000,-3.000000,-8.000000,-2.000000,-3.000000
1296075.362122,0.000000,-3.000000,5.000000,-9.000000,-3.000000,-2.000000,-1.000000,0.000000
1296075.385038,4.000000,-2.000000,1.000000,5.000000,0.000000,0.000000,-4.000000,2.000000
1296075.385048,-6.000000,-1.000000,0.000000,-4.000000,-2.000000,-2.000000,-3.000000,-1.000000
1296075.385828,0.000000,-3.000000,-2.000000,5.000000,-1.000000,-5.000000,-4.000000,-2.000000
1296075.385861,1.000000,1.000000,0.000000,2.000000,5.000000,1.000000,3.000000,1.000000
1296075.386900,0.000000,-2.000000,3.000000,0.000000,1.000000,-4.000000,0.000000,-2.000000
1296075.386908,-2.000000,-3.000000,0.000000,-9.000000,-2.000000,-13.000000,-5.000000,-2.000000
1296075.387858,-1.000000,1.000000,2.000000,-3.000000,0.000000,-4.000000,-4.000000,-1.000000
1296075.387879,0.000000,1.000000,-3.000000,-1.000000,-7.000000,-10.000000,5.000000,-2.000000
1296075.388618,-1.000000,-6.000000,6.000000,-5.000000,2.000000,6.000000,1.000000,0.000000
1296075.388627,1.000000,-1.000000,0.000000,-4.000000,-4.000000,-4.000000,-2.000000,1.000000
1296075.391836,-5.000000,3.000000,-8.000000,-1.000000,-4.000000,-2.000000,-1.000000,-1.000000
1296075.391844,-3.000000,-2.000000,3.000000,-6.000000,-1.000000,2.000000,-2.000000,-2.000000
1296075.399723,-2.000000,7.000000,4.000000,1.000000,0.000000,-21.000000,-4.000000,-3.000000
1296075.399733,-4.000000,-1.000000,-8.000000,1.000000,-3.000000,11.000000,1.000000,1.000000
1296075.423753,4.000000,1.000000,-6.000000,-2.000000,7.000000,-3.000000,-1.000000,-3.000000
1296075.423783,-4.000000,1.000000,0.000000,2.000000,4.000000,-1.000000,-3.000000,3.000000
1296075.438357,2.000000,0.000000,3.000000,1.000000,-1.000000,-1.000000,0.000000,2.000000
1296075.438386,-1.000000,3.000000,-4.000000,-3.000000,-2.000000,-2.000000,0.000000,-1.000000
1296075.468546,-1.000000,-3.000000,1.000000,1.000000,1.000000,2.000000,-3.000000,0.000000
1296075.468597,-1.000000,2.000000,0.000000,-6.000000,0.000000,2.000000,0.000000,-6.000000
1296075.477446,-1.000000,-4.000000,-2.000000,1.000000,1.000000,1.000000,-1.000000,3.000000
1296075.477499,-4.000000,3.000000,-1.000000,-1.000000,2.000000,8.000000,0.000000,-5.000000
1296075.478443,0.000000,0.000000,-4.000000,-8.000000,-8.000000,-9.000000,-2.000000,2.000000
1296075.478487,-2.000000,1.000000,0.000000,9.000000,3.000000,-5.000000,-8.000000,-2.000000
1296075.479225,-1.000000,6.000000,1.000000,-1.000000,-4.000000,-6.000000,0.000000,-5.000000
1296075.479262,3.000000,-2.000000,2.000000,-6.000000,-7.000000,17.000000,4.000000,3.000000
1296075.480602,-4.000000,-5.000000,-3.000000,-7.000000,5.000000,5.000000,-1.000000,-2.000000
1296075.480666,2.000000,-4.000000,-1.000000,0.000000,-6.000000,-4.000000,3.000000,-4.000000
1296075.483545,-1.000000,0.000000,-2.000000,5.000000,0.000000,0.000000,-3.000000,-3.000000
1296075.483600,-5.000000,-3.000000,1.000000,2.000000,-1.000000,-1.000000,-3.000000,0.000000
1296075.490593,3.000000,-2.000000,-8.000000,1.000000,3.000000,2.000000,1.000000,-1.000000
1296075.490621,-2.000000,7.000000,-6.000000,0.000000,5.000000,-5.000000,-4.000000,2.000000
1296075.512747,-3.000000,-8.000000,-6.000000,-6.000000,0.000000,-5.000000,-3.000000,-4.000000
1296075.512829,2.000000,1.000000,-1.000000,1.000000,-2.000000,1.000000,0.000000,1.000000
1296075.513136,4.000000,-1.000000,-4.000000,-3.000000,-1.000000,-2.000000,-2.000000,2.000000
1296075.513152,1.000000,-3.000000,-3.000000,3.000000,2.000000,-20.000000,0.000000,1.000000
1296075.520091,0.000000,-2.000000,3.000000,-4.000000,2.000000,47.000000,3.000000,-3.000000
1296075.520116,-3.000000,6.000000,-5.000000,1.000000,2.000000,-13.000000,-1.000000,-2.000000
1296075.572113,-2.000000,-3.000000,-1.000000,0.000000,-3.000000,-16.000000,-2.000000,1.000000
1296075.572124,4.000000,2.000000,0.000000,4.000000,-3.000000,3.000000,-2.000000,0.000000
1296075.595021,-2.000000,4.000000,-1.000000,-7.000000,-3.000000,-5.000000,4.000000,0.000000
1296075.595036,-2.000000,4.000000,-3.000000,-1.000000,-1.000000,8.000000,-4.000000,-2.000000
1296075.625076,-8.000000,-9.000000,0.000000,-6.000000,1.000000,-22.000000,-1.000000,3.000000
1296075.625096,-3.000000,-2.000000,-4.000000,7.000000,2.000000,21.000000,0.000000,-7.000000
1296075.625989,3.000000,-3.000000,-5.000000,0.000000,-4.000000,-12.000000,-7.000000,-3.000000
1296075.626005,-4.000000,-4.000000,-2.000000,4.000000,-2.000000,-10.000000,-3.000000,-3.000000
1296075.626707,-3.000000,-3.000000,-4.000000,-6.000000,3.000000,6.000000,-1.000000,1.000000
1296075.626724,2.000000,-5.000000,2.000000,1.000000,-4.000000,0.000000,4.000000,2.000000
1296075.627373,-1.000000,0.000000,-4.000000,-1.000000,-5.000000,-3.000000,-3.000000,-6.000000
1296075.627391,2.000000,0.000000,-5.000000,-4.000000,1.000000,7.000000,-1.000000,-3.000000
1296075.628116,0.000000,1.000000,-3.000000,5.000000,-3.000000,8.000000,3.000000,-2.000000
1296075.628131,-1.000000,-4.000000,1.000000,1.000000,3.000000,-6.000000,0.000000,-1.000000
1296075.628826,-1.000000,1.000000,-3.000000,3.000000,2.000000,-8.000000,1.000000,1.000000
1296075.628843,-3.000000,-3.000000,1.000000,-7.000000,-1.000000,10.000000,-1.000000,1.000000
1296075.632881,-5.000000,-5.000000,2.000000,2.000000,-4.000000,6.000000,1.000000,3.000000
1296075.632903,2.000000,-9.000000,3.000000,-2.000000,6.000000,8.000000,0.000000,-1.000000
1296075.647617,6.000000,-4.000000,-10.000000,1.000000,-2.000000,-12.000000,0.000000,-5.000000
1296075.647637,-1.000000,7.000000,8.000000,0.000000,-1.000000,-1.000000,-4.000000,3.000000
1296075.662846,-5.000000,-8.000000,1.000000,-8.000000,-2.000000,5.000000,1.000000,-4.000000
1296075.662866,-7.000000,-7.000000,-11.000000,-1.000000,-1.000000,-3.000000,-7.000000,-2.000000
1296075.677927,2.000000,2.000000,5.000000,1.000000,3.000000,4.000000,6.000000,-3.000000
1296075.677951,0.000000,3.000000,-2.000000,-6.000000,-3.000000,-3.000000,-6.000000,4.000000
1296075.700349,7.000000,-7.000000,2.000000,-8.000000,0.000000,-1.000000,1.000000,3.000000
1296075.700369,4.000000,-2.000000,2.000000,0.000000,-2.000000,5.000000,-3.000000,-5.000000
1296075.715296,-1.000000,-2.000000,-5.000000,7.000000,0.000000,-4.000000,-2.000000,3.000000
1296075.715316,-4.000000,0.000000,-3.000000,1.000000,-5.000000,-1.000000,-2.000000,0.000000
1296075.745075,3.000000,0.000000,2.000000,-1.000000,3.000000,-2.000000,2.000000,-3.000000
1296075.745088,-2.000000,0.000000,-4.000000,2.000000,0.000000,-8.000000,-1.000000,1.000000
1296075.759433,1.000000,2.000000,1.000000,-2.000000,-5.000000,-2.000000,0.000000,-4.000000
1296075.759445,-3.000000,0.000000,-6.000000,-8.000000,-2.000000,-1.000000,-1.000000,-7.000000
1296075.760078,-1.000000,-5.000000,0.000000,0.000000,-1.000000,-9.000000,-1.000000,2.000000
1296075.760120,-2.000000,1.000000,1.000000,4.000000,2.000000,14.000000,-1.000000,1.000000
1296075.774694,-2.000000,0.000000,5.000000,-2.000000,-7.000000,-7.000000,2.000000,0.000000
1296075.774706,-5.000000,-2.000000,-6.000000,-1.000000,0.000000,4.000000,-5.000000,2.000000
1296075.782080,2.000000,2.000000,0.000000,-1.000000,0.000000,2.000000,3.000000,-2.000000
1296075.782088,-3.000000,-1.000000,-1.000000,-1.000000,-4.000000,-10.000000,1.000000,-5.000000
1296075.789728,2.000000,-5.000000,-3.000000,4.000000,3.000000,1.000000,-3.000000,-1.000000
1296075.789757,-5.000000,0.000000,0.000000,-1.000000,-4.000000,7.000000,3.000000,-3.000000
1296075.797392,-1.000000,-1.000000,-6.000000,-3.000000,-1.000000,-6.000000,3.000000,-1.000000
1296075.797402,-1.000000,-3.000000,-4.000000,5.000000,-4.000000,-3.000000,0.000000,-4.000000
1296075.835053,-3.000000,3.000000,-6.000000,-2.000000,3.000000,-1.000000,-7.000000,0.000000
1296075.835064,-1.000000,3.000000,0.000000,0.000000,-4.000000,1.000000,-2.000000,-1.000000
1296075.835686,6.000000,-8.000000,2.000000,-2.000000,-2.000000,-9.000000,0.000000,1.000000
1296075.835696,1.000000,0.000000,-2.000000,-4.000000,0.000000,5.000000,-3.000000,0.000000
1296075.836997,-3.000000,3.000000,-1.000000,8.000000,1.000000,-3.000000,2.000000,-4.000000
1296075.837008,-2.000000,-2.000000,-4.000000,-3.000000,-9.000000,8.000000,0.000000,-1.000000
1296075.837652,-2.000000,0.000000,3.000000,-5.000000,2.000000,-3.000000,4.000000,-4.000000
1296075.837662,-5.000000,-2.000000,-9.000000,-4.000000,-2.000000,6.000000,-3.000000,-8.000000
1296075.864738,1.000000,4.000000,-8.000000,-3.000000,1.000000,-24.000000,-5.000000,-7.000000
1296075.864752,-6.000000,-2.000000,0.000000,0.000000,6.000000,11.000000,-3.000000,-4.000000
1296075.865291,2.000000,-2.000000,-2.000000,-1.000000,4.000000,14.000000,5.000000,0.000000
1296075.865302,-2.000000,-3.000000,3.000000,1.000000,-7.000000,-15.000000,-5.000000,-4.000000
1296075.866811,1.000000,-2.000000,0.000000,7.000000,7.000000,2.000000,-2.000000,-2.000000
1296075.866822,4.000000,2.000000,-5.000000,-5.000000,-8.000000,0.000000,-4.000000,-3.000000
1296075.872665,0.000000,-5.000000,-3.000000,1.000000,2.000000,-6.000000,-5.000000,-5.000000
1296075.872853,-2.000000,-6.000000,-1.000000,-5.000000,0.000000,2.000000,0.000000,-5.000000
1296075.902475,-2.000000,-4.000000,0.000000,4.000000,-2.000000,0.000000,2.000000,3.000000
1296075.902487,-3.000000,7.000000,2.000000,-6.000000,-4.000000,-6.000000,-2.000000,-3.000000
1296075.910316,-1.000000,-1.000000,-1.000000,5.000000,-7.000000,16.000000,5.000000,-5.000000
1296075.910328,-1.000000,-1.000000,-1.000000,0.000000,2.000000,-11.000000,-4.000000,0.000000
1296075.925133,-5.000000,3.000000,0.000000,-1.000000,-3.000000,8.000000,2.000000,-1.000000
1296075.925147,-1.000000,-3.000000,3.000000,-5.000000,-1.000000,-4.000000,2.000000,3.000000
1296075.939702,-5.000000,-6.000000,-3.000000,0.000000,-1.000000,-6.000000,-6.000000,-2.000000
1296075.939712,-2.000000,0.000000,-7.000000,0.000000,-7.000000,9.000000,-4.000000,-3.000000
1296075.954953,0.000000,2.000000,-2.000000,1.000000,-1.000000,-21.000000,-2.000000,-5.000000
1296075.955046,-4.000000,-1.000000,7.000000,3.000000,1.000000,-2.000000,-4.000000,2.000000
1296075.955220,-3.000000,4.000000,2.000000,-4.000000,-1.000000,2.000000,-3.000000,-1.000000
1296075.955229,3.000000,0.000000,-4.000000,-4.000000,3.000000,9.000000,8.000000,-1.000000
1296075.956298,2.000000,-7.000000,1.000000,4.000000,-2.000000,-13.000000,-9.000000,-3.000000
1296075.956308,-6.000000,6.000000,2.000000,-3.000000,7.000000,-6.000000,-3.000000,-5.000000
1296075.956951,5.000000,1.000000,-8.000000,4.000000,-6.000000,-2.000000,-2.000000,-3.000000
1296075.956961,-6.000000,-5.000000,0.000000,3.000000,-3.000000,0.000000,-2.000000,-7.000000
1296075.962706,0.000000,-2.000000,-1.000000,1.000000,5.000000,4.000000,-1.000000,0.000000
1296075.962719,-6.000000,-3.000000,-4.000000,1.000000,-1.000000,-5.000000,-5.000000,-1.000000
1296075.977316,-3.000000,4.000000,-4.000000,1.000000,-1.000000,-1.000000,2.000000,1.000000
1296075.977328,-2.000000,-5.000000,-1.000000,-4.000000,0.000000,-2.000000,-5.000000,-2.000000
1296075.992044,2.000000,-3.000000,0.000000,-5.000000,1.000000,-4.000000,2.000000,-3.000000
1296075.992054,2.000000,-1.000000,-7.000000,-4.000000,-2.000000,-8.000000,1.000000,1.000000
1296075.992399,2.000000,1.000000,0.000000,2.000000,-2.000000,11.000000,7.000000,-4.000000
1296075.992426,0.000000,4.000000,1.000000,-1.000000,3.000000,-9.000000,-5.000000,1.000000
1296076.015124,-2.000000,-1.000000,-4.000000,0.000000,4.000000,-11.000000,-3.000000,-6.000000
1296076.015139,-3.000000,2.000000,0.000000,-3.000000,-3.000000,2.000000,-4.000000,0.000000
1296076.029665,-1.000000,3.000000,-4.000000,0.000000,-2.000000,-2.000000,-3.000000,1.000000
1296076.029677,1.000000,-2.000000,-6.000000,0.000000,-1.000000,3.000000,-8.000000,-1.000000
1296076.037306,-3.000000,3.000000,-5.000000,2.000000,-6.000000,-22.000000,-2.000000,2.000000
1296076.037334,4.000000,2.000000,0.000000,-5.000000,-2.000000,11.000000,0.000000,-4.000000
1296076.060095,0.000000,-7.000000,1.000000,-5.000000,4.000000,3.000000,4.000000,-1.000000
1296076.060107,1.000000,3.000000,-3.000000,-4.000000,-7.000000,-3.000000,-5.000000,-4.000000
1296076.067258,-1.000000,2.000000,5.000000,-3.000000,1.000000,-2.000000,-1.000000,-2.000000
1296076.067270,-2.000000,-5.000000,-3.000000,-5.000000,0.000000,-26.000000,-1.000000,2.000000
1296076.081986,1.000000,2.000000,-4.000000,3.000000,4.000000,25.000000,1.000000,-2.000000
1296076.081995,-4.000000,-5.000000,0.000000,1.000000,-5.000000,-11.000000,0.000000,-3.000000
1296076.090251,-3.000000,4.000000,-3.000000,-2.000000,3.000000,1.000000,1.000000,-1.000000
1296076.090263,0.000000,0.000000,-2.000000,-2.000000,5.000000,0.000000,-1.000000,0.000000
1296076.090803,-3.000000,-7.000000,0.000000,2.000000,-2.000000,-10.000000,-4.000000,-1.000000
1296076.090813,6.000000,5.000000,-8.000000,0.000000,-6.000000,9.000000,-1.000000,-5.000000
1296076.105030,-3.000000,1.000000,-5.000000,-7.000000,2.000000,-20.000000,-1.000000,0.000000
1296076.105042,-3.000000,-2.000000,9.000000,1.000000,1.000000,19.000000,-2.000000,1.000000
1296076.105772,-3.000000,-3.000000,-3.000000,4.000000,-8.000000,-8.000000,-4.000000,-3.000000
1296076.105782,2.000000,1.000000,-5.000000,-3.000000,0.000000,-16.000000,-3.000000,1.000000
1296076.106572,-5.000000,-3.000000,2.000000,-1.000000,0.000000,17.000000,0.000000,-2.000000
1296076.106582,2.000000,5.000000,3.000000,3.000000,0.000000,-5.000000,2.000000,-1.000000
1296076.112807,-6.000000,-8.000000,-2.000000,-4.000000,1.000000,5.000000,-3.000000,-1.000000
1296076.112819,-2.000000,2.000000,0.000000,0.000000,3.000000,-7.000000,0.000000,3.000000
1296076.134912,-5.000000,1.000000,-3.000000,-2.000000,1.000000,7.000000,0.000000,1.000000
1296076.134923,-1.000000,-5.000000,-3.000000,-5.000000,-1.000000,3.000000,-2.000000,0.000000
1296076.149832,-2.000000,-4.000000,-10.000000,4.000000,-2.000000,10.000000,-2.000000,1.000000
1296076.149844,0.000000,0.000000,8.000000,-3.000000,7.000000,-12.000000,-2.000000,2.000000
1296076.179750,1.000000,1.000000,-1.000000,1.000000,-5.000000,-6.000000,-1.000000,-5.000000
1296076.179760,1.000000,1.000000,0.000000,2.000000,-5.000000,-1.000000,-3.000000,-5.000000
1296076.217482,-2.000000,-5.000000,-2.000000,-7.000000,0.000000,4.000000,-2.000000,1.000000
1296076.217492,1.000000,5.000000,-2.000000,2.000000,-5.000000,-7.000000,-3.000000,-1.000000
1296076.217864,-1.000000,1.000000,-4.000000,0.000000,3.000000,17.000000,3.000000,-5.000000
1296076.217886,-2.000000,0.000000,2.000000,-3.000000,-1.000000,-10.000000,-4.000000,-4.000000
1296076.219078,1.000000,7.000000,-6.000000,3.000000,-1.000000,-2.000000,1.000000,2.000000
1296076.219090,-2.000000,1.000000,1.000000,-2.000000,-3.000000,-6.000000,-3.000000,-2.000000
1296076.219631,-1.000000,-4.000000,2.000000,-3.000000,2.000000,2.000000,2.000000,4.000000
1296076.219648,1.000000,-11.000000,3.000000,1.000000,-3.000000,-4.000000,0.000000,-1.000000
1296076.220262,2.000000,3.000000,-5.000000,1.000000,-1.000000,-12.000000,-4.000000,-3.000000
1296076.220286,-3.000000,4.000000,-6.000000,-1.000000,0.000000,8.000000,-3.000000,0.000000
1296076.224834,2.000000,-1.000000,1.000000,3.000000,0.000000,12.000000,-1.000000,-12.000000
1296076.224845,-1.000000,-5.000000,-2.000000,-3.000000,0.000000,-5.000000,0.000000,-1.000000
1296076.254955,-1.000000,-1.000000,1.000000,-4.000000,-3.000000,4.000000,-3.000000,1.000000
1296076.254978,0.000000,-3.000000,-1.000000,5.000000,-3.000000,-7.000000,1.000000,-1.000000
1296076.262950,-5.000000,-1.000000,-3.000000,-4.000000,4.000000,7.000000,1.000000,1.000000
1296076.262972,-3.000000,1.000000,4.000000,2.000000,-2.000000,-1.000000,-3.000000,-2.000000
1296076.293247,3.000000,-3.000000,-4.000000,2.000000,-5.000000,-1.000000,2.000000,-2.000000
1296076.293277,3.000000,1.000000,-4.000000,-1.000000,5.000000,-12.000000,-2.000000,-5.000000
1296076.302979,2.000000,-1.000000,-1.000000,-10.000000,-4.000000,3.000000,-3.000000,0.000000
1296076.303011,-1.000000,-1.000000,0.000000,6.000000,0.000000,-3.000000,-4.000000,3.000000
1296076.316819,3.000000,-4.000000,-1.000000,0.000000,-6.000000,-17.000000,-4.000000,-1.000000
1296076.316883,2.000000,-1.000000,-4.000000,2.000000,3.000000,18.000000,0.000000,-2.000000
1296076.331519,-2.000000,-1.000000,-3.000000,1.000000,-4.000000,-11.000000,-1.000000,1.000000
1296076.331698,-5.000000,-2.000000,-3.000000,-4.000000,2.000000,-7.000000,0.000000,-4.000000
1296076.346547,-2.000000,-3.000000,-7.000000,-3.000000,-5.000000,10.000000,2.000000,-4.000000
1296076.346629,-1.000000,-3.000000,-3.000000,-4.000000,-1.000000,-2.000000,5.000000,3.000000
1296076.383372,1.000000,-8.000000,-5.000000,-6.000000,3.000000,-5.000000,1.000000,-1.000000
1296076.383403,0.000000,-5.000000,6.000000,-1.000000,-3.000000,0.000000,-3.000000,1.000000
1296076.391369,1.000000,3.000000,-2.000000,2.000000,2.000000,1.000000,-2.000000,-6.000000
1296076.391529,-2.000000,-1.000000,6.000000,-8.000000,0.000000,-3.000000,-2.000000,0.000000
1296076.420764,-3.000000,-1.000000,0.000000,-1.000000,-3.000000,-13.000000,-4.000000,1.000000
1296076.420797,2.000000,1.000000,-1.000000,1.000000,1.000000,3.000000,-3.000000,-1.000000
1296076.458742,3.000000,-5.000000,0.000000,-4.000000,5.000000,2.000000,-2.000000,-2.000000
1296076.458775,1.000000,2.000000,0.000000,2.000000,-3.000000,-4.000000,1.000000,1.000000
1296076.461123,-6.000000,1.000000,2.000000,-1.000000,-5.000000,14.000000,-2.000000,-4.000000
1296076.461526,2.000000,2.000000,0.000000,-7.000000,4.000000,-4.000000,0.000000,1.000000
1296076.462879,-1.000000,-4.000000,-2.000000,0.000000,-2.000000,7.000000,-2.000000,0.000000
1296076.462934,-2.000000,3.000000,4.000000,-5.000000,-2.000000,-7.000000,5.000000,-1.000000
1296076.463816,1.000000,2.000000,0.000000,3.000000,-1.000000,-17.000000,0.000000,-1.000000
1296076.463844,1.000000,-3.000000,-4.000000,2.000000,0.000000,32.000000,-1.000000,3.000000
1296076.465696,2.000000,7.000000,-1.000000,2.000000,2.000000,4.000000,-4.000000,-4.000000
1296076.465726,-3.000000,2.000000,0.000000,0.000000,-9.000000,-2.000000,1.000000,3.000000
1296076.495730,1.000000,-3.000000,-12.000000,-3.000000,-4.000000,-7.000000,-2.000000,-1.000000
1296076.495762,-7.000000,1.000000,-1.000000,-6.000000,5.000000,-1.000000,-1.000000,-4.000000
1296076.503525,-1.000000,0.000000,-7.000000,-4.000000,3.000000,11.000000,0.000000,4.000000
1296076.503558,0.000000,-1.000000,4.000000,1.000000,-7.000000,-15.000000,-7.000000,-1.000000
1296076.518318,4.000000,-5.000000,4.000000,0.000000,-2.000000,0.000000,-3.000000,0.000000
1296076.518348,2.000000,-1.000000,2.000000,4.000000,3.000000,-18.000000,0.000000,5.000000
1296076.533376,-1.000000,-5.000000,0.000000,-4.000000,-10.000000,7.000000,3.000000,-2.000000
1296076.533409,-2.000000,6.000000,7.000000,-1.000000,-5.000000,-2.000000,-3.000000,-3.000000
1296076.542400,0.000000,1.000000,-1.000000,2.000000,8.000000,4.000000,4.000000,3.000000
1296076.542433,5.000000,2.000000,-6.000000,-1.000000,-4.000000,-4.000000,-8.000000,-4.000000
1296076.542639,-4.000000,-2.000000,1.000000,1.000000,0.000000,-2.000000,0.000000,-5.000000
1296076.542693,-2.000000,1.000000,-2.000000,5.000000,-1.000000,3.000000,-1.000000,1.000000
1296076.544358,-2.000000,-2.000000,3.000000,0.000000,-7.000000,-4.000000,2.000000,-1.000000
1296076.544388,1.000000,0.000000,-3.000000,0.000000,1.000000,3.000000,-5.000000,-1.000000
1296076.544536,2.000000,-3.000000,2.000000,-6.000000,-1.000000,1.000000,-2.000000,2.000000
1296076.544551,3.000000,-3.000000,-5.000000,-4.000000,-6.000000,10.000000,-2.000000,-3.000000
1296076.557153,2.000000,6.000000,-5.000000,0.000000,-1.000000,-36.000000,1.000000,1.000000
1296076.557183,0.000000,-3.000000,1.000000,-4.000000,-2.000000,25.000000,-2.000000,3.000000
1296076.579695,-2.000000,0.000000,2.000000,-6.000000,-1.000000,-13.000000,0.000000,3.000000
1296076.580108,0.000000,-5.000000,-3.000000,4.000000,-4.000000,0.000000,-2.000000,-2.000000
1296076.581180,-1.000000,-5.000000,-4.000000,2.000000,-1.000000,3.000000,-3.000000,-1.000000
1296076.581205,-2.000000,-5.000000,-8.000000,-2.000000,7.000000,-1.000000,0.000000,0.000000
1296076.586218,-1.000000,3.000000,1.000000,-4.000000,0.000000,-5.000000,1.000000,1.000000
1296076.586259,-2.000000,0.000000,-2.000000,-4.000000,-1.000000,-1.000000,7.000000,-3.000000
1296076.616103,6.000000,5.000000,1.000000,2.000000,-12.000000,9.000000,3.000000,-4.000000
1296076.616317,-1.000000,3.000000,-4.000000,2.000000,4.000000,2.000000,-7.000000,0.000000
1296076.631225,0.000000,-5.000000,-1.000000,6.000000,-7.000000,-10.000000,-3.000000,3.000000
1296076.631282,-4.000000,1.000000,-1.000000,3.000000,4.000000,15.000000,0.000000,-4.000000
1296076.653184,3.000000,0.000000,1.000000,5.000000,-2.000000,-6.000000,4.000000,-2.000000
1296076.653215,3.000000,-2.000000,-5.000000,1.000000,1.000000,-12.000000,-7.000000,-3.000000
1296076.660687,1.000000,4.000000,0.000000,2.000000,-6.000000,2.000000,-2.000000,-4.000000
1296076.660718,1.000000,-4.000000,-3.000000,-1.000000,-3.000000,-3.000000,-1.000000,1.000000
1296076.669809,3.000000,1.000000,3.000000,-1.000000,0.000000,16.000000,0.000000,1.000000
1296076.669836,1.000000,0.000000,-3.000000,10.000000,-4.000000,-11.000000,-1.000000,0.000000
1296076.669963,-5.000000,-2.000000,-2.000000,-3.000000,-3.000000,3.000000,0.000000,-2.000000
1296076.669980,-1.000000,-1.000000,-6.000000,-1.000000,-2.000000,0.000000,-1.000000,3.000000
1296076.671477,-5.000000,-1.000000,-5.000000,6.000000,4.000000,-10.000000,4.000000,0.000000
1296076.671506,-1.000000,0.000000,-3.000000,12.000000,-4.000000,2.000000,2.000000,-3.000000
1296076.684456,0.000000,-2.000000,-2.000000,0.000000,0.000000,0.000000,4.000000,-3.000000
1296076.684486,6.000000,5.000000,-4.000000,-5.000000,7.000000,11.000000,-4.000000,-3.000000
1296076.698781,-1.000000,-5.000000,3.000000,0.000000,-8.000000,-14.000000,-1.000000,-1.000000
1296076.698810,-3.000000,-1.000000,-2.000000,-3.000000,-1.000000,8.000000,2.000000,-5.000000
1296076.699788,-5.000000,-1.000000,2.000000,6.000000,-7.000000,-8.000000,0.000000,-3.000000
1296076.699818,3.000000,5.000000,-9.000000,2.000000,5.000000,10.000000,3.000000,0.000000
1296076.705679,-2.000000,1.000000,1.000000,1.000000,9.000000,-11.000000,-6.000000,4.000000
1296076.705714,-5.000000,-2.000000,-8.000000,-1.000000,-2.000000,-4.000000,-3.000000,-3.000000
1296076.743003,-1.000000,-2.000000,-2.000000,3.000000,-2.000000,0.000000,-4.000000,-1.000000
1296076.743032,5.000000,4.000000,-7.000000,2.000000,0.000000,-3.000000,-1.000000,-2.000000
1296076.750867,-4.000000,-3.000000,0.000000,0.000000,-3.000000,5.000000,-6.000000,-1.000000
1296076.750903,1.000000,-3.000000,3.000000,-2.000000,0.000000,-12.000000,2.000000,1.000000
1296076.780781,-5.000000,-1.000000,-1.000000,3.000000,3.000000,12.000000,0.000000,-4.000000
1296076.780822,-2.000000,6.000000,2.000000,-6.000000,-1.000000,-4.000000,-4.000000,0.000000
1296076.788722,1.000000,3.000000,-7.000000,4.000000,1.000000,-6.000000,-1.000000,-1.000000
1296076.789243,-1.000000,2.000000,1.000000,7.000000,1.000000,0.000000,3.000000,1.000000
1296076.789988,4.000000,-2.000000,-2.000000,-5.000000,0.000000,-2.000000,-3.000000,0.000000
1296076.790016,0.000000,-4.000000,-3.000000,0.000000,-14.000000,-3.000000,5.000000,4.000000
1296076.791498,-3.000000,-7.000000,5.000000,2.000000,0.000000,5.000000,-4.000000,-6.000000
1296076.791525,-2.000000,-9.000000,-8.000000,-3.000000,1.000000,7.000000,2.000000,-1.000000
1296076.791662,-4.000000,-3.000000,2.000000,-1.000000,3.000000,-6.000000,-3.000000,-2.000000
1296076.791703,0.000000,-6.000000,1.000000,-2.000000,-1.000000,-4.000000,0.000000,1.000000
1296076.818382,-8.000000,-5.000000,0.000000,5.000000,-5.000000,47.000000,3.000000,-3.000000
1296076.818411,1.000000,2.000000,1.000000,0.000000,8.000000,-11.000000,2.000000,3.000000
1296076.819254,-1.000000,-2.000000,-4.000000,0.000000,-4.000000,-18.000000,-4.000000,-2.000000
1296076.819627,0.000000,-2.000000,1.000000,3.000000,1.000000,4.000000,-4.000000,-7.000000
1296076.820692,2.000000,2.000000,-1.000000,0.000000,1.000000,1.000000,-1.000000,2.000000
1296076.820749,-2.000000,-6.000000,-4.000000,0.000000,-2.000000,-4.000000,4.000000,-9.000000
1296076.825743,-5.000000,-3.000000,2.000000,-4.000000,0.000000,-1.000000,2.000000,3.000000
1296076.825774,7.000000,3.000000,1.000000,1.000000,-2.000000,-2.000000,-3.000000,-4.000000
1296076.863228,-4.000000,-2.000000,-2.000000,-4.000000,4.000000,3.000000,-1.000000,-3.000000
1296076.863257,-3.000000,-4.000000,-1.000000,1.000000,-8.000000,-24.000000,0.000000,-2.000000
1296076.870726,1.000000,0.000000,3.000000,-8.000000,7.000000,30.000000,1.000000,-1.000000
1296076.870781,-1.000000,-1.000000,1.000000,7.000000,-3.000000,-4.000000,0.000000,1.000000
1296076.900724,-4.000000,6.000000,0.000000,3.000000,0.000000,-4.000000,4.000000,0.000000
1296076.900776,0.000000,3.000000,-3.000000,-2.000000,-1.000000,5.000000,-1.000000,-6.000000
1296076.901572,-7.000000,-4.000000,0.000000,6.000000,1.000000,1.000000,-2.000000,2.000000
1296076.901613,-1.000000,-2.000000,-7.000000,-4.000000,-1.000000,-12.000000,-3.000000,2.000000
1296076.902742,-1.000000,0.000000,-3.000000,6.000000,-1.000000,-1.000000,0.000000,0.000000
1296076.902808,-2.000000,-2.000000,3.000000,3.000000,-3.000000,3.000000,0.000000,0.000000
1296076.903924,-3.000000,0.000000,-1.000000,-1.000000,-3.000000,-18.000000,-1.000000,1.000000
1296076.903950,-3.000000,-8.000000,-4.000000,-1.000000,1.000000,22.000000,-1.000000,0.000000
1296076.908295,6.000000,-3.000000,-6.000000,-1.000000,-3.000000,17.000000,0.000000,-3.000000
1296076.908332,-5.000000,-1.000000,0.000000,3.000000,-1.000000,-6.000000,-1.000000,1.000000
1296076.945570,1.000000,1.000000,-4.000000,-3.000000,1.000000,-3.000000,0.000000,3.000000
1296076.945599,-3.000000,-2.000000,0.000000,-4.000000,-4.000000,6.000000,-5.000000,-3.000000
1296076.960747,5.000000,-3.000000,-4.000000,2.000000,-4.000000,-4.000000,2.000000,-1.000000
1296076.960861,3.000000,-9.000000,3.000000,-5.000000,-1.000000,-17.000000,0.000000,1.000000
1296076.983377,1.000000,1.000000,-12.000000,-2.000000,4.000000,22.000000,0.000000,-3.000000
1296076.983406,-4.000000,-8.000000,-1.000000,5.000000,5.000000,-4.000000,2.000000,0.000000
1296077.013075,-4.000000,0.000000,0.000000,1.000000,-4.000000,-5.000000,1.000000,-2.000000
1296077.013104,-3.000000,-1.000000,0.000000,-4.000000,-3.000000,-3.000000,-3.000000,2.000000
1296077.014641,4.000000,-6.000000,4.000000,-1.000000,-7.000000,2.000000,0.000000,-4.000000
1296077.014668,-4.000000,4.000000,0.000000,1.000000,8.000000,3.000000,-2.000000,-3.000000
1296077.015755,3.000000,3.000000,1.000000,-1.000000,-8.000000,-5.000000,0.000000,2.000000
1296077.016339,0.000000,-6.000000,-4.000000,1.000000,-3.000000,-21.000000,0.000000,3.000000
1296077.018967,-2.000000,0.000000,0.000000,0.000000,2.000000,4.000000,4.000000,-2.000000
1296077.019013,2.000000,1.000000,-6.000000,4.000000,1.000000,-5.000000,-4.000000,-1.000000
1296077.028531,-3.000000,4.000000,-2.000000,-3.000000,-2.000000,-8.000000,-2.000000,-3.000000
1296077.028563,-3.000000,4.000000,0.000000,-7.000000,-1.000000,-7.000000,-2.000000,0.000000
1296077.051627,2.000000,-5.000000,5.000000,-4.000000,-6.000000,-3.000000,-4.000000,0.000000
1296077.051650,3.000000,-7.000000,-1.000000,4.000000,-9.000000,9.000000,2.000000,-4.000000
1296077.052813,-2.000000,1.000000,4.000000,-3.000000,-4.000000,-1.000000,3.000000,-4.000000
1296077.052842,-4.000000,-2.000000,-2.000000,4.000000,-1.000000,-20.000000,-2.000000,-3.000000
1296077.058278,0.000000,4.000000,1.000000,4.000000,-1.000000,4.000000,5.000000,-1.000000
1296077.058309,1.000000,-3.000000,-8.000000,2.000000,-3.000000,-8.000000,-2.000000,-5.000000
1296077.066111,3.000000,-6.000000,-1.000000,-3.000000,3.000000,9.000000,-1.000000,1.000000
1296077.066142,-1.000000,-3.000000,2.000000,3.000000,5.000000,9.000000,1.000000,-1.000000
1296077.095954,-3.000000,4.000000,0.000000,-8.000000,-4.000000,-18.000000,-1.000000,-1.000000
1296077.096213,-1.000000,-5.000000,-4.000000,-6.000000,-4.000000,21.000000,-8.000000,-1.000000
1296077.103828,-1.000000,-6.000000,6.000000,0.000000,-1.000000,-11.000000,-1.000000,-3.000000
1296077.103878,-5.000000,1.000000,-3.000000,1.000000,-2.000000,-8.000000,-6.000000,-3.000000
1296077.118500,2.000000,1.000000,0.000000,-5.000000,-2.000000,2.000000,-3.000000,-3.000000
1296077.118531,-1.000000,1.000000,-1.000000,6.000000,1.000000,13.000000,1.000000,-3.000000
1296077.133588,-2.000000,3.000000,6.000000,-8.000000,-1.000000,-11.000000,0.000000,2.000000
1296077.133620,-2.000000,4.000000,2.000000,-4.000000,-9.000000,-7.000000,-4.000000,-1.000000
1296077.142957,1.000000,-6.000000,1.000000,4.000000,-2.000000,8.000000,0.000000,-3.000000
1296077.143025,-3.000000,3.000000,6.000000,-3.000000,1.000000,-11.000000,-4.000000,-4.000000
1296077.143898,-3.000000,-1.000000,-1.000000,-4.000000,-8.000000,13.000000,-1.000000,-2.000000
1296077.143929,3.000000,-2.000000,-6.000000,-2.000000,-1.000000,-9.000000,-2.000000,0.000000
1296077.144803,-1.000000,-1.000000,6.000000,-6.000000,-7.000000,-7.000000,-2.000000,0.000000
1296077.144829,-6.000000,-1.000000,-4.000000,0.000000,5.000000,3.000000,-1.000000,-5.000000
1296077.148502,2.000000,-4.000000,3.000000,0.000000,-5.000000,2.000000,-4.000000,2.000000
1296077.148548,0.000000,-3.000000,-2.000000,2.000000,-2.000000,-16.000000,-6.000000,2.000000
1296077.171749,-4.000000,0.000000,-3.000000,3.000000,-6.000000,21.000000,-3.000000,1.000000
1296077.171810,1.000000,3.000000,-8.000000,-1.000000,2.000000,-7.000000,11.000000,-1.000000
1296077.173461,-3.000000,-4.000000,-2.000000,-1.000000,-3.000000,-7.000000,-4.000000,2.000000
1296077.173711,2.000000,-3.000000,-9.000000,-8.000000,1.000000,-7.000000,-2.000000,-6.000000
1296077.178587,0.000000,1.000000,-5.000000,5.000000,2.000000,7.000000,2.000000,-1.000000
1296077.178616,3.000000,9.000000,2.000000,-8.000000,-1.000000,-12.000000,-7.000000,-1.000000
1296077.185976,-4.000000,2.000000,-4.000000,-1.000000,1.000000,7.000000,-6.000000,-4.000000
1296077.186006,-5.000000,-2.000000,0.000000,-2.000000,3.000000,-4.000000,4.000000,1.000000
1296077.216123,2.000000,-3.000000,-2.000000,6.000000,-7.000000,-3.000000,-3.000000,-3.000000
1296077.216153,0.000000,3.000000,2.000000,-3.000000,2.000000,12.000000,7.000000,-1.000000
1296077.223207,1.000000,-5.000000,2.000000,3.000000,-4.000000,-13.000000,-6.000000,-1.000000
1296077.223236,-1.000000,-1.000000,0.000000,-6.000000,-1.000000,7.000000,4.000000,-2.000000
1296077.253409,-3.000000,3.000000,-3.000000,1.000000,3.000000,-1.000000,3.000000,2.000000
1296077.253438,0.000000,0.000000,1.000000,-1.000000,-5.000000,-3.000000,-3.000000,-3.000000
1296077.261412,-6.000000,-10.000000,-7.000000,0.000000,-1.000000,1.000000,-3.000000,-1.000000
1296077.261473,1.000000,-3.000000,1.000000,2.000000,1.000000,-2.000000,-2.000000,0.000000
1296077.262826,-3.000000,-3.000000,-7.000000,-5.000000,-3.000000,-1.000000,1.000000,0.000000
1296077.262863,2.000000,3.000000,-5.000000,3.000000,-1.000000,0.000000,-5.000000,1.000000
1296077.263211,-1.000000,-3.000000,-1.000000,4.000000,2.000000,0.000000,-5.000000,-3.000000
1296077.263243,1.000000,-2.000000,5.000000,-2.000000,0.000000,-1.000000,-1.000000,-1.000000
1296077.283674,-3.000000,-1.000000,-1.000000,-5.000000,4.000000,1.000000,0.000000,2.000000
1296077.283730,-3.000000,-7.000000,2.000000,-4.000000,1.000000,-7.000000,-1.000000,2.000000
1296077.298202,1.000000,-5.000000,-2.000000,-1.000000,-5.000000,10.000000,-3.000000,-9.000000
1296077.298235,3.000000,1.000000,7.000000,-2.000000,-1.000000,-12.000000,6.000000,0.000000
1296077.305781,-1.000000,0.000000,1.000000,0.000000,3.000000,-5.000000,-7.000000,-3.000000
1296077.305813,4.000000,2.000000,-1.000000,2.000000,-3.000000,-4.000000,0.000000,-2.000000
1296077.336163,-1.000000,5.000000,4.000000,0.000000,-8.000000,-7.000000,2.000000,0.000000
1296077.336208,-3.000000,-1.000000,4.000000,-3.000000,5.000000,8.000000,-3.000000,-1.000000
1296077.351033,-3.000000,-2.000000,3.000000,3.000000,4.000000,-5.000000,2.000000,4.000000
1296077.351065,-3.000000,2.000000,-1.000000,-5.000000,-6.000000,11.000000,1.000000,-4.000000
1296077.380698,2.000000,-1.000000,1.000000,-4.000000,9.000000,7.000000,7.000000,2.000000
1296077.380747,-2.000000,2.000000,1.000000,0.000000,-4.000000,-14.000000,1.000000,4.000000
1296077.382137,2.000000,-3.000000,-6.000000,3.000000,-5.000000,-1.000000,0.000000,-3.000000
1296077.382168,-5.000000,2.000000,-3.000000,-1.000000,8.000000,1.000000,0.000000,-1.000000
1296077.383914,0.000000,0.000000,-3.000000,1.000000,3.000000,-7.000000,1.000000,2.000000
1296077.383988,0.000000,4.000000,-7.000000,0.000000,-3.000000,-6.000000,-1.000000,-5.000000
1296077.384292,-2.000000,0.000000,-1.000000,-1.000000,-5.000000,18.000000,3.000000,0.000000
1296077.384327,3.000000,0.000000,4.000000,4.000000,4.000000,-17.000000,-2.000000,1.000000
1296077.385534,2.000000,1.000000,1.000000,2.000000,-1.000000,3.000000,-5.000000,-1.000000
1296077.385563,-1.000000,0.000000,2.000000,1.000000,0.000000,6.000000,1.000000,-1.000000
1296077.388164,2.000000,1.000000,-5.000000,-7.000000,-2.000000,2.000000,-1.000000,0.000000
1296077.388192,-1.000000,5.000000,-3.000000,2.000000,-3.000000,-7.000000,-5.000000,-4.000000
1296077.412512,-3.000000,2.000000,-2.000000,0.000000,0.000000,-3.000000,2.000000,-1.000000
1296077.412575,-2.000000,1.000000,-4.000000,-2.000000,1.000000,17.000000,2.000000,-1.000000
1296077.412843,-1.000000,5.000000,-1.000000,5.000000,1.000000,-5.000000,-5.000000,-4.000000
1296077.412873,-1.000000,-2.000000,-1.000000,3.000000,0.000000,-7.000000,1.000000,-3.000000
1296077.418443,-6.000000,-1.000000,5.000000,0.000000,-2.000000,2.000000,-4.000000,6.000000
1296077.418472,-3.000000,0.000000,1.000000,-1.000000,-2.000000,-4.000000,-4.000000,-2.000000
1296077.425990,1.000000,-3.000000,2.000000,4.000000,-3.000000,13.000000,-5.000000,-5.000000
1296077.426022,-1.000000,2.000000,-2.000000,-7.000000,-1.000000,-8.000000,4.000000,-3.000000
1296077.456040,1.000000,-6.000000,-8.000000,-5.000000,-8.000000,13.000000,2.000000,-6.000000
1296077.456067,-3.000000,5.000000,6.000000,-1.000000,1.000000,13.000000,3.000000,-3.000000
1296077.463674,0.000000,1.000000,-1.000000,-3.000000,0.000000,-8.000000,-10.000000,2.000000
1296077.463718,2.000000,3.000000,4.000000,-3.000000,1.000000,-9.000000,-2.000000,0.000000
1296077.493443,2.000000,0.000000,-1.000000,6.000000,0.000000,-7.000000,-3.000000,-4.000000
1296077.493475,-2.000000,-4.000000,-2.000000,-1.000000,-9.000000,5.000000,-1.000000,2.000000
1296077.501361,4.000000,-1.000000,-2.000000,-5.000000,9.000000,4.000000,-1.000000,2.000000
1296077.501421,-1.000000,-3.000000,3.000000,-7.000000,-9.000000,-25.000000,-2.000000,1.000000
1296077.503492,-5.000000,-1.000000,-5.000000,1.000000,5.000000,23.000000,-1.000000,-4.000000
1296077.503886,0.000000,0.000000,-1.000000,-5.000000,4.000000,-5.000000,-2.000000,-2.000000
1296077.504620,-4.000000,2.000000,1.000000,-1.000000,2.000000,-4.000000,-9.000000,-3.000000
1296077.504690,2.000000,-3.000000,-1.000000,-6.000000,-3.000000,1.000000,1.000000,0.000000
1296077.505551,3.000000,-5.000000,-2.000000,-2.000000,-4.000000,-3.000000,1.000000,2.000000
1296077.505597,-3.000000,-3.000000,-1.000000,1.000000,-1.000000,0.000000,-1.000000,-2.000000
1296077.516045,-1.000000,-3.000000,1.000000,-5.000000,-1.000000,-14.000000,0.000000,-2.000000
1296077.516074,2.000000,-1.000000,1.000000,-9.000000,-3.000000,19.000000,-4.000000,-3.000000
1296077.530537,-4.000000,-2.000000,-5.000000,-7.000000,4.000000,-10.000000,4.000000,-4.000000
1296077.530564,-9.000000,1.000000,-3.000000,-5.000000,-2.000000,-2.000000,-1.000000,0.000000
1296077.531558,3.000000,2.000000,5.000000,3.000000,-1.000000,-5.000000,-6.000000,-1.000000
1296077.531607,0.000000,2.000000,-3.000000,0.000000,-3.000000,-6.000000,0.000000,1.000000
1296077.538184,-3.000000,-3.000000,-8.000000,1.000000,4.000000,-1.000000,-2.000000,0.000000
1296077.538213,-3.000000,7.000000,-5.000000,-10.000000,-3.000000,20.000000,1.000000,-3.000000
1296077.553184,-3.000000,6.000000,0.000000,6.000000,6.000000,-7.000000,4.000000,5.000000
1296077.553231,-5.000000,1.000000,0.000000,1.000000,-3.000000,-14.000000,-7.000000,-2.000000
1296077.575720,2.000000,-2.000000,-2.000000,-3.000000,-1.000000,1.000000,0.000000,-2.000000
1296077.575750,-1.000000,-3.000000,-3.000000,-4.000000,3.000000,11.000000,-8.000000,0.000000
1296077.583205,-4.000000,-1.000000,5.000000,-7.000000,-4.000000,-4.000000,1.000000,-6.000000
1296077.583234,4.000000,-3.000000,0.000000,-5.000000,0.000000,-4.000000,-1.000000,-2.000000
1296077.613432,2.000000,2.000000,2.000000,1.000000,-1.000000,-12.000000,4.000000,-2.000000
1296077.613461,0.000000,-1.000000,-3.000000,5.000000,-1.000000,17.000000,-4.000000,-1.000000
1296077.620756,2.000000,-7.000000,-3.000000,1.000000,1.000000,-1.000000,0.000000,5.000000
1296077.620786,0.000000,5.000000,-4.000000,3.000000,0.000000,1.000000,1.000000,-3.000000
1296077.650614,-1.000000,-2.000000,4.000000,-9.000000,-1.000000,-15.000000,5.000000,0.000000
1296077.650661,-3.000000,7.000000,0.000000,-1.000000,-3.000000,17.000000,-3.000000,-3.000000
1296077.651305,-4.000000,0.000000,5.000000,0.000000,0.000000,-13.000000,-3.000000,5.000000
1296077.651629,-5.000000,3.000000,-3.000000,-3.000000,0.000000,-1.000000,-1.000000,-3.000000
1296077.658145,1.000000,1.000000,-1.000000,-1.000000,-6.000000,7.000000,3.000000,2.000000
1296077.658173,-3.000000,-5.000000,1.000000,-5.000000,-2.000000,8.000000,3.000000,-7.000000
1296077.681000,3.000000,4.000000,-2.000000,-10.000000,0.000000,-24.000000,-3.000000,0.000000
1296077.681028,4.000000,-4.000000,-7.000000,1.000000,-5.000000,13.000000,-3.000000,-3.000000
1296077.688342,2.000000,-4.000000,-3.000000,-4.000000,3.000000,5.000000,2.000000,1.000000
1296077.688492,4.000000,-6.000000,-2.000000,-1.000000,0.000000,-12.000000,5.000000,3.000000
1296077.703516,-3.000000,4.000000,-1.000000,2.000000,-8.000000,-6.000000,-9.000000,0.000000
1296077.703545,-2.000000,-5.000000,-4.000000,8.000000,4.000000,17.000000,-1.000000,0.000000
1296077.726349,2.000000,-6.000000,5.000000,2.000000,1.000000,-17.000000,4.000000,-3.000000
1296077.726387,0.000000,-1.000000,-1.000000,-4.000000,4.000000,11.000000,1.000000,-1.000000
1296077.728580,2.000000,-2.000000,1.000000,-1.000000,-2.000000,-4.000000,0.000000,-1.000000
1296077.728637,1.000000,-7.000000,-9.000000,2.000000,1.000000,4.000000,-3.000000,-4.000000
1296077.730227,-3.000000,0.000000,3.000000,0.000000,-2.000000,-3.000000,-1.000000,0.000000
1296077.730290,-1.000000,-5.000000,-1.000000,-5.000000,-4.000000,-1.000000,1.000000,2.000000
1296077.730585,2.000000,-3.000000,-3.000000,-3.000000,3.000000,-1.000000,1.000000,0.000000
1296077.730645,3.000000,-3.000000,1.000000,1.000000,0.000000,1.000000,-3.000000,-1.000000
1296077.731398,0.000000,-1.000000,-1.000000,3.000000,4.000000,-18.000000,-1.000000,-1.000000
1296077.731427,1.000000,2.000000,6.000000,-1.000000,-5.000000,9.000000,-4.000000,-4.000000
1296077.740650,3.000000,0.000000,3.000000,-4.000000,-9.000000,-35.000000,-8.000000,-1.000000
1296077.740678,-5.000000,0.000000,-2.000000,1.000000,-3.000000,36.000000,-4.000000,-3.000000
1296077.770671,0.000000,-3.000000,1.000000,-1.000000,5.000000,-7.000000,0.000000,1.000000
1296077.770700,3.000000,7.000000,0.000000,-8.000000,1.000000,-4.000000,-5.000000,0.000000
1296077.793327,1.000000,-3.000000,-4.000000,-4.000000,-5.000000,-11.000000,-4.000000,-7.000000
1296077.793356,-2.000000,1.000000,-2.000000,1.000000,0.000000,2.000000,0.000000,-6.000000
1296077.808084,1.000000,5.000000,-2.000000,-3.000000,-2.000000,-4.000000,-1.000000,0.000000
1296077.808112,1.000000,-4.000000,-6.000000,5.000000,-1.000000,-23.000000,1.000000,3.000000
1296077.846801,-7.000000,0.000000,-3.000000,1.000000,2.000000,31.000000,2.000000,-6.000000
1296077.847166,2.000000,-4.000000,-1.000000,3.000000,1.000000,-12.000000,3.000000,2.000000
1296077.847475,2.000000,4.000000,-2.000000,2.000000,0.000000,-4.000000,-1.000000,-3.000000
1296077.847519,2.000000,-3.000000,-6.000000,-7.000000,-4.000000,-5.000000,2.000000,-4.000000
1296077.849148,-2.000000,5.000000,8.000000,-1.000000,-1.000000,0.000000,0.000000,-4.000000
1296077.849170,4.000000,-6.000000,-5.000000,-1.000000,0.000000,0.000000,1.000000,-3.000000
1296077.849311,1.000000,-1.000000,-1.000000,1.000000,-3.000000,4.000000,-3.000000,-5.000000
1296077.849325,7.000000,-5.000000,0.000000,1.000000,-5.000000,-14.000000,-4.000000,-3.000000
1296077.849506,-8.000000,-5.000000,-6.000000,-7.000000,-7.000000,3.000000,-1.000000,-6.000000
1296077.849520,0.000000,0.000000,5.000000,4.000000,1.000000,12.000000,8.000000,-2.000000
1296077.850340,1.000000,1.000000,4.000000,1.000000,1.000000,-6.000000,-7.000000,3.000000
1296077.850386,-4.000000,0.000000,-3.000000,0.000000,-3.000000,-9.000000,-1.000000,-2.000000
1296077.860606,-6.000000,-8.000000,-2.000000,4.000000,2.000000,21.000000,-3.000000,-1.000000
1296077.860634,0.000000,-1.000000,2.000000,-3.000000,-7.000000,-15.000000,-2.000000,-1.000000
1296077.868085,3.000000,4.000000,-1.000000,3.000000,3.000000,-1.000000,1.000000,-1.000000
1296077.868112,4.000000,-5.000000,2.000000,-2.000000,-5.000000,1.000000,-4.000000,-4.000000
1296077.883331,-4.000000,-2.000000,-4.000000,1.000000,-3.000000,-3.000000,-1.000000,-4.000000
1296077.883472,-3.000000,-4.000000,4.000000,-1.000000,-2.000000,10.000000,1.000000,-2.000000
1296077.890551,0.000000,-3.000000,-4.000000,-5.000000,1.000000,-8.000000,1.000000,3.000000
1296077.890579,2.000000,-6.000000,-4.000000,5.000000,-3.000000,-2.000000,0.000000,-2.000000
1296077.905706,1.000000,3.000000,3.000000,2.000000,-3.000000,2.000000,1.000000,-3.000000
1296077.905759,2.000000,-4.000000,3.000000,-6.000000,-1.000000,-1.000000,-6.000000,-1.000000
1296077.920792,-1.000000,-1.000000,-4.000000,5.000000,-3.000000,-21.000000,-2.000000,-4.000000
1296077.920983,-1.000000,-5.000000,2.000000,0.000000,5.000000,18.000000,-4.000000,-6.000000
1296077.935733,-2.000000,-5.000000,-4.000000,-5.000000,-2.000000,2.000000,2.000000,0.000000
1296077.935760,0.000000,-3.000000,-4.000000,1.000000,1.000000,-10.000000,2.000000,-6.000000
1296077.958281,-1.000000,0.000000,-2.000000,0.000000,-6.000000,-1.000000,-5.000000,-2.000000
1296077.958309,-6.000000,1.000000,1.000000,3.000000,0.000000,-6.000000,-3.000000,1.000000
1296077.966332,1.000000,2.000000,-9.000000,-6.000000,-12.000000,-18.000000,3.000000,1.000000
1296077.966395,-1.000000,0.000000,-5.000000,2.000000,3.000000,23.000000,2.000000,-3.000000
1296077.968238,3.000000,2.000000,4.000000,3.000000,0.000000,-16.000000,-3.000000,2.000000
1296077.968266,1.000000,-2.000000,-6.000000,-1.000000,-1.000000,5.000000,-1.000000,-4.000000
1296077.969001,6.000000,-4.000000,-3.000000,-7.000000,-3.000000,-20.000000,-3.000000,-4.000000
1296077.969047,-1.000000,1.000000,-2.000000,-3.000000,0.000000,22.000000,-4.000000,-1.000000
1296077.970051,-3.000000,-3.000000,0.000000,2.000000,-2.000000,-5.000000,-1.000000,0.000000
1296077.970095,-1.000000,5.000000,2.000000,-6.000000,-8.000000,0.000000,-4.000000,0.000000
1296077.980953,-5.000000,-4.000000,1.000000,-3.000000,14.000000,0.000000,1.000000,-5.000000
1296077.980990,0.000000,1.000000,-1.000000,-3.000000,-3.000000,-13.000000,-1.000000,2.000000
1296077.995162,-5.000000,-4.000000,-3.000000,3.000000,-2.000000,11.000000,2.000000,-2.000000
1296077.995213,-3.000000,-5.000000,0.000000,0.000000,-8.000000,-2.000000,-3.000000,-1.000000
1296078.010298,-1.000000,-3.000000,2.000000,5.000000,2.000000,9.000000,3.000000,2.000000
1296078.010332,-1.000000,2.000000,-4.000000,-5.000000,-3.000000,-17.000000,-12.000000,1.000000
1296078.017806,2.000000,3.000000,-2.000000,1.000000,1.000000,6.000000,-3.000000,-4.000000
1296078.017833,-2.000000,-6.000000,-6.000000,-9.000000,-5.000000,-17.000000,1.000000,1.000000
1296078.047601,0.000000,-3.000000,4.000000,4.000000,0.000000,0.000000,0.000000,-5.000000
1296078.047623,0.000000,1.000000,-3.000000,-4.000000,-4.000000,5.000000,-4.000000,-4.000000
1296078.055154,-4.000000,-1.000000,4.000000,-2.000000,-12.000000,-9.000000,-2.000000,1.000000
1296078.055176,3.000000,-5.000000,0.000000,2.000000,2.000000,1.000000,2.000000,-2.000000
1296078.070345,1.000000,-1.000000,6.000000,-4.000000,-4.000000,7.000000,1.000000,3.000000
1296078.070365,-2.000000,2.000000,-9.000000,-4.000000,-6.000000,-27.000000,-1.000000,-2.000000
1296078.092522,-2.000000,4.000000,-5.000000,6.000000,3.000000,15.000000,-1.000000,1.000000
1296078.092540,2.000000,-9.000000,-2.000000,1.000000,-3.000000,-15.000000,0.000000,-2.000000
1296078.093556,-7.000000,3.000000,-4.000000,10.000000,0.000000,8.000000,1.000000,-4.000000
1296078.093573,-1.000000,3.000000,11.000000,-8.000000,3.000000,-22.000000,-5.000000,3.000000
1296078.094217,-5.000000,0.000000,-14.000000,-3.000000,-7.000000,27.000000,1.000000,-1.000000
1296078.094234,-1.000000,7.000000,-3.000000,1.000000,3.000000,-6.000000,-2.000000,2.000000
1296078.095457,-3.000000,-2.000000,0.000000,5.000000,4.000000,-10.000000,-4.000000,-6.000000
1296078.095474,4.000000,-2.000000,0.000000,3.000000,-4.000000,23.000000,4.000000,3.000000
1296078.096369,-7.000000,-4.000000,1.000000,-6.000000,1.000000,-19.000000,6.000000,2.000000
1296078.096393,-4.000000,0.000000,-4.000000,7.000000,-2.000000,3.000000,-6.000000,-3.000000
1296078.123171,-2.000000,-3.000000,1.000000,-1.000000,2.000000,-5.000000,4.000000,0.000000
1296078.123208,4.000000,-2.000000,-5.000000,1.000000,-3.000000,-3.000000,-4.000000,3.000000
1296078.123809,2.000000,-4.000000,4.000000,-1.000000,2.000000,10.000000,-1.000000,1.000000
1296078.123834,1.000000,1.000000,3.000000,-3.000000,2.000000,-4.000000,-1.000000,2.000000
1296078.130513,-1.000000,2.000000,3.000000,3.000000,-2.000000,-7.000000,-2.000000,-3.000000
1296078.130542,5.000000,-1.000000,0.000000,2.000000,0.000000,1.000000,4.000000,-2.000000
1296078.138131,-5.000000,-3.000000,-4.000000,-3.000000,0.000000,-4.000000,0.000000,0.000000
1296078.138166,-7.000000,0.000000,-5.000000,-6.000000,-4.000000,-4.000000,2.000000,-1.000000
1296078.168500,0.000000,-2.000000,5.000000,7.000000,-4.000000,8.000000,-2.000000,-1.000000
1296078.168555,-1.000000,-2.000000,-8.000000,-2.000000,-7.000000,-12.000000,-1.000000,-4.000000
1296078.176086,2.000000,0.000000,5.000000,-3.000000,0.000000,5.000000,-3.000000,-1.000000
1296078.176146,4.000000,-1.000000,2.000000,-10.000000,-4.000000,-11.000000,-3.000000,-1.000000
1296078.213100,-2.000000,-2.000000,-1.000000,-5.000000,5.000000,3.000000,-1.000000,-6.000000
1296078.213134,-2.000000,0.000000,-2.000000,2.000000,2.000000,-1.000000,1.000000,-3.000000
1296078.220699,3.000000,-1.000000,-6.000000,3.000000,9.000000,8.000000,0.000000,0.000000
1296078.220748,-2.000000,0.000000,-2.000000,3.000000,-9.000000,-7.000000,2.000000,1.000000
1296078.250892,3.000000,-1.000000,-4.000000,3.000000,-2.000000,-11.000000,-1.000000,-1.000000
1296078.250951,1.000000,-6.000000,3.000000,1.000000,-3.000000,15.000000,0.000000,-2.000000
1296078.252685,-1.000000,-1.000000,-5.000000,-7.000000,-3.000000,1.000000,2.000000,-3.000000
1296078.252710,-5.000000,-6.000000,0.000000,-3.000000,-1.000000,-9.000000,-7.000000,0.000000
1296078.253699,0.000000,-4.000000,-3.000000,-1.000000,-2.000000,-5.000000,1.000000,1.000000
1296078.253724,1.000000,-1.000000,0.000000,-3.000000,2.000000,-1.000000,0.000000,-4.000000
1296078.253913,2.000000,0.000000,-3.000000,-7.000000,-4.000000,-2.000000,-2.000000,-2.000000
1296078.253954,-2.000000,1.000000,1.000000,-5.000000,-7.000000,-3.000000,-1.000000,-1.000000
1296078.258117,-1.000000,-1.000000,-1.000000,-3.000000,-5.000000,-8.000000,7.000000,1.000000
1296078.258145,2.000000,2.000000,-3.000000,-7.000000,5.000000,-12.000000,-13.000000,-4.000000
1296078.280762,3.000000,3.000000,-3.000000,5.000000,-2.000000,6.000000,-2.000000,0.000000
1296078.280789,-1.000000,-3.000000,1.000000,1.000000,-6.000000,0.000000,1.000000,4.000000
1296078.282287,0.000000,0.000000,-8.000000,-4.000000,0.000000,-3.000000,1.000000,4.000000
1296078.282326,-9.000000,4.000000,3.000000,4.000000,-4.000000,-11.000000,4.000000,-1.000000
1296078.288116,1.000000,-1.000000,0.000000,5.000000,-1.000000,9.000000,0.000000,2.000000
1296078.288144,-3.000000,-3.000000,-5.000000,-11.000000,-1.000000,-6.000000,0.000000,3.000000
1296078.296278,3.000000,8.000000,-5.000000,5.000000,-5.000000,-9.000000,0.000000,-2.000000
1296078.296306,1.000000,-7.000000,2.000000,2.000000,2.000000,1.000000,0.000000,3.000000
1296078.325614,1.000000,-8.000000,-5.000000,1.000000,-6.000000,-10.000000,-5.000000,-2.000000
1296078.325646,3.000000,-3.000000,-3.000000,-2.000000,-1.000000,10.000000,1.000000,1.000000
1296078.334618,-2.000000,2.000000,0.000000,6.000000,2.000000,-6.000000,1.000000,1.000000
1296078.334647,-2.000000,-4.000000,-1.000000,2.000000,-3.000000,14.000000,-1.000000,0.000000
1296078.334791,-2.000000,-4.000000,-4.000000,1.000000,2.000000,-10.000000,-3.000000,0.000000
1296078.334820,-6.000000,-5.000000,-8.000000,9.000000,7.000000,7.000000,-1.000000,-3.000000
1296078.348628,4.000000,3.000000,-1.000000,-2.000000,3.000000,-25.000000,-4.000000,-4.000000
1296078.348658,-2.000000,-1.000000,-2.000000,4.000000,-4.000000,13.000000,-3.000000,-4.000000
1296078.362869,1.000000,0.000000,1.000000,-3.000000,2.000000,24.000000,9.000000,-3.000000
1296078.362957,-5.000000,-3.000000,-5.000000,-3.000000,0.000000,-5.000000,-4.000000,1.000000
1296078.400199,-6.000000,-3.000000,-1.000000,-6.000000,3.000000,-17.000000,-5.000000,-2.000000
1296078.400218,-4.000000,-4.000000,-3.000000,-3.000000,4.000000,16.000000,-6.000000,-1.000000
1296078.407524,6.000000,4.000000,5.000000,2.000000,-2.000000,-18.000000,-2.000000,6.000000
1296078.407543,-2.000000,1.000000,3.000000,0.000000,-2.000000,7.000000,-1.000000,-4.000000
1296078.416330,-3.000000,-2.000000,-4.000000,-2.000000,-6.000000,-4.000000,-2.000000,-3.000000
1296078.416914,-4.000000,-5.000000,-5.000000,-2.000000,5.000000,7.000000,2.000000,3.000000
1296078.417598,2.000000,0.000000,-1.000000,-1.000000,-1.000000,-6.000000,-7.000000,0.000000
1296078.417614,4.000000,-1.000000,-3.000000,1.000000,2.000000,5.000000,4.000000,-2.000000
1296078.417908,-3.000000,-3.000000,5.000000,-5.000000,1.000000,-5.000000,3.000000,1.000000
1296078.418070,-1.000000,1.000000,-1.000000,4.000000,0.000000,-18.000000,-3.000000,-1.000000
1296078.437881,4.000000,-1.000000,2.000000,-7.000000,-1.000000,4.000000,-3.000000,1.000000
1296078.437909,2.000000,-4.000000,2.000000,0.000000,-6.000000,-8.000000,-1.000000,1.000000
1296078.438901,4.000000,4.000000,2.000000,1.000000,-4.000000,-3.000000,-5.000000,-1.000000
1296078.438920,0.000000,3.000000,3.000000,-5.000000,0.000000,2.000000,-2.000000,-3.000000
1296078.445010,1.000000,3.000000,-8.000000,-1.000000,0.000000,5.000000,3.000000,3.000000
1296078.445028,-7.000000,-8.000000,3.000000,-2.000000,-12.000000,-3.000000,-2.000000,0.000000
1296078.460194,-1.000000,-5.000000,5.000000,2.000000,4.000000,-8.000000,-1.000000,-6.000000
1296078.460214,-1.000000,-1.000000,1.000000,1.000000,-2.000000,4.000000,-4.000000,0.000000
1296078.467689,-3.000000,-3.000000,-3.000000,3.000000,-3.000000,-5.000000,-4.000000,6.000000
1296078.467709,2.000000,5.000000,2.000000,2.000000,-5.000000,-1.000000,1.000000,-2.000000
1296078.482656,-7.000000,0.000000,-1.000000,-4.000000,-3.000000,0.000000,-1.000000,-5.000000
1296078.482676,2.000000,1.000000,1.000000,3.000000,-5.000000,2.000000,1.000000,-1.000000
1296078.490240,3.000000,1.000000,1.000000,-3.000000,2.000000,-1.000000,-1.000000,-2.000000
1296078.490278,-3.000000,-4.000000,0.000000,6.000000,0.000000,-1.000000,-1.000000,2.000000
1296078.505398,-1.000000,-2.000000,-5.000000,-8.000000,1.000000,-3.000000,-3.000000,-2.000000
1296078.505416,-6.000000,-3.000000,4.000000,-1.000000,-1.000000,2.000000,1.000000,2.000000
1296078.512674,5.000000,-1.000000,0.000000,2.000000,-5.000000,-1.000000,-1.000000,-5.000000
1296078.512694,-8.000000,1.000000,9.000000,-4.000000,0.000000,-2.000000,-3.000000,0.000000
1296078.527646,2.000000,-1.000000,2.000000,2.000000,-7.000000,4.000000,5.000000,-4.000000
1296078.527665,2.000000,-3.000000,3.000000,-1.000000,6.000000,10.000000,-1.000000,0.000000
1296078.535258,0.000000,3.000000,-1.000000,2.000000,-6.000000,-15.000000,-7.000000,-1.000000
1296078.535294,0.000000,-3.000000,0.000000,-6.000000,3.000000,17.000000,-2.000000,1.000000
1296078.565666,0.000000,-2.000000,0.000000,-3.000000,1.000000,-1.000000,-1.000000,-1.000000
1296078.565721,3.000000,1.000000,1.000000,1.000000,-6.000000,-20.000000,1.000000,0.000000
1296078.573255,-2.000000,-4.000000,-6.000000,-1.000000,3.000000,25.000000,-1.000000,-3.000000
1296078.573285,-5.000000,-3.000000,-1.000000,-3.000000,-3.000000,-3.000000,8.000000,5.000000
1296078.603367,-4.000000,-8.000000,-3.000000,3.000000,-7.000000,-7.000000,-1.000000,-6.000000
1296078.603396,0.000000,-5.000000,2.000000,1.000000,2.000000,-7.000000,-5.000000,-1.000000
1296078.610839,-2.000000,0.000000,2.000000,-2.000000,1.000000,0.000000,3.000000,-5.000000
1296078.610869,-5.000000,-3.000000,4.000000,2.000000,0.000000,-1.000000,0.000000,1.000000
1296078.640757,-3.000000,0.000000,2.000000,-5.000000,-7.000000,-1.000000,-1.000000,0.000000
1296078.640920,3.000000,0.000000,-2.000000,0.000000,1.000000,-3.000000,-1.000000,-3.000000
1296078.648260,-4.000000,-6.000000,0.000000,-3.000000,-3.000000,-1.000000,-1.000000,3.000000
1296078.648367,-4.000000,6.000000,-6.000000,1.000000,-1.000000,-1.000000,0.000000,-1.000000
1296078.679976,5.000000,2.000000,-8.000000,-1.000000,3.000000,-2.000000,-4.000000,0.000000
1296078.680433,0.000000,-5.000000,-5.000000,-6.000000,-1.000000,-9.000000,0.000000,-5.000000
1296078.680826,-2.000000,-6.000000,2.000000,4.000000,-1.000000,9.000000,-2.000000,-1.000000
1296078.681271,2.000000,0.000000,-1.000000,-3.000000,-4.000000,-5.000000,-1.000000,4.000000
1296078.682073,3.000000,2.000000,4.000000,-1.000000,-3.000000,8.000000,-4.000000,0.000000
1296078.682096,-2.000000,6.000000,1.000000,1.000000,-1.000000,-8.000000,-3.000000,-6.000000
1296078.682577,-2.000000,0.000000,-3.000000,-4.000000,0.000000,8.000000,1.000000,1.000000
1296078.682630,1.000000,-4.000000,-5.000000,-1.000000,-6.000000,-5.000000,-1.000000,0.000000
1296078.683275,0.000000,2.000000,-1.000000,-3.000000,-15.000000,0.000000,-3.000000,-2.000000
1296078.683432,4.000000,-1.000000,0.000000,-6.000000,2.000000,-6.000000,0.000000,3.000000
1296078.694027,-1.000000,-1.000000,2.000000,-2.000000,-4.000000,-1.000000,0.000000,-1.000000
1296078.694053,2.000000,-4.000000,1.000000,2.000000,-1.000000,-3.000000,-2.000000,-4.000000
1296078.700532,2.000000,3.000000,3.000000,-5.000000,-3.000000,-9.000000,-5.000000,1.000000
1296078.700561,-1.000000,-6.000000,2.000000,3.000000,1.000000,14.000000,-1.000000,-4.000000
1296078.715464,1.000000,0.000000,-1.000000,-4.000000,-2.000000,1.000000,2.000000,1.000000
1296078.715491,-3.000000,-4.000000,-1.000000,4.000000,3.000000,-6.000000,-3.000000,2.000000
1296078.730818,-3.000000,4.000000,0.000000,1.000000,2.000000,1.000000,-1.000000,1.000000
1296078.730847,-9.000000,1.000000,-1.000000,1.000000,3.000000,-12.000000,-2.000000,-4.000000
1296078.738225,0.000000,-4.000000,4.000000,-8.000000,1.000000,23.000000,0.000000,0.000000
1296078.738252,0.000000,-7.000000,2.000000,-9.000000,-4.000000,6.000000,3.000000,1.000000
1296078.767979,-3.000000,3.000000,-3.000000,0.000000,-4.000000,-12.000000,-5.000000,-4.000000
1296078.768008,-5.000000,2.000000,-5.000000,-7.000000,-1.000000,3.000000,3.000000,-3.000000
1296078.776070,0.000000,4.000000,-3.000000,-6.000000,0.000000,-3.000000,3.000000,4.000000
1296078.776097,-5.000000,2.000000,-2.000000,1.000000,-4.000000,3.000000,-4.000000,0.000000
1296078.790669,0.000000,-2.000000,-4.000000,0.000000,1.000000,-28.000000,-3.000000,0.000000
1296078.790696,4.000000,-1.000000,2.000000,-3.000000,-1.000000,30.000000,-3.000000,-1.000000
1296078.798369,-2.000000,0.000000,-5.000000,1.000000,0.000000,-11.000000,0.000000,-1.000000
1296078.798482,-4.000000,-5.000000,3.000000,0.000000,-2.000000,7.000000,0.000000,-4.000000
1296078.800734,-1.000000,-1.000000,-2.000000,-2.000000,9.000000,-16.000000,-8.000000,3.000000
1296078.800760,1.000000,3.000000,1.000000,2.000000,-2.000000,9.000000,2.000000,2.000000
1296078.801849,2.000000,-3.000000,3.000000,2.000000,-6.000000,-12.000000,1.000000,4.000000
1296078.801915,0.000000,-3.000000,-1.000000,3.000000,-5.000000,11.000000,-1.000000,-3.000000
1296078.802218,-5.000000,2.000000,2.000000,-3.000000,-4.000000,1.000000,4.000000,-6.000000
1296078.802240,-7.000000,1.000000,4.000000,-3.000000,0.000000,-2.000000,2.000000,2.000000
1296078.813693,-3.000000,2.000000,-5.000000,4.000000,1.000000,-3.000000,0.000000,4.000000
1296078.813822,0.000000,0.000000,-3.000000,0.000000,1.000000,8.000000,0.000000,2.000000
1296078.820513,4.000000,1.000000,2.000000,0.000000,0.000000,-8.000000,0.000000,1.000000
1296078.820552,-7.000000,-6.000000,-4.000000,-2.000000,-1.000000,10.000000,-1.000000,-7.000000
1296078.828450,-2.000000,0.000000,1.000000,-4.000000,3.000000,-1.000000,1.000000,-2.000000
1296078.828478,-3.000000,-1.000000,2.000000,3.000000,-3.000000,-28.000000,-2.000000,-3.000000
1296078.843685,-1.000000,1.000000,4.000000,0.000000,1.000000,21.000000,5.000000,-3.000000
1296078.843732,-3.000000,-3.000000,4.000000,-3.000000,0.000000,-4.000000,3.000000,1.000000
1296078.850786,-3.000000,6.000000,2.000000,-4.000000,-1.000000,0.000000,-4.000000,2.000000
1296078.850817,-1.000000,0.000000,-1.000000,-3.000000,-5.000000,-3.000000,-1.000000,-1.000000
1296078.888117,2.000000,-1.000000,2.000000,-4.000000,-3.000000,-19.000000,0.000000,-1.000000
1296078.888146,-7.000000,-10.000000,-1.000000,3.000000,-5.000000,28.000000,-5.000000,-2.000000
1296078.903319,-2.000000,-4.000000,3.000000,-4.000000,5.000000,2.000000,3.000000,1.000000
1296078.903348,-2.000000,0.000000,-3.000000,0.000000,-4.000000,-2.000000,-4.000000,-4.000000
1296078.926311,0.000000,-3.000000,3.000000,1.000000,-2.000000,-15.000000,-7.000000,2.000000
1296078.926367,-1.000000,1.000000,4.000000,-4.000000,-4.000000,10.000000,3.000000,-1.000000
1296078.927404,2.000000,-6.000000,-1.000000,-3.000000,-2.000000,-11.000000,0.000000,-3.000000
1296078.928030,-4.000000,-1.000000,-2.000000,5.000000,0.000000,-7.000000,-1.000000,-3.000000
1296078.929175,0.000000,4.000000,0.000000,-1.000000,8.000000,-4.000000,-1.000000,0.000000
1296078.929202,3.000000,1.000000,-3.000000,-1.000000,-8.000000,-7.000000,-2.000000,0.000000
1296078.929417,0.000000,-3.000000,-5.000000,0.000000,4.000000,8.000000,3.000000,0.000000
1296078.929463,-2.000000,-1.000000,-1.000000,-6.000000,-6.000000,-10.000000,-8.000000,3.000000
1296078.955917,0.000000,0.000000,-1.000000,2.000000,1.000000,-19.000000,1.000000,-3.000000
1296078.955965,-4.000000,-2.000000,-9.000000,1.000000,3.000000,22.000000,1.000000,-3.000000
1296078.970724,-7.000000,-4.000000,2.000000,-4.000000,-1.000000,-10.000000,6.000000,1.000000
1296078.970751,2.000000,2.000000,3.000000,2.000000,-10.000000,1.000000,-1.000000,-6.000000
1296078.978262,-3.000000,-1.000000,3.000000,0.000000,-6.000000,1.000000,0.000000,0.000000
1296078.978300,-3.000000,1.000000,-2.000000,2.000000,2.000000,-1.000000,-5.000000,0.000000
1296079.008406,0.000000,0.000000,4.000000,0.000000,-4.000000,-2.000000,-3.000000,1.000000
1296079.008697,-4.000000,5.000000,-1.000000,-1.000000,7.000000,2.000000,0.000000,-1.000000
1296079.009313,-2.000000,-5.000000,-2.000000,-1.000000,1.000000,6.000000,0.000000,-4.000000
1296079.010075,-2.000000,1.000000,2.000000,5.000000,-5.000000,-26.000000,0.000000,7.000000
1296079.011456,-3.000000,1.000000,-3.000000,-4.000000,-8.000000,30.000000,0.000000,0.000000
1296079.011486,3.000000,-12.000000,0.000000,-5.000000,5.000000,-5.000000,1.000000,0.000000
1296079.011729,1.000000,3.000000,0.000000,0.000000,-2.000000,4.000000,2.000000,2.000000
1296079.011787,-4.000000,1.000000,-2.000000,-3.000000,-6.000000,3.000000,-5.000000,-3.000000
1296079.039287,-2.000000,-3.000000,2.000000,-1.000000,0.000000,-2.000000,2.000000,1.000000
1296079.039525,-3.000000,-2.000000,-8.000000,-6.000000,-4.000000,-3.000000,1.000000,-2.000000
1296079.040411,-3.000000,0.000000,0.000000,-1.000000,-2.000000,-8.000000,0.000000,2.000000
1296079.040543,-2.000000,-4.000000,-1.000000,1.000000,3.000000,6.000000,-3.000000,-2.000000
1296079.041233,2.000000,-4.000000,-3.000000,-8.000000,3.000000,-6.000000,2.000000,-1.000000
1296079.041255,0.000000,1.000000,-3.000000,5.000000,-4.000000,18.000000,-3.000000,0.000000
1296079.068176,0.000000,-3.000000,-1.000000,6.000000,-1.000000,-14.000000,-8.000000,-3.000000
1296079.068206,-2.000000,-4.000000,-3.000000,-3.000000,-1.000000,5.000000,-1.000000,-2.000000
1296079.083165,-2.000000,-6.000000,-6.000000,4.000000,6.000000,2.000000,-1.000000,-4.000000
1296079.083194,1.000000,1.000000,-4.000000,-3.000000,-4.000000,3.000000,1.000000,-2.000000
1296079.090955,2.000000,3.000000,0.000000,-4.000000,3.000000,-18.000000,-4.000000,-1.000000
1296079.091014,0.000000,4.000000,-1.000000,-6.000000,1.000000,12.000000,-7.000000,1.000000
1296079.113313,-1.000000,-2.000000,-1.000000,0.000000,-2.000000,-35.000000,7.000000,5.000000
1296079.113346,-4.000000,-5.000000,-1.000000,-12.000000,5.000000,19.000000,-4.000000,-2.000000
1296079.128201,2.000000,-2.000000,0.000000,0.000000,-5.000000,7.000000,-4.000000,-3.000000
1296079.128229,-4.000000,3.000000,1.000000,-3.000000,2.000000,-10.000000,3.000000,1.000000
1296079.150735,2.000000,-2.000000,-2.000000,-3.000000,0.000000,5.000000,2.000000,-4.000000
1296079.150764,2.000000,0.000000,0.000000,9.000000,-1.000000,-8.000000,-4.000000,-6.000000
1296079.159551,1.000000,1.000000,-3.000000,7.000000,-1.000000,6.000000,-3.000000,0.000000
1296079.159576,-2.000000,-5.000000,1.000000,-6.000000,3.000000,2.000000,3.000000,-4.000000
1296079.159933,-8.000000,-1.000000,0.000000,-2.000000,-7.000000,-7.000000,-1.000000,-2.000000
1296079.159954,-7.000000,-7.000000,1.000000,4.000000,7.000000,0.000000,0.000000,-4.000000
1296079.166075,8.000000,-5.000000,2.000000,-6.000000,-9.000000,-3.000000,-4.000000,2.000000
1296079.166098,2.000000,4.000000,-1.000000,3.000000,0.000000,-15.000000,-1.000000,1.000000
1296079.166995,1.000000,1.000000,2.000000,-7.000000,-3.000000,24.000000,0.000000,-3.000000
1296079.167023,-4.000000,-1.000000,-6.000000,-1.000000,8.000000,-8.000000,0.000000,-1.000000
1296079.167878,-4.000000,-3.000000,-5.000000,1.000000,6.000000,-16.000000,-1.000000,0.000000
1296079.167905,0.000000,7.000000,6.000000,-2.000000,-1.000000,9.000000,1.000000,-5.000000
1296079.195711,0.000000,-1.000000,2.000000,3.000000,1.000000,0.000000,8.000000,4.000000
1296079.195738,2.000000,-2.000000,-1.000000,-3.000000,4.000000,5.000000,-7.000000,3.000000
1296079.203471,-3.000000,2.000000,-3.000000,1.000000,2.000000,-9.000000,-5.000000,0.000000
1296079.203501,0.000000,-6.000000,-6.000000,-4.000000,-4.000000,-33.000000,-6.000000,5.000000
1296079.240606,0.000000,1.000000,4.000000,-6.000000,2.000000,53.000000,-2.000000,-3.000000
1296079.240636,5.000000,-3.000000,-3.000000,-1.000000,-1.000000,-34.000000,-3.000000,1.000000
1296079.248610,-3.000000,-4.000000,-7.000000,3.000000,-5.000000,2.000000,0.000000,-2.000000
1296079.248669,-6.000000,-8.000000,-1.000000,-3.000000,4.000000,3.000000,-2.000000,-4.000000
1296079.271284,-4.000000,-2.000000,-1.000000,-5.000000,-4.000000,-2.000000,-3.000000,-3.000000
1296079.271349,6.000000,-6.000000,-4.000000,0.000000,-7.000000,-4.000000,3.000000,-1.000000
1296079.271634,-9.000000,2.000000,5.000000,2.000000,4.000000,5.000000,1.000000,-2.000000
1296079.271676,-3.000000,-2.000000,-1.000000,-3.000000,-5.000000,-7.000000,1.000000,-3.000000
1296079.274855,-5.000000,-6.000000,-2.000000,-1.000000,0.000000,-25.000000,-8.000000,-1.000000
1296079.274878,4.000000,-2.000000,0.000000,0.000000,-2.000000,26.000000,1.000000,-2.000000
1296079.275003,0.000000,0.000000,7.000000,4.000000,-2.000000,0.000000,-3.000000,1.000000
1296079.275047,1.000000,0.000000,-7.000000,-2.000000,-1.000000,-34.000000,-6.000000,-4.000000
1296079.278037,1.000000,-2.000000,-9.000000,5.000000,2.000000,-22.000000,-5.000000,1.000000
1296079.278065,2.000000,-3.000000,5.000000,-7.000000,-5.000000,16.000000,-3.000000,1.000000
1296079.316469,1.000000,-9.000000,1.000000,-4.000000,-2.000000,-6.000000,1.000000,0.000000
1296079.316633,0.000000,-6.000000,1.000000,-3.000000,4.000000,-2.000000,-1.000000,-2.000000
1296079.324142,0.000000,2.000000,-3.000000,0.000000,-6.000000,-6.000000,-1.000000,-1.000000
1296079.324218,0.000000,-4.000000,-1.000000,-2.000000,2.000000,-12.000000,-3.000000,5.000000
1296079.353865,1.000000,-4.000000,5.000000,5.000000,-5.000000,8.000000,-3.000000,-2.000000
1296079.353896,4.000000,3.000000,-6.000000,6.000000,0.000000,10.000000,8.000000,-4.000000
1296079.360784,1.000000,-2.000000,-3.000000,2.000000,0.000000,-14.000000,-5.000000,2.000000
1296079.360815,-4.000000,-4.000000,-1.000000,3.000000,-2.000000,4.000000,-3.000000,-3.000000
1296079.369449,5.000000,-7.000000,1.000000,-3.000000,-4.000000,-3.000000,3.000000,1.000000
1296079.369528,-11.000000,-4.000000,-4.000000,-1.000000,1.000000,7.000000,-5.000000,-6.000000
1296079.370725,0.000000,1.000000,-1.000000,-3.000000,0.000000,-4.000000,-1.000000,-1.000000
1296079.370756,-4.000000,-2.000000,-6.000000,3.000000,-5.000000,-1.000000,1.000000,2.000000
1296079.372008,-4.000000,-4.000000,5.000000,3.000000,6.000000,15.000000,-1.000000,-3.000000
1296079.372039,-4.000000,5.000000,-5.000000,4.000000,-3.000000,-1.000000,2.000000,5.000000
1296079.383529,1.000000,-6.000000,2.000000,0.000000,-6.000000,0.000000,-2.000000,0.000000
1296079.383768,-6.000000,-1.000000,0.000000,-4.000000,1.000000,-20.000000,-1.000000,-3.000000
1296079.390527,-2.000000,-4.000000,-1.000000,-1.000000,-2.000000,13.000000,1.000000,-2.000000
1296079.390552,-7.000000,-1.000000,5.000000,1.000000,6.000000,8.000000,8.000000,3.000000
1296079.392508,-2.000000,4.000000,-3.000000,4.000000,-8.000000,-10.000000,-6.000000,-1.000000
1296079.392534,-4.000000,-3.000000,4.000000,-1.000000,-3.000000,2.000000,-5.000000,-5.000000
1296079.398364,4.000000,6.000000,-2.000000,-7.000000,-9.000000,-40.000000,-1.000000,2.000000
1296079.398394,-2.000000,0.000000,-3.000000,6.000000,-3.000000,43.000000,1.000000,-1.000000
1296079.443238,8.000000,2.000000,-2.000000,-4.000000,6.000000,-14.000000,-4.000000,-4.000000
1296079.443281,0.000000,1.000000,0.000000,-1.000000,-11.000000,-7.000000,1.000000,2.000000
1296079.450638,-3.000000,1.000000,-1.000000,-2.000000,-3.000000,2.000000,1.000000,-1.000000
1296079.450665,-1.000000,-3.000000,-5.000000,0.000000,0.000000,-8.000000,-2.000000,-2.000000
1296079.481060,3.000000,0.000000,1.000000,2.000000,2.000000,2.000000,1.000000,2.000000
1296079.481089,-3.000000,2.000000,-1.000000,-7.000000,-5.000000,-1.000000,-3.000000,-4.000000
1296079.511346,1.000000,1.000000,-2.000000,-2.000000,0.000000,-5.000000,-4.000000,-1.000000
1296079.511408,-3.000000,8.000000,-2.000000,2.000000,1.000000,-3.000000,-3.000000,1.000000
1296079.513165,2.000000,3.000000,-6.000000,-4.000000,-6.000000,12.000000,3.000000,0.000000
1296079.513204,-1.000000,-3.000000,-4.000000,2.000000,-4.000000,-8.000000,3.000000,-1.000000
1296079.513443,-4.000000,1.000000,2.000000,-1.000000,0.000000,-5.000000,-7.000000,-1.000000
1296079.513470,1.000000,-3.000000,5.000000,-4.000000,3.000000,-22.000000,0.000000,-2.000000
1296079.515623,-5.000000,-2.000000,-6.000000,-5.000000,11.000000,8.000000,-2.000000,-6.000000
1296079.515646,-4.000000,-2.000000,0.000000,1.000000,0.000000,-3.000000,2.000000,-5.000000
1296079.517938,3.000000,-2.000000,-2.000000,-2.000000,-1.000000,-9.000000,-5.000000,-1.000000
1296079.517965,-6.000000,-5.000000,6.000000,-5.000000,-3.000000,0.000000,1.000000,-1.000000
1296079.540924,4.000000,2.000000,-1.000000,-5.000000,1.000000,-1.000000,0.000000,1.000000
1296079.540971,-7.000000,0.000000,0.000000,0.000000,0.000000,2.000000,-3.000000,-1.000000
1296079.548124,-1.000000,3.000000,0.000000,1.000000,1.000000,-13.000000,3.000000,1.000000
1296079.548149,4.000000,-1.000000,2.000000,-2.000000,-2.000000,-9.000000,-1.000000,0.000000
1296079.563253,-2.000000,3.000000,2.000000,3.000000,0.000000,30.000000,7.000000,-1.000000
1296079.563282,1.000000,-4.000000,-4.000000,-6.000000,0.000000,-12.000000,-5.000000,-4.000000
1296079.578125,-5.000000,-3.000000,-2.000000,1.000000,-1.000000,2.000000,-2.000000,-3.000000
1296079.578152,-1.000000,-3.000000,0.000000,-3.000000,-8.000000,-2.000000,-4.000000,2.000000
1296079.601737,1.000000,-3.000000,0.000000,-2.000000,1.000000,5.000000,1.000000,-1.000000
1296079.601787,-5.000000,-7.000000,3.000000,-2.000000,1.000000,1.000000,1.000000,-3.000000
1296079.603916,3.000000,-6.000000,-7.000000,-2.000000,7.000000,2.000000,-1.000000,2.000000
1296079.603942,-6.000000,-4.000000,3.000000,4.000000,-3.000000,4.000000,-3.000000,-3.000000
1296079.604536,-3.000000,-3.000000,-1.000000,-8.000000,3.000000,2.000000,-3.000000,-1.000000
1296079.604559,3.000000,5.000000,-7.000000,0.000000,1.000000,10.000000,-3.000000,-3.000000
1296079.604716,0.000000,-3.000000,3.000000,0.000000,-14.000000,-4.000000,0.000000,0.000000
1296079.604748,-2.000000,2.000000,2.000000,-2.000000,0.000000,0.000000,-8.000000,-1.000000
1296079.632097,-1.000000,-5.000000,4.000000,2.000000,-1.000000,-11.000000,-2.000000,-1.000000
1296079.632151,-3.000000,-3.000000,0.000000,-2.000000,-2.000000,3.000000,0.000000,0.000000
1296079.632426,-1.000000,-3.000000,-8.000000,3.000000,10.000000,-6.000000,3.000000,-3.000000
1296079.632449,1.000000,1.000000,1.000000,-6.000000,2.000000,-1.000000,-6.000000,0.000000
1296079.634195,-6.000000,-4.000000,0.000000,-1.000000,1.000000,-6.000000,-1.000000,0.000000
1296079.634288,0.000000,1.000000,-1.000000,2.000000,0.000000,11.000000,5.000000,-3.000000
1296079.645741,-4.000000,1.000000,-7.000000,-2.000000,-1.000000,-17.000000,-5.000000,-2.000000
1296079.645771,3.000000,4.000000,2.000000,-1.000000,-6.000000,20.000000,-3.000000,-3.000000
1296079.683270,-2.000000,0.000000,4.000000,-3.000000,-4.000000,-5.000000,5.000000,2.000000
1296079.683300,-1.000000,-2.000000,4.000000,3.000000,-9.000000,-8.000000,-5.000000,-1.000000
1296079.713303,2.000000,3.000000,-1.000000,1.000000,-4.000000,-1.000000,-5.000000,-3.000000
1296079.713336,6.000000,-6.000000,-6.000000,-1.000000,5.000000,0.000000,-1.000000,0.000000
1296079.736082,-7.000000,-1.000000,-8.000000,3.000000,3.000000,-10.000000,0.000000,1.000000
1296079.736112,-5.000000,-8.000000,3.000000,0.000000,1.000000,15.000000,-3.000000,-4.000000
1296079.736245,4.000000,2.000000,-2.000000,3.000000,-2.000000,-44.000000,-2.000000,0.000000
1296079.736258,-3.000000,-1.000000,-2.000000,-5.000000,3.000000,26.000000,2.000000,-5.000000
1296079.751689,1.000000,-5.000000,3.000000,4.000000,-3.000000,-10.000000,-1.000000,-4.000000
1296079.751727,-2.000000,-4.000000,-2.000000,1.000000,-2.000000,-3.000000,0.000000,3.000000
1296079.752949,-5.000000,0.000000,-2.000000,-1.000000,1.000000,-1.000000,-4.000000,-4.000000
1296079.752980,2.000000,0.000000,-6.000000,-4.000000,-4.000000,-11.000000,-4.000000,2.000000
1296079.754025,0.000000,-2.000000,-1.000000,7.000000,0.000000,-3.000000,7.000000,-3.000000
1296079.754051,0.000000,-3.000000,-2.000000,-1.000000,0.000000,1.000000,-1.000000,-1.000000
1296079.754661,-4.000000,3.000000,-1.000000,-2.000000,-6.000000,1.000000,-5.000000,-6.000000
1296079.754781,2.000000,-3.000000,-2.000000,-2.000000,0.000000,-9.000000,-1.000000,0.000000
1296079.788802,-5.000000,-5.000000,-1.000000,-2.000000,-1.000000,-16.000000,-1.000000,-1.000000
1296079.788832,-1.000000,3.000000,-5.000000,-4.000000,1.000000,17.000000,0.000000,1.000000
1296079.803618,3.000000,1.000000,5.000000,-1.000000,-4.000000,-14.000000,-3.000000,0.000000
1296079.803700,4.000000,2.000000,1.000000,-3.000000,-10.000000,-17.000000,-6.000000,-1.000000
1296079.811002,-2.000000,-1.000000,-4.000000,4.000000,3.000000,19.000000,0.000000,-3.000000
1296079.811129,-3.000000,-6.000000,-3.000000,0.000000,2.000000,6.000000,4.000000,6.000000
1296079.834224,-3.000000,8.000000,0.000000,-7.000000,0.000000,-13.000000,-3.000000,0.000000
1296079.834312,1.000000,1.000000,-2.000000,-4.000000,-1.000000,-1.000000,0.000000,-2.000000
1296079.834634,1.000000,-4.000000,6.000000,2.000000,-3.000000,-6.000000,-5.000000,-2.000000
1296079.835173,2.000000,-6.000000,-7.000000,6.000000,0.000000,12.000000,4.000000,-2.000000
1296079.835857,3.000000,8.000000,-4.000000,-9.000000,1.000000,-20.000000,-3.000000,1.000000
1296079.835879,3.000000,3.000000,1.000000,0.000000,-6.000000,22.000000,0.000000,-1.000000
1296079.836741,-1.000000,-1.000000,-3.000000,2.000000,-4.000000,-14.000000,-1.000000,3.000000
1296079.836766,-1.000000,-1.000000,-1.000000,7.000000,1.000000,-5.000000,-4.000000,-2.000000
1296079.841549,1.000000,1.000000,-2.000000,3.000000,-3.000000,0.000000,4.000000,-4.000000
1296079.841581,1.000000,0.000000,-6.000000,0.000000,0.000000,3.000000,-6.000000,0.000000
1296079.863688,0.000000,-6.000000,-3.000000,-7.000000,2.000000,-29.000000,-2.000000,0.000000
