# participant_id: P3
# gesture: baseline
# trial_number: 2
# stream_name: Myo_EMG
# stream_type: emg
# timestamp: 20260420_132958
# samples: 5264
# duration_sec: 30.399
# nominal_sample_rate: 200.0
# effective_sample_rate: 173.13
#
timestamp,emg_1,emg_2,emg_3,emg_4,emg_5,emg_6,emg_7,emg_8
1296490.457748,2.000000,-3.000000,-2.000000,2.000000,-3.000000,0.000000,0.000000,-1.000000
1296490.457760,-4.000000,-2.000000,-2.000000,4.000000,2.000000,-3.000000,0.000000,-4.000000
1296490.465185,-1.000000,1.000000,2.000000,4.000000,0.000000,1.000000,-2.000000,-1.000000
1296490.465205,-3.000000,-2.000000,-3.000000,-3.000000,2.000000,-1.000000,-1.000000,-1.000000
1296490.466395,1.000000,0.000000,-2.000000,-5.000000,-3.000000,-4.000000,3.000000,0.000000
1296490.466418,-2.000000,-3.000000,0.000000,-2.000000,-4.000000,2.000000,-3.000000,0.000000
1296490.467006,-4.000000,0.000000,-6.000000,-3.000000,-2.000000,1.000000,0.000000,0.000000
1296490.467020,-3.000000,-3.000000,0.000000,-1.000000,1.000000,0.000000,2.000000,-1.000000
1296490.487880,-1.000000,-2.000000,2.000000,2.000000,-4.000000,0.000000,-2.000000,0.000000
1296490.487912,-2.000000,-2.000000,1.000000,-6.000000,1.000000,-5.000000,1.000000,-1.000000
1296490.488641,2.000000,-1.000000,4.000000,1.000000,-1.000000,-1.000000,1.000000,0.000000
1296490.488669,1.000000,-1.000000,-3.000000,-3.000000,2.000000,1.000000,-1.000000,0.000000
1296490.489613,-4.000000,-5.000000,4.000000,-1.000000,-2.000000,0.000000,1.000000,-2.000000
1296490.489622,-2.000000,0.000000,-4.000000,-5.000000,-1.000000,-3.000000,-4.000000,1.000000
1296490.511125,-4.000000,-1.000000,-1.000000,1.000000,0.000000,0.000000,-1.000000,-1.000000
1296490.511137,0.000000,0.000000,3.000000,2.000000,0.000000,0.000000,-1.000000,1.000000
1296490.532833,-2.000000,0.000000,4.000000,3.000000,-2.000000,1.000000,0.000000,-3.000000
1296490.532853,-5.000000,-1.000000,-1.000000,-3.000000,1.000000,2.000000,4.000000,-2.000000
1296490.540247,1.000000,-3.000000,-6.000000,-2.000000,-1.000000,-1.000000,0.000000,1.000000
1296490.540270,-1.000000,2.000000,-3.000000,0.000000,0.000000,-4.000000,-2.000000,3.000000
1296490.570314,-2.000000,2.000000,0.000000,-4.000000,0.000000,-2.000000,-2.000000,-1.000000
1296490.570327,-1.000000,-1.000000,-1.000000,-1.000000,2.000000,2.000000,0.000000,1.000000
1296490.577886,2.000000,-1.000000,-2.000000,-5.000000,-1.000000,-1.000000,1.000000,1.000000
1296490.577907,-4.000000,-3.000000,-1.000000,4.000000,-1.000000,0.000000,-1.000000,-3.000000
1296490.608620,0.000000,-3.000000,-6.000000,3.000000,0.000000,-1.000000,0.000000,2.000000
1296490.608631,1.000000,-6.000000,0.000000,-8.000000,0.000000,2.000000,-1.000000,-4.000000
1296490.608936,-1.000000,-2.000000,0.000000,2.000000,-3.000000,-2.000000,1.000000,-3.000000
1296490.608945,-3.000000,1.000000,0.000000,-3.000000,0.000000,2.000000,-1.000000,-1.000000
1296490.610118,1.000000,0.000000,0.000000,2.000000,1.000000,-4.000000,0.000000,-3.000000
1296490.610128,0.000000,-3.000000,2.000000,-1.000000,-4.000000,0.000000,-2.000000,-3.000000
1296490.612253,1.000000,0.000000,-5.000000,1.000000,0.000000,-2.000000,-2.000000,0.000000
1296490.612266,-1.000000,5.000000,-1.000000,0.000000,0.000000,-1.000000,-1.000000,1.000000
1296490.623603,-2.000000,2.000000,3.000000,0.000000,-5.000000,-2.000000,3.000000,-3.000000
1296490.623631,-2.000000,-3.000000,0.000000,0.000000,-1.000000,-1.000000,-2.000000,-3.000000
1296490.645857,-1.000000,0.000000,-3.000000,-3.000000,3.000000,-1.000000,-1.000000,-1.000000
1296490.645883,-1.000000,-5.000000,5.000000,-3.000000,2.000000,-3.000000,-2.000000,2.000000
1296490.653387,-2.000000,-4.000000,-4.000000,1.000000,-1.000000,0.000000,0.000000,-2.000000
1296490.653412,2.000000,-1.000000,-5.000000,-3.000000,-1.000000,0.000000,0.000000,0.000000
1296490.676439,-1.000000,-1.000000,-2.000000,-2.000000,0.000000,-1.000000,0.000000,-4.000000
1296490.676497,1.000000,-1.000000,1.000000,0.000000,-1.000000,-5.000000,-3.000000,-3.000000
1296490.691541,1.000000,-1.000000,-2.000000,0.000000,-2.000000,-1.000000,0.000000,3.000000
1296490.691595,-2.000000,2.000000,0.000000,0.000000,-1.000000,1.000000,2.000000,-1.000000
1296490.693342,-2.000000,-1.000000,-4.000000,3.000000,0.000000,-1.000000,-1.000000,-1.000000
1296490.693806,-3.000000,-1.000000,-3.000000,4.000000,3.000000,1.000000,2.000000,-3.000000
1296490.694047,1.000000,-2.000000,-2.000000,-3.000000,1.000000,0.000000,-2.000000,0.000000
1296490.694085,0.000000,-2.000000,-1.000000,3.000000,-3.000000,-1.000000,-2.000000,1.000000
1296490.698777,1.000000,0.000000,2.000000,-4.000000,-4.000000,-2.000000,-3.000000,-6.000000
1296490.698834,3.000000,1.000000,-2.000000,-2.000000,-2.000000,0.000000,-3.000000,-3.000000
1296490.728599,-1.000000,-1.000000,-7.000000,1.000000,2.000000,-2.000000,1.000000,0.000000
1296490.728627,-1.000000,-4.000000,-4.000000,-1.000000,-1.000000,-1.000000,-3.000000,-2.000000
1296490.743630,-3.000000,1.000000,-5.000000,0.000000,-1.000000,-1.000000,-1.000000,0.000000
1296490.743656,-4.000000,2.000000,1.000000,3.000000,-2.000000,0.000000,0.000000,-3.000000
1296490.751437,-1.000000,0.000000,-4.000000,-2.000000,-2.000000,-3.000000,0.000000,-4.000000
1296490.751466,1.000000,0.000000,-3.000000,-1.000000,0.000000,0.000000,1.000000,1.000000
1296490.766944,-2.000000,0.000000,0.000000,3.000000,-1.000000,0.000000,-1.000000,0.000000
1296490.767165,1.000000,1.000000,-6.000000,3.000000,-1.000000,-4.000000,-2.000000,-1.000000
1296490.768319,0.000000,-4.000000,-2.000000,-4.000000,0.000000,-1.000000,2.000000,-3.000000
1296490.768346,-1.000000,-2.000000,0.000000,-1.000000,-2.000000,1.000000,0.000000,-1.000000
1296490.769307,-2.000000,1.000000,1.000000,-3.000000,-2.000000,0.000000,-2.000000,-1.000000
1296490.769333,-2.000000,-1.000000,-4.000000,1.000000,2.000000,-1.000000,-2.000000,0.000000
1296490.769935,-4.000000,-4.000000,1.000000,1.000000,1.000000,0.000000,1.000000,-1.000000
1296490.769960,0.000000,-4.000000,-4.000000,0.000000,1.000000,-3.000000,-1.000000,-2.000000
1296490.774088,0.000000,0.000000,-2.000000,-2.000000,-3.000000,2.000000,1.000000,0.000000
1296490.774112,-2.000000,1.000000,-1.000000,4.000000,-4.000000,1.000000,-3.000000,0.000000
1296490.780933,-3.000000,-1.000000,-4.000000,-1.000000,-3.000000,-3.000000,2.000000,1.000000
1296490.780957,0.000000,-3.000000,-1.000000,-6.000000,0.000000,-2.000000,-2.000000,-2.000000
1296490.805358,-2.000000,-1.000000,-2.000000,-1.000000,-1.000000,-2.000000,-2.000000,-1.000000
1296490.805487,0.000000,0.000000,1.000000,4.000000,-1.000000,-3.000000,-2.000000,1.000000
1296490.805921,-2.000000,1.000000,-1.000000,-3.000000,-4.000000,-2.000000,-1.000000,-3.000000
1296490.805960,0.000000,-4.000000,0.000000,-3.000000,1.000000,-2.000000,-3.000000,0.000000
1296490.818646,2.000000,-4.000000,-1.000000,-2.000000,-4.000000,0.000000,0.000000,-3.000000
1296490.818672,1.000000,0.000000,0.000000,3.000000,0.000000,-1.000000,1.000000,-3.000000
1296490.826102,3.000000,-1.000000,-1.000000,1.000000,-1.000000,-1.000000,2.000000,-3.000000
1296490.826128,1.000000,-2.000000,2.000000,3.000000,-3.000000,-5.000000,-2.000000,-3.000000
1296490.848443,-5.000000,-1.000000,-2.000000,-4.000000,-1.000000,-2.000000,-4.000000,-2.000000
1296490.848498,0.000000,0.000000,0.000000,1.000000,0.000000,-1.000000,1.000000,-2.000000
1296490.849247,-1.000000,-1.000000,-4.000000,-4.000000,0.000000,-1.000000,-1.000000,1.000000
1296490.849271,1.000000,1.000000,-3.000000,1.000000,-4.000000,-2.000000,-1.000000,1.000000
1296490.856466,-2.000000,1.000000,-1.000000,-1.000000,0.000000,1.000000,-3.000000,-1.000000
1296490.856512,-2.000000,1.000000,2.000000,3.000000,1.000000,-1.000000,-1.000000,-3.000000
1296490.886068,-3.000000,-2.000000,1.000000,0.000000,-3.000000,2.000000,-1.000000,1.000000
1296490.886095,-3.000000,-3.000000,-3.000000,-3.000000,1.000000,3.000000,3.000000,-1.000000
1296490.900963,-2.000000,1.000000,0.000000,-2.000000,-1.000000,-2.000000,-3.000000,-2.000000
1296490.900989,-1.000000,3.000000,-3.000000,0.000000,-4.000000,2.000000,0.000000,-1.000000
1296490.931379,1.000000,-4.000000,-2.000000,-3.000000,0.000000,0.000000,-2.000000,0.000000
1296490.931405,1.000000,-6.000000,-3.000000,-1.000000,-1.000000,0.000000,-1.000000,-1.000000
1296490.961232,-4.000000,-2.000000,-6.000000,-1.000000,0.000000,-2.000000,1.000000,-1.000000
1296490.961262,2.000000,-3.000000,-1.000000,-1.000000,-1.000000,-2.000000,3.000000,-3.000000
1296490.969056,0.000000,0.000000,0.000000,-1.000000,0.000000,1.000000,2.000000,-4.000000
1296490.969595,0.000000,-1.000000,-3.000000,0.000000,1.000000,1.000000,1.000000,-2.000000
1296490.971110,-4.000000,-3.000000,7.000000,3.000000,-1.000000,2.000000,-1.000000,0.000000
1296490.971796,-2.000000,3.000000,2.000000,-3.000000,-3.000000,-4.000000,-1.000000,0.000000
1296490.973479,2.000000,1.000000,2.000000,0.000000,-3.000000,0.000000,-2.000000,-2.000000
1296490.973549,1.000000,0.000000,-2.000000,-2.000000,-2.000000,0.000000,1.000000,4.000000
1296490.974282,1.000000,1.000000,1.000000,5.000000,-1.000000,-2.000000,2.000000,-3.000000
1296490.974307,0.000000,-1.000000,6.000000,3.000000,-1.000000,1.000000,0.000000,0.000000
1296490.975985,-5.000000,1.000000,4.000000,0.000000,-1.000000,-4.000000,-2.000000,0.000000
1296490.976011,1.000000,-3.000000,-4.000000,0.000000,0.000000,1.000000,0.000000,0.000000
1296491.006232,0.000000,-1.000000,0.000000,-3.000000,0.000000,1.000000,-1.000000,0.000000
1296491.006260,-3.000000,1.000000,0.000000,1.000000,-2.000000,-1.000000,1.000000,0.000000
1296491.021813,-4.000000,-4.000000,-6.000000,2.000000,-3.000000,-1.000000,0.000000,1.000000
1296491.021841,-5.000000,-2.000000,-4.000000,-3.000000,-3.000000,-1.000000,-2.000000,-1.000000
1296491.043973,-5.000000,-3.000000,1.000000,2.000000,-3.000000,0.000000,0.000000,0.000000
1296491.044006,-4.000000,-1.000000,-2.000000,-5.000000,0.000000,-4.000000,-2.000000,0.000000
1296491.058659,1.000000,-4.000000,0.000000,-1.000000,1.000000,-1.000000,-4.000000,-3.000000
1296491.058713,-4.000000,0.000000,0.000000,4.000000,0.000000,0.000000,-4.000000,-3.000000
1296491.059751,-1.000000,-2.000000,0.000000,2.000000,-1.000000,2.000000,1.000000,-1.000000
1296491.059780,1.000000,0.000000,-3.000000,1.000000,0.000000,1.000000,-2.000000,-1.000000
1296491.061234,0.000000,-5.000000,-3.000000,-2.000000,-3.000000,0.000000,-1.000000,-3.000000
1296491.061264,-1.000000,-2.000000,-8.000000,-1.000000,-3.000000,1.000000,0.000000,-2.000000
1296491.061620,-2.000000,-3.000000,2.000000,0.000000,-1.000000,-3.000000,0.000000,0.000000
1296491.061647,-2.000000,-4.000000,0.000000,-2.000000,0.000000,1.000000,-1.000000,-2.000000
1296491.082021,-1.000000,0.000000,-2.000000,1.000000,3.000000,-3.000000,-1.000000,-2.000000
1296491.082440,-1.000000,-3.000000,0.000000,2.000000,-5.000000,0.000000,2.000000,-2.000000
1296491.083909,0.000000,-2.000000,-1.000000,-1.000000,-1.000000,-2.000000,-1.000000,-2.000000
1296491.083936,-1.000000,-3.000000,-2.000000,-7.000000,-2.000000,-3.000000,-3.000000,0.000000
1296491.084074,-2.000000,-3.000000,-1.000000,-1.000000,0.000000,0.000000,-1.000000,-3.000000
1296491.084120,-6.000000,-1.000000,2.000000,-2.000000,-2.000000,-3.000000,-3.000000,1.000000
1296491.096289,0.000000,1.000000,4.000000,1.000000,1.000000,1.000000,-1.000000,-4.000000
1296491.096317,-2.000000,0.000000,-3.000000,-4.000000,-1.000000,-3.000000,-1.000000,0.000000
1296491.103884,-1.000000,-2.000000,0.000000,0.000000,1.000000,1.000000,-2.000000,1.000000
1296491.103912,-2.000000,-3.000000,1.000000,2.000000,-2.000000,0.000000,0.000000,-3.000000
1296491.126329,-3.000000,-1.000000,0.000000,-5.000000,0.000000,0.000000,-1.000000,1.000000
1296491.126359,-1.000000,-4.000000,2.000000,-1.000000,-1.000000,1.000000,0.000000,1.000000
1296491.133661,-2.000000,-2.000000,-3.000000,1.000000,0.000000,-1.000000,-4.000000,0.000000
1296491.133690,-1.000000,-3.000000,-2.000000,-2.000000,-3.000000,1.000000,2.000000,-2.000000
1296491.178933,0.000000,-2.000000,-1.000000,-1.000000,-1.000000,0.000000,0.000000,-2.000000
1296491.179202,-1.000000,-1.000000,0.000000,-1.000000,-2.000000,-1.000000,-2.000000,-1.000000
1296491.180102,1.000000,-5.000000,-4.000000,0.000000,-1.000000,2.000000,-4.000000,0.000000
1296491.180146,1.000000,2.000000,1.000000,-1.000000,-2.000000,-3.000000,1.000000,-1.000000
1296491.181783,2.000000,-2.000000,2.000000,2.000000,-1.000000,0.000000,-3.000000,2.000000
1296491.181813,-3.000000,1.000000,-1.000000,-1.000000,-2.000000,-3.000000,2.000000,-2.000000
1296491.182064,-2.000000,-5.000000,2.000000,0.000000,-3.000000,1.000000,-1.000000,-1.000000
1296491.182118,1.000000,2.000000,-6.000000,-2.000000,-3.000000,-2.000000,0.000000,-3.000000
1296491.193909,0.000000,-1.000000,-2.000000,-10.000000,2.000000,0.000000,-3.000000,-4.000000
1296491.193965,-2.000000,-3.000000,-2.000000,-5.000000,-2.000000,0.000000,-3.000000,0.000000
1296491.201731,-1.000000,2.000000,-1.000000,0.000000,2.000000,1.000000,-3.000000,1.000000
1296491.201758,-1.000000,-6.000000,6.000000,-4.000000,0.000000,-3.000000,-7.000000,-1.000000
1296491.202707,-1.000000,1.000000,-5.000000,-1.000000,-1.000000,1.000000,1.000000,-2.000000
1296491.202744,0.000000,-3.000000,-5.000000,-1.000000,1.000000,-2.000000,-1.000000,-1.000000
1296491.216002,-1.000000,2.000000,0.000000,-2.000000,-3.000000,1.000000,-2.000000,-1.000000
1296491.216030,-2.000000,1.000000,-2.000000,-2.000000,-2.000000,1.000000,3.000000,2.000000
1296491.230992,0.000000,-2.000000,5.000000,0.000000,1.000000,-1.000000,-1.000000,-1.000000
1296491.231018,0.000000,-3.000000,-1.000000,-2.000000,-3.000000,-1.000000,0.000000,-2.000000
1296491.253926,0.000000,-1.000000,-2.000000,3.000000,-1.000000,0.000000,1.000000,2.000000
1296491.253954,2.000000,-1.000000,-2.000000,0.000000,-2.000000,1.000000,-1.000000,-2.000000
1296491.283574,-4.000000,-1.000000,0.000000,1.000000,0.000000,2.000000,1.000000,1.000000
1296491.283602,-2.000000,2.000000,1.000000,-1.000000,1.000000,-3.000000,1.000000,1.000000
1296491.298676,1.000000,-3.000000,-2.000000,-3.000000,0.000000,-2.000000,-2.000000,-2.000000
1296491.298705,-1.000000,0.000000,-2.000000,0.000000,-1.000000,-2.000000,-1.000000,2.000000
1296491.322239,-1.000000,2.000000,4.000000,-1.000000,-2.000000,0.000000,-2.000000,-6.000000
1296491.322292,-1.000000,-1.000000,0.000000,-4.000000,-3.000000,-5.000000,3.000000,-3.000000
1296491.324665,0.000000,-2.000000,-5.000000,0.000000,-1.000000,-1.000000,-2.000000,2.000000
1296491.324690,-1.000000,0.000000,-5.000000,-6.000000,-5.000000,2.000000,1.000000,-1.000000
1296491.325125,-2.000000,0.000000,1.000000,-2.000000,1.000000,-3.000000,-2.000000,-2.000000
1296491.325149,-3.000000,-3.000000,-6.000000,-1.000000,-1.000000,-3.000000,0.000000,-3.000000
1296491.325272,-1.000000,2.000000,-3.000000,-6.000000,-2.000000,-4.000000,0.000000,2.000000
1296491.325313,1.000000,-1.000000,-3.000000,-4.000000,1.000000,1.000000,-5.000000,0.000000
1296491.326196,-2.000000,2.000000,-3.000000,2.000000,-2.000000,-2.000000,0.000000,-3.000000
1296491.326217,-2.000000,-1.000000,0.000000,-3.000000,1.000000,-3.000000,1.000000,2.000000
1296491.336103,0.000000,1.000000,0.000000,-1.000000,-3.000000,0.000000,0.000000,0.000000
1296491.336132,-1.000000,0.000000,4.000000,-1.000000,-1.000000,-1.000000,-3.000000,0.000000
1296491.358585,-1.000000,-1.000000,-3.000000,-1.000000,-1.000000,-3.000000,-2.000000,-3.000000
1296491.358611,0.000000,-3.000000,-1.000000,0.000000,0.000000,1.000000,-4.000000,1.000000
1296491.373966,-2.000000,-2.000000,9.000000,3.000000,1.000000,-5.000000,-2.000000,-1.000000
1296491.374019,1.000000,-3.000000,-1.000000,3.000000,1.000000,1.000000,4.000000,-4.000000
1296491.388796,-5.000000,-1.000000,1.000000,-1.000000,1.000000,-1.000000,-1.000000,-1.000000
1296491.388824,-1.000000,-1.000000,1.000000,-5.000000,2.000000,-3.000000,-3.000000,1.000000
1296491.403931,0.000000,-1.000000,-1.000000,-5.000000,-3.000000,-1.000000,1.000000,-5.000000
1296491.404071,-1.000000,-1.000000,0.000000,3.000000,-1.000000,-1.000000,-1.000000,0.000000
1296491.411256,-2.000000,2.000000,3.000000,-5.000000,-4.000000,-2.000000,-3.000000,-1.000000
1296491.411283,-4.000000,-4.000000,1.000000,0.000000,-2.000000,-2.000000,0.000000,1.000000
1296491.434087,-4.000000,-4.000000,0.000000,3.000000,0.000000,-3.000000,2.000000,2.000000
1296491.434116,-1.000000,-1.000000,3.000000,-3.000000,2.000000,0.000000,-3.000000,1.000000
1296491.434568,1.000000,0.000000,-2.000000,-5.000000,2.000000,0.000000,-2.000000,-3.000000
1296491.434593,-1.000000,-1.000000,3.000000,1.000000,-1.000000,-3.000000,0.000000,-2.000000
1296491.442234,-4.000000,-3.000000,1.000000,-3.000000,-1.000000,-2.000000,-2.000000,1.000000
1296491.442266,-2.000000,1.000000,2.000000,0.000000,-3.000000,-1.000000,0.000000,-3.000000
1296491.442400,-3.000000,-1.000000,-4.000000,-2.000000,-1.000000,-1.000000,-2.000000,-5.000000
1296491.442444,1.000000,-1.000000,0.000000,-3.000000,-1.000000,0.000000,-3.000000,-1.000000
1296491.444229,-1.000000,-1.000000,-3.000000,-2.000000,-5.000000,-2.000000,-3.000000,-4.000000
1296491.444255,-2.000000,-2.000000,1.000000,-2.000000,0.000000,2.000000,-1.000000,1.000000
1296491.444695,-1.000000,0.000000,1.000000,1.000000,-1.000000,0.000000,-1.000000,-2.000000
1296491.444718,-2.000000,-2.000000,2.000000,2.000000,-2.000000,-3.000000,-2.000000,-3.000000
1296491.456022,-2.000000,-1.000000,-5.000000,-2.000000,-3.000000,-1.000000,-2.000000,-4.000000
1296491.456048,-2.000000,-3.000000,-3.000000,-1.000000,1.000000,1.000000,0.000000,-2.000000
1296491.478559,0.000000,1.000000,-3.000000,-4.000000,-3.000000,-2.000000,0.000000,-3.000000
1296491.478586,-2.000000,0.000000,1.000000,1.000000,1.000000,-1.000000,-1.000000,1.000000
1296491.493669,-1.000000,0.000000,3.000000,1.000000,2.000000,0.000000,-1.000000,-2.000000
1296491.493722,-1.000000,-1.000000,1.000000,3.000000,-1.000000,1.000000,1.000000,0.000000
1296491.523589,0.000000,-2.000000,-2.000000,-2.000000,-2.000000,1.000000,-2.000000,1.000000
1296491.523623,-1.000000,3.000000,1.000000,1.000000,3.000000,0.000000,0.000000,-1.000000
1296491.546279,-1.000000,2.000000,1.000000,1.000000,0.000000,-1.000000,-1.000000,-1.000000
1296491.546305,2.000000,-1.000000,-1.000000,-2.000000,-3.000000,-3.000000,-1.000000,1.000000
1296491.561103,-1.000000,-2.000000,-4.000000,-1.000000,3.000000,0.000000,-2.000000,0.000000
1296491.561129,0.000000,-3.000000,1.000000,-2.000000,1.000000,0.000000,1.000000,2.000000
1296491.576417,0.000000,-3.000000,-3.000000,3.000000,2.000000,-1.000000,0.000000,0.000000
1296491.576567,-3.000000,-3.000000,5.000000,2.000000,0.000000,-2.000000,1.000000,0.000000
1296491.599272,2.000000,-1.000000,-1.000000,-1.000000,-4.000000,-3.000000,0.000000,1.000000
1296491.599326,-3.000000,1.000000,2.000000,-1.000000,-1.000000,-1.000000,1.000000,0.000000
1296491.600314,1.000000,0.000000,2.000000,5.000000,-4.000000,1.000000,0.000000,-3.000000
1296491.600370,-4.000000,-1.000000,4.000000,-3.000000,-1.000000,-2.000000,-2.000000,-1.000000
1296491.600917,1.000000,-1.000000,4.000000,0.000000,-4.000000,0.000000,-2.000000,-1.000000
1296491.600941,0.000000,-1.000000,5.000000,-3.000000,-2.000000,-5.000000,-5.000000,-1.000000
1296491.602416,1.000000,-1.000000,-2.000000,-3.000000,0.000000,-3.000000,0.000000,-3.000000
1296491.602457,-4.000000,-1.000000,-2.000000,1.000000,-3.000000,-3.000000,-3.000000,-1.000000
1296491.602892,-1.000000,-1.000000,-3.000000,3.000000,0.000000,-1.000000,-1.000000,-2.000000
1296491.602924,1.000000,1.000000,1.000000,2.000000,1.000000,1.000000,-2.000000,-5.000000
1296491.606154,1.000000,-3.000000,-5.000000,-3.000000,0.000000,-2.000000,-1.000000,-2.000000
1296491.606182,-1.000000,-2.000000,4.000000,1.000000,-4.000000,0.000000,-2.000000,1.000000
1296491.614106,-1.000000,-3.000000,-2.000000,-4.000000,-2.000000,-1.000000,-2.000000,3.000000
1296491.614131,0.000000,0.000000,1.000000,3.000000,-1.000000,1.000000,-2.000000,0.000000
1296491.636894,-1.000000,-3.000000,0.000000,0.000000,0.000000,-1.000000,-2.000000,2.000000
1296491.636945,-3.000000,-4.000000,-6.000000,-5.000000,1.000000,-2.000000,0.000000,-1.000000
1296491.637996,1.000000,4.000000,-1.000000,2.000000,1.000000,0.000000,-2.000000,-2.000000
1296491.638016,-1.000000,3.000000,2.000000,2.000000,0.000000,2.000000,0.000000,-2.000000
1296491.643982,-2.000000,1.000000,1.000000,0.000000,-1.000000,0.000000,-1.000000,-1.000000
1296491.644031,0.000000,1.000000,3.000000,-3.000000,-3.000000,2.000000,-4.000000,-1.000000
1296491.658745,0.000000,-4.000000,0.000000,3.000000,-4.000000,1.000000,-1.000000,0.000000
1296491.658769,-2.000000,3.000000,-1.000000,-4.000000,-4.000000,-1.000000,0.000000,-2.000000
1296491.673490,-1.000000,2.000000,3.000000,-7.000000,-1.000000,-1.000000,0.000000,-2.000000
1296491.673516,0.000000,2.000000,-3.000000,1.000000,0.000000,0.000000,-2.000000,2.000000
1296491.688893,4.000000,3.000000,-3.000000,2.000000,-2.000000,-2.000000,-1.000000,0.000000
1296491.688921,-2.000000,-3.000000,-3.000000,-2.000000,-3.000000,-3.000000,0.000000,-4.000000
1296491.711110,-1.000000,-1.000000,-2.000000,-6.000000,-1.000000,1.000000,-2.000000,0.000000
1296491.711157,0.000000,1.000000,-4.000000,0.000000,-2.000000,-3.000000,2.000000,2.000000
1296491.726192,-1.000000,-3.000000,3.000000,-3.000000,-3.000000,2.000000,-5.000000,-1.000000
1296491.726220,-1.000000,-3.000000,-1.000000,-3.000000,3.000000,0.000000,0.000000,-2.000000
1296491.733613,-2.000000,-1.000000,-2.000000,-4.000000,3.000000,-1.000000,1.000000,-2.000000
1296491.733654,-2.000000,-4.000000,-1.000000,0.000000,-5.000000,0.000000,-2.000000,-4.000000
1296491.757213,0.000000,0.000000,6.000000,3.000000,1.000000,1.000000,2.000000,2.000000
1296491.757583,1.000000,-2.000000,-1.000000,0.000000,-3.000000,0.000000,-1.000000,1.000000
1296491.758003,-1.000000,-3.000000,0.000000,-2.000000,-1.000000,-3.000000,-3.000000,-2.000000
1296491.758328,-2.000000,-2.000000,-3.000000,2.000000,-1.000000,-3.000000,-2.000000,0.000000
1296491.759607,0.000000,0.000000,0.000000,-4.000000,0.000000,-3.000000,-4.000000,1.000000
1296491.759633,-4.000000,0.000000,0.000000,-4.000000,1.000000,-2.000000,-4.000000,0.000000
1296491.760337,0.000000,-4.000000,-4.000000,1.000000,-1.000000,-1.000000,0.000000,-2.000000
1296491.760503,1.000000,-1.000000,1.000000,1.000000,-1.000000,3.000000,-1.000000,1.000000
1296491.763805,-2.000000,2.000000,-3.000000,-2.000000,0.000000,-1.000000,-2.000000,0.000000
1296491.763855,-2.000000,1.000000,-2.000000,-1.000000,-3.000000,-1.000000,0.000000,-2.000000
1296491.808739,-2.000000,-5.000000,-1.000000,-2.000000,-2.000000,-1.000000,-2.000000,-1.000000
1296491.808765,-2.000000,-4.000000,0.000000,-6.000000,-3.000000,0.000000,-3.000000,-4.000000
1296491.831197,-2.000000,-3.000000,5.000000,1.000000,-2.000000,2.000000,-1.000000,1.000000
1296491.831224,-1.000000,0.000000,2.000000,4.000000,-1.000000,-1.000000,2.000000,0.000000
1296491.846264,2.000000,-4.000000,-2.000000,-1.000000,0.000000,-2.000000,-1.000000,-1.000000
1296491.846293,-2.000000,-1.000000,-4.000000,-6.000000,-3.000000,-3.000000,-1.000000,1.000000
1296491.853908,0.000000,0.000000,1.000000,1.000000,1.000000,0.000000,-1.000000,-1.000000
1296491.853944,-3.000000,-3.000000,-6.000000,2.000000,-3.000000,0.000000,-7.000000,-1.000000
1296491.868797,1.000000,-3.000000,-3.000000,-5.000000,-3.000000,3.000000,-1.000000,-2.000000
1296491.868825,-2.000000,1.000000,0.000000,1.000000,-1.000000,0.000000,-3.000000,-2.000000
1296491.876362,-2.000000,1.000000,-2.000000,2.000000,1.000000,0.000000,1.000000,-1.000000
1296491.876432,1.000000,-1.000000,0.000000,0.000000,-2.000000,-1.000000,1.000000,0.000000
1296491.883831,-3.000000,0.000000,-2.000000,5.000000,-1.000000,0.000000,0.000000,-2.000000
1296491.883874,-2.000000,-2.000000,0.000000,1.000000,-2.000000,0.000000,-2.000000,-1.000000
1296491.885435,-1.000000,1.000000,2.000000,-2.000000,0.000000,-4.000000,-1.000000,-2.000000
1296491.885491,0.000000,0.000000,-1.000000,-4.000000,1.000000,-4.000000,0.000000,-1.000000
1296491.887147,0.000000,-1.000000,2.000000,-1.000000,-3.000000,0.000000,0.000000,-2.000000
1296491.887179,0.000000,0.000000,-2.000000,-1.000000,-3.000000,1.000000,-5.000000,-2.000000
1296491.887967,0.000000,-2.000000,-7.000000,-3.000000,1.000000,-2.000000,-1.000000,1.000000
1296491.887993,-1.000000,-4.000000,3.000000,-1.000000,2.000000,-1.000000,2.000000,0.000000
1296491.913739,0.000000,-1.000000,-3.000000,-5.000000,-2.000000,2.000000,-3.000000,3.000000
1296491.913767,-1.000000,0.000000,-4.000000,1.000000,-1.000000,3.000000,-2.000000,-2.000000
1296491.921601,-1.000000,-1.000000,-3.000000,1.000000,2.000000,2.000000,1.000000,-3.000000
1296491.921653,-4.000000,-2.000000,6.000000,-1.000000,0.000000,2.000000,-1.000000,-2.000000
1296491.951478,-1.000000,-2.000000,1.000000,-4.000000,-3.000000,1.000000,-2.000000,0.000000
1296491.951526,1.000000,-1.000000,4.000000,-4.000000,-2.000000,-3.000000,0.000000,-1.000000
1296491.959561,1.000000,0.000000,-1.000000,-1.000000,-2.000000,0.000000,-1.000000,-2.000000
1296491.959607,-2.000000,-2.000000,-3.000000,-4.000000,1.000000,2.000000,1.000000,-2.000000
1296491.989133,-2.000000,-2.000000,-2.000000,2.000000,-1.000000,-3.000000,-2.000000,-4.000000
1296491.989163,0.000000,-2.000000,0.000000,-4.000000,-5.000000,-2.000000,-1.000000,1.000000
1296491.996724,3.000000,-3.000000,0.000000,0.000000,-3.000000,-1.000000,-1.000000,-2.000000
1296491.996766,1.000000,-1.000000,4.000000,0.000000,1.000000,-3.000000,-5.000000,-1.000000
1296492.011373,-2.000000,-3.000000,0.000000,-1.000000,-3.000000,0.000000,0.000000,1.000000
1296492.011403,0.000000,3.000000,-4.000000,3.000000,-2.000000,0.000000,0.000000,-2.000000
1296492.034462,-2.000000,0.000000,3.000000,-1.000000,0.000000,-1.000000,0.000000,0.000000
1296492.034501,0.000000,0.000000,0.000000,-5.000000,0.000000,0.000000,-3.000000,2.000000
1296492.048788,-1.000000,-3.000000,1.000000,-3.000000,0.000000,1.000000,-1.000000,-1.000000
1296492.048820,-1.000000,1.000000,-5.000000,1.000000,-1.000000,0.000000,-1.000000,1.000000
1296492.078824,0.000000,2.000000,0.000000,-3.000000,-4.000000,-3.000000,-3.000000,0.000000
1296492.078851,-3.000000,-3.000000,-5.000000,4.000000,-1.000000,0.000000,-1.000000,-4.000000
1296492.101135,-2.000000,-1.000000,-2.000000,0.000000,-1.000000,0.000000,0.000000,-2.000000
1296492.101165,-3.000000,1.000000,-1.000000,2.000000,-2.000000,-2.000000,-4.000000,1.000000
1296492.116117,3.000000,-1.000000,-1.000000,1.000000,-5.000000,4.000000,0.000000,-1.000000
1296492.116413,-4.000000,-1.000000,-3.000000,-3.000000,2.000000,1.000000,-3.000000,-1.000000
1296492.117149,-6.000000,-3.000000,-2.000000,-3.000000,-2.000000,-2.000000,0.000000,-1.000000
1296492.117210,1.000000,-5.000000,-4.000000,2.000000,-1.000000,-1.000000,0.000000,-2.000000
1296492.119068,-4.000000,3.000000,-2.000000,0.000000,-1.000000,1.000000,2.000000,1.000000
1296492.119645,-1.000000,-1.000000,-3.000000,-2.000000,-2.000000,-1.000000,-4.000000,-2.000000
1296492.119959,1.000000,-3.000000,-2.000000,-4.000000,0.000000,-3.000000,0.000000,0.000000
1296492.119997,-2.000000,0.000000,-1.000000,-3.000000,0.000000,-1.000000,1.000000,-1.000000
1296492.121694,1.000000,3.000000,1.000000,3.000000,0.000000,-1.000000,-3.000000,1.000000
1296492.121722,1.000000,0.000000,-1.000000,-1.000000,-2.000000,-1.000000,0.000000,-2.000000
1296492.123786,-3.000000,-2.000000,-6.000000,1.000000,0.000000,1.000000,-2.000000,-3.000000
1296492.123812,0.000000,-1.000000,0.000000,1.000000,-3.000000,0.000000,-1.000000,1.000000
1296492.138636,-2.000000,-2.000000,-4.000000,0.000000,0.000000,-2.000000,1.000000,0.000000
1296492.138664,-1.000000,0.000000,-4.000000,-2.000000,-1.000000,1.000000,1.000000,1.000000
1296492.153905,0.000000,-1.000000,-6.000000,0.000000,0.000000,2.000000,2.000000,-2.000000
1296492.153934,-1.000000,0.000000,-3.000000,-2.000000,2.000000,-1.000000,-3.000000,-2.000000
1296492.191624,-2.000000,-1.000000,1.000000,-2.000000,0.000000,3.000000,-3.000000,-2.000000
1296492.191768,0.000000,-2.000000,-4.000000,1.000000,-3.000000,-1.000000,-3.000000,1.000000
1296492.198894,-1.000000,-3.000000,0.000000,1.000000,1.000000,3.000000,-2.000000,-2.000000
1296492.198924,-1.000000,0.000000,1.000000,-1.000000,-3.000000,-1.000000,-2.000000,-3.000000
1296492.213765,-3.000000,0.000000,2.000000,0.000000,2.000000,1.000000,0.000000,0.000000
1296492.213796,3.000000,-2.000000,-5.000000,-3.000000,-4.000000,-2.000000,-4.000000,0.000000
1296492.228869,-1.000000,-1.000000,0.000000,-3.000000,1.000000,-1.000000,0.000000,0.000000
1296492.228917,-1.000000,-5.000000,-1.000000,1.000000,0.000000,0.000000,-1.000000,-2.000000
1296492.230319,0.000000,-2.000000,0.000000,0.000000,2.000000,-3.000000,-2.000000,1.000000
1296492.230340,0.000000,-1.000000,0.000000,-3.000000,-2.000000,-1.000000,0.000000,-2.000000
1296492.236992,-2.000000,-1.000000,-3.000000,-2.000000,-4.000000,-1.000000,0.000000,-2.000000
1296492.237039,-1.000000,-1.000000,-2.000000,0.000000,-3.000000,-5.000000,0.000000,0.000000
1296492.239021,-1.000000,-1.000000,-3.000000,0.000000,0.000000,2.000000,1.000000,-1.000000
1296492.239052,1.000000,-3.000000,0.000000,0.000000,1.000000,1.000000,0.000000,0.000000
1296492.239889,-1.000000,1.000000,-2.000000,-2.000000,-1.000000,-1.000000,-1.000000,-1.000000
1296492.239917,-2.000000,-3.000000,-1.000000,2.000000,1.000000,0.000000,-1.000000,-3.000000
1296492.243662,-4.000000,0.000000,1.000000,1.000000,-2.000000,0.000000,1.000000,1.000000
1296492.243690,0.000000,3.000000,-5.000000,-2.000000,0.000000,0.000000,-3.000000,0.000000
1296492.266265,2.000000,5.000000,0.000000,1.000000,-2.000000,1.000000,-1.000000,1.000000
1296492.266292,0.000000,-5.000000,4.000000,-4.000000,-1.000000,-2.000000,-1.000000,-3.000000
1296492.267139,1.000000,0.000000,3.000000,-1.000000,-3.000000,1.000000,-4.000000,-1.000000
1296492.267166,-3.000000,-4.000000,0.000000,-1.000000,3.000000,-2.000000,1.000000,-3.000000
1296492.281335,-1.000000,-3.000000,-1.000000,2.000000,1.000000,-1.000000,0.000000,0.000000
1296492.281363,0.000000,2.000000,-4.000000,1.000000,-4.000000,-1.000000,-3.000000,0.000000
1296492.288935,0.000000,-1.000000,-5.000000,0.000000,-3.000000,0.000000,-1.000000,-1.000000
1296492.288994,-1.000000,-6.000000,3.000000,-1.000000,0.000000,0.000000,0.000000,-3.000000
1296492.311504,-2.000000,5.000000,2.000000,1.000000,-4.000000,-2.000000,-3.000000,0.000000
1296492.311534,-1.000000,2.000000,-1.000000,-6.000000,-1.000000,-2.000000,1.000000,0.000000
1296492.318800,1.000000,-4.000000,-2.000000,2.000000,0.000000,1.000000,0.000000,0.000000
1296492.318829,-3.000000,0.000000,-4.000000,5.000000,0.000000,2.000000,-3.000000,0.000000
1296492.356636,1.000000,2.000000,-1.000000,-1.000000,0.000000,-2.000000,0.000000,-1.000000
1296492.356697,0.000000,0.000000,-1.000000,-5.000000,-4.000000,-4.000000,-1.000000,-3.000000
1296492.358029,0.000000,-3.000000,3.000000,0.000000,-2.000000,3.000000,-2.000000,2.000000
1296492.358061,-3.000000,-2.000000,-5.000000,2.000000,-1.000000,1.000000,0.000000,-3.000000
1296492.359257,-1.000000,0.000000,2.000000,-4.000000,-1.000000,0.000000,-1.000000,-5.000000
1296492.359323,-2.000000,6.000000,-2.000000,-1.000000,-4.000000,1.000000,-2.000000,-1.000000
1296492.360818,0.000000,-2.000000,0.000000,-3.000000,-1.000000,-1.000000,0.000000,0.000000
1296492.360848,-2.000000,-2.000000,6.000000,4.000000,3.000000,0.000000,-2.000000,0.000000
1296492.361408,1.000000,-2.000000,1.000000,1.000000,-2.000000,-1.000000,-1.000000,3.000000
1296492.361436,-1.000000,1.000000,0.000000,0.000000,-1.000000,-1.000000,0.000000,0.000000
1296492.363560,-1.000000,0.000000,-1.000000,-8.000000,-2.000000,-1.000000,-3.000000,-2.000000
1296492.363588,-3.000000,0.000000,-3.000000,2.000000,-4.000000,-4.000000,0.000000,1.000000
1296492.386575,-1.000000,-2.000000,-3.000000,3.000000,-6.000000,-1.000000,-3.000000,-2.000000
1296492.386630,1.000000,0.000000,4.000000,-4.000000,0.000000,-1.000000,-3.000000,-3.000000
1296492.394120,-6.000000,-1.000000,-1.000000,-3.000000,-1.000000,-1.000000,-1.000000,-4.000000
1296492.394148,0.000000,-1.000000,2.000000,-1.000000,1.000000,-1.000000,3.000000,1.000000
1296492.431488,-2.000000,-4.000000,-6.000000,2.000000,-2.000000,0.000000,1.000000,0.000000
1296492.431522,2.000000,0.000000,-3.000000,1.000000,-1.000000,-2.000000,-1.000000,0.000000
1296492.438672,0.000000,2.000000,4.000000,-1.000000,-1.000000,2.000000,-2.000000,0.000000
1296492.438700,0.000000,-1.000000,-1.000000,1.000000,1.000000,1.000000,-2.000000,0.000000
1296492.469518,0.000000,1.000000,4.000000,0.000000,-3.000000,-1.000000,2.000000,0.000000
1296492.469586,-1.000000,0.000000,-1.000000,-1.000000,0.000000,2.000000,0.000000,-2.000000
1296492.469839,3.000000,0.000000,-2.000000,0.000000,-4.000000,-3.000000,-1.000000,-1.000000
1296492.469888,1.000000,-3.000000,1.000000,1.000000,-1.000000,-1.000000,1.000000,0.000000
1296492.471926,-1.000000,-2.000000,2.000000,2.000000,3.000000,0.000000,0.000000,2.000000
1296492.471949,-3.000000,-4.000000,6.000000,2.000000,1.000000,-2.000000,1.000000,-1.000000
1296492.472568,-2.000000,5.000000,-5.000000,0.000000,-2.000000,1.000000,-1.000000,-2.000000
1296492.472591,1.000000,-4.000000,-4.000000,0.000000,-4.000000,-4.000000,-1.000000,-1.000000
1296492.473360,0.000000,-1.000000,0.000000,-2.000000,-2.000000,3.000000,-1.000000,0.000000
1296492.473389,-3.000000,0.000000,-2.000000,-1.000000,0.000000,-1.000000,-3.000000,-2.000000
1296492.476017,0.000000,1.000000,0.000000,2.000000,-1.000000,-2.000000,-2.000000,3.000000
1296492.476044,-1.000000,-3.000000,-6.000000,0.000000,0.000000,-1.000000,-1.000000,-2.000000
1296492.483546,-3.000000,2.000000,-1.000000,1.000000,-3.000000,-5.000000,-1.000000,-5.000000
1296492.483580,0.000000,-1.000000,-3.000000,0.000000,-1.000000,-1.000000,-2.000000,0.000000
1296492.514092,-1.000000,2.000000,2.000000,-1.000000,-1.000000,-1.000000,-1.000000,0.000000
1296492.514123,2.000000,-1.000000,-3.000000,-3.000000,0.000000,1.000000,-3.000000,-1.000000
1296492.521684,1.000000,-1.000000,0.000000,-1.000000,0.000000,-5.000000,-4.000000,-2.000000
1296492.521715,0.000000,2.000000,-3.000000,-1.000000,-4.000000,-3.000000,2.000000,0.000000
1296492.550997,-1.000000,4.000000,-1.000000,1.000000,-2.000000,-3.000000,0.000000,-2.000000
1296492.551026,1.000000,1.000000,3.000000,0.000000,-2.000000,0.000000,-4.000000,0.000000
1296492.566240,0.000000,-2.000000,-3.000000,1.000000,1.000000,-1.000000,-1.000000,1.000000
1296492.566270,1.000000,-2.000000,-3.000000,2.000000,-4.000000,-2.000000,-1.000000,0.000000
1296492.589400,-4.000000,0.000000,-2.000000,-2.000000,-2.000000,-4.000000,-1.000000,-1.000000
1296492.589465,0.000000,0.000000,-1.000000,-3.000000,-1.000000,-2.000000,1.000000,-2.000000
1296492.590904,-2.000000,-1.000000,0.000000,1.000000,2.000000,0.000000,-1.000000,-2.000000
1296492.590931,0.000000,1.000000,4.000000,-3.000000,-1.000000,2.000000,-3.000000,0.000000
1296492.591535,1.000000,-2.000000,-5.000000,-5.000000,-2.000000,-2.000000,1.000000,-2.000000
1296492.591553,2.000000,-1.000000,2.000000,2.000000,-4.000000,-1.000000,0.000000,0.000000
1296492.592815,-3.000000,-1.000000,0.000000,2.000000,0.000000,0.000000,-3.000000,-3.000000
1296492.592862,-7.000000,0.000000,2.000000,-1.000000,0.000000,-2.000000,0.000000,-4.000000
1296492.595962,0.000000,1.000000,-1.000000,1.000000,0.000000,-1.000000,2.000000,-3.000000
1296492.595989,0.000000,0.000000,0.000000,1.000000,1.000000,-4.000000,0.000000,-1.000000
1296492.626249,-1.000000,-1.000000,0.000000,0.000000,0.000000,0.000000,0.000000,-3.000000
1296492.626279,-3.000000,1.000000,0.000000,1.000000,2.000000,0.000000,3.000000,3.000000
1296492.641251,0.000000,-1.000000,-5.000000,3.000000,0.000000,2.000000,0.000000,-1.000000
1296492.641280,1.000000,-1.000000,-1.000000,-7.000000,1.000000,-3.000000,-5.000000,-1.000000
1296492.671266,-3.000000,1.000000,-1.000000,-1.000000,-3.000000,-2.000000,0.000000,-1.000000
1296492.671298,-2.000000,-2.000000,-4.000000,1.000000,-3.000000,1.000000,-1.000000,-1.000000
1296492.686197,0.000000,1.000000,-2.000000,-2.000000,1.000000,-1.000000,0.000000,-3.000000
1296492.686242,0.000000,0.000000,-3.000000,-6.000000,-3.000000,-3.000000,-3.000000,0.000000
1296492.708753,0.000000,0.000000,-2.000000,0.000000,-2.000000,1.000000,0.000000,-1.000000
1296492.708783,-1.000000,1.000000,-5.000000,2.000000,-3.000000,-3.000000,-1.000000,-3.000000
1296492.724072,-1.000000,0.000000,-3.000000,2.000000,-1.000000,0.000000,0.000000,-2.000000
1296492.724450,-2.000000,0.000000,2.000000,-4.000000,-3.000000,0.000000,-2.000000,-1.000000
1296492.724648,0.000000,-2.000000,-5.000000,-2.000000,0.000000,-3.000000,-1.000000,-1.000000
1296492.724672,-2.000000,-1.000000,1.000000,-2.000000,-1.000000,0.000000,-1.000000,-4.000000
1296492.725479,-2.000000,-1.000000,-4.000000,-3.000000,-2.000000,-3.000000,1.000000,0.000000
1296492.725512,-1.000000,0.000000,-3.000000,-2.000000,-1.000000,1.000000,0.000000,1.000000
1296492.726725,-4.000000,-4.000000,2.000000,1.000000,1.000000,-1.000000,1.000000,0.000000
1296492.726752,-1.000000,-2.000000,-2.000000,1.000000,2.000000,-1.000000,1.000000,-1.000000
1296492.731050,-1.000000,-1.000000,-1.000000,0.000000,-1.000000,0.000000,0.000000,-2.000000
1296492.731080,3.000000,-3.000000,1.000000,-4.000000,-1.000000,0.000000,-1.000000,-1.000000
1296492.753776,-1.000000,1.000000,2.000000,0.000000,-1.000000,-2.000000,-3.000000,2.000000
1296492.753807,0.000000,-2.000000,1.000000,1.000000,-1.000000,-2.000000,-4.000000,-1.000000
1296492.761352,1.000000,-3.000000,1.000000,-1.000000,-2.000000,0.000000,-3.000000,-1.000000
1296492.761411,2.000000,0.000000,1.000000,-8.000000,-1.000000,1.000000,-2.000000,2.000000
1296492.791334,-1.000000,0.000000,-1.000000,3.000000,4.000000,-5.000000,-5.000000,-3.000000
1296492.791362,-1.000000,-1.000000,0.000000,-1.000000,-4.000000,2.000000,0.000000,-1.000000
1296492.798747,0.000000,-3.000000,-4.000000,0.000000,0.000000,-2.000000,-2.000000,0.000000
1296492.798775,1.000000,-1.000000,0.000000,1.000000,-3.000000,-3.000000,-1.000000,1.000000
1296492.821131,0.000000,2.000000,-6.000000,3.000000,-3.000000,0.000000,-1.000000,-1.000000
1296492.821161,-2.000000,-1.000000,-7.000000,-2.000000,-2.000000,-3.000000,-1.000000,-2.000000
1296492.828618,-3.000000,-1.000000,2.000000,4.000000,0.000000,2.000000,-1.000000,-1.000000
1296492.828645,1.000000,-1.000000,-1.000000,-3.000000,-1.000000,-2.000000,0.000000,-3.000000
1296492.844104,0.000000,1.000000,1.000000,-2.000000,-1.000000,2.000000,1.000000,-2.000000
1296492.844165,-3.000000,2.000000,-8.000000,-3.000000,-4.000000,-6.000000,-4.000000,0.000000
1296492.858854,-1.000000,1.000000,1.000000,-1.000000,-1.000000,-1.000000,0.000000,-4.000000
1296492.858882,0.000000,-2.000000,-3.000000,-2.000000,-5.000000,-3.000000,-3.000000,1.000000
1296492.873898,0.000000,1.000000,1.000000,0.000000,3.000000,-4.000000,-1.000000,0.000000
1296492.873929,-1.000000,-1.000000,-1.000000,1.000000,-2.000000,2.000000,1.000000,-5.000000
1296492.881196,0.000000,2.000000,-2.000000,-1.000000,-2.000000,1.000000,-1.000000,-2.000000
1296492.881226,2.000000,1.000000,-5.000000,-2.000000,2.000000,3.000000,1.000000,-1.000000
1296492.911178,-1.000000,-1.000000,-4.000000,-2.000000,-1.000000,-1.000000,1.000000,-2.000000
1296492.911205,0.000000,-1.000000,-5.000000,-3.000000,0.000000,0.000000,-1.000000,-2.000000
1296492.950043,-3.000000,-2.000000,-1.000000,-3.000000,0.000000,1.000000,-2.000000,-1.000000
1296492.951220,-2.000000,1.000000,-2.000000,-4.000000,-4.000000,-2.000000,-1.000000,0.000000
1296492.952988,-2.000000,-4.000000,0.000000,4.000000,0.000000,-3.000000,-4.000000,-1.000000
1296492.953055,-4.000000,0.000000,-1.000000,-1.000000,2.000000,-3.000000,1.000000,1.000000
1296492.953399,0.000000,0.000000,-2.000000,0.000000,-1.000000,-1.000000,-1.000000,-2.000000
1296492.953432,-2.000000,-1.000000,-5.000000,1.000000,-2.000000,-2.000000,1.000000,-1.000000
1296492.953606,-1.000000,1.000000,3.000000,-1.000000,-3.000000,-1.000000,1.000000,-3.000000
1296492.953628,2.000000,1.000000,-1.000000,-1.000000,0.000000,-4.000000,-3.000000,-2.000000
1296492.955401,-2.000000,-2.000000,2.000000,0.000000,-2.000000,-3.000000,0.000000,1.000000
1296492.955590,-2.000000,-3.000000,-1.000000,-3.000000,-5.000000,2.000000,-2.000000,-2.000000
1296492.956208,-2.000000,-1.000000,-3.000000,0.000000,1.000000,-1.000000,1.000000,1.000000
1296492.956227,-1.000000,2.000000,0.000000,-1.000000,-1.000000,-1.000000,2.000000,3.000000
1296492.986016,1.000000,0.000000,6.000000,0.000000,0.000000,-3.000000,-3.000000,0.000000
1296492.986038,-1.000000,2.000000,-3.000000,-3.000000,0.000000,0.000000,0.000000,2.000000
1296493.000662,-5.000000,2.000000,1.000000,2.000000,-5.000000,-3.000000,1.000000,-2.000000
1296493.000682,0.000000,-1.000000,-4.000000,-2.000000,-1.000000,0.000000,1.000000,0.000000
1296493.024067,-1.000000,-1.000000,-2.000000,-1.000000,2.000000,-3.000000,-2.000000,-2.000000
1296493.024098,-5.000000,-3.000000,0.000000,-2.000000,3.000000,-6.000000,2.000000,0.000000
1296493.039619,-1.000000,2.000000,1.000000,-3.000000,-4.000000,-2.000000,2.000000,-1.000000
1296493.039678,-1.000000,0.000000,-3.000000,3.000000,-3.000000,-5.000000,-4.000000,1.000000
1296493.061339,0.000000,1.000000,2.000000,0.000000,-4.000000,-1.000000,-3.000000,-1.000000
1296493.061367,-2.000000,-2.000000,-1.000000,0.000000,-4.000000,-1.000000,-3.000000,-3.000000
1296493.070502,-2.000000,-2.000000,-4.000000,-3.000000,0.000000,-3.000000,-1.000000,2.000000
1296493.070939,-2.000000,-3.000000,-3.000000,-2.000000,1.000000,1.000000,-3.000000,0.000000
1296493.071959,-1.000000,-3.000000,-3.000000,-2.000000,4.000000,-2.000000,0.000000,-3.000000
1296493.071991,2.000000,-3.000000,-1.000000,2.000000,-2.000000,0.000000,-3.000000,-1.000000
1296493.072378,-1.000000,0.000000,-2.000000,-3.000000,-1.000000,-3.000000,0.000000,0.000000
1296493.072402,2.000000,2.000000,-1.000000,3.000000,-3.000000,-1.000000,-1.000000,0.000000
1296493.073948,-1.000000,-1.000000,-1.000000,1.000000,-1.000000,-4.000000,-1.000000,1.000000
1296493.073976,2.000000,-1.000000,-3.000000,4.000000,-2.000000,-1.000000,1.000000,-2.000000
1296493.074122,-2.000000,1.000000,3.000000,-4.000000,1.000000,-1.000000,2.000000,0.000000
1296493.074137,-1.000000,-4.000000,0.000000,-1.000000,1.000000,2.000000,-3.000000,-2.000000
1296493.076133,0.000000,0.000000,-13.000000,1.000000,-2.000000,-1.000000,-3.000000,-2.000000
1296493.076162,-1.000000,-4.000000,4.000000,2.000000,-3.000000,-2.000000,-4.000000,-2.000000
1296493.099113,-2.000000,-4.000000,-3.000000,-4.000000,2.000000,-2.000000,-2.000000,0.000000
1296493.099145,2.000000,-2.000000,-5.000000,-4.000000,-1.000000,-5.000000,-2.000000,2.000000
1296493.113585,-1.000000,0.000000,2.000000,-1.000000,2.000000,0.000000,1.000000,0.000000
1296493.113613,-2.000000,-2.000000,4.000000,-1.000000,-1.000000,-1.000000,-1.000000,1.000000
1296493.121294,1.000000,-2.000000,4.000000,-3.000000,-3.000000,0.000000,-4.000000,-1.000000
1296493.121324,-2.000000,0.000000,0.000000,2.000000,0.000000,-3.000000,-1.000000,-1.000000
1296493.143804,0.000000,-2.000000,4.000000,-1.000000,-3.000000,0.000000,-2.000000,1.000000
1296493.143839,-2.000000,-3.000000,-3.000000,2.000000,-3.000000,0.000000,-4.000000,0.000000
1296493.151277,-2.000000,-2.000000,-2.000000,0.000000,0.000000,-3.000000,-1.000000,-3.000000
1296493.151307,-1.000000,0.000000,0.000000,-7.000000,0.000000,-4.000000,0.000000,-1.000000
1296493.188842,0.000000,-3.000000,0.000000,2.000000,0.000000,1.000000,0.000000,1.000000
1296493.188872,0.000000,-3.000000,-5.000000,3.000000,-3.000000,-3.000000,-3.000000,-1.000000
1296493.190573,-1.000000,-2.000000,1.000000,-1.000000,-3.000000,-2.000000,-4.000000,-3.000000
1296493.190606,0.000000,-2.000000,-3.000000,4.000000,-3.000000,-3.000000,1.000000,1.000000
1296493.191338,-2.000000,-2.000000,4.000000,-3.000000,1.000000,0.000000,0.000000,-4.000000
1296493.191365,-5.000000,-3.000000,1.000000,0.000000,-2.000000,-1.000000,-2.000000,0.000000
1296493.192634,-2.000000,1.000000,-1.000000,-1.000000,-2.000000,-1.000000,1.000000,0.000000
1296493.192664,-4.000000,-2.000000,-3.000000,-1.000000,-3.000000,1.000000,-1.000000,2.000000
1296493.193381,-1.000000,-1.000000,-3.000000,-2.000000,-5.000000,-2.000000,1.000000,-3.000000
1296493.193408,-3.000000,1.000000,2.000000,-5.000000,-3.000000,-1.000000,1.000000,3.000000
1296493.196328,-2.000000,-5.000000,-1.000000,0.000000,0.000000,2.000000,-1.000000,-1.000000
1296493.196359,0.000000,-1.000000,2.000000,-4.000000,-2.000000,-3.000000,-4.000000,-2.000000
1296493.233691,-4.000000,0.000000,-1.000000,-3.000000,-3.000000,2.000000,-5.000000,-2.000000
1296493.233722,0.000000,-1.000000,2.000000,-3.000000,0.000000,-2.000000,-3.000000,-3.000000
1296493.241355,2.000000,0.000000,1.000000,-2.000000,-1.000000,-1.000000,-3.000000,-1.000000
1296493.241386,-2.000000,-4.000000,0.000000,-5.000000,0.000000,-2.000000,0.000000,-1.000000
1296493.271196,-1.000000,1.000000,-3.000000,-1.000000,-1.000000,0.000000,1.000000,0.000000
1296493.271224,-3.000000,1.000000,7.000000,0.000000,-5.000000,-3.000000,-3.000000,-3.000000
1296493.278635,-2.000000,-1.000000,-2.000000,0.000000,-2.000000,-3.000000,1.000000,-2.000000
1296493.278693,0.000000,2.000000,-1.000000,-5.000000,-1.000000,-3.000000,-3.000000,-3.000000
1296493.308939,2.000000,0.000000,3.000000,3.000000,3.000000,-1.000000,0.000000,0.000000
1296493.308968,0.000000,-1.000000,-2.000000,-1.000000,-1.000000,0.000000,0.000000,1.000000
1296493.316193,-1.000000,1.000000,0.000000,-6.000000,-1.000000,-4.000000,-1.000000,2.000000
1296493.316222,1.000000,2.000000,-2.000000,1.000000,-6.000000,-2.000000,-1.000000,-2.000000
1296493.346495,2.000000,-3.000000,-3.000000,-2.000000,-2.000000,0.000000,1.000000,-1.000000
1296493.346529,0.000000,-2.000000,-3.000000,-5.000000,1.000000,1.000000,-3.000000,-3.000000
1296493.347944,-2.000000,0.000000,4.000000,2.000000,-2.000000,1.000000,-3.000000,-2.000000
1296493.347975,-3.000000,-1.000000,0.000000,-1.000000,-3.000000,-3.000000,2.000000,-2.000000
1296493.349347,-2.000000,-2.000000,-1.000000,-6.000000,1.000000,-1.000000,0.000000,-3.000000
1296493.349380,0.000000,-3.000000,0.000000,-2.000000,2.000000,-3.000000,-1.000000,-1.000000
1296493.350222,3.000000,-3.000000,0.000000,-1.000000,-2.000000,0.000000,-4.000000,1.000000
1296493.350279,-1.000000,-2.000000,6.000000,-5.000000,-1.000000,-1.000000,0.000000,2.000000
1296493.351121,-4.000000,-4.000000,-1.000000,-2.000000,-1.000000,0.000000,-1.000000,-2.000000
1296493.351143,-1.000000,2.000000,2.000000,0.000000,-3.000000,-4.000000,1.000000,-3.000000
1296493.354818,1.000000,0.000000,2.000000,0.000000,-5.000000,1.000000,2.000000,-1.000000
1296493.354845,-4.000000,-2.000000,-3.000000,-3.000000,-1.000000,-4.000000,-2.000000,0.000000
1296493.383554,1.000000,0.000000,-2.000000,2.000000,1.000000,-3.000000,0.000000,1.000000
1296493.383582,1.000000,-5.000000,-7.000000,-4.000000,-1.000000,-1.000000,0.000000,0.000000
1296493.393182,2.000000,3.000000,2.000000,1.000000,-1.000000,-1.000000,2.000000,0.000000
1296493.393208,-2.000000,2.000000,-4.000000,-4.000000,1.000000,-2.000000,1.000000,-2.000000
1296493.393347,-1.000000,2.000000,4.000000,-3.000000,-1.000000,2.000000,-2.000000,1.000000
1296493.393362,1.000000,0.000000,-3.000000,-3.000000,-1.000000,-1.000000,-1.000000,-1.000000
1296493.394372,-1.000000,-1.000000,5.000000,3.000000,-4.000000,-2.000000,0.000000,-1.000000
1296493.394398,2.000000,-2.000000,-1.000000,-3.000000,-2.000000,-2.000000,-2.000000,-3.000000
1296493.398559,-2.000000,-3.000000,1.000000,-2.000000,1.000000,2.000000,0.000000,0.000000
1296493.398590,-2.000000,2.000000,-1.000000,0.000000,-2.000000,-2.000000,-3.000000,-1.000000
1296493.421300,1.000000,-1.000000,1.000000,0.000000,3.000000,0.000000,-3.000000,-1.000000
1296493.421332,-3.000000,-1.000000,0.000000,2.000000,-3.000000,-3.000000,-2.000000,1.000000
1296493.422348,-1.000000,-2.000000,3.000000,1.000000,-3.000000,0.000000,-1.000000,1.000000
1296493.422382,-5.000000,-1.000000,2.000000,-4.000000,-1.000000,3.000000,0.000000,-1.000000
1296493.429427,2.000000,-1.000000,0.000000,-3.000000,0.000000,2.000000,1.000000,0.000000
1296493.429473,1.000000,1.000000,-3.000000,-2.000000,-2.000000,-3.000000,2.000000,-2.000000
1296493.436207,0.000000,-1.000000,1.000000,0.000000,0.000000,-1.000000,-1.000000,-3.000000
1296493.436237,-2.000000,-1.000000,-4.000000,6.000000,0.000000,0.000000,0.000000,-2.000000
1296493.466535,-3.000000,-4.000000,1.000000,-4.000000,1.000000,-1.000000,-1.000000,0.000000
1296493.466568,-1.000000,-3.000000,0.000000,1.000000,1.000000,-1.000000,-2.000000,3.000000
1296493.473677,0.000000,-2.000000,-5.000000,0.000000,0.000000,0.000000,0.000000,-2.000000
1296493.473706,-1.000000,-3.000000,3.000000,-5.000000,0.000000,1.000000,1.000000,-3.000000
1296493.511089,-1.000000,0.000000,1.000000,-1.000000,-3.000000,1.000000,-3.000000,-2.000000
1296493.511117,-3.000000,-1.000000,-3.000000,2.000000,0.000000,1.000000,2.000000,0.000000
1296493.518729,0.000000,-3.000000,-2.000000,-4.000000,-4.000000,-1.000000,-1.000000,-7.000000
1296493.518762,1.000000,1.000000,0.000000,-3.000000,3.000000,-1.000000,0.000000,0.000000
1296493.542702,3.000000,2.000000,-1.000000,0.000000,-1.000000,1.000000,0.000000,0.000000
1296493.542736,-2.000000,0.000000,5.000000,-1.000000,0.000000,2.000000,-3.000000,-1.000000
1296493.542976,-4.000000,1.000000,0.000000,2.000000,-1.000000,0.000000,0.000000,-2.000000
1296493.543024,0.000000,-2.000000,1.000000,-3.000000,4.000000,-1.000000,-4.000000,-1.000000
1296493.545110,0.000000,0.000000,-2.000000,-1.000000,2.000000,-1.000000,0.000000,1.000000
1296493.545139,-1.000000,-4.000000,1.000000,-3.000000,-4.000000,2.000000,0.000000,-1.000000
1296493.546135,-3.000000,-1.000000,0.000000,3.000000,-1.000000,1.000000,-3.000000,-1.000000
1296493.546163,0.000000,-3.000000,-2.000000,5.000000,-2.000000,-4.000000,0.000000,-1.000000
1296493.549109,0.000000,-1.000000,1.000000,1.000000,1.000000,1.000000,-1.000000,1.000000
1296493.549135,0.000000,1.000000,-6.000000,5.000000,2.000000,1.000000,1.000000,2.000000
1296493.563758,0.000000,0.000000,0.000000,-3.000000,-1.000000,-3.000000,-2.000000,2.000000
1296493.563786,1.000000,-3.000000,3.000000,-1.000000,-1.000000,-1.000000,-1.000000,-1.000000
1296493.578907,1.000000,2.000000,-5.000000,3.000000,1.000000,-1.000000,0.000000,-2.000000
1296493.578934,-2.000000,-6.000000,-5.000000,-1.000000,-1.000000,1.000000,-1.000000,-3.000000
1296493.593701,-2.000000,0.000000,1.000000,-2.000000,-5.000000,0.000000,-5.000000,1.000000
1296493.593730,3.000000,0.000000,0.000000,2.000000,0.000000,1.000000,-3.000000,-1.000000
1296493.623975,-1.000000,-1.000000,-1.000000,3.000000,0.000000,-1.000000,0.000000,-5.000000
1296493.624029,-4.000000,-4.000000,-4.000000,-2.000000,4.000000,2.000000,-1.000000,0.000000
1296493.631225,-3.000000,-3.000000,-1.000000,-4.000000,1.000000,-4.000000,-3.000000,-2.000000
1296493.631250,-1.000000,-1.000000,1.000000,1.000000,-2.000000,0.000000,0.000000,0.000000
1296493.633512,-4.000000,0.000000,-2.000000,0.000000,-2.000000,1.000000,1.000000,-1.000000
1296493.634340,-4.000000,1.000000,4.000000,-3.000000,3.000000,1.000000,2.000000,0.000000
1296493.634623,-5.000000,1.000000,0.000000,0.000000,-3.000000,0.000000,-4.000000,-2.000000
1296493.634642,0.000000,-4.000000,1.000000,-4.000000,-1.000000,0.000000,1.000000,1.000000
1296493.635244,3.000000,-1.000000,-1.000000,1.000000,-1.000000,0.000000,1.000000,3.000000
1296493.635264,1.000000,-5.000000,0.000000,2.000000,0.000000,0.000000,-1.000000,0.000000
1296493.638577,-1.000000,-2.000000,-3.000000,-2.000000,-2.000000,0.000000,4.000000,1.000000
1296493.638605,0.000000,-1.000000,2.000000,3.000000,-2.000000,0.000000,3.000000,-2.000000
1296493.655010,-2.000000,1.000000,-2.000000,2.000000,4.000000,-3.000000,-3.000000,1.000000
1296493.655039,-1.000000,-2.000000,1.000000,-3.000000,1.000000,-1.000000,-3.000000,0.000000
1296493.661502,-1.000000,-2.000000,0.000000,1.000000,-2.000000,-1.000000,1.000000,-2.000000
1296493.661534,-1.000000,1.000000,4.000000,1.000000,-1.000000,1.000000,-2.000000,-1.000000
1296493.670387,0.000000,-2.000000,-3.000000,-7.000000,-2.000000,-3.000000,2.000000,-3.000000
1296493.670415,1.000000,0.000000,-3.000000,-1.000000,-1.000000,-1.000000,-3.000000,-3.000000
1296493.691245,-1.000000,-1.000000,0.000000,1.000000,-1.000000,0.000000,-1.000000,-2.000000
1296493.691273,-3.000000,-1.000000,-1.000000,-4.000000,-1.000000,-2.000000,2.000000,1.000000
1296493.706420,-1.000000,2.000000,0.000000,-3.000000,-1.000000,-2.000000,-3.000000,-2.000000
1296493.706459,-1.000000,2.000000,-2.000000,0.000000,-2.000000,-1.000000,1.000000,0.000000
1296493.713769,3.000000,-1.000000,0.000000,-4.000000,1.000000,-2.000000,1.000000,-2.000000
1296493.713799,0.000000,-2.000000,-4.000000,-1.000000,0.000000,2.000000,-2.000000,-1.000000
1296493.743772,1.000000,-2.000000,-1.000000,1.000000,1.000000,-1.000000,0.000000,-1.000000
1296493.743801,-1.000000,-5.000000,-3.000000,-4.000000,0.000000,-4.000000,0.000000,1.000000
1296493.751810,0.000000,-5.000000,-4.000000,0.000000,0.000000,-2.000000,-1.000000,0.000000
1296493.751842,-1.000000,1.000000,0.000000,3.000000,4.000000,0.000000,1.000000,-2.000000
1296493.752835,0.000000,-1.000000,-3.000000,-2.000000,-1.000000,-1.000000,-1.000000,0.000000
1296493.752887,0.000000,-3.000000,5.000000,-3.000000,0.000000,-3.000000,0.000000,1.000000
1296493.754704,2.000000,3.000000,-3.000000,-6.000000,-1.000000,-1.000000,-1.000000,-2.000000
1296493.754729,-2.000000,-5.000000,-3.000000,-4.000000,-1.000000,-2.000000,0.000000,-3.000000
1296493.755586,-3.000000,1.000000,-5.000000,-3.000000,-2.000000,-1.000000,0.000000,2.000000
1296493.755611,0.000000,-1.000000,2.000000,-1.000000,-1.000000,-1.000000,-1.000000,1.000000
1296493.782023,1.000000,0.000000,-2.000000,-6.000000,-1.000000,3.000000,-2.000000,0.000000
1296493.782078,1.000000,2.000000,-2.000000,-3.000000,1.000000,-2.000000,-2.000000,0.000000
1296493.783206,0.000000,0.000000,1.000000,-1.000000,-4.000000,2.000000,-3.000000,0.000000
1296493.783232,-3.000000,1.000000,0.000000,-2.000000,-2.000000,-4.000000,-3.000000,0.000000
1296493.784103,-1.000000,-3.000000,-2.000000,-1.000000,0.000000,-1.000000,0.000000,2.000000
1296493.784128,-3.000000,0.000000,1.000000,6.000000,2.000000,-1.000000,1.000000,-3.000000
1296493.796592,-4.000000,0.000000,1.000000,-3.000000,-3.000000,0.000000,0.000000,-2.000000
1296493.796652,0.000000,0.000000,-3.000000,-3.000000,0.000000,-2.000000,0.000000,0.000000
1296493.804177,-2.000000,4.000000,1.000000,0.000000,0.000000,-1.000000,-1.000000,1.000000
1296493.804209,-1.000000,-2.000000,-4.000000,2.000000,-1.000000,-1.000000,-2.000000,-2.000000
1296493.826494,-2.000000,2.000000,-2.000000,2.000000,0.000000,-1.000000,-2.000000,-2.000000
1296493.826524,2.000000,-2.000000,5.000000,0.000000,1.000000,-5.000000,-1.000000,0.000000
1296493.833741,1.000000,-2.000000,0.000000,-4.000000,1.000000,-2.000000,1.000000,-1.000000
1296493.833772,1.000000,0.000000,-1.000000,-1.000000,0.000000,0.000000,0.000000,-2.000000
1296493.863753,3.000000,2.000000,0.000000,-1.000000,-2.000000,-4.000000,-1.000000,1.000000
1296493.863782,3.000000,-3.000000,-3.000000,2.000000,3.000000,-2.000000,-2.000000,3.000000
1296493.871415,0.000000,-5.000000,1.000000,4.000000,-1.000000,-1.000000,-1.000000,2.000000
1296493.871558,2.000000,1.000000,-4.000000,2.000000,-3.000000,2.000000,0.000000,-1.000000
1296493.873917,-5.000000,-1.000000,0.000000,-7.000000,-1.000000,-3.000000,1.000000,-2.000000
1296493.873949,-1.000000,-1.000000,-1.000000,1.000000,2.000000,2.000000,-1.000000,-2.000000
1296493.874697,-2.000000,1.000000,0.000000,-1.000000,-1.000000,-2.000000,2.000000,-2.000000
1296493.874727,1.000000,-3.000000,0.000000,0.000000,-3.000000,-3.000000,-3.000000,-2.000000
1296493.875432,1.000000,-1.000000,1.000000,1.000000,2.000000,0.000000,0.000000,1.000000
1296493.875468,0.000000,-3.000000,-1.000000,3.000000,1.000000,0.000000,-2.000000,-1.000000
1296493.901420,-1.000000,-3.000000,-2.000000,-4.000000,-3.000000,-1.000000,-2.000000,-2.000000
1296493.901451,-1.000000,2.000000,-6.000000,0.000000,-3.000000,-2.000000,1.000000,2.000000
1296493.953789,-1.000000,-1.000000,1.000000,-4.000000,-1.000000,-2.000000,-1.000000,-3.000000
1296493.953827,-1.000000,-1.000000,-5.000000,4.000000,1.000000,1.000000,-1.000000,-1.000000
1296493.976398,-1.000000,2.000000,2.000000,-3.000000,2.000000,0.000000,-3.000000,0.000000
1296493.976430,0.000000,1.000000,-3.000000,-3.000000,-3.000000,1.000000,-1.000000,0.000000
1296494.022596,-4.000000,0.000000,-5.000000,-3.000000,-3.000000,1.000000,-1.000000,-1.000000
1296494.022654,-2.000000,1.000000,-1.000000,4.000000,0.000000,2.000000,0.000000,-4.000000
1296494.022950,-3.000000,1.000000,4.000000,-2.000000,0.000000,-2.000000,1.000000,-1.000000
1296494.023002,-4.000000,2.000000,-5.000000,1.000000,-1.000000,1.000000,-3.000000,-1.000000
1296494.024711,-2.000000,-1.000000,-4.000000,0.000000,0.000000,0.000000,0.000000,-1.000000
1296494.024735,-3.000000,-3.000000,-1.000000,2.000000,-3.000000,1.000000,-2.000000,0.000000
1296494.058836,2.000000,1.000000,-3.000000,-3.000000,1.000000,2.000000,2.000000,-4.000000
1296494.058872,-4.000000,3.000000,-1.000000,2.000000,-1.000000,-2.000000,0.000000,-1.000000
1296494.066325,-1.000000,-2.000000,1.000000,-1.000000,0.000000,0.000000,-1.000000,2.000000
1296494.066362,-1.000000,-1.000000,2.000000,-6.000000,1.000000,-3.000000,2.000000,0.000000
1296494.097162,2.000000,1.000000,9.000000,-6.000000,-1.000000,0.000000,-3.000000,0.000000
1296494.097196,-1.000000,0.000000,-3.000000,4.000000,3.000000,3.000000,-1.000000,-2.000000
1296494.097448,-1.000000,0.000000,-7.000000,7.000000,-5.000000,-2.000000,0.000000,0.000000
1296494.097493,-4.000000,0.000000,-2.000000,1.000000,-2.000000,-3.000000,-1.000000,-2.000000
1296494.098731,-4.000000,1.000000,1.000000,-1.000000,2.000000,0.000000,0.000000,0.000000
1296494.098763,2.000000,0.000000,-4.000000,2.000000,-3.000000,-4.000000,0.000000,1.000000
1296494.100297,-1.000000,-3.000000,2.000000,-3.000000,-1.000000,2.000000,2.000000,-1.000000
1296494.100328,0.000000,2.000000,-7.000000,1.000000,1.000000,-3.000000,1.000000,0.000000
1296494.100772,0.000000,1.000000,-2.000000,0.000000,0.000000,-3.000000,-1.000000,-2.000000
1296494.100799,1.000000,2.000000,1.000000,-3.000000,-3.000000,1.000000,-3.000000,0.000000
1296494.103520,-2.000000,-1.000000,2.000000,-4.000000,2.000000,2.000000,0.000000,2.000000
1296494.103548,-1.000000,2.000000,-5.000000,-2.000000,-4.000000,0.000000,0.000000,-1.000000
1296494.112118,0.000000,-3.000000,-2.000000,0.000000,0.000000,0.000000,-1.000000,1.000000
1296494.112152,3.000000,-1.000000,1.000000,-1.000000,-3.000000,-2.000000,0.000000,-2.000000
1296494.119022,-1.000000,-4.000000,0.000000,0.000000,-4.000000,1.000000,-1.000000,0.000000
1296494.119051,0.000000,-2.000000,-4.000000,3.000000,-2.000000,1.000000,0.000000,-2.000000
1296494.134661,-3.000000,2.000000,0.000000,0.000000,-1.000000,0.000000,-4.000000,-2.000000
1296494.134729,-1.000000,1.000000,-3.000000,2.000000,-1.000000,-1.000000,2.000000,-1.000000
1296494.141349,-5.000000,-1.000000,2.000000,-2.000000,-2.000000,-1.000000,-1.000000,2.000000
1296494.141379,-1.000000,0.000000,-4.000000,-5.000000,-3.000000,-3.000000,-2.000000,-4.000000
1296494.186333,-1.000000,-3.000000,-2.000000,-2.000000,1.000000,-1.000000,-4.000000,1.000000
1296494.186369,-2.000000,1.000000,7.000000,0.000000,2.000000,3.000000,-1.000000,2.000000
1296494.193851,0.000000,-1.000000,-3.000000,1.000000,-3.000000,-4.000000,0.000000,-3.000000
1296494.193878,-3.000000,0.000000,-3.000000,1.000000,-2.000000,-3.000000,-1.000000,1.000000
1296494.208861,-1.000000,0.000000,0.000000,-3.000000,-3.000000,0.000000,-1.000000,0.000000
1296494.208892,-1.000000,-5.000000,2.000000,-2.000000,-2.000000,2.000000,1.000000,-5.000000
1296494.216103,0.000000,2.000000,2.000000,1.000000,-1.000000,-3.000000,0.000000,-2.000000
1296494.216132,2.000000,0.000000,0.000000,-4.000000,-4.000000,1.000000,0.000000,-1.000000
1296494.231215,2.000000,1.000000,-4.000000,1.000000,-3.000000,0.000000,-3.000000,-1.000000
1296494.231255,1.000000,-2.000000,-2.000000,0.000000,3.000000,1.000000,-1.000000,-1.000000
1296494.246108,-1.000000,-4.000000,-2.000000,-7.000000,3.000000,0.000000,-3.000000,0.000000
1296494.246137,-1.000000,0.000000,3.000000,-1.000000,1.000000,-2.000000,-2.000000,0.000000
1296494.255452,-1.000000,0.000000,-2.000000,0.000000,-1.000000,2.000000,1.000000,-3.000000
1296494.255493,-1.000000,-1.000000,2.000000,0.000000,-3.000000,3.000000,0.000000,-1.000000
1296494.257169,0.000000,-3.000000,-4.000000,-1.000000,-2.000000,-3.000000,1.000000,-1.000000
1296494.257200,2.000000,5.000000,-3.000000,4.000000,-3.000000,1.000000,1.000000,-1.000000
1296494.258352,1.000000,-3.000000,0.000000,-4.000000,-3.000000,-1.000000,0.000000,-1.000000
1296494.258372,0.000000,1.000000,3.000000,-4.000000,-1.000000,-3.000000,1.000000,0.000000
1296494.258721,-1.000000,-4.000000,2.000000,-2.000000,-2.000000,-2.000000,3.000000,-1.000000
1296494.258740,0.000000,-1.000000,-5.000000,1.000000,0.000000,0.000000,-2.000000,-2.000000
1296494.261150,-3.000000,-4.000000,-2.000000,-3.000000,-1.000000,-1.000000,0.000000,-1.000000
1296494.261186,0.000000,-1.000000,2.000000,-6.000000,-2.000000,-2.000000,0.000000,-2.000000
1296494.283694,-2.000000,1.000000,1.000000,-2.000000,0.000000,0.000000,1.000000,-1.000000
1296494.283724,2.000000,-3.000000,1.000000,1.000000,-2.000000,-3.000000,-3.000000,1.000000
1296494.298730,-3.000000,0.000000,3.000000,4.000000,-1.000000,2.000000,-4.000000,-2.000000
1296494.298758,-1.000000,-5.000000,1.000000,2.000000,2.000000,-1.000000,1.000000,0.000000
1296494.313731,-2.000000,0.000000,-1.000000,1.000000,-2.000000,-3.000000,0.000000,0.000000
1296494.313762,1.000000,-1.000000,0.000000,-2.000000,-4.000000,2.000000,-3.000000,-4.000000
1296494.321472,3.000000,-2.000000,5.000000,-2.000000,3.000000,-2.000000,1.000000,-1.000000
1296494.321520,0.000000,-2.000000,1.000000,-1.000000,-2.000000,0.000000,-2.000000,-2.000000
1296494.337482,1.000000,-2.000000,-3.000000,-2.000000,-1.000000,-1.000000,0.000000,2.000000
1296494.337824,1.000000,-3.000000,2.000000,0.000000,-1.000000,1.000000,-3.000000,-2.000000
1296494.338793,1.000000,-1.000000,2.000000,1.000000,-3.000000,-2.000000,-1.000000,2.000000
1296494.338824,0.000000,1.000000,0.000000,-6.000000,-3.000000,-2.000000,-3.000000,-1.000000
1296494.339418,1.000000,-4.000000,2.000000,-3.000000,2.000000,-4.000000,-3.000000,-1.000000
1296494.339444,-1.000000,5.000000,-5.000000,-4.000000,-1.000000,1.000000,0.000000,-3.000000
1296494.343430,-2.000000,-1.000000,-2.000000,0.000000,-3.000000,-1.000000,-2.000000,1.000000
1296494.343457,0.000000,-1.000000,3.000000,-4.000000,-1.000000,-1.000000,3.000000,1.000000
1296494.352034,-2.000000,0.000000,0.000000,-4.000000,1.000000,2.000000,0.000000,1.000000
1296494.352060,-3.000000,-3.000000,-1.000000,-2.000000,2.000000,0.000000,-1.000000,-5.000000
1296494.374308,3.000000,0.000000,-4.000000,-1.000000,-1.000000,0.000000,-3.000000,0.000000
1296494.374343,0.000000,0.000000,-4.000000,-3.000000,0.000000,-1.000000,-1.000000,-4.000000
1296494.375419,-3.000000,-1.000000,-4.000000,2.000000,-3.000000,-2.000000,-2.000000,-1.000000
1296494.375446,-1.000000,-1.000000,0.000000,4.000000,0.000000,-1.000000,-3.000000,-1.000000
1296494.381378,0.000000,-4.000000,2.000000,0.000000,0.000000,0.000000,-1.000000,0.000000
1296494.381405,0.000000,0.000000,3.000000,-1.000000,-1.000000,0.000000,-1.000000,-1.000000
1296494.411482,-1.000000,0.000000,-2.000000,4.000000,-1.000000,-2.000000,-1.000000,2.000000
1296494.411510,-2.000000,-1.000000,-6.000000,3.000000,0.000000,2.000000,1.000000,-1.000000
1296494.418867,-1.000000,-2.000000,0.000000,-5.000000,-3.000000,1.000000,-2.000000,1.000000
1296494.418895,-1.000000,-2.000000,1.000000,0.000000,-3.000000,-4.000000,0.000000,-1.000000
1296494.433614,1.000000,-1.000000,1.000000,-1.000000,-1.000000,0.000000,-1.000000,-2.000000
1296494.433644,-3.000000,-2.000000,-5.000000,-5.000000,-1.000000,-4.000000,-4.000000,0.000000
1296494.448863,-1.000000,-1.000000,-7.000000,-2.000000,2.000000,-1.000000,-3.000000,0.000000
1296494.448890,1.000000,3.000000,3.000000,1.000000,-1.000000,-4.000000,0.000000,-1.000000
1296494.463813,1.000000,-2.000000,-2.000000,0.000000,-2.000000,1.000000,-2.000000,-1.000000
1296494.463842,1.000000,-1.000000,0.000000,2.000000,-4.000000,-2.000000,-1.000000,1.000000
1296494.485978,2.000000,-2.000000,1.000000,-6.000000,-2.000000,-3.000000,2.000000,-2.000000
1296494.486004,0.000000,0.000000,-2.000000,0.000000,-1.000000,1.000000,-1.000000,-1.000000
1296494.494206,-3.000000,1.000000,-4.000000,-8.000000,1.000000,-3.000000,1.000000,2.000000
1296494.494224,1.000000,-1.000000,-6.000000,-1.000000,4.000000,-2.000000,0.000000,1.000000
1296494.494524,-1.000000,-4.000000,-1.000000,-4.000000,-2.000000,1.000000,-1.000000,-2.000000
1296494.494541,0.000000,0.000000,-1.000000,-3.000000,-2.000000,-1.000000,-1.000000,-1.000000
1296494.508308,1.000000,-2.000000,-1.000000,2.000000,-1.000000,-1.000000,-2.000000,-3.000000
1296494.508328,-1.000000,0.000000,-3.000000,1.000000,-2.000000,-1.000000,-2.000000,1.000000
1296494.530685,-1.000000,0.000000,0.000000,1.000000,-2.000000,-2.000000,1.000000,-1.000000
1296494.530704,-1.000000,0.000000,1.000000,1.000000,0.000000,0.000000,0.000000,-2.000000
1296494.538293,-1.000000,-4.000000,1.000000,-2.000000,-1.000000,-2.000000,0.000000,-1.000000
1296494.538339,3.000000,-1.000000,-5.000000,2.000000,1.000000,0.000000,1.000000,-1.000000
1296494.545874,-4.000000,-5.000000,0.000000,0.000000,1.000000,1.000000,-3.000000,-2.000000
1296494.545894,0.000000,0.000000,1.000000,-3.000000,-2.000000,0.000000,-1.000000,0.000000
1296494.583437,1.000000,1.000000,-7.000000,-1.000000,0.000000,1.000000,1.000000,-4.000000
1296494.583458,-1.000000,1.000000,5.000000,-6.000000,-1.000000,-3.000000,-2.000000,-1.000000
1296494.598254,2.000000,-1.000000,-2.000000,-1.000000,-3.000000,-2.000000,-4.000000,1.000000
1296494.598274,1.000000,-2.000000,-4.000000,3.000000,0.000000,-1.000000,0.000000,1.000000
1296494.620666,0.000000,-2.000000,-3.000000,2.000000,-4.000000,-1.000000,-1.000000,-1.000000
1296494.620692,-1.000000,-1.000000,-1.000000,-7.000000,1.000000,0.000000,-4.000000,-2.000000
1296494.621274,0.000000,-1.000000,-4.000000,0.000000,-1.000000,-1.000000,-2.000000,-3.000000
1296494.621294,-1.000000,0.000000,-1.000000,2.000000,0.000000,0.000000,0.000000,-1.000000
1296494.621913,1.000000,-2.000000,1.000000,0.000000,-1.000000,0.000000,1.000000,-2.000000
1296494.621933,1.000000,1.000000,-3.000000,3.000000,2.000000,-1.000000,0.000000,-3.000000
1296494.623084,-3.000000,-2.000000,-1.000000,0.000000,-2.000000,0.000000,3.000000,4.000000
1296494.623105,-2.000000,1.000000,2.000000,-1.000000,0.000000,0.000000,-1.000000,-2.000000
1296494.624031,-3.000000,-1.000000,-3.000000,2.000000,-1.000000,-2.000000,-2.000000,-1.000000
1296494.624074,-1.000000,2.000000,-3.000000,0.000000,-2.000000,2.000000,1.000000,-3.000000
1296494.650735,-4.000000,-2.000000,3.000000,-7.000000,-3.000000,-1.000000,-2.000000,-1.000000
1296494.650764,-3.000000,2.000000,1.000000,1.000000,-3.000000,-2.000000,-2.000000,-4.000000
1296494.651382,0.000000,-4.000000,-4.000000,-2.000000,1.000000,0.000000,-1.000000,-1.000000
1296494.651400,-1.000000,-1.000000,1.000000,1.000000,-6.000000,-2.000000,-3.000000,1.000000
1296494.652526,-2.000000,-2.000000,1.000000,3.000000,2.000000,0.000000,0.000000,2.000000
1296494.652544,3.000000,-1.000000,-2.000000,-1.000000,0.000000,2.000000,-1.000000,-1.000000
1296494.688243,-1.000000,-2.000000,2.000000,2.000000,-3.000000,0.000000,0.000000,-2.000000
1296494.688267,-4.000000,-4.000000,-1.000000,-2.000000,1.000000,-2.000000,-1.000000,-1.000000
1296494.689258,-2.000000,-4.000000,-5.000000,5.000000,1.000000,-2.000000,-3.000000,1.000000
1296494.689276,1.000000,-1.000000,-4.000000,-2.000000,-1.000000,-4.000000,2.000000,0.000000
1296494.689922,-1.000000,-2.000000,-4.000000,-1.000000,0.000000,-3.000000,2.000000,-1.000000
1296494.689959,1.000000,-2.000000,0.000000,-4.000000,2.000000,-3.000000,-2.000000,1.000000
1296494.695671,0.000000,-2.000000,3.000000,2.000000,-2.000000,0.000000,-2.000000,1.000000
1296494.695691,-2.000000,-1.000000,-4.000000,0.000000,-1.000000,-2.000000,-2.000000,-3.000000
1296494.703451,-1.000000,1.000000,-3.000000,-4.000000,-3.000000,-4.000000,0.000000,-1.000000
1296494.703472,-2.000000,0.000000,-3.000000,0.000000,-2.000000,1.000000,-2.000000,-1.000000
1296494.740713,1.000000,1.000000,-5.000000,-1.000000,-1.000000,0.000000,-1.000000,-2.000000
1296494.740733,-1.000000,-3.000000,3.000000,-7.000000,-5.000000,-1.000000,-2.000000,1.000000
1296494.771615,0.000000,-3.000000,-5.000000,-2.000000,-1.000000,-1.000000,-1.000000,-1.000000
1296494.771668,0.000000,0.000000,0.000000,-1.000000,0.000000,-1.000000,2.000000,1.000000
1296494.787548,2.000000,-4.000000,-1.000000,-3.000000,-2.000000,-1.000000,-3.000000,-1.000000
1296494.787601,1.000000,-1.000000,-2.000000,3.000000,-1.000000,1.000000,-1.000000,-2.000000
1296494.788198,0.000000,0.000000,4.000000,-2.000000,-2.000000,-1.000000,-2.000000,-2.000000
1296494.788227,-1.000000,-4.000000,5.000000,-2.000000,-1.000000,0.000000,1.000000,-1.000000
1296494.789481,3.000000,0.000000,-2.000000,1.000000,0.000000,-1.000000,-2.000000,-1.000000
1296494.789540,1.000000,-2.000000,1.000000,0.000000,-3.000000,-1.000000,1.000000,0.000000
1296494.789891,-2.000000,1.000000,3.000000,-2.000000,-3.000000,0.000000,0.000000,2.000000
1296494.789923,0.000000,2.000000,-4.000000,-4.000000,0.000000,1.000000,-3.000000,-4.000000
1296494.790843,-2.000000,-3.000000,4.000000,1.000000,-1.000000,-2.000000,0.000000,-1.000000
1296494.791000,-1.000000,0.000000,-5.000000,-5.000000,-4.000000,-1.000000,-6.000000,-2.000000
1296494.809077,2.000000,-3.000000,-1.000000,3.000000,-1.000000,-3.000000,-3.000000,2.000000
1296494.809114,-3.000000,0.000000,1.000000,0.000000,-2.000000,-1.000000,0.000000,0.000000
1296494.809390,0.000000,-1.000000,-1.000000,1.000000,0.000000,-2.000000,0.000000,-2.000000
1296494.809447,-3.000000,0.000000,-6.000000,0.000000,2.000000,-2.000000,-1.000000,-3.000000
1296494.816260,0.000000,1.000000,1.000000,1.000000,-5.000000,-1.000000,0.000000,0.000000
1296494.816290,-2.000000,-3.000000,0.000000,0.000000,1.000000,-3.000000,-6.000000,-1.000000
1296494.823727,-2.000000,-1.000000,-4.000000,-2.000000,2.000000,-5.000000,1.000000,-3.000000
1296494.823755,0.000000,-1.000000,3.000000,-1.000000,-1.000000,1.000000,-2.000000,0.000000
1296494.861240,0.000000,1.000000,-1.000000,-3.000000,0.000000,-1.000000,0.000000,0.000000
1296494.861271,1.000000,1.000000,-2.000000,1.000000,-3.000000,-1.000000,0.000000,0.000000
1296494.868836,-1.000000,-2.000000,-4.000000,-3.000000,-2.000000,-1.000000,-2.000000,-2.000000
1296494.868863,1.000000,1.000000,-1.000000,0.000000,-4.000000,-1.000000,-1.000000,-2.000000
1296494.906385,-1.000000,2.000000,4.000000,0.000000,2.000000,-4.000000,-1.000000,-5.000000
1296494.906414,-2.000000,-1.000000,-2.000000,-3.000000,-1.000000,-2.000000,-5.000000,-1.000000
1296494.928898,-3.000000,1.000000,1.000000,1.000000,-3.000000,0.000000,0.000000,-1.000000
1296494.928949,0.000000,-2.000000,-3.000000,0.000000,0.000000,0.000000,-1.000000,-3.000000
1296494.930826,-2.000000,-3.000000,4.000000,4.000000,0.000000,1.000000,1.000000,0.000000
1296494.931046,0.000000,2.000000,-7.000000,2.000000,-1.000000,-2.000000,-3.000000,-2.000000
1296494.932713,-2.000000,-3.000000,-3.000000,-3.000000,0.000000,0.000000,-2.000000,0.000000
1296494.932776,0.000000,-2.000000,-2.000000,-1.000000,-1.000000,0.000000,0.000000,-3.000000
1296494.933616,-2.000000,5.000000,-6.000000,2.000000,1.000000,-1.000000,-3.000000,-3.000000
1296494.933643,-2.000000,0.000000,1.000000,-4.000000,1.000000,-1.000000,1.000000,0.000000
1296494.935255,-4.000000,-1.000000,2.000000,-1.000000,-1.000000,-2.000000,-3.000000,-2.000000
1296494.935285,-2.000000,-1.000000,-4.000000,-6.000000,-5.000000,-4.000000,-2.000000,-3.000000
1296494.936780,-3.000000,-2.000000,-1.000000,-1.000000,1.000000,0.000000,-2.000000,-3.000000
1296494.936823,-1.000000,1.000000,-6.000000,0.000000,-4.000000,-2.000000,1.000000,-2.000000
1296494.944514,-4.000000,-1.000000,-1.000000,-2.000000,1.000000,-1.000000,-1.000000,0.000000
1296494.944545,1.000000,1.000000,-3.000000,-2.000000,1.000000,1.000000,2.000000,-4.000000
1296494.952722,-3.000000,2.000000,-1.000000,-2.000000,-1.000000,-4.000000,-1.000000,-2.000000
1296494.952753,-1.000000,0.000000,-6.000000,3.000000,-2.000000,2.000000,0.000000,-4.000000
1296494.966683,-1.000000,4.000000,-2.000000,2.000000,-2.000000,0.000000,-2.000000,-3.000000
1296494.966716,0.000000,-2.000000,0.000000,-2.000000,-3.000000,5.000000,0.000000,0.000000
1296495.004000,-3.000000,1.000000,0.000000,2.000000,-2.000000,-1.000000,-3.000000,0.000000
1296495.004213,-2.000000,2.000000,0.000000,-5.000000,-1.000000,1.000000,1.000000,1.000000
1296495.011519,-5.000000,-3.000000,0.000000,-4.000000,1.000000,-1.000000,2.000000,-3.000000
1296495.011549,4.000000,-1.000000,1.000000,1.000000,2.000000,-3.000000,1.000000,0.000000
1296495.026243,-2.000000,-1.000000,-1.000000,0.000000,-3.000000,-4.000000,0.000000,0.000000
1296495.026273,-4.000000,-2.000000,-6.000000,1.000000,-1.000000,-2.000000,0.000000,-3.000000
1296495.041259,1.000000,0.000000,-3.000000,-1.000000,-4.000000,0.000000,-1.000000,1.000000
1296495.041289,-2.000000,-1.000000,-3.000000,3.000000,0.000000,1.000000,0.000000,-2.000000
1296495.051165,0.000000,-1.000000,2.000000,-4.000000,-2.000000,1.000000,1.000000,-3.000000
1296495.052028,-4.000000,-2.000000,2.000000,-2.000000,2.000000,-2.000000,-1.000000,-5.000000
1296495.053108,-3.000000,-4.000000,-4.000000,-2.000000,-1.000000,1.000000,-2.000000,-2.000000
1296495.053134,-1.000000,2.000000,-1.000000,3.000000,0.000000,-1.000000,-1.000000,0.000000
1296495.053498,-3.000000,4.000000,-4.000000,-4.000000,-2.000000,0.000000,0.000000,-1.000000
1296495.053681,-2.000000,0.000000,0.000000,0.000000,1.000000,0.000000,-2.000000,1.000000
1296495.054029,-5.000000,0.000000,-3.000000,4.000000,-2.000000,-1.000000,-1.000000,-1.000000
1296495.054058,0.000000,-1.000000,5.000000,-2.000000,-4.000000,-1.000000,0.000000,-1.000000
1296495.056194,0.000000,0.000000,5.000000,-2.000000,-2.000000,0.000000,1.000000,-1.000000
1296495.056224,0.000000,0.000000,-1.000000,-7.000000,-1.000000,-2.000000,-3.000000,1.000000
1296495.063855,-2.000000,3.000000,-4.000000,-1.000000,0.000000,1.000000,-2.000000,0.000000
1296495.063886,1.000000,-2.000000,1.000000,-1.000000,-2.000000,-2.000000,0.000000,2.000000
1296495.086565,2.000000,3.000000,5.000000,-5.000000,-5.000000,-1.000000,0.000000,-3.000000
1296495.086595,0.000000,-1.000000,-4.000000,-2.000000,0.000000,-1.000000,-1.000000,-1.000000
1296495.093993,0.000000,-2.000000,2.000000,-5.000000,-5.000000,2.000000,-1.000000,-2.000000
1296495.094062,0.000000,-4.000000,-1.000000,1.000000,-1.000000,1.000000,-1.000000,-2.000000
1296495.116485,-1.000000,2.000000,-3.000000,4.000000,-4.000000,2.000000,0.000000,-3.000000
1296495.116516,-4.000000,1.000000,1.000000,-2.000000,-4.000000,1.000000,0.000000,-2.000000
1296495.131339,-1.000000,-3.000000,0.000000,-1.000000,-2.000000,-1.000000,3.000000,1.000000
1296495.131370,-1.000000,2.000000,4.000000,-5.000000,1.000000,-2.000000,0.000000,0.000000
1296495.169192,-2.000000,1.000000,-5.000000,4.000000,-2.000000,2.000000,-1.000000,-3.000000
1296495.169223,-1.000000,-2.000000,-5.000000,-7.000000,1.000000,-1.000000,1.000000,0.000000
1296495.170462,2.000000,-1.000000,-4.000000,-3.000000,0.000000,-3.000000,1.000000,-1.000000
1296495.170493,0.000000,2.000000,-1.000000,-1.000000,0.000000,-5.000000,-2.000000,-1.000000
1296495.171450,3.000000,-4.000000,-4.000000,-3.000000,-1.000000,-1.000000,1.000000,-1.000000
1296495.171963,-4.000000,2.000000,-2.000000,-2.000000,-2.000000,0.000000,2.000000,-3.000000
1296495.172639,-2.000000,-1.000000,-2.000000,1.000000,-2.000000,-3.000000,2.000000,-1.000000
1296495.172908,0.000000,-3.000000,-1.000000,2.000000,0.000000,-1.000000,-2.000000,-1.000000
1296495.173802,2.000000,3.000000,-3.000000,-3.000000,-1.000000,-1.000000,-2.000000,1.000000
1296495.173841,0.000000,-2.000000,0.000000,-3.000000,1.000000,-2.000000,1.000000,-1.000000
1296495.176000,1.000000,-4.000000,-3.000000,-5.000000,-2.000000,-5.000000,2.000000,2.000000
1296495.176049,2.000000,-1.000000,-6.000000,2.000000,-3.000000,-3.000000,-1.000000,-3.000000
1296495.183796,1.000000,-4.000000,4.000000,4.000000,2.000000,2.000000,0.000000,-1.000000
1296495.183847,-1.000000,-3.000000,-4.000000,2.000000,2.000000,1.000000,0.000000,1.000000
1296495.206362,-2.000000,-3.000000,-3.000000,3.000000,0.000000,0.000000,1.000000,0.000000
1296495.206390,-1.000000,-4.000000,4.000000,-4.000000,0.000000,0.000000,-2.000000,-3.000000
1296495.213762,4.000000,-1.000000,-1.000000,-3.000000,-3.000000,2.000000,-3.000000,-3.000000
1296495.213814,-1.000000,1.000000,3.000000,0.000000,1.000000,-3.000000,-2.000000,1.000000
1296495.243796,0.000000,0.000000,-1.000000,2.000000,-1.000000,-2.000000,0.000000,-3.000000
1296495.243826,1.000000,0.000000,-1.000000,3.000000,-3.000000,-2.000000,-1.000000,-2.000000
1296495.251369,0.000000,-2.000000,2.000000,-5.000000,0.000000,-3.000000,-1.000000,0.000000
1296495.251405,-3.000000,-2.000000,-4.000000,-4.000000,-2.000000,-4.000000,-2.000000,-2.000000
1296495.273514,1.000000,2.000000,1.000000,-5.000000,0.000000,0.000000,-1.000000,-3.000000
1296495.273543,3.000000,-5.000000,0.000000,0.000000,3.000000,0.000000,-1.000000,-1.000000
1296495.288927,-1.000000,1.000000,-5.000000,-3.000000,1.000000,-1.000000,-1.000000,-3.000000
1296495.288981,2.000000,2.000000,1.000000,-6.000000,-1.000000,-3.000000,0.000000,-2.000000
1296495.290425,-2.000000,-3.000000,4.000000,-3.000000,1.000000,2.000000,0.000000,1.000000
1296495.290455,0.000000,3.000000,-5.000000,1.000000,-1.000000,0.000000,-5.000000,0.000000
1296495.291167,-5.000000,1.000000,-1.000000,1.000000,-1.000000,-2.000000,-3.000000,-5.000000
1296495.291198,0.000000,-1.000000,3.000000,-1.000000,-1.000000,0.000000,-1.000000,2.000000
1296495.291658,-4.000000,-4.000000,-9.000000,-4.000000,-2.000000,-4.000000,-1.000000,-1.000000
1296495.291683,0.000000,0.000000,-5.000000,1.000000,1.000000,-2.000000,-1.000000,-1.000000
1296495.292787,1.000000,-1.000000,0.000000,-1.000000,0.000000,0.000000,-3.000000,-1.000000
1296495.292816,-1.000000,-1.000000,0.000000,-1.000000,-3.000000,-1.000000,-2.000000,-1.000000
1296495.296198,-1.000000,-1.000000,3.000000,2.000000,-2.000000,1.000000,1.000000,-1.000000
1296495.296262,0.000000,2.000000,-1.000000,1.000000,-1.000000,-2.000000,0.000000,-1.000000
1296495.326183,5.000000,-4.000000,0.000000,0.000000,0.000000,-4.000000,-3.000000,0.000000
1296495.326218,1.000000,0.000000,0.000000,1.000000,-1.000000,-2.000000,-3.000000,-3.000000
1296495.341404,-1.000000,-4.000000,2.000000,0.000000,3.000000,-1.000000,0.000000,0.000000
1296495.341434,0.000000,3.000000,-3.000000,-3.000000,-4.000000,0.000000,-2.000000,-2.000000
1296495.348601,0.000000,-1.000000,-1.000000,-4.000000,2.000000,2.000000,-2.000000,-1.000000
1296495.348628,1.000000,-4.000000,-7.000000,1.000000,1.000000,1.000000,1.000000,-1.000000
1296495.365279,1.000000,2.000000,-3.000000,-3.000000,1.000000,1.000000,1.000000,-2.000000
1296495.365340,-3.000000,0.000000,-3.000000,0.000000,-1.000000,-6.000000,-1.000000,-1.000000
1296495.365649,-1.000000,-2.000000,2.000000,-1.000000,-1.000000,-3.000000,0.000000,-2.000000
1296495.365690,-1.000000,0.000000,-3.000000,1.000000,-3.000000,-1.000000,1.000000,-1.000000
1296495.367335,0.000000,1.000000,3.000000,-2.000000,2.000000,0.000000,-1.000000,-1.000000
1296495.367356,-3.000000,2.000000,-4.000000,0.000000,-1.000000,-4.000000,1.000000,-3.000000
1296495.367565,-3.000000,-1.000000,-3.000000,-1.000000,-3.000000,-1.000000,2.000000,3.000000
1296495.367578,-5.000000,-8.000000,-3.000000,-2.000000,0.000000,-4.000000,-2.000000,0.000000
1296495.379790,3.000000,-2.000000,0.000000,-2.000000,-2.000000,-3.000000,-1.000000,0.000000
1296495.379816,1.000000,-1.000000,-4.000000,-2.000000,-1.000000,0.000000,-2.000000,-3.000000
1296495.394069,0.000000,-1.000000,-1.000000,-5.000000,-1.000000,-1.000000,-3.000000,2.000000
1296495.394132,-1.000000,-2.000000,2.000000,0.000000,2.000000,0.000000,2.000000,-1.000000
1296495.395218,-1.000000,-3.000000,1.000000,-5.000000,-1.000000,0.000000,0.000000,-5.000000
1296495.395244,1.000000,-1.000000,-3.000000,-1.000000,1.000000,0.000000,2.000000,-3.000000
1296495.401738,-3.000000,-2.000000,5.000000,-3.000000,2.000000,-3.000000,-3.000000,-1.000000
1296495.401766,1.000000,-2.000000,-1.000000,6.000000,-5.000000,1.000000,0.000000,2.000000
1296495.417046,-4.000000,3.000000,-4.000000,1.000000,-4.000000,-2.000000,-1.000000,-2.000000
1296495.417073,3.000000,0.000000,0.000000,0.000000,0.000000,1.000000,1.000000,-4.000000
1296495.431214,1.000000,-1.000000,1.000000,0.000000,-1.000000,0.000000,2.000000,2.000000
1296495.431242,0.000000,0.000000,-3.000000,-4.000000,1.000000,1.000000,2.000000,3.000000
1296495.453708,2.000000,0.000000,6.000000,-1.000000,0.000000,-2.000000,-3.000000,-1.000000
1296495.453736,-6.000000,-1.000000,-1.000000,-1.000000,1.000000,-2.000000,0.000000,-1.000000
1296495.461211,0.000000,-1.000000,-1.000000,2.000000,-1.000000,-1.000000,-2.000000,1.000000
1296495.461237,-1.000000,-5.000000,-2.000000,0.000000,1.000000,1.000000,-1.000000,-4.000000
1296495.484147,-3.000000,-4.000000,2.000000,-2.000000,-3.000000,2.000000,-2.000000,-2.000000
1296495.484177,-1.000000,0.000000,-1.000000,2.000000,0.000000,-1.000000,3.000000,0.000000
1296495.491129,2.000000,-1.000000,-2.000000,-1.000000,-1.000000,-2.000000,-3.000000,0.000000
1296495.491156,1.000000,-1.000000,-1.000000,-1.000000,-5.000000,-1.000000,0.000000,-2.000000
1296495.521569,-3.000000,-4.000000,-1.000000,-1.000000,-2.000000,1.000000,0.000000,2.000000
1296495.521619,-2.000000,-4.000000,-7.000000,2.000000,-2.000000,2.000000,0.000000,-3.000000
1296495.528867,-3.000000,-2.000000,-5.000000,-3.000000,-1.000000,0.000000,-2.000000,-1.000000
1296495.528896,-2.000000,1.000000,4.000000,0.000000,-3.000000,3.000000,1.000000,0.000000
1296495.558684,-2.000000,-2.000000,0.000000,2.000000,-1.000000,0.000000,0.000000,1.000000
1296495.558714,-4.000000,-1.000000,-3.000000,0.000000,1.000000,-1.000000,-1.000000,-2.000000
1296495.566758,2.000000,-2.000000,1.000000,-1.000000,-2.000000,0.000000,-3.000000,-2.000000
1296495.566792,-1.000000,-1.000000,-3.000000,3.000000,3.000000,-4.000000,0.000000,-3.000000
1296495.568107,-1.000000,1.000000,-2.000000,1.000000,-1.000000,-2.000000,-1.000000,1.000000
1296495.568135,-5.000000,1.000000,-5.000000,1.000000,2.000000,0.000000,0.000000,-5.000000
1296495.568957,0.000000,2.000000,1.000000,1.000000,-2.000000,-2.000000,-1.000000,0.000000
1296495.568986,-2.000000,-5.000000,-5.000000,0.000000,-2.000000,-1.000000,-3.000000,1.000000
1296495.570839,0.000000,-1.000000,1.000000,1.000000,-2.000000,-3.000000,-3.000000,0.000000
1296495.570866,0.000000,2.000000,-2.000000,0.000000,1.000000,1.000000,-4.000000,-3.000000
1296495.571060,0.000000,-2.000000,3.000000,-2.000000,1.000000,2.000000,0.000000,2.000000
1296495.571097,3.000000,0.000000,-5.000000,1.000000,-4.000000,-1.000000,-2.000000,-2.000000
1296495.573430,-3.000000,3.000000,-2.000000,-1.000000,-1.000000,-2.000000,-3.000000,-2.000000
1296495.573457,-2.000000,0.000000,-4.000000,1.000000,-3.000000,0.000000,3.000000,-2.000000
1296495.596123,1.000000,-1.000000,-1.000000,0.000000,-1.000000,-2.000000,-1.000000,-5.000000
1296495.596151,0.000000,-1.000000,-2.000000,1.000000,-2.000000,-1.000000,0.000000,3.000000
1296495.604489,1.000000,0.000000,-3.000000,1.000000,-2.000000,0.000000,1.000000,-1.000000
1296495.604516,-2.000000,2.000000,-3.000000,2.000000,-1.000000,1.000000,-2.000000,1.000000
1296495.605274,0.000000,1.000000,-7.000000,5.000000,0.000000,0.000000,-3.000000,2.000000
1296495.605325,0.000000,-2.000000,1.000000,-3.000000,-1.000000,-1.000000,-3.000000,1.000000
1296495.619115,1.000000,-3.000000,2.000000,2.000000,-2.000000,-1.000000,1.000000,0.000000
1296495.619144,0.000000,-1.000000,-3.000000,-4.000000,1.000000,-1.000000,-3.000000,-2.000000
1296495.634033,-2.000000,1.000000,-3.000000,4.000000,-4.000000,-3.000000,-2.000000,1.000000
1296495.634062,-1.000000,2.000000,-6.000000,-1.000000,0.000000,-3.000000,0.000000,0.000000
1296495.642059,0.000000,0.000000,1.000000,-2.000000,0.000000,-1.000000,-1.000000,-3.000000
1296495.642086,-3.000000,-1.000000,1.000000,-2.000000,-1.000000,0.000000,-1.000000,0.000000
1296495.648905,-4.000000,-3.000000,-1.000000,3.000000,-4.000000,2.000000,-1.000000,2.000000
1296495.648933,1.000000,0.000000,-5.000000,-5.000000,-2.000000,-1.000000,-1.000000,-1.000000
1296495.671131,1.000000,1.000000,-4.000000,-1.000000,0.000000,-3.000000,-1.000000,0.000000
1296495.671159,0.000000,-2.000000,1.000000,-3.000000,-1.000000,-1.000000,0.000000,-2.000000
1296495.708751,0.000000,-2.000000,0.000000,-3.000000,-2.000000,-4.000000,-2.000000,-2.000000
1296495.708780,-2.000000,0.000000,-1.000000,-3.000000,-1.000000,-2.000000,0.000000,-3.000000
1296495.731118,-1.000000,0.000000,0.000000,0.000000,3.000000,-1.000000,-3.000000,-1.000000
1296495.731147,0.000000,0.000000,-2.000000,-4.000000,0.000000,-1.000000,1.000000,-2.000000
1296495.739212,-4.000000,-2.000000,3.000000,-3.000000,2.000000,1.000000,-3.000000,0.000000
1296495.739636,0.000000,-6.000000,-1.000000,-3.000000,1.000000,-1.000000,1.000000,0.000000
1296495.740699,3.000000,0.000000,-4.000000,0.000000,-2.000000,-3.000000,-2.000000,-2.000000
1296495.740739,3.000000,-4.000000,-4.000000,0.000000,-2.000000,-1.000000,-2.000000,-1.000000
1296495.742100,0.000000,1.000000,-1.000000,-3.000000,0.000000,-1.000000,-3.000000,-1.000000
1296495.742136,-5.000000,-2.000000,-3.000000,-2.000000,-3.000000,3.000000,0.000000,0.000000
1296495.742931,0.000000,-2.000000,-1.000000,-4.000000,0.000000,-2.000000,-1.000000,-5.000000
1296495.742996,-2.000000,0.000000,2.000000,1.000000,-1.000000,-2.000000,2.000000,0.000000
1296495.746173,-2.000000,0.000000,1.000000,5.000000,-3.000000,-1.000000,0.000000,-3.000000
1296495.746217,0.000000,-3.000000,-2.000000,2.000000,1.000000,-2.000000,1.000000,-1.000000
1296495.761223,-2.000000,-1.000000,-5.000000,-2.000000,0.000000,-1.000000,-2.000000,-1.000000
1296495.761251,0.000000,-1.000000,3.000000,1.000000,1.000000,-1.000000,-3.000000,-1.000000
1296495.768721,-4.000000,-4.000000,-1.000000,-4.000000,-2.000000,-4.000000,-2.000000,1.000000
1296495.768877,-1.000000,-2.000000,1.000000,0.000000,-1.000000,-1.000000,0.000000,-1.000000
1296495.783516,1.000000,-1.000000,-4.000000,-6.000000,-2.000000,1.000000,-1.000000,2.000000
1296495.783545,-5.000000,2.000000,2.000000,-2.000000,-1.000000,-1.000000,0.000000,0.000000
1296495.799303,1.000000,-2.000000,-2.000000,-2.000000,-1.000000,0.000000,-1.000000,-1.000000
1296495.799333,2.000000,-4.000000,0.000000,0.000000,-4.000000,-3.000000,-4.000000,-2.000000
1296495.813774,-2.000000,0.000000,-4.000000,-1.000000,-5.000000,0.000000,-2.000000,0.000000
1296495.813800,-3.000000,2.000000,0.000000,-2.000000,-1.000000,-1.000000,-5.000000,3.000000
1296495.828736,2.000000,-2.000000,3.000000,2.000000,-4.000000,1.000000,2.000000,-2.000000
1296495.828765,-1.000000,0.000000,-5.000000,-5.000000,-1.000000,-4.000000,-1.000000,1.000000
1296495.851290,0.000000,2.000000,-5.000000,2.000000,1.000000,-1.000000,-1.000000,-1.000000
1296495.851319,2.000000,-5.000000,3.000000,4.000000,-1.000000,-4.000000,-3.000000,2.000000
1296495.873630,2.000000,-3.000000,0.000000,-3.000000,-1.000000,-3.000000,-2.000000,-3.000000
1296495.873659,-4.000000,-1.000000,-4.000000,0.000000,0.000000,-1.000000,-1.000000,-1.000000
1296495.882802,-4.000000,-2.000000,-1.000000,2.000000,2.000000,2.000000,-1.000000,2.000000
1296495.882859,0.000000,0.000000,1.000000,-2.000000,0.000000,0.000000,-4.000000,-1.000000
1296495.883731,-1.000000,-2.000000,-7.000000,1.000000,-1.000000,-4.000000,-1.000000,-1.000000
1296495.883760,1.000000,-1.000000,2.000000,-2.000000,-2.000000,2.000000,-2.000000,2.000000
1296495.884517,-2.000000,-2.000000,3.000000,-2.000000,-5.000000,-1.000000,0.000000,-1.000000
1296495.884546,-3.000000,-1.000000,-1.000000,2.000000,-2.000000,-3.000000,-3.000000,-2.000000
1296495.888638,0.000000,0.000000,-1.000000,-1.000000,-2.000000,-1.000000,0.000000,1.000000
1296495.888666,-1.000000,0.000000,-3.000000,-4.000000,0.000000,0.000000,-1.000000,3.000000
1296495.896067,4.000000,0.000000,3.000000,0.000000,-3.000000,-3.000000,0.000000,-3.000000
1296495.896094,1.000000,2.000000,-4.000000,1.000000,0.000000,0.000000,1.000000,0.000000
1296495.926441,-4.000000,3.000000,-4.000000,4.000000,-1.000000,-1.000000,-1.000000,-4.000000
1296495.926473,0.000000,-1.000000,3.000000,0.000000,-2.000000,1.000000,-1.000000,-5.000000
1296495.934198,-1.000000,1.000000,-3.000000,-1.000000,0.000000,-2.000000,2.000000,-2.000000
1296495.934226,-2.000000,2.000000,-1.000000,-1.000000,0.000000,1.000000,-2.000000,-3.000000
1296495.965578,-2.000000,-5.000000,-4.000000,3.000000,0.000000,-2.000000,-1.000000,1.000000
1296495.965625,-1.000000,-4.000000,1.000000,-2.000000,-3.000000,-2.000000,-2.000000,-1.000000
1296495.967131,-1.000000,1.000000,-5.000000,-1.000000,2.000000,3.000000,0.000000,-1.000000
1296495.967177,-2.000000,2.000000,-1.000000,-3.000000,-2.000000,-2.000000,-1.000000,0.000000
1296495.968200,-3.000000,-1.000000,-8.000000,-4.000000,-4.000000,-1.000000,1.000000,-3.000000
1296495.968231,-1.000000,0.000000,0.000000,1.000000,1.000000,-1.000000,0.000000,0.000000
1296495.969878,0.000000,-1.000000,2.000000,3.000000,-2.000000,1.000000,2.000000,-1.000000
1296495.969949,1.000000,0.000000,-1.000000,0.000000,-3.000000,2.000000,-2.000000,-2.000000
1296495.986723,0.000000,0.000000,-2.000000,-1.000000,-1.000000,-3.000000,-1.000000,0.000000
1296495.986752,-3.000000,-2.000000,-3.000000,-2.000000,0.000000,-4.000000,-1.000000,-1.000000
1296495.987545,-1.000000,-1.000000,-2.000000,-2.000000,1.000000,-1.000000,0.000000,-1.000000
1296495.987571,-1.000000,3.000000,3.000000,-1.000000,-3.000000,-1.000000,-1.000000,-1.000000
1296496.001483,1.000000,-2.000000,-1.000000,1.000000,-1.000000,-2.000000,-3.000000,0.000000
1296496.001514,-2.000000,1.000000,4.000000,-2.000000,2.000000,-1.000000,-3.000000,-4.000000
1296496.008765,-1.000000,1.000000,-3.000000,-1.000000,-3.000000,-2.000000,-3.000000,-3.000000
1296496.008821,-1.000000,-3.000000,-3.000000,-1.000000,-2.000000,0.000000,-3.000000,-2.000000
1296496.038948,-2.000000,-5.000000,-1.000000,-2.000000,0.000000,-1.000000,-2.000000,-1.000000
1296496.038975,-1.000000,-3.000000,1.000000,0.000000,0.000000,-3.000000,1.000000,0.000000
1296496.046401,1.000000,2.000000,5.000000,-3.000000,-2.000000,1.000000,-3.000000,-2.000000
1296496.046431,-1.000000,-3.000000,1.000000,3.000000,-4.000000,-1.000000,1.000000,-1.000000
1296496.076530,0.000000,0.000000,3.000000,-1.000000,-2.000000,-2.000000,-1.000000,0.000000
1296496.076565,-4.000000,-2.000000,0.000000,0.000000,3.000000,-1.000000,-2.000000,2.000000
1296496.083942,-2.000000,-5.000000,-4.000000,3.000000,-4.000000,2.000000,3.000000,-2.000000
1296496.083974,2.000000,0.000000,1.000000,-3.000000,-3.000000,1.000000,-1.000000,1.000000
1296496.093470,-2.000000,0.000000,-1.000000,-4.000000,-5.000000,-1.000000,-3.000000,-1.000000
1296496.093499,0.000000,-2.000000,-3.000000,-2.000000,2.000000,-2.000000,-1.000000,1.000000
1296496.093655,0.000000,2.000000,0.000000,-1.000000,-1.000000,-2.000000,-2.000000,-1.000000
1296496.093718,-1.000000,-2.000000,-3.000000,-3.000000,0.000000,2.000000,2.000000,1.000000
1296496.094825,0.000000,-1.000000,-1.000000,-2.000000,-3.000000,-1.000000,1.000000,-1.000000
1296496.094955,1.000000,-1.000000,-4.000000,-1.000000,1.000000,0.000000,-1.000000,-3.000000
1296496.098745,-1.000000,1.000000,1.000000,0.000000,-1.000000,1.000000,-1.000000,2.000000
1296496.098773,-1.000000,-3.000000,1.000000,-5.000000,-1.000000,3.000000,0.000000,0.000000
1296496.113832,0.000000,-3.000000,2.000000,-1.000000,-3.000000,-2.000000,-1.000000,0.000000
1296496.113882,-1.000000,2.000000,-1.000000,0.000000,0.000000,0.000000,-1.000000,-3.000000
1296496.128675,-2.000000,2.000000,-3.000000,0.000000,-1.000000,-3.000000,-1.000000,1.000000
1296496.128709,0.000000,-4.000000,2.000000,3.000000,0.000000,0.000000,-2.000000,-1.000000
1296496.151275,-1.000000,2.000000,0.000000,-3.000000,-1.000000,1.000000,-3.000000,-1.000000
1296496.151304,-3.000000,-1.000000,2.000000,-4.000000,-1.000000,0.000000,-1.000000,-2.000000
1296496.166597,0.000000,1.000000,-1.000000,-5.000000,1.000000,-1.000000,-3.000000,2.000000
1296496.166639,-1.000000,-1.000000,1.000000,-2.000000,-1.000000,-3.000000,0.000000,-1.000000
1296496.174428,-1.000000,-2.000000,3.000000,-6.000000,-3.000000,-1.000000,-2.000000,-1.000000
1296496.174457,1.000000,1.000000,-4.000000,0.000000,-2.000000,-3.000000,-1.000000,1.000000
1296496.175267,1.000000,-1.000000,-2.000000,0.000000,-3.000000,-2.000000,-1.000000,-1.000000
1296496.175295,-4.000000,0.000000,2.000000,2.000000,0.000000,-3.000000,3.000000,0.000000
1296496.176743,-2.000000,-2.000000,0.000000,0.000000,1.000000,2.000000,-3.000000,-1.000000
1296496.176772,-2.000000,0.000000,-4.000000,-3.000000,-1.000000,-4.000000,-3.000000,-1.000000
1296496.177885,-3.000000,-2.000000,7.000000,-1.000000,0.000000,-3.000000,-4.000000,-1.000000
1296496.177910,0.000000,2.000000,-1.000000,-1.000000,0.000000,2.000000,-3.000000,1.000000
1296496.196805,-2.000000,4.000000,-6.000000,-2.000000,-1.000000,-3.000000,1.000000,-2.000000
1296496.196831,2.000000,3.000000,-2.000000,-2.000000,0.000000,3.000000,-1.000000,0.000000
1296496.197876,0.000000,1.000000,1.000000,-1.000000,-3.000000,0.000000,2.000000,-2.000000
1296496.197903,-1.000000,-5.000000,1.000000,0.000000,3.000000,-2.000000,-3.000000,-2.000000
1296496.203698,1.000000,1.000000,2.000000,2.000000,0.000000,0.000000,-5.000000,-1.000000
1296496.203727,-1.000000,0.000000,-2.000000,5.000000,-2.000000,1.000000,-1.000000,-1.000000
1296496.226193,-3.000000,0.000000,-3.000000,-2.000000,1.000000,-4.000000,-1.000000,0.000000
1296496.226224,-4.000000,-1.000000,1.000000,-3.000000,-2.000000,-3.000000,-2.000000,1.000000
1296496.227285,2.000000,-2.000000,1.000000,0.000000,1.000000,1.000000,1.000000,1.000000
1296496.227311,0.000000,-3.000000,-4.000000,1.000000,-1.000000,0.000000,1.000000,0.000000
1296496.241243,2.000000,-1.000000,1.000000,-5.000000,3.000000,0.000000,1.000000,-1.000000
1296496.241272,-2.000000,-3.000000,-2.000000,1.000000,0.000000,0.000000,-4.000000,0.000000
1296496.248969,0.000000,-1.000000,-4.000000,-2.000000,0.000000,3.000000,1.000000,-3.000000
1296496.248999,1.000000,2.000000,1.000000,0.000000,-2.000000,-1.000000,0.000000,-1.000000
1296496.286461,-1.000000,-2.000000,1.000000,-5.000000,0.000000,0.000000,0.000000,0.000000
1296496.286490,-4.000000,-1.000000,-3.000000,2.000000,1.000000,-3.000000,0.000000,1.000000
1296496.324010,0.000000,-1.000000,1.000000,0.000000,0.000000,-1.000000,1.000000,-1.000000
1296496.324256,-3.000000,-2.000000,-3.000000,-1.000000,-2.000000,-3.000000,-3.000000,-1.000000
1296496.324795,-1.000000,3.000000,-3.000000,4.000000,0.000000,0.000000,0.000000,1.000000
1296496.325067,0.000000,2.000000,-4.000000,4.000000,-3.000000,2.000000,-5.000000,-1.000000
1296496.326578,-3.000000,-2.000000,2.000000,2.000000,1.000000,1.000000,3.000000,1.000000
1296496.326603,-3.000000,-1.000000,-1.000000,-2.000000,-1.000000,-3.000000,-2.000000,-3.000000
1296496.327615,-3.000000,-5.000000,3.000000,2.000000,-1.000000,-4.000000,-2.000000,0.000000
1296496.327987,0.000000,2.000000,-3.000000,-2.000000,-7.000000,0.000000,-1.000000,-4.000000
1296496.328451,-1.000000,3.000000,4.000000,-1.000000,1.000000,-2.000000,-1.000000,0.000000
1296496.328499,1.000000,1.000000,0.000000,-4.000000,-4.000000,0.000000,-3.000000,-1.000000
1296496.331938,-2.000000,1.000000,-1.000000,2.000000,-1.000000,0.000000,-1.000000,-1.000000
1296496.331975,-6.000000,-1.000000,-8.000000,1.000000,-3.000000,-1.000000,0.000000,-1.000000
1296496.339028,2.000000,-1.000000,0.000000,-3.000000,0.000000,-1.000000,-3.000000,-2.000000
1296496.339058,1.000000,-2.000000,3.000000,-4.000000,-3.000000,0.000000,0.000000,1.000000
1296496.354642,-3.000000,3.000000,-3.000000,1.000000,-1.000000,-1.000000,-5.000000,0.000000
1296496.354693,-1.000000,-3.000000,-5.000000,-4.000000,-1.000000,0.000000,0.000000,1.000000
1296496.355536,-3.000000,0.000000,2.000000,0.000000,1.000000,0.000000,-1.000000,0.000000
1296496.355562,0.000000,0.000000,-8.000000,3.000000,0.000000,1.000000,-1.000000,-1.000000
1296496.398766,-3.000000,0.000000,1.000000,-2.000000,0.000000,0.000000,-2.000000,2.000000
1296496.398807,2.000000,-1.000000,0.000000,-7.000000,-4.000000,2.000000,-4.000000,-2.000000
1296496.406321,0.000000,1.000000,-2.000000,-1.000000,-3.000000,-5.000000,0.000000,-1.000000
1296496.406352,-3.000000,-2.000000,0.000000,2.000000,-1.000000,0.000000,1.000000,-1.000000
1296496.436648,0.000000,-1.000000,2.000000,-3.000000,1.000000,0.000000,-2.000000,-3.000000
1296496.436677,-1.000000,1.000000,1.000000,-2.000000,-2.000000,0.000000,-4.000000,0.000000
1296496.436883,2.000000,-1.000000,3.000000,-2.000000,-1.000000,-2.000000,1.000000,-2.000000
1296496.436906,0.000000,1.000000,-6.000000,1.000000,0.000000,-5.000000,-2.000000,1.000000
1296496.438372,-4.000000,0.000000,0.000000,2.000000,-1.000000,-1.000000,-1.000000,-2.000000
1296496.438791,1.000000,0.000000,0.000000,2.000000,-3.000000,-1.000000,1.000000,-1.000000
1296496.440334,-2.000000,-2.000000,1.000000,-2.000000,4.000000,0.000000,1.000000,-1.000000
1296496.440362,0.000000,1.000000,2.000000,-2.000000,-4.000000,-1.000000,-2.000000,0.000000
1296496.440560,3.000000,-2.000000,0.000000,0.000000,-1.000000,-1.000000,1.000000,-3.000000
1296496.440578,-3.000000,2.000000,1.000000,0.000000,3.000000,1.000000,-2.000000,-3.000000
1296496.451947,-2.000000,1.000000,1.000000,-2.000000,-1.000000,-4.000000,-3.000000,-5.000000
1296496.452000,3.000000,-3.000000,1.000000,-4.000000,2.000000,-1.000000,0.000000,1.000000
1296496.466392,-1.000000,-1.000000,-1.000000,0.000000,-1.000000,-3.000000,0.000000,0.000000
1296496.466420,-3.000000,-3.000000,-3.000000,3.000000,3.000000,1.000000,1.000000,1.000000
1296496.481161,0.000000,3.000000,-3.000000,-5.000000,0.000000,-3.000000,-3.000000,-2.000000
1296496.481201,-2.000000,2.000000,-3.000000,1.000000,-1.000000,1.000000,-4.000000,-1.000000
1296496.488787,-4.000000,-1.000000,-4.000000,1.000000,-1.000000,-3.000000,2.000000,-2.000000
1296496.488816,0.000000,-2.000000,4.000000,-2.000000,-2.000000,-1.000000,-1.000000,-1.000000
1296496.541196,0.000000,-2.000000,-2.000000,2.000000,1.000000,-4.000000,-3.000000,0.000000
1296496.541262,-1.000000,1.000000,0.000000,-1.000000,-2.000000,-3.000000,-1.000000,0.000000
1296496.556449,-2.000000,-2.000000,2.000000,-4.000000,-2.000000,-1.000000,-3.000000,0.000000
1296496.556485,2.000000,-4.000000,2.000000,-1.000000,1.000000,-4.000000,-3.000000,0.000000
1296496.564347,-3.000000,-1.000000,0.000000,2.000000,1.000000,-1.000000,-2.000000,-2.000000
1296496.564373,-3.000000,2.000000,-2.000000,3.000000,-2.000000,1.000000,-2.000000,0.000000
1296496.565796,-1.000000,2.000000,1.000000,-3.000000,1.000000,0.000000,-1.000000,-1.000000
1296496.565831,1.000000,-4.000000,-3.000000,-2.000000,-5.000000,-1.000000,0.000000,-1.000000
1296496.567005,-4.000000,-2.000000,-5.000000,0.000000,-1.000000,-2.000000,0.000000,-1.000000
1296496.567030,-1.000000,-1.000000,-2.000000,1.000000,0.000000,-1.000000,-1.000000,0.000000
1296496.567881,-2.000000,-5.000000,0.000000,-5.000000,-2.000000,-1.000000,-1.000000,0.000000
1296496.567906,-4.000000,0.000000,1.000000,2.000000,-1.000000,-3.000000,1.000000,0.000000
1296496.571997,0.000000,0.000000,-1.000000,-3.000000,-5.000000,2.000000,1.000000,-4.000000
1296496.572025,-3.000000,1.000000,-1.000000,2.000000,-3.000000,2.000000,-1.000000,1.000000
1296496.578661,2.000000,1.000000,0.000000,3.000000,0.000000,1.000000,-1.000000,0.000000
1296496.578689,-6.000000,-3.000000,-3.000000,-1.000000,-1.000000,-1.000000,-1.000000,1.000000
1296496.601089,0.000000,-3.000000,-2.000000,1.000000,0.000000,-4.000000,-1.000000,-4.000000
1296496.601194,-1.000000,1.000000,2.000000,1.000000,-1.000000,0.000000,-1.000000,-1.000000
1296496.608550,1.000000,-4.000000,-1.000000,-1.000000,0.000000,-3.000000,1.000000,-3.000000
1296496.608585,1.000000,1.000000,2.000000,-2.000000,1.000000,0.000000,-1.000000,0.000000
1296496.631137,0.000000,1.000000,-4.000000,0.000000,-1.000000,-2.000000,1.000000,-1.000000
1296496.631166,-3.000000,-2.000000,-3.000000,5.000000,-4.000000,-3.000000,-2.000000,1.000000
1296496.639151,0.000000,0.000000,-6.000000,-2.000000,-3.000000,-3.000000,-2.000000,0.000000
1296496.639182,-1.000000,4.000000,2.000000,3.000000,-2.000000,-2.000000,1.000000,2.000000
1296496.653776,-1.000000,-3.000000,-1.000000,0.000000,1.000000,-3.000000,2.000000,1.000000
1296496.653804,-3.000000,0.000000,-1.000000,-6.000000,-4.000000,3.000000,-6.000000,3.000000
1296496.668795,3.000000,1.000000,-2.000000,-3.000000,-1.000000,-2.000000,0.000000,-2.000000
1296496.668823,-2.000000,-4.000000,-1.000000,-4.000000,0.000000,0.000000,1.000000,1.000000
1296496.677269,1.000000,-1.000000,-7.000000,-3.000000,-3.000000,-3.000000,3.000000,-3.000000
1296496.677625,-2.000000,-2.000000,-2.000000,3.000000,-2.000000,-2.000000,1.000000,0.000000
1296496.678775,-2.000000,-1.000000,-5.000000,-4.000000,0.000000,1.000000,0.000000,-2.000000
1296496.679343,-2.000000,-4.000000,-3.000000,-2.000000,-2.000000,-1.000000,1.000000,2.000000
1296496.680565,-1.000000,1.000000,-1.000000,0.000000,0.000000,-3.000000,0.000000,3.000000
1296496.680623,-2.000000,0.000000,-6.000000,5.000000,-1.000000,2.000000,0.000000,1.000000
1296496.680859,0.000000,-3.000000,-5.000000,-1.000000,-2.000000,3.000000,-4.000000,2.000000
1296496.680888,0.000000,2.000000,-1.000000,-3.000000,-5.000000,-1.000000,-1.000000,-2.000000
1296496.706282,-2.000000,-1.000000,-1.000000,0.000000,-4.000000,0.000000,1.000000,-2.000000
1296496.706314,1.000000,-2.000000,0.000000,0.000000,-5.000000,0.000000,0.000000,0.000000
1296496.707227,-2.000000,-2.000000,-4.000000,-2.000000,-3.000000,0.000000,0.000000,-1.000000
1296496.707268,-1.000000,1.000000,3.000000,-2.000000,-1.000000,-2.000000,-1.000000,-1.000000
1296496.721316,-1.000000,-1.000000,-2.000000,-3.000000,0.000000,-1.000000,-1.000000,0.000000
1296496.721346,-1.000000,0.000000,-4.000000,2.000000,-1.000000,3.000000,1.000000,-1.000000
1296496.728888,-2.000000,-6.000000,0.000000,-3.000000,0.000000,-2.000000,-4.000000,-1.000000
1296496.728917,-2.000000,0.000000,-1.000000,-4.000000,-3.000000,-2.000000,-1.000000,-2.000000
1296496.758827,-1.000000,1.000000,-2.000000,3.000000,-2.000000,0.000000,0.000000,-1.000000
1296496.758856,-5.000000,1.000000,2.000000,-2.000000,0.000000,-2.000000,-1.000000,-1.000000
1296496.766443,-3.000000,-3.000000,-4.000000,-3.000000,3.000000,-2.000000,1.000000,2.000000
1296496.766474,3.000000,0.000000,2.000000,2.000000,0.000000,0.000000,0.000000,-1.000000
1296496.804246,1.000000,-2.000000,-2.000000,2.000000,-1.000000,-2.000000,2.000000,-3.000000
1296496.804297,-4.000000,-1.000000,-3.000000,-5.000000,-2.000000,0.000000,-3.000000,-1.000000
1296496.819019,-3.000000,1.000000,-1.000000,-2.000000,-2.000000,2.000000,-1.000000,-2.000000
1296496.819048,0.000000,-4.000000,-1.000000,3.000000,-2.000000,-1.000000,3.000000,-2.000000
1296496.841528,-1.000000,-3.000000,-1.000000,-1.000000,0.000000,-1.000000,0.000000,-3.000000
1296496.841589,-3.000000,0.000000,4.000000,-2.000000,2.000000,2.000000,-2.000000,0.000000
1296496.849067,0.000000,-1.000000,1.000000,1.000000,-3.000000,-2.000000,0.000000,-4.000000
1296496.849098,-5.000000,-2.000000,0.000000,5.000000,2.000000,0.000000,0.000000,-2.000000
1296496.886494,-3.000000,-1.000000,-2.000000,1.000000,-3.000000,-2.000000,0.000000,2.000000
1296496.886524,-4.000000,-3.000000,-5.000000,3.000000,-2.000000,2.000000,1.000000,0.000000
1296496.902287,-4.000000,-2.000000,1.000000,0.000000,-3.000000,-1.000000,-3.000000,-4.000000
1296496.902317,3.000000,0.000000,0.000000,-3.000000,-2.000000,-1.000000,0.000000,-3.000000
1296496.910287,-1.000000,-4.000000,-5.000000,3.000000,-5.000000,-3.000000,0.000000,1.000000
1296496.910349,0.000000,2.000000,0.000000,2.000000,-3.000000,-1.000000,1.000000,1.000000
1296496.912211,-2.000000,0.000000,-1.000000,2.000000,1.000000,0.000000,0.000000,3.000000
1296496.912242,-1.000000,-1.000000,-1.000000,3.000000,2.000000,3.000000,-2.000000,0.000000
1296496.912498,2.000000,-1.000000,-3.000000,-2.000000,-1.000000,1.000000,-1.000000,-3.000000
1296496.912526,-1.000000,2.000000,-3.000000,-1.000000,-4.000000,-4.000000,-3.000000,0.000000
1296496.923982,-3.000000,3.000000,-4.000000,-1.000000,-1.000000,-1.000000,-1.000000,-1.000000
1296496.924013,0.000000,1.000000,3.000000,-1.000000,-3.000000,0.000000,1.000000,-2.000000
1296496.954421,2.000000,1.000000,-1.000000,-3.000000,-2.000000,-2.000000,-2.000000,2.000000
1296496.954477,-2.000000,0.000000,-2.000000,2.000000,1.000000,1.000000,1.000000,2.000000
1296496.961126,-1.000000,-3.000000,-1.000000,-1.000000,1.000000,-1.000000,-3.000000,-2.000000
1296496.961155,-1.000000,-2.000000,-1.000000,0.000000,-5.000000,0.000000,-3.000000,2.000000
1296496.991691,1.000000,1.000000,4.000000,-5.000000,0.000000,-2.000000,0.000000,1.000000
1296496.991721,-3.000000,1.000000,0.000000,1.000000,0.000000,-2.000000,-3.000000,-1.000000
1296496.998892,-3.000000,-1.000000,0.000000,-1.000000,0.000000,2.000000,1.000000,-1.000000
1296496.998923,1.000000,-3.000000,-3.000000,0.000000,-3.000000,0.000000,0.000000,1.000000
1296497.021986,1.000000,1.000000,3.000000,-3.000000,0.000000,-3.000000,0.000000,1.000000
1296497.022030,0.000000,-4.000000,2.000000,-2.000000,0.000000,1.000000,-3.000000,-2.000000
1296497.022575,0.000000,0.000000,0.000000,0.000000,0.000000,0.000000,-3.000000,0.000000
1296497.022635,-1.000000,0.000000,-8.000000,0.000000,-1.000000,-3.000000,-5.000000,0.000000
1296497.030189,5.000000,1.000000,-2.000000,4.000000,-2.000000,-4.000000,-2.000000,-2.000000
1296497.030226,1.000000,1.000000,-2.000000,-3.000000,-1.000000,-3.000000,-1.000000,3.000000
1296497.031494,-5.000000,-1.000000,3.000000,-6.000000,-4.000000,-1.000000,0.000000,2.000000
1296497.032085,0.000000,2.000000,-3.000000,-1.000000,-5.000000,-5.000000,-1.000000,3.000000
1296497.033765,-2.000000,-3.000000,0.000000,0.000000,1.000000,0.000000,-3.000000,-2.000000
1296497.033833,-1.000000,2.000000,-2.000000,0.000000,0.000000,0.000000,1.000000,-2.000000
1296497.036359,-1.000000,-1.000000,-1.000000,-7.000000,-1.000000,1.000000,0.000000,-2.000000
1296497.036391,-1.000000,3.000000,-2.000000,-4.000000,2.000000,0.000000,1.000000,-3.000000
1296497.074371,0.000000,1.000000,-1.000000,4.000000,0.000000,2.000000,-2.000000,-3.000000
1296497.074428,-1.000000,-3.000000,-3.000000,-1.000000,-4.000000,1.000000,1.000000,-1.000000
1296497.081806,2.000000,0.000000,0.000000,5.000000,-1.000000,1.000000,-1.000000,1.000000
1296497.081840,-2.000000,1.000000,-5.000000,-3.000000,0.000000,-1.000000,-3.000000,-2.000000
1296497.111534,-1.000000,0.000000,1.000000,0.000000,-1.000000,-2.000000,-3.000000,-3.000000
1296497.111598,-4.000000,2.000000,-5.000000,-1.000000,1.000000,0.000000,2.000000,-2.000000
1296497.119353,-2.000000,2.000000,2.000000,3.000000,-2.000000,-4.000000,-1.000000,1.000000
1296497.119384,1.000000,-1.000000,3.000000,-4.000000,-2.000000,-1.000000,-2.000000,1.000000
1296497.141846,0.000000,3.000000,5.000000,1.000000,-1.000000,1.000000,1.000000,-1.000000
1296497.141894,-1.000000,0.000000,-3.000000,2.000000,-1.000000,-3.000000,3.000000,-1.000000
1296497.156655,-1.000000,0.000000,4.000000,2.000000,3.000000,-3.000000,-2.000000,2.000000
1296497.156687,-1.000000,-3.000000,1.000000,0.000000,-2.000000,-1.000000,0.000000,-5.000000
1296497.186664,-2.000000,1.000000,1.000000,0.000000,-3.000000,0.000000,1.000000,-1.000000
1296497.186695,0.000000,2.000000,-1.000000,0.000000,-3.000000,0.000000,0.000000,0.000000
1296497.201355,-2.000000,-4.000000,-2.000000,-2.000000,1.000000,-1.000000,0.000000,-3.000000
1296497.201424,-2.000000,0.000000,1.000000,2.000000,0.000000,-1.000000,-3.000000,-1.000000
1296497.239115,-1.000000,-3.000000,0.000000,-3.000000,1.000000,0.000000,-1.000000,4.000000
1296497.239145,-4.000000,2.000000,3.000000,-1.000000,-1.000000,0.000000,-4.000000,-2.000000
1296497.261930,-1.000000,-6.000000,-5.000000,1.000000,1.000000,0.000000,-2.000000,0.000000
1296497.261996,1.000000,-4.000000,2.000000,-3.000000,-1.000000,0.000000,1.000000,-2.000000
1296497.269045,1.000000,-1.000000,2.000000,-4.000000,-1.000000,0.000000,-1.000000,-2.000000
1296497.269432,-2.000000,-3.000000,3.000000,-3.000000,0.000000,-1.000000,-4.000000,-1.000000
1296497.271440,0.000000,1.000000,2.000000,-2.000000,1.000000,-1.000000,1.000000,-4.000000
1296497.271489,0.000000,-1.000000,-1.000000,2.000000,1.000000,-3.000000,0.000000,-2.000000
1296497.272631,0.000000,-1.000000,0.000000,-3.000000,-3.000000,-1.000000,-1.000000,-3.000000
1296497.272673,-1.000000,-5.000000,2.000000,0.000000,0.000000,-2.000000,-2.000000,1.000000
1296497.276244,-2.000000,0.000000,-1.000000,-1.000000,-1.000000,1.000000,0.000000,-1.000000
1296497.276274,-3.000000,-3.000000,1.000000,2.000000,-3.000000,-2.000000,-4.000000,-3.000000
1296497.313610,-2.000000,-4.000000,1.000000,0.000000,0.000000,0.000000,-1.000000,1.000000
1296497.313638,-2.000000,-3.000000,-3.000000,0.000000,-2.000000,-3.000000,-2.000000,-1.000000
1296497.321211,2.000000,-4.000000,-2.000000,-2.000000,-3.000000,-3.000000,-4.000000,0.000000
1296497.321240,-1.000000,-3.000000,-4.000000,-5.000000,2.000000,2.000000,-1.000000,-1.000000
1296497.358561,-1.000000,-4.000000,2.000000,0.000000,1.000000,-1.000000,0.000000,1.000000
1296497.358589,-3.000000,3.000000,0.000000,-4.000000,-3.000000,0.000000,-4.000000,2.000000
1296497.388791,-1.000000,0.000000,2.000000,0.000000,2.000000,-1.000000,-2.000000,-3.000000
1296497.388819,3.000000,1.000000,-1.000000,-1.000000,2.000000,0.000000,-1.000000,-2.000000
1296497.390800,-1.000000,-1.000000,6.000000,1.000000,1.000000,-2.000000,-2.000000,0.000000
1296497.390825,1.000000,1.000000,1.000000,-3.000000,-3.000000,0.000000,0.000000,-1.000000
1296497.391920,1.000000,1.000000,0.000000,-3.000000,-1.000000,-2.000000,-1.000000,2.000000
1296497.391961,2.000000,-2.000000,-2.000000,-4.000000,-1.000000,-2.000000,0.000000,1.000000
1296497.393613,-1.000000,0.000000,-2.000000,0.000000,-5.000000,-2.000000,-1.000000,1.000000
1296497.393641,1.000000,2.000000,-1.000000,0.000000,-1.000000,-1.000000,2.000000,-4.000000
1296497.418780,-2.000000,-3.000000,-1.000000,-1.000000,-1.000000,1.000000,-1.000000,0.000000
1296497.418810,-1.000000,-3.000000,-3.000000,0.000000,0.000000,1.000000,-1.000000,-1.000000
1296497.441378,-3.000000,-2.000000,1.000000,2.000000,1.000000,-3.000000,-3.000000,3.000000
1296497.441407,0.000000,0.000000,-2.000000,5.000000,-3.000000,-2.000000,-2.000000,0.000000
1296497.456508,-2.000000,1.000000,2.000000,-5.000000,-1.000000,0.000000,-2.000000,0.000000
1296497.456535,1.000000,1.000000,-3.000000,-5.000000,-1.000000,-3.000000,-2.000000,-2.000000
1296497.478933,1.000000,-2.000000,-4.000000,2.000000,-2.000000,-4.000000,-5.000000,-4.000000
1296497.478963,2.000000,-2.000000,2.000000,-4.000000,4.000000,2.000000,-2.000000,-1.000000
1296497.493858,-1.000000,1.000000,2.000000,2.000000,0.000000,0.000000,1.000000,-1.000000
1296497.493889,-2.000000,-1.000000,-5.000000,-2.000000,0.000000,0.000000,0.000000,-2.000000
1296497.502621,2.000000,-1.000000,0.000000,1.000000,-3.000000,-3.000000,0.000000,-3.000000
1296497.502651,0.000000,-4.000000,-6.000000,-2.000000,-2.000000,0.000000,-4.000000,-2.000000
1296497.503657,-2.000000,-1.000000,2.000000,1.000000,-1.000000,0.000000,-3.000000,-4.000000
1296497.503681,-1.000000,0.000000,0.000000,-2.000000,1.000000,-1.000000,-2.000000,0.000000
1296497.504487,0.000000,-6.000000,-6.000000,1.000000,-1.000000,-3.000000,2.000000,2.000000
1296497.504511,1.000000,-1.000000,0.000000,-5.000000,1.000000,0.000000,-1.000000,1.000000
1296497.505072,0.000000,-2.000000,1.000000,-1.000000,0.000000,0.000000,-1.000000,-1.000000
1296497.505094,1.000000,-3.000000,0.000000,-3.000000,-3.000000,-4.000000,0.000000,2.000000
1296497.509615,0.000000,0.000000,-3.000000,-1.000000,-1.000000,-2.000000,3.000000,-2.000000
1296497.509642,0.000000,0.000000,-6.000000,-4.000000,-3.000000,0.000000,-1.000000,0.000000
1296497.524287,2.000000,-3.000000,-1.000000,-3.000000,1.000000,3.000000,0.000000,-6.000000
1296497.524316,-1.000000,-3.000000,-1.000000,-2.000000,-1.000000,-3.000000,1.000000,-3.000000
1296497.538984,0.000000,-3.000000,1.000000,3.000000,-1.000000,-2.000000,1.000000,-2.000000
1296497.539036,4.000000,-2.000000,0.000000,0.000000,0.000000,0.000000,0.000000,-3.000000
1296497.546221,1.000000,-1.000000,-1.000000,-1.000000,-2.000000,-3.000000,0.000000,0.000000
1296497.546249,-3.000000,1.000000,4.000000,0.000000,-1.000000,-2.000000,-1.000000,2.000000
1296497.561104,-1.000000,-3.000000,-1.000000,0.000000,1.000000,-4.000000,4.000000,-1.000000
1296497.561281,-2.000000,0.000000,-1.000000,-3.000000,-1.000000,-3.000000,-3.000000,0.000000
1296497.576249,-1.000000,-1.000000,-4.000000,-1.000000,-2.000000,-1.000000,0.000000,1.000000
1296497.576278,-3.000000,-2.000000,-2.000000,0.000000,0.000000,0.000000,0.000000,2.000000
1296497.591158,0.000000,2.000000,0.000000,-3.000000,-3.000000,1.000000,0.000000,-3.000000
1296497.591195,-1.000000,-3.000000,0.000000,0.000000,-1.000000,0.000000,1.000000,-2.000000
1296497.613670,1.000000,-1.000000,-4.000000,-1.000000,-2.000000,1.000000,-1.000000,0.000000
1296497.613696,-1.000000,-2.000000,1.000000,-2.000000,-6.000000,0.000000,-2.000000,-3.000000
1296497.615052,-3.000000,1.000000,1.000000,1.000000,-3.000000,0.000000,0.000000,-1.000000
1296497.615105,-2.000000,-1.000000,-2.000000,1.000000,-2.000000,-3.000000,-1.000000,0.000000
1296497.621144,1.000000,1.000000,-1.000000,1.000000,2.000000,-1.000000,0.000000,0.000000
1296497.621203,-1.000000,-2.000000,4.000000,-5.000000,-1.000000,-2.000000,-3.000000,-2.000000
1296497.629272,-2.000000,0.000000,2.000000,1.000000,-6.000000,-2.000000,1.000000,-1.000000
1296497.629298,-3.000000,-5.000000,-1.000000,-2.000000,-1.000000,-1.000000,1.000000,3.000000
1296497.630236,0.000000,1.000000,0.000000,-1.000000,-1.000000,-3.000000,-1.000000,-1.000000
1296497.630268,-3.000000,2.000000,3.000000,0.000000,1.000000,2.000000,2.000000,-3.000000
1296497.636304,-2.000000,-3.000000,1.000000,3.000000,-2.000000,0.000000,-2.000000,-1.000000
1296497.636333,-2.000000,0.000000,2.000000,-1.000000,1.000000,0.000000,2.000000,-1.000000
1296497.651199,-3.000000,2.000000,-5.000000,0.000000,-3.000000,-3.000000,-2.000000,-2.000000
1296497.651231,-2.000000,-2.000000,1.000000,0.000000,-3.000000,2.000000,-1.000000,-4.000000
1296497.652832,0.000000,0.000000,-1.000000,2.000000,-1.000000,0.000000,2.000000,-2.000000
1296497.652861,-1.000000,2.000000,-6.000000,-4.000000,-1.000000,4.000000,0.000000,1.000000
1296497.666322,-1.000000,-2.000000,-2.000000,0.000000,2.000000,0.000000,-3.000000,-2.000000
1296497.666352,0.000000,4.000000,-1.000000,-3.000000,1.000000,-2.000000,-2.000000,-1.000000
1296497.681208,0.000000,0.000000,-4.000000,-3.000000,-1.000000,1.000000,-3.000000,-4.000000
1296497.681238,0.000000,2.000000,1.000000,1.000000,-4.000000,-4.000000,2.000000,-1.000000
1296497.704053,-5.000000,1.000000,-4.000000,0.000000,1.000000,-2.000000,0.000000,0.000000
1296497.704084,0.000000,-1.000000,-3.000000,-1.000000,1.000000,-2.000000,-3.000000,-1.000000
1296497.718642,-1.000000,1.000000,-3.000000,-1.000000,-2.000000,1.000000,1.000000,-1.000000
1296497.718669,0.000000,-1.000000,-2.000000,0.000000,3.000000,-1.000000,0.000000,-1.000000
1296497.726188,-2.000000,0.000000,0.000000,-4.000000,-1.000000,1.000000,1.000000,-2.000000
1296497.726217,-2.000000,-1.000000,1.000000,4.000000,-1.000000,-2.000000,1.000000,-1.000000
1296497.749262,2.000000,-1.000000,0.000000,-4.000000,1.000000,-2.000000,0.000000,-1.000000
1296497.749326,-2.000000,0.000000,-6.000000,-4.000000,-1.000000,1.000000,0.000000,2.000000
1296497.756205,-4.000000,-3.000000,-5.000000,0.000000,0.000000,-1.000000,-3.000000,0.000000
1296497.756233,-4.000000,0.000000,1.000000,2.000000,0.000000,2.000000,-2.000000,-2.000000
1296497.801266,3.000000,-2.000000,0.000000,-1.000000,-2.000000,0.000000,0.000000,1.000000
1296497.801295,-3.000000,0.000000,-5.000000,0.000000,-1.000000,0.000000,0.000000,-1.000000
1296497.816369,-1.000000,2.000000,3.000000,-1.000000,-2.000000,0.000000,-1.000000,-1.000000
1296497.816400,2.000000,-1.000000,-4.000000,0.000000,-1.000000,-2.000000,-3.000000,-5.000000
1296497.831171,0.000000,-1.000000,-4.000000,0.000000,-1.000000,3.000000,-1.000000,0.000000
1296497.831201,2.000000,-4.000000,1.000000,-4.000000,2.000000,2.000000,-1.000000,-4.000000
1296497.841341,1.000000,-5.000000,3.000000,-2.000000,1.000000,0.000000,-1.000000,2.000000
1296497.841373,-2.000000,-1.000000,-5.000000,-1.000000,-2.000000,1.000000,-4.000000,-2.000000
1296497.842446,-4.000000,-1.000000,0.000000,3.000000,2.000000,-1.000000,-4.000000,0.000000
1296497.842471,-3.000000,-4.000000,0.000000,-2.000000,1.000000,0.000000,0.000000,-1.000000
1296497.842768,1.000000,0.000000,-3.000000,2.000000,-2.000000,0.000000,-2.000000,-4.000000
1296497.842788,0.000000,3.000000,-3.000000,0.000000,-1.000000,-1.000000,1.000000,-4.000000
1296497.842989,0.000000,-1.000000,3.000000,-5.000000,-1.000000,2.000000,-2.000000,0.000000
1296497.843013,-3.000000,-3.000000,-1.000000,-7.000000,-3.000000,-1.000000,-5.000000,-1.000000
1296497.861282,-4.000000,1.000000,7.000000,1.000000,-3.000000,-1.000000,2.000000,-2.000000
1296497.861315,0.000000,1.000000,-2.000000,-1.000000,-1.000000,0.000000,-3.000000,-3.000000
1296497.862235,-2.000000,1.000000,-4.000000,1.000000,-1.000000,-2.000000,0.000000,-2.000000
1296497.862313,-6.000000,-1.000000,-2.000000,4.000000,-2.000000,-1.000000,3.000000,0.000000
1296497.869122,-4.000000,2.000000,-4.000000,1.000000,0.000000,1.000000,2.000000,1.000000
1296497.869150,0.000000,-2.000000,2.000000,-1.000000,-1.000000,-1.000000,1.000000,-3.000000
1296497.891363,1.000000,-2.000000,-4.000000,-3.000000,-1.000000,0.000000,-2.000000,1.000000
1296497.891391,0.000000,-2.000000,-1.000000,-6.000000,-4.000000,-1.000000,-1.000000,-1.000000
1296497.906218,-1.000000,-3.000000,-2.000000,-3.000000,1.000000,1.000000,-2.000000,1.000000
1296497.906246,2.000000,0.000000,0.000000,0.000000,-1.000000,0.000000,-5.000000,-3.000000
1296497.928795,-3.000000,0.000000,-1.000000,-2.000000,-1.000000,-1.000000,1.000000,-1.000000
1296497.928824,0.000000,-1.000000,-3.000000,-2.000000,-1.000000,-4.000000,2.000000,-3.000000
1296497.951219,-1.000000,0.000000,-4.000000,2.000000,-1.000000,-6.000000,2.000000,1.000000
1296497.951248,5.000000,0.000000,-1.000000,-2.000000,-1.000000,-1.000000,2.000000,1.000000
1296497.958707,4.000000,-1.000000,-1.000000,2.000000,4.000000,-1.000000,-1.000000,-1.000000
1296497.958735,2.000000,-1.000000,-1.000000,0.000000,0.000000,3.000000,-2.000000,0.000000
1296497.966996,-1.000000,1.000000,0.000000,-3.000000,-2.000000,-3.000000,-4.000000,-1.000000
1296497.967020,-2.000000,-3.000000,0.000000,-7.000000,-5.000000,-5.000000,3.000000,-2.000000
1296497.981991,-1.000000,-1.000000,-4.000000,0.000000,-2.000000,-1.000000,-3.000000,-3.000000
1296497.982035,-2.000000,-4.000000,-3.000000,2.000000,-1.000000,-1.000000,-1.000000,-2.000000
1296497.990949,0.000000,0.000000,3.000000,-2.000000,-1.000000,1.000000,-1.000000,1.000000
1296497.991159,-1.000000,-3.000000,2.000000,3.000000,-2.000000,0.000000,-2.000000,-2.000000
1296497.993375,-1.000000,-1.000000,0.000000,-5.000000,-4.000000,0.000000,-3.000000,-3.000000
1296497.993442,0.000000,-1.000000,-3.000000,0.000000,1.000000,-1.000000,2.000000,-1.000000
1296497.993766,0.000000,-2.000000,2.000000,-2.000000,-5.000000,3.000000,-1.000000,-1.000000
1296497.993795,1.000000,2.000000,-2.000000,-4.000000,-4.000000,0.000000,0.000000,0.000000
1296498.004386,-1.000000,-1.000000,3.000000,-7.000000,0.000000,0.000000,-3.000000,-2.000000
1296498.004415,0.000000,-1.000000,-3.000000,0.000000,0.000000,-1.000000,-1.000000,-1.000000
1296498.018816,0.000000,-1.000000,-2.000000,3.000000,1.000000,-1.000000,0.000000,-1.000000
1296498.018846,-1.000000,-2.000000,3.000000,-1.000000,-2.000000,-4.000000,0.000000,-3.000000
1296498.026623,-2.000000,-5.000000,3.000000,-4.000000,-1.000000,-1.000000,1.000000,0.000000
1296498.026668,1.000000,-3.000000,3.000000,-1.000000,-1.000000,1.000000,1.000000,-1.000000
1296498.041262,1.000000,0.000000,0.000000,-2.000000,0.000000,2.000000,4.000000,-2.000000
1296498.041293,0.000000,-1.000000,5.000000,-2.000000,-2.000000,1.000000,-1.000000,1.000000
1296498.064121,-3.000000,1.000000,0.000000,-6.000000,-2.000000,-3.000000,-1.000000,0.000000
1296498.064151,1.000000,-3.000000,-7.000000,-2.000000,-1.000000,2.000000,-2.000000,2.000000
1296498.078930,-2.000000,-2.000000,1.000000,2.000000,2.000000,-1.000000,0.000000,-1.000000
