# participant_id: P12
# gesture: soft
# trial_number: 2
# stream_name: Myo_EMG
# stream_type: emg
# timestamp: 20260420_180234
# samples: 5682
# duration_sec: 30.682
# nominal_sample_rate: 200.0
# effective_sample_rate: 185.16
#
timestamp,emg_1,emg_2,emg_3,emg_4,emg_5,emg_6,emg_7,emg_8
1312845.757487,-17.000000,12.000000,8.000000,-9.000000,-8.000000,-4.000000,-22.000000,-46.000000
1312845.757498,-9.000000,-5.000000,-17.000000,-18.000000,-7.000000,-6.000000,19.000000,31.000000
1312845.757982,18.000000,-15.000000,-4.000000,17.000000,-2.000000,5.000000,-5.000000,-1.000000
1312845.757996,-2.000000,3.000000,15.000000,16.000000,16.000000,7.000000,-4.000000,-16.000000
1312845.759206,11.000000,-18.000000,-12.000000,-4.000000,-5.000000,1.000000,4.000000,10.000000
1312845.759215,-34.000000,6.000000,-16.000000,-2.000000,7.000000,-2.000000,-8.000000,-23.000000
1312845.764621,3.000000,3.000000,61.000000,58.000000,7.000000,1.000000,-9.000000,-13.000000
1312845.764635,-1.000000,-8.000000,-84.000000,-19.000000,-1.000000,-2.000000,3.000000,6.000000
1312845.779445,6.000000,-12.000000,8.000000,-7.000000,-9.000000,4.000000,1.000000,4.000000
1312845.779464,-41.000000,6.000000,-25.000000,-17.000000,-13.000000,-15.000000,-10.000000,-14.000000
1312845.816961,-13.000000,-5.000000,3.000000,-10.000000,2.000000,3.000000,-11.000000,-34.000000
1312845.816990,23.000000,3.000000,61.000000,-3.000000,0.000000,-1.000000,13.000000,39.000000
1312845.824474,10.000000,-27.000000,-27.000000,-1.000000,-8.000000,10.000000,10.000000,-7.000000
1312845.824497,-11.000000,-14.000000,-13.000000,8.000000,6.000000,-7.000000,-10.000000,-4.000000
1312845.854600,-2.000000,0.000000,9.000000,3.000000,0.000000,1.000000,-4.000000,3.000000
1312845.854611,-3.000000,-7.000000,-22.000000,-34.000000,-24.000000,-9.000000,-2.000000,-11.000000
1312845.862018,-6.000000,-8.000000,11.000000,16.000000,12.000000,8.000000,-1.000000,-12.000000
1312845.862029,-19.000000,4.000000,24.000000,-19.000000,-15.000000,-11.000000,3.000000,8.000000
1312845.876666,10.000000,-15.000000,-94.000000,-32.000000,-11.000000,-3.000000,1.000000,-1.000000
1312845.876683,9.000000,45.000000,86.000000,11.000000,-7.000000,-2.000000,-6.000000,-1.000000
1312845.877330,-3.000000,0.000000,1.000000,10.000000,20.000000,4.000000,9.000000,0.000000
1312845.877366,1.000000,1.000000,64.000000,-9.000000,-3.000000,10.000000,2.000000,0.000000
1312845.877974,-7.000000,-24.000000,-21.000000,9.000000,-11.000000,-8.000000,3.000000,-1.000000
1312845.877985,-9.000000,14.000000,16.000000,2.000000,1.000000,5.000000,-4.000000,-2.000000
1312845.878459,8.000000,5.000000,16.000000,14.000000,-8.000000,4.000000,-12.000000,-25.000000
1312845.878467,17.000000,-2.000000,-79.000000,-11.000000,-1.000000,-4.000000,12.000000,30.000000
1312845.879059,10.000000,3.000000,23.000000,-9.000000,-5.000000,1.000000,9.000000,3.000000
1312845.879067,-4.000000,-11.000000,-1.000000,-27.000000,-15.000000,-5.000000,0.000000,-5.000000
1312845.899509,9.000000,21.000000,12.000000,8.000000,4.000000,2.000000,-6.000000,-4.000000
1312845.899520,4.000000,24.000000,22.000000,5.000000,0.000000,3.000000,-7.000000,-26.000000
1312845.900073,-21.000000,-18.000000,-106.000000,-44.000000,-18.000000,-12.000000,-11.000000,5.000000
1312845.900081,17.000000,13.000000,109.000000,29.000000,-14.000000,-6.000000,-3.000000,0.000000
1312845.901249,-49.000000,-2.000000,-51.000000,-29.000000,-16.000000,-2.000000,-5.000000,-10.000000
1312845.901261,-4.000000,-3.000000,-29.000000,-35.000000,-3.000000,5.000000,2.000000,-1.000000
1312845.921819,15.000000,-14.000000,22.000000,12.000000,3.000000,2.000000,-4.000000,-10.000000
1312845.921830,6.000000,-14.000000,-13.000000,-7.000000,1.000000,-1.000000,9.000000,17.000000
1312845.959369,7.000000,15.000000,-23.000000,-5.000000,5.000000,3.000000,-2.000000,-14.000000
1312845.959387,-2.000000,9.000000,9.000000,13.000000,3.000000,9.000000,-1.000000,1.000000
1312845.960371,-17.000000,-35.000000,-16.000000,42.000000,14.000000,0.000000,-9.000000,-23.000000
1312845.960398,7.000000,0.000000,-24.000000,17.000000,21.000000,9.000000,14.000000,7.000000
1312845.961046,6.000000,-1.000000,12.000000,2.000000,-7.000000,-17.000000,-8.000000,-1.000000
1312845.961091,-20.000000,-15.000000,19.000000,-12.000000,-4.000000,-2.000000,-14.000000,-25.000000
1312845.962829,18.000000,-5.000000,-56.000000,-30.000000,-23.000000,-1.000000,2.000000,1.000000
1312845.962852,-16.000000,7.000000,5.000000,-1.000000,-10.000000,-2.000000,-8.000000,-17.000000
1312845.966683,4.000000,16.000000,30.000000,-6.000000,4.000000,8.000000,14.000000,22.000000
1312845.966692,-7.000000,0.000000,-12.000000,-26.000000,16.000000,-1.000000,-9.000000,-12.000000
1312845.975012,-11.000000,-2.000000,80.000000,19.000000,-1.000000,-3.000000,9.000000,-7.000000
1312845.975031,32.000000,11.000000,-34.000000,-21.000000,-5.000000,0.000000,-9.000000,0.000000
1312845.981702,5.000000,-19.000000,-31.000000,26.000000,1.000000,-3.000000,-6.000000,0.000000
1312845.981711,0.000000,-1.000000,16.000000,43.000000,9.000000,10.000000,-1.000000,12.000000
1312845.997579,-29.000000,-18.000000,-4.000000,-27.000000,-9.000000,-13.000000,-8.000000,-4.000000
1312845.997588,32.000000,26.000000,-29.000000,-62.000000,-14.000000,-1.000000,2.000000,0.000000
1312846.019149,-16.000000,-15.000000,35.000000,44.000000,23.000000,3.000000,1.000000,0.000000
1312846.019172,30.000000,0.000000,-16.000000,-15.000000,-6.000000,-1.000000,5.000000,13.000000
1312846.020450,0.000000,7.000000,12.000000,-9.000000,1.000000,-3.000000,-4.000000,-8.000000
1312846.020459,-2.000000,0.000000,-60.000000,-14.000000,-10.000000,1.000000,1.000000,0.000000
1312846.034370,-5.000000,-18.000000,50.000000,0.000000,-5.000000,3.000000,3.000000,11.000000
1312846.034381,-4.000000,-9.000000,-33.000000,-6.000000,2.000000,-1.000000,0.000000,15.000000
1312846.049663,-2.000000,-4.000000,-3.000000,-5.000000,-2.000000,1.000000,10.000000,3.000000
1312846.049679,17.000000,5.000000,-1.000000,-1.000000,-4.000000,-1.000000,-7.000000,0.000000
1312846.057040,-6.000000,2.000000,32.000000,1.000000,8.000000,2.000000,-5.000000,-7.000000
1312846.057063,27.000000,18.000000,-28.000000,-11.000000,5.000000,7.000000,5.000000,7.000000
1312846.094438,1.000000,-51.000000,-31.000000,-31.000000,-8.000000,0.000000,-1.000000,-11.000000
1312846.094467,-19.000000,9.000000,33.000000,69.000000,16.000000,1.000000,3.000000,12.000000
1312846.102125,-23.000000,-7.000000,40.000000,16.000000,13.000000,10.000000,5.000000,-6.000000
1312846.102153,-1.000000,-4.000000,-28.000000,-14.000000,-2.000000,-5.000000,-5.000000,-9.000000
1312846.117254,29.000000,25.000000,-38.000000,-8.000000,-4.000000,2.000000,-1.000000,3.000000
1312846.117275,-1.000000,-6.000000,-18.000000,-16.000000,-4.000000,1.000000,4.000000,-4.000000
1312846.117849,17.000000,2.000000,2.000000,29.000000,25.000000,4.000000,9.000000,20.000000
1312846.117858,-6.000000,-14.000000,4.000000,1.000000,-2.000000,5.000000,-3.000000,-8.000000
1312846.119224,1.000000,12.000000,17.000000,2.000000,-3.000000,-3.000000,4.000000,12.000000
1312846.119242,16.000000,10.000000,-24.000000,0.000000,0.000000,4.000000,16.000000,9.000000
1312846.120581,21.000000,-3.000000,-85.000000,-33.000000,-6.000000,5.000000,3.000000,-2.000000
1312846.120608,-15.000000,0.000000,124.000000,33.000000,-6.000000,-1.000000,-4.000000,-5.000000
1312846.132181,7.000000,8.000000,-9.000000,64.000000,7.000000,0.000000,9.000000,6.000000
1312846.132210,-10.000000,-1.000000,50.000000,-11.000000,-4.000000,2.000000,0.000000,3.000000
1312846.140373,6.000000,16.000000,-8.000000,18.000000,0.000000,4.000000,-1.000000,-6.000000
1312846.140382,13.000000,3.000000,3.000000,12.000000,23.000000,0.000000,-7.000000,-5.000000
1312846.154553,-16.000000,-22.000000,-14.000000,-17.000000,0.000000,3.000000,2.000000,9.000000
1312846.154564,23.000000,12.000000,10.000000,-5.000000,-7.000000,-1.000000,0.000000,11.000000
1312846.192064,-18.000000,-31.000000,-58.000000,19.000000,2.000000,-4.000000,-6.000000,-5.000000
1312846.192078,-9.000000,-14.000000,-5.000000,0.000000,0.000000,4.000000,-9.000000,-36.000000
1312846.192490,22.000000,21.000000,22.000000,-20.000000,-8.000000,3.000000,19.000000,29.000000
1312846.192499,2.000000,11.000000,-10.000000,21.000000,15.000000,-4.000000,-8.000000,-9.000000
1312846.193443,-15.000000,-5.000000,-15.000000,-4.000000,-7.000000,1.000000,-13.000000,-14.000000
1312846.193453,-6.000000,-10.000000,24.000000,-47.000000,-1.000000,-3.000000,14.000000,22.000000
1312846.194158,5.000000,10.000000,66.000000,55.000000,15.000000,1.000000,-11.000000,-14.000000
1312846.194168,-20.000000,-25.000000,-14.000000,-63.000000,-19.000000,-1.000000,-4.000000,-2.000000
1312846.195753,8.000000,43.000000,-13.000000,22.000000,12.000000,3.000000,4.000000,3.000000
1312846.195763,-6.000000,-23.000000,-24.000000,46.000000,56.000000,1.000000,-2.000000,-10.000000
1312846.215819,-28.000000,5.000000,18.000000,-2.000000,-1.000000,5.000000,2.000000,0.000000
1312846.215859,-5.000000,-6.000000,-60.000000,-23.000000,-16.000000,-10.000000,-12.000000,-17.000000
1312846.217492,3.000000,-25.000000,39.000000,3.000000,2.000000,3.000000,9.000000,19.000000
1312846.217515,-15.000000,2.000000,6.000000,-2.000000,1.000000,-1.000000,-15.000000,-22.000000
1312846.237253,-8.000000,-1.000000,-26.000000,15.000000,9.000000,6.000000,9.000000,20.000000
1312846.237348,27.000000,12.000000,-40.000000,-20.000000,-13.000000,0.000000,2.000000,10.000000
1312846.252568,13.000000,16.000000,-13.000000,74.000000,26.000000,8.000000,0.000000,-2.000000
1312846.252591,-27.000000,-43.000000,1.000000,-6.000000,-8.000000,-2.000000,-9.000000,-20.000000
1312846.253022,5.000000,-7.000000,5.000000,-3.000000,-9.000000,-4.000000,-7.000000,-5.000000
1312846.253035,15.000000,26.000000,14.000000,-47.000000,3.000000,4.000000,3.000000,12.000000
1312846.254533,-34.000000,-13.000000,-42.000000,62.000000,5.000000,-2.000000,1.000000,-8.000000
1312846.254546,9.000000,8.000000,56.000000,2.000000,-11.000000,1.000000,3.000000,-3.000000
1312846.274620,-17.000000,-6.000000,-44.000000,-15.000000,-3.000000,-1.000000,-6.000000,3.000000
1312846.274650,-4.000000,-5.000000,3.000000,8.000000,2.000000,1.000000,3.000000,1.000000
1312846.311945,-9.000000,-29.000000,-20.000000,-1.000000,-9.000000,-10.000000,-6.000000,-2.000000
1312846.311955,3.000000,11.000000,6.000000,2.000000,5.000000,4.000000,0.000000,-1.000000
1312846.319348,4.000000,-21.000000,-51.000000,1.000000,2.000000,8.000000,9.000000,25.000000
1312846.319373,-12.000000,19.000000,-37.000000,-14.000000,0.000000,-9.000000,-5.000000,-13.000000
1312846.334823,6.000000,11.000000,9.000000,36.000000,7.000000,-1.000000,-8.000000,-20.000000
1312846.334834,16.000000,-2.000000,22.000000,-13.000000,-13.000000,4.000000,7.000000,8.000000
1312846.335412,-4.000000,3.000000,-25.000000,14.000000,5.000000,-3.000000,14.000000,19.000000
1312846.335422,-11.000000,0.000000,75.000000,63.000000,39.000000,9.000000,-13.000000,-13.000000
1312846.336646,0.000000,8.000000,-14.000000,-40.000000,-11.000000,-9.000000,-5.000000,-4.000000
1312846.336656,-2.000000,-10.000000,-7.000000,-6.000000,-15.000000,-1.000000,-7.000000,-16.000000
1312846.337366,2.000000,18.000000,8.000000,8.000000,0.000000,-1.000000,2.000000,7.000000
1312846.337376,29.000000,19.000000,18.000000,-23.000000,-6.000000,-5.000000,-1.000000,5.000000
1312846.349225,-25.000000,-20.000000,-25.000000,-11.000000,-8.000000,-5.000000,-15.000000,-14.000000
1312846.349235,16.000000,6.000000,-39.000000,-6.000000,-1.000000,1.000000,-10.000000,-3.000000
1312846.357434,11.000000,15.000000,38.000000,-18.000000,3.000000,1.000000,10.000000,7.000000
1312846.357445,-7.000000,2.000000,-2.000000,44.000000,0.000000,9.000000,6.000000,4.000000
1312846.372197,-4.000000,-8.000000,31.000000,-37.000000,-21.000000,-11.000000,-9.000000,-6.000000
1312846.372208,-13.000000,4.000000,-59.000000,-7.000000,3.000000,8.000000,6.000000,7.000000
1312846.373242,6.000000,-8.000000,-8.000000,-5.000000,14.000000,-3.000000,-8.000000,-12.000000
1312846.373251,8.000000,9.000000,-4.000000,4.000000,1.000000,-1.000000,-1.000000,-8.000000
1312846.394612,-15.000000,3.000000,-4.000000,-14.000000,1.000000,2.000000,5.000000,7.000000
1312846.394636,24.000000,12.000000,38.000000,23.000000,1.000000,6.000000,2.000000,3.000000
1312846.409628,1.000000,0.000000,-30.000000,-10.000000,8.000000,1.000000,-10.000000,-17.000000
1312846.409637,12.000000,2.000000,10.000000,34.000000,2.000000,7.000000,12.000000,25.000000
1312846.410379,0.000000,-14.000000,-19.000000,-4.000000,-11.000000,-10.000000,-6.000000,-17.000000
1312846.410387,-50.000000,-23.000000,-31.000000,-13.000000,-7.000000,-2.000000,-6.000000,-10.000000
1312846.417690,9.000000,17.000000,-17.000000,-6.000000,-4.000000,-4.000000,-7.000000,-16.000000
1312846.417702,-8.000000,4.000000,-26.000000,-34.000000,-32.000000,-9.000000,11.000000,2.000000
1312846.432241,4.000000,-16.000000,14.000000,76.000000,52.000000,14.000000,-4.000000,12.000000
1312846.432253,4.000000,2.000000,13.000000,-12.000000,-3.000000,-5.000000,-6.000000,-8.000000
1312846.469793,-12.000000,-1.000000,-1.000000,-15.000000,-5.000000,-5.000000,-6.000000,-14.000000
1312846.469809,-1.000000,3.000000,-22.000000,-12.000000,-7.000000,6.000000,9.000000,-12.000000
1312846.476860,32.000000,11.000000,35.000000,-9.000000,-9.000000,0.000000,-3.000000,15.000000
1312846.476873,-40.000000,-21.000000,-15.000000,-10.000000,12.000000,2.000000,11.000000,8.000000
1312846.492604,-8.000000,-7.000000,43.000000,-5.000000,1.000000,-4.000000,-1.000000,-4.000000
1312846.492632,11.000000,12.000000,40.000000,33.000000,-17.000000,-5.000000,-4.000000,-7.000000
1312846.493051,4.000000,6.000000,-62.000000,3.000000,21.000000,8.000000,2.000000,-7.000000
1312846.493064,-9.000000,-9.000000,-7.000000,-5.000000,-6.000000,-1.000000,-3.000000,-6.000000
1312846.494269,8.000000,2.000000,-3.000000,-14.000000,-3.000000,-6.000000,-4.000000,6.000000
1312846.494311,-14.000000,-12.000000,-12.000000,74.000000,23.000000,7.000000,-8.000000,-24.000000
1312846.495064,-2.000000,12.000000,10.000000,-24.000000,2.000000,3.000000,8.000000,19.000000
1312846.495091,6.000000,1.000000,8.000000,5.000000,0.000000,3.000000,0.000000,-5.000000
1312846.529841,24.000000,29.000000,80.000000,5.000000,-7.000000,0.000000,-6.000000,-7.000000
1312846.529870,-15.000000,-11.000000,-4.000000,5.000000,4.000000,0.000000,-4.000000,-11.000000
1312846.551714,-18.000000,-1.000000,-25.000000,-5.000000,-2.000000,-1.000000,1.000000,6.000000
1312846.551723,10.000000,-6.000000,-25.000000,0.000000,-7.000000,1.000000,6.000000,7.000000
1312846.574288,-4.000000,-8.000000,17.000000,2.000000,10.000000,4.000000,-5.000000,-3.000000
1312846.574298,6.000000,20.000000,11.000000,-5.000000,-4.000000,-3.000000,-6.000000,-14.000000
1312846.575392,-4.000000,2.000000,-24.000000,-22.000000,-9.000000,-14.000000,-15.000000,-16.000000
1312846.575406,-7.000000,-18.000000,17.000000,-1.000000,-7.000000,-2.000000,-3.000000,-14.000000
1312846.576069,3.000000,19.000000,15.000000,8.000000,17.000000,5.000000,17.000000,21.000000
1312846.576077,0.000000,-6.000000,8.000000,26.000000,33.000000,7.000000,2.000000,9.000000
1312846.577328,12.000000,-3.000000,13.000000,15.000000,0.000000,-6.000000,-19.000000,-31.000000
1312846.577337,-1.000000,1.000000,15.000000,3.000000,-8.000000,-4.000000,0.000000,9.000000
1312846.578195,13.000000,5.000000,22.000000,-15.000000,-5.000000,-8.000000,-3.000000,0.000000
1312846.578203,-12.000000,-25.000000,-9.000000,9.000000,8.000000,2.000000,-2.000000,-5.000000
1312846.589515,-11.000000,2.000000,-44.000000,-16.000000,-8.000000,-7.000000,-5.000000,-10.000000
1312846.589540,-10.000000,-14.000000,-47.000000,5.000000,-5.000000,2.000000,-6.000000,-6.000000
1312846.597365,5.000000,20.000000,41.000000,31.000000,5.000000,-4.000000,8.000000,-2.000000
1312846.597374,2.000000,8.000000,-53.000000,-23.000000,2.000000,3.000000,-7.000000,-2.000000
1312846.612122,-7.000000,-25.000000,32.000000,6.000000,-16.000000,-3.000000,-4.000000,5.000000
1312846.612152,-1.000000,0.000000,-25.000000,-42.000000,-18.000000,-6.000000,6.000000,16.000000
1312846.613084,-1.000000,6.000000,3.000000,28.000000,20.000000,5.000000,9.000000,-1.000000
1312846.613091,18.000000,0.000000,-4.000000,-5.000000,6.000000,5.000000,-5.000000,-8.000000
1312846.626929,-1.000000,-5.000000,-13.000000,-10.000000,-14.000000,-6.000000,3.000000,6.000000
1312846.626939,2.000000,7.000000,-2.000000,-10.000000,8.000000,0.000000,1.000000,3.000000
1312846.649430,-9.000000,-25.000000,-45.000000,-1.000000,-2.000000,1.000000,-2.000000,-1.000000
1312846.649441,-5.000000,3.000000,59.000000,15.000000,-12.000000,-6.000000,-3.000000,-4.000000
1312846.657250,13.000000,0.000000,30.000000,17.000000,3.000000,0.000000,-1.000000,-4.000000
1312846.657262,-4.000000,-10.000000,-7.000000,-21.000000,-23.000000,0.000000,-1.000000,4.000000
1312846.686784,12.000000,-9.000000,-15.000000,-14.000000,-7.000000,-7.000000,-1.000000,3.000000
1312846.686801,-14.000000,-11.000000,-28.000000,-8.000000,-2.000000,1.000000,-1.000000,-1.000000
1312846.687247,3.000000,2.000000,-8.000000,-8.000000,-1.000000,1.000000,-3.000000,-7.000000
1312846.687255,5.000000,7.000000,6.000000,-11.000000,-5.000000,-8.000000,-8.000000,-2.000000
1312846.688446,3.000000,7.000000,44.000000,22.000000,-19.000000,0.000000,7.000000,11.000000
1312846.688457,-1.000000,-13.000000,-32.000000,9.000000,4.000000,4.000000,0.000000,-9.000000
1312846.689317,-14.000000,7.000000,74.000000,-2.000000,2.000000,0.000000,-13.000000,-35.000000
1312846.689326,18.000000,4.000000,34.000000,31.000000,27.000000,7.000000,11.000000,36.000000
1312846.694829,-52.000000,-30.000000,94.000000,16.000000,-12.000000,0.000000,10.000000,-2.000000
1312846.694839,21.000000,16.000000,-34.000000,-16.000000,8.000000,3.000000,0.000000,6.000000
1312846.709533,19.000000,3.000000,-3.000000,-11.000000,-23.000000,-4.000000,3.000000,-3.000000
1312846.709544,-23.000000,-5.000000,15.000000,18.000000,13.000000,-6.000000,-12.000000,-12.000000
1312846.732253,13.000000,15.000000,-8.000000,7.000000,-1.000000,0.000000,0.000000,11.000000
1312846.732262,-26.000000,-10.000000,5.000000,-28.000000,-8.000000,0.000000,-2.000000,-11.000000
1312846.732805,-15.000000,21.000000,24.000000,1.000000,-18.000000,-5.000000,-6.000000,-11.000000
1312846.732814,2.000000,4.000000,41.000000,3.000000,5.000000,8.000000,0.000000,-19.000000
1312846.734439,0.000000,-2.000000,-49.000000,-24.000000,-24.000000,-19.000000,-9.000000,8.000000
1312846.734448,-28.000000,4.000000,53.000000,-3.000000,-7.000000,0.000000,0.000000,-10.000000
1312846.747323,4.000000,-2.000000,-30.000000,8.000000,7.000000,1.000000,7.000000,23.000000
1312846.747338,-14.000000,-19.000000,11.000000,-5.000000,1.000000,-2.000000,-7.000000,-14.000000
1312846.769355,15.000000,15.000000,-17.000000,-44.000000,-16.000000,-1.000000,5.000000,7.000000
1312846.769366,8.000000,16.000000,26.000000,53.000000,26.000000,4.000000,-1.000000,-6.000000
1312846.792673,-15.000000,-15.000000,30.000000,-10.000000,-2.000000,-3.000000,-12.000000,-26.000000
1312846.792778,5.000000,1.000000,-71.000000,-12.000000,-2.000000,4.000000,30.000000,39.000000
1312846.794308,10.000000,12.000000,31.000000,-47.000000,-28.000000,-11.000000,-16.000000,5.000000
1312846.794345,-18.000000,-26.000000,2.000000,44.000000,30.000000,7.000000,12.000000,11.000000
1312846.795685,-1.000000,-6.000000,0.000000,-8.000000,-3.000000,0.000000,8.000000,-8.000000
1312846.795734,-1.000000,6.000000,28.000000,-26.000000,-15.000000,-5.000000,-22.000000,-14.000000
1312846.796595,-6.000000,-13.000000,-36.000000,68.000000,8.000000,-2.000000,1.000000,-1.000000
1312846.796615,19.000000,6.000000,12.000000,-22.000000,-17.000000,-4.000000,13.000000,25.000000
1312846.807340,13.000000,8.000000,62.000000,44.000000,12.000000,10.000000,4.000000,4.000000
1312846.807362,-8.000000,-10.000000,-70.000000,-35.000000,-19.000000,-25.000000,-15.000000,-6.000000
1312846.815641,-17.000000,-30.000000,-3.000000,2.000000,1.000000,1.000000,1.000000,7.000000
1312846.815663,-2.000000,9.000000,8.000000,11.000000,2.000000,1.000000,-3.000000,-11.000000
1312846.830094,13.000000,-16.000000,-40.000000,-7.000000,-10.000000,-11.000000,-13.000000,-11.000000
1312846.830110,-1.000000,-9.000000,-26.000000,-41.000000,-30.000000,-5.000000,1.000000,4.000000
1312846.852416,-12.000000,34.000000,46.000000,9.000000,2.000000,2.000000,10.000000,23.000000
1312846.852431,16.000000,-3.000000,-16.000000,-7.000000,5.000000,6.000000,9.000000,9.000000
1312846.853020,-8.000000,7.000000,-12.000000,-6.000000,-3.000000,-6.000000,-13.000000,-20.000000
1312846.853041,3.000000,4.000000,62.000000,3.000000,-5.000000,0.000000,-7.000000,-6.000000
1312846.854708,-14.000000,1.000000,-30.000000,-10.000000,0.000000,0.000000,7.000000,13.000000
1312846.854732,19.000000,-12.000000,-50.000000,34.000000,25.000000,-1.000000,-21.000000,-11.000000
1312846.867037,9.000000,14.000000,7.000000,-1.000000,-1.000000,1.000000,11.000000,10.000000
1312846.867053,-6.000000,-3.000000,-37.000000,-18.000000,-6.000000,0.000000,-2.000000,-8.000000
1312846.889606,-3.000000,-8.000000,12.000000,20.000000,23.000000,2.000000,3.000000,3.000000
1312846.889634,15.000000,-1.000000,5.000000,20.000000,28.000000,3.000000,-1.000000,-10.000000
1312846.904545,-31.000000,-14.000000,19.000000,16.000000,-6.000000,-3.000000,-5.000000,-11.000000
1312846.904574,23.000000,20.000000,-14.000000,-6.000000,-22.000000,-8.000000,-6.000000,17.000000
1312846.926674,11.000000,13.000000,-103.000000,7.000000,-4.000000,-7.000000,7.000000,11.000000
1312846.926690,1.000000,-27.000000,73.000000,-8.000000,-8.000000,0.000000,3.000000,6.000000
1312846.927124,16.000000,13.000000,-15.000000,-12.000000,7.000000,2.000000,-3.000000,-10.000000
1312846.927131,-30.000000,-13.000000,12.000000,-10.000000,-6.000000,0.000000,-3.000000,-4.000000
1312846.928275,-2.000000,-8.000000,-14.000000,12.000000,7.000000,1.000000,-4.000000,-15.000000
1312846.928302,30.000000,30.000000,20.000000,0.000000,12.000000,-1.000000,-5.000000,-13.000000
1312846.929215,0.000000,-4.000000,1.000000,-17.000000,-13.000000,-4.000000,4.000000,11.000000
1312846.929223,0.000000,-5.000000,-40.000000,-14.000000,-3.000000,4.000000,9.000000,10.000000
1312846.934970,-12.000000,-14.000000,-30.000000,-14.000000,-14.000000,-7.000000,-11.000000,-16.000000
1312846.934981,3.000000,10.000000,16.000000,39.000000,14.000000,1.000000,1.000000,11.000000
1312846.949538,-1.000000,-12.000000,-30.000000,-31.000000,-15.000000,-3.000000,7.000000,-3.000000
1312846.949550,-14.000000,-1.000000,3.000000,-38.000000,-2.000000,-4.000000,-9.000000,-6.000000
1312846.964816,1.000000,5.000000,60.000000,34.000000,13.000000,7.000000,8.000000,23.000000
1312846.964880,18.000000,28.000000,-53.000000,-22.000000,-6.000000,-5.000000,-7.000000,-5.000000
1312846.965638,-12.000000,-24.000000,-15.000000,-3.000000,2.000000,7.000000,0.000000,-5.000000
1312846.965648,30.000000,16.000000,84.000000,18.000000,6.000000,1.000000,3.000000,1.000000
1312846.987246,1.000000,3.000000,-69.000000,-31.000000,-11.000000,-2.000000,1.000000,0.000000
1312846.987275,1.000000,-2.000000,23.000000,60.000000,44.000000,9.000000,2.000000,-4.000000
1312847.009519,-17.000000,-5.000000,16.000000,1.000000,3.000000,0.000000,7.000000,5.000000
1312847.009533,6.000000,1.000000,-29.000000,-5.000000,0.000000,-4.000000,7.000000,2.000000
1312847.032168,1.000000,-20.000000,21.000000,-4.000000,17.000000,-4.000000,-20.000000,-30.000000
1312847.032180,3.000000,13.000000,-11.000000,65.000000,23.000000,12.000000,22.000000,23.000000
1312847.046669,20.000000,3.000000,32.000000,3.000000,0.000000,-1.000000,-5.000000,-12.000000
1312847.046694,-69.000000,-26.000000,12.000000,-6.000000,-4.000000,-5.000000,-16.000000,-16.000000
1312847.047892,19.000000,48.000000,15.000000,-45.000000,-17.000000,7.000000,13.000000,17.000000
1312847.047914,1.000000,-3.000000,19.000000,16.000000,11.000000,-3.000000,-3.000000,-2.000000
1312847.048486,-10.000000,-23.000000,-32.000000,-22.000000,-7.000000,-3.000000,-3.000000,-2.000000
1312847.048525,18.000000,1.000000,-24.000000,34.000000,9.000000,2.000000,4.000000,14.000000
1312847.049898,1.000000,20.000000,57.000000,28.000000,-11.000000,-7.000000,-15.000000,-35.000000
1312847.049907,-11.000000,-13.000000,-47.000000,-17.000000,-6.000000,-3.000000,2.000000,-1.000000
1312847.050930,2.000000,-5.000000,15.000000,-4.000000,4.000000,1.000000,17.000000,-13.000000
1312847.050954,-23.000000,-4.000000,-52.000000,-31.000000,-9.000000,3.000000,-8.000000,22.000000
1312847.084522,10.000000,-3.000000,1.000000,41.000000,-4.000000,-8.000000,-6.000000,-23.000000
1312847.084534,4.000000,6.000000,-15.000000,-22.000000,5.000000,0.000000,1.000000,-1.000000
1312847.091933,-12.000000,-27.000000,-59.000000,4.000000,3.000000,-1.000000,-7.000000,-20.000000
1312847.091953,7.000000,3.000000,-32.000000,-2.000000,-3.000000,1.000000,21.000000,66.000000
1312847.106681,-3.000000,9.000000,76.000000,17.000000,-25.000000,1.000000,-3.000000,-25.000000
1312847.106691,-29.000000,1.000000,8.000000,-7.000000,-12.000000,-5.000000,-14.000000,-29.000000
1312847.129596,19.000000,-30.000000,-5.000000,-22.000000,-15.000000,6.000000,34.000000,57.000000
1312847.129607,11.000000,17.000000,32.000000,-20.000000,5.000000,9.000000,-8.000000,-29.000000
1312847.151814,14.000000,-12.000000,-32.000000,-4.000000,-8.000000,-22.000000,-13.000000,-9.000000
1312847.151824,-31.000000,-6.000000,40.000000,-25.000000,-19.000000,-6.000000,-7.000000,-12.000000
1312847.166839,-10.000000,-20.000000,27.000000,31.000000,8.000000,2.000000,-5.000000,-9.000000
1312847.166852,-4.000000,-9.000000,-64.000000,-13.000000,4.000000,1.000000,14.000000,-1.000000
1312847.167935,1.000000,9.000000,127.000000,5.000000,-3.000000,0.000000,-10.000000,17.000000
1312847.167949,7.000000,-1.000000,28.000000,-6.000000,-14.000000,1.000000,5.000000,27.000000
1312847.168502,5.000000,8.000000,-25.000000,-9.000000,-4.000000,-5.000000,-1.000000,7.000000
1312847.168512,-6.000000,0.000000,25.000000,6.000000,5.000000,1.000000,-5.000000,-14.000000
1312847.169809,43.000000,0.000000,-11.000000,-6.000000,-1.000000,9.000000,12.000000,15.000000
1312847.169819,-15.000000,-13.000000,43.000000,15.000000,9.000000,-3.000000,-10.000000,-15.000000
1312847.170612,8.000000,16.000000,-46.000000,-23.000000,-16.000000,-10.000000,-6.000000,-4.000000
1312847.170623,-2.000000,-6.000000,29.000000,29.000000,10.000000,5.000000,2.000000,-3.000000
1312847.181881,-27.000000,-20.000000,-47.000000,-15.000000,2.000000,2.000000,-2.000000,-9.000000
1312847.181893,-12.000000,9.000000,54.000000,1.000000,3.000000,-3.000000,-3.000000,-8.000000
1312847.189543,-3.000000,-15.000000,-58.000000,-13.000000,-5.000000,-3.000000,-1.000000,5.000000
1312847.189554,-10.000000,6.000000,8.000000,14.000000,-5.000000,-4.000000,-2.000000,-3.000000
1312847.204653,4.000000,19.000000,39.000000,-15.000000,-4.000000,-3.000000,-1.000000,3.000000
1312847.204663,-9.000000,-9.000000,28.000000,22.000000,1.000000,0.000000,-5.000000,-6.000000
1312847.205586,10.000000,13.000000,-45.000000,13.000000,-4.000000,-2.000000,0.000000,3.000000
1312847.205595,-31.000000,-36.000000,-1.000000,-15.000000,-8.000000,-3.000000,-2.000000,-4.000000
1312847.227085,11.000000,23.000000,66.000000,-13.000000,-4.000000,-4.000000,-12.000000,-18.000000
1312847.227127,-8.000000,8.000000,38.000000,10.000000,1.000000,7.000000,26.000000,11.000000
1312847.241982,12.000000,-3.000000,-77.000000,-28.000000,-12.000000,-11.000000,-26.000000,-6.000000
1312847.242000,-9.000000,-3.000000,-11.000000,-9.000000,0.000000,-6.000000,-7.000000,-3.000000
1312847.264504,1.000000,-11.000000,-7.000000,26.000000,10.000000,5.000000,2.000000,-5.000000
1312847.264514,3.000000,19.000000,17.000000,-16.000000,-3.000000,-3.000000,-5.000000,-13.000000
1312847.286799,1.000000,-12.000000,16.000000,-14.000000,-20.000000,-6.000000,17.000000,25.000000
1312847.286812,-7.000000,10.000000,-18.000000,47.000000,35.000000,4.000000,-12.000000,-9.000000
1312847.302238,0.000000,-14.000000,8.000000,10.000000,-1.000000,-2.000000,6.000000,4.000000
1312847.302265,4.000000,4.000000,-66.000000,11.000000,-1.000000,0.000000,-10.000000,-13.000000
1312847.303041,-16.000000,-2.000000,48.000000,2.000000,-11.000000,-14.000000,-20.000000,-39.000000
1312847.303067,1.000000,12.000000,-29.000000,11.000000,-5.000000,0.000000,11.000000,27.000000
1312847.304119,12.000000,3.000000,-4.000000,-9.000000,-9.000000,-1.000000,-11.000000,-16.000000
1312847.304126,-10.000000,-10.000000,-3.000000,-9.000000,-7.000000,1.000000,6.000000,-1.000000
1312847.305010,14.000000,1.000000,8.000000,0.000000,2.000000,4.000000,13.000000,20.000000
1312847.305017,-8.000000,15.000000,7.000000,-4.000000,-9.000000,-8.000000,-6.000000,-8.000000
1312847.309148,-3.000000,-8.000000,11.000000,21.000000,-4.000000,2.000000,6.000000,14.000000
1312847.309156,9.000000,-3.000000,-49.000000,1.000000,5.000000,-1.000000,-2.000000,-4.000000
1312847.324776,-11.000000,6.000000,-4.000000,-16.000000,-6.000000,-2.000000,0.000000,-9.000000
1312847.324818,14.000000,-6.000000,-19.000000,8.000000,6.000000,1.000000,-8.000000,-13.000000
1312847.325410,-5.000000,-7.000000,7.000000,-11.000000,-31.000000,1.000000,4.000000,21.000000
1312847.325418,14.000000,5.000000,17.000000,-16.000000,6.000000,-7.000000,12.000000,22.000000
1312847.347078,-9.000000,-6.000000,-41.000000,-36.000000,-7.000000,5.000000,5.000000,-6.000000
1312847.347114,-6.000000,-10.000000,-4.000000,-1.000000,-10.000000,-13.000000,-14.000000,-11.000000
1312847.362021,5.000000,-5.000000,-13.000000,-9.000000,-7.000000,-2.000000,2.000000,18.000000
1312847.362034,-1.000000,-6.000000,-28.000000,-9.000000,0.000000,1.000000,9.000000,-9.000000
1312847.363173,4.000000,-7.000000,4.000000,1.000000,-13.000000,-5.000000,-11.000000,4.000000
1312847.363200,-1.000000,-10.000000,-40.000000,-4.000000,0.000000,-2.000000,-13.000000,-20.000000
1312847.370026,2.000000,24.000000,65.000000,4.000000,17.000000,1.000000,4.000000,8.000000
1312847.370078,-17.000000,-34.000000,27.000000,8.000000,-7.000000,-3.000000,-13.000000,-48.000000
1312847.407412,10.000000,4.000000,-8.000000,1.000000,-4.000000,0.000000,38.000000,70.000000
1312847.407434,5.000000,23.000000,44.000000,8.000000,-11.000000,-4.000000,-13.000000,-19.000000
1312847.414954,-22.000000,-24.000000,-19.000000,-11.000000,-1.000000,-2.000000,-7.000000,-9.000000
1312847.414977,2.000000,6.000000,19.000000,-12.000000,-24.000000,1.000000,-6.000000,-15.000000
1312847.429786,5.000000,-4.000000,-46.000000,-12.000000,-3.000000,-2.000000,-1.000000,11.000000
1312847.429829,1.000000,4.000000,18.000000,-18.000000,-4.000000,-1.000000,-3.000000,-8.000000
1312847.436940,8.000000,0.000000,12.000000,13.000000,-1.000000,0.000000,1.000000,1.000000
1312847.436954,-3.000000,-7.000000,-4.000000,-8.000000,-3.000000,-8.000000,-3.000000,0.000000
1312847.444927,-4.000000,-14.000000,-5.000000,-23.000000,-12.000000,-5.000000,-1.000000,-4.000000
1312847.444957,-33.000000,12.000000,47.000000,18.000000,0.000000,10.000000,-3.000000,-7.000000
1312847.445628,14.000000,-14.000000,-81.000000,-21.000000,-10.000000,-12.000000,-19.000000,-32.000000
1312847.445649,4.000000,11.000000,14.000000,-3.000000,7.000000,3.000000,35.000000,57.000000
1312847.446755,-23.000000,-9.000000,16.000000,0.000000,-4.000000,-2.000000,-7.000000,-8.000000
1312847.446766,0.000000,0.000000,-8.000000,0.000000,0.000000,0.000000,1.000000,-9.000000
1312847.447828,-14.000000,2.000000,44.000000,9.000000,0.000000,2.000000,-5.000000,-17.000000
1312847.447844,11.000000,9.000000,-9.000000,7.000000,-2.000000,-6.000000,-10.000000,-4.000000
1312847.459652,-4.000000,-21.000000,86.000000,0.000000,-3.000000,0.000000,9.000000,-10.000000
1312847.459677,-3.000000,4.000000,-15.000000,-4.000000,4.000000,5.000000,-8.000000,4.000000
1312847.467232,-5.000000,-7.000000,-21.000000,-26.000000,-13.000000,-15.000000,4.000000,-7.000000
1312847.467336,20.000000,14.000000,6.000000,34.000000,-2.000000,2.000000,10.000000,9.000000
1312847.489381,-4.000000,-20.000000,-16.000000,-12.000000,4.000000,2.000000,-4.000000,-1.000000
1312847.489391,-5.000000,3.000000,6.000000,23.000000,-4.000000,-6.000000,0.000000,10.000000
1312847.504614,3.000000,-5.000000,51.000000,-1.000000,-12.000000,1.000000,-2.000000,-7.000000
1312847.504655,0.000000,-1.000000,-38.000000,-6.000000,6.000000,-1.000000,-10.000000,-18.000000
1312847.505459,4.000000,0.000000,7.000000,18.000000,8.000000,3.000000,1.000000,0.000000
1312847.505486,10.000000,12.000000,41.000000,-12.000000,3.000000,5.000000,8.000000,15.000000
1312847.506343,-16.000000,-11.000000,-17.000000,10.000000,7.000000,-4.000000,-6.000000,-8.000000
1312847.506370,-23.000000,-12.000000,-16.000000,-1.000000,6.000000,0.000000,2.000000,9.000000
1312847.520045,8.000000,19.000000,25.000000,-4.000000,10.000000,7.000000,4.000000,9.000000
1312847.520074,-6.000000,-17.000000,-18.000000,21.000000,7.000000,4.000000,7.000000,-6.000000
1312847.526983,13.000000,9.000000,-10.000000,-10.000000,-7.000000,-15.000000,-20.000000,-4.000000
1312847.527030,4.000000,1.000000,11.000000,-57.000000,-20.000000,-6.000000,1.000000,8.000000
1312847.542431,0.000000,6.000000,-31.000000,35.000000,25.000000,13.000000,3.000000,-2.000000
1312847.542440,-4.000000,1.000000,42.000000,54.000000,15.000000,-7.000000,0.000000,16.000000
1312847.564179,-15.000000,-4.000000,-10.000000,-18.000000,-5.000000,0.000000,13.000000,-7.000000
1312847.564211,1.000000,0.000000,-38.000000,-27.000000,-14.000000,0.000000,-12.000000,-9.000000
1312847.565270,19.000000,14.000000,15.000000,8.000000,0.000000,7.000000,0.000000,6.000000
1312847.565279,-1.000000,-21.000000,10.000000,-22.000000,-13.000000,-11.000000,1.000000,14.000000
1312847.566697,-30.000000,-8.000000,-40.000000,-14.000000,0.000000,4.000000,0.000000,-1.000000
1312847.566729,-3.000000,6.000000,-6.000000,5.000000,2.000000,2.000000,9.000000,10.000000
1312847.579215,11.000000,1.000000,-26.000000,-20.000000,-2.000000,0.000000,-4.000000,-10.000000
1312847.579243,-1.000000,1.000000,56.000000,27.000000,-9.000000,-4.000000,2.000000,1.000000
1312847.587026,-1.000000,15.000000,1.000000,9.000000,12.000000,10.000000,3.000000,-1.000000
1312847.587036,1.000000,4.000000,-33.000000,-22.000000,-8.000000,-2.000000,-17.000000,-23.000000
1312847.624532,-5.000000,-28.000000,-5.000000,9.000000,9.000000,-4.000000,22.000000,23.000000
1312847.624560,9.000000,1.000000,0.000000,-28.000000,-12.000000,-5.000000,-9.000000,-1.000000
1312847.625100,-4.000000,2.000000,52.000000,-8.000000,-9.000000,2.000000,-15.000000,-51.000000
1312847.625126,-6.000000,-19.000000,-76.000000,22.000000,23.000000,2.000000,14.000000,48.000000
1312847.626090,-7.000000,-10.000000,-17.000000,-2.000000,-14.000000,4.000000,4.000000,-23.000000
1312847.626097,10.000000,7.000000,7.000000,14.000000,9.000000,1.000000,-4.000000,-7.000000
1312847.626959,8.000000,1.000000,-4.000000,-8.000000,-9.000000,-2.000000,-5.000000,-6.000000
1312847.626985,-19.000000,-8.000000,-36.000000,-47.000000,-9.000000,-2.000000,-7.000000,-9.000000
1312847.640133,12.000000,1.000000,-10.000000,-4.000000,-1.000000,0.000000,10.000000,10.000000
1312847.640141,6.000000,17.000000,33.000000,8.000000,-3.000000,0.000000,3.000000,9.000000
1312847.647058,-7.000000,-13.000000,-58.000000,-30.000000,-5.000000,1.000000,12.000000,-3.000000
1312847.647087,-2.000000,-4.000000,27.000000,4.000000,-6.000000,-4.000000,-3.000000,1.000000
1312847.661715,25.000000,27.000000,-25.000000,1.000000,15.000000,-4.000000,-4.000000,-4.000000
1312847.661727,-21.000000,-20.000000,38.000000,-22.000000,-11.000000,-2.000000,-23.000000,-34.000000
1312847.684428,15.000000,10.000000,-5.000000,0.000000,2.000000,0.000000,10.000000,19.000000
1312847.684442,-17.000000,-1.000000,-17.000000,-24.000000,-14.000000,0.000000,-7.000000,-27.000000
1312847.685672,-13.000000,-28.000000,-9.000000,-18.000000,2.000000,-3.000000,1.000000,13.000000
1312847.685682,12.000000,12.000000,9.000000,3.000000,0.000000,3.000000,-7.000000,-30.000000
1312847.699439,19.000000,6.000000,37.000000,27.000000,28.000000,2.000000,15.000000,31.000000
1312847.699449,9.000000,11.000000,17.000000,0.000000,6.000000,-3.000000,-3.000000,-18.000000
1312847.722102,-28.000000,-13.000000,-40.000000,15.000000,7.000000,3.000000,-9.000000,-13.000000
1312847.722115,-8.000000,-14.000000,67.000000,-11.000000,-3.000000,-3.000000,-2.000000,4.000000
1312847.744455,-2.000000,-17.000000,12.000000,10.000000,-4.000000,-2.000000,-3.000000,-2.000000
1312847.744478,-2.000000,0.000000,-55.000000,-36.000000,-5.000000,1.000000,-12.000000,-7.000000
1312847.767051,-3.000000,-11.000000,19.000000,8.000000,5.000000,3.000000,-3.000000,11.000000
1312847.767063,1.000000,9.000000,-17.000000,-11.000000,-9.000000,-6.000000,15.000000,17.000000
1312847.782164,-10.000000,13.000000,23.000000,-3.000000,-1.000000,5.000000,7.000000,-24.000000
1312847.782188,19.000000,-6.000000,-41.000000,-58.000000,-22.000000,-19.000000,-12.000000,16.000000
1312847.783048,0.000000,0.000000,49.000000,70.000000,58.000000,13.000000,-3.000000,-11.000000
1312847.783069,9.000000,0.000000,-67.000000,-25.000000,-6.000000,-6.000000,-11.000000,-9.000000
1312847.783846,-10.000000,7.000000,81.000000,-3.000000,0.000000,-3.000000,4.000000,3.000000
1312847.783866,3.000000,-6.000000,-16.000000,-10.000000,-6.000000,3.000000,-3.000000,-7.000000
1312847.784373,11.000000,18.000000,18.000000,-9.000000,-15.000000,-9.000000,3.000000,12.000000
1312847.784383,-14.000000,-22.000000,5.000000,35.000000,32.000000,9.000000,-3.000000,-8.000000
1312847.796855,5.000000,7.000000,-13.000000,3.000000,2.000000,-5.000000,-8.000000,-6.000000
1312847.796869,6.000000,10.000000,-31.000000,30.000000,16.000000,0.000000,-13.000000,-20.000000
1312847.798568,8.000000,0.000000,79.000000,-50.000000,-20.000000,-6.000000,2.000000,24.000000
1312847.798591,4.000000,-10.000000,127.000000,17.000000,0.000000,2.000000,5.000000,9.000000
1312847.804342,4.000000,-6.000000,-113.000000,-23.000000,-16.000000,-7.000000,-7.000000,-10.000000
1312847.804354,12.000000,5.000000,2.000000,-1.000000,1.000000,4.000000,3.000000,19.000000
1312847.819691,15.000000,12.000000,17.000000,10.000000,2.000000,-4.000000,6.000000,10.000000
1312847.819706,-31.000000,-7.000000,-9.000000,-11.000000,-10.000000,-5.000000,-13.000000,-16.000000
1312847.849462,3.000000,7.000000,-31.000000,23.000000,31.000000,5.000000,2.000000,-5.000000
1312847.849475,7.000000,-7.000000,-8.000000,3.000000,-26.000000,-4.000000,-2.000000,-1.000000
1312847.857250,-4.000000,-2.000000,3.000000,46.000000,30.000000,10.000000,-1.000000,-5.000000
1312847.857265,-24.000000,-35.000000,-69.000000,-19.000000,-30.000000,-13.000000,-5.000000,-1.000000
1312847.857829,8.000000,13.000000,-10.000000,-33.000000,-5.000000,-6.000000,-7.000000,-10.000000
1312847.857839,-6.000000,3.000000,-14.000000,14.000000,-1.000000,0.000000,10.000000,8.000000
1312847.859341,-2.000000,-19.000000,-83.000000,13.000000,10.000000,0.000000,5.000000,34.000000
1312847.859351,6.000000,4.000000,34.000000,-19.000000,-17.000000,1.000000,1.000000,-8.000000
1312847.879398,-6.000000,-34.000000,-22.000000,15.000000,10.000000,-5.000000,-11.000000,-18.000000
1312847.879411,-3.000000,36.000000,54.000000,4.000000,-7.000000,-3.000000,5.000000,12.000000
1312847.880744,3.000000,-6.000000,5.000000,7.000000,-2.000000,-5.000000,-6.000000,-7.000000
1312847.880757,15.000000,12.000000,-59.000000,-19.000000,10.000000,7.000000,11.000000,-7.000000
1312847.887015,-3.000000,3.000000,28.000000,8.000000,-5.000000,0.000000,-14.000000,-6.000000
1312847.887028,3.000000,-6.000000,-38.000000,-7.000000,-7.000000,-4.000000,8.000000,10.000000
1312847.902543,6.000000,1.000000,15.000000,-52.000000,-16.000000,-4.000000,-4.000000,-5.000000
1312847.902555,-16.000000,-2.000000,-31.000000,54.000000,28.000000,12.000000,4.000000,0.000000
1312847.917011,-15.000000,-12.000000,5.000000,-8.000000,-6.000000,-4.000000,-2.000000,-6.000000
1312847.917023,4.000000,-4.000000,-56.000000,-18.000000,-10.000000,-3.000000,-5.000000,-7.000000
1312847.918147,13.000000,18.000000,-13.000000,26.000000,17.000000,-1.000000,-1.000000,1.000000
1312847.918158,-1.000000,-1.000000,-20.000000,-18.000000,2.000000,-1.000000,-10.000000,-16.000000
1312847.939487,-19.000000,-29.000000,25.000000,30.000000,7.000000,-1.000000,9.000000,10.000000
1312847.939511,8.000000,20.000000,-28.000000,-5.000000,3.000000,2.000000,10.000000,6.000000
1312847.977103,-9.000000,8.000000,30.000000,-25.000000,-5.000000,3.000000,-5.000000,-11.000000
1312847.977118,-1.000000,-15.000000,-15.000000,-3.000000,-4.000000,-1.000000,0.000000,6.000000
1312847.984639,2.000000,-4.000000,-8.000000,8.000000,-3.000000,-3.000000,1.000000,4.000000
1312847.984689,2.000000,-9.000000,-12.000000,-33.000000,-10.000000,2.000000,4.000000,4.000000
1312847.999773,5.000000,1.000000,-39.000000,-10.000000,-5.000000,-3.000000,-15.000000,6.000000
1312847.999789,8.000000,16.000000,38.000000,-6.000000,-5.000000,2.000000,-8.000000,-10.000000
1312848.000433,-9.000000,-15.000000,29.000000,40.000000,20.000000,-4.000000,5.000000,2.000000
1312848.000446,6.000000,3.000000,-13.000000,-26.000000,-17.000000,-5.000000,-7.000000,-7.000000
1312848.001756,14.000000,14.000000,82.000000,13.000000,6.000000,2.000000,-17.000000,-24.000000
1312848.001772,-2.000000,-10.000000,-11.000000,-24.000000,-12.000000,-2.000000,14.000000,12.000000
1312848.002390,-8.000000,2.000000,12.000000,31.000000,14.000000,4.000000,-6.000000,-3.000000
1312848.002401,-3.000000,0.000000,-11.000000,32.000000,-2.000000,-6.000000,2.000000,2.000000
1312848.003209,1.000000,7.000000,-27.000000,0.000000,23.000000,2.000000,-2.000000,0.000000
1312848.003220,-3.000000,-24.000000,15.000000,1.000000,-21.000000,-2.000000,-3.000000,-8.000000
1312848.021899,2.000000,2.000000,22.000000,21.000000,-4.000000,1.000000,2.000000,-5.000000
1312848.021913,-3.000000,-16.000000,-56.000000,-27.000000,-2.000000,-3.000000,-3.000000,3.000000
1312848.023333,-3.000000,14.000000,58.000000,-5.000000,-6.000000,-2.000000,-9.000000,-9.000000
1312848.023362,4.000000,3.000000,-6.000000,28.000000,13.000000,3.000000,11.000000,15.000000
1312848.037799,1.000000,6.000000,14.000000,12.000000,4.000000,4.000000,10.000000,-2.000000
1312848.038044,-16.000000,-3.000000,-56.000000,-12.000000,-4.000000,-5.000000,-11.000000,-6.000000
1312848.039281,5.000000,-4.000000,11.000000,-24.000000,-13.000000,-2.000000,-18.000000,-40.000000
1312848.039306,15.000000,15.000000,44.000000,-42.000000,-5.000000,-10.000000,6.000000,35.000000
1312848.060233,25.000000,21.000000,18.000000,64.000000,24.000000,1.000000,-1.000000,-9.000000
1312848.060261,-21.000000,-25.000000,-2.000000,-60.000000,-19.000000,3.000000,-13.000000,-15.000000
1312848.082856,0.000000,-4.000000,-48.000000,40.000000,5.000000,0.000000,24.000000,30.000000
1312848.082894,13.000000,-9.000000,42.000000,8.000000,-2.000000,-4.000000,-3.000000,-5.000000
1312848.090070,-18.000000,-6.000000,-22.000000,-27.000000,2.000000,1.000000,-2.000000,-7.000000
1312848.090084,-2.000000,-5.000000,4.000000,-4.000000,1.000000,8.000000,9.000000,4.000000
1312848.119592,6.000000,4.000000,14.000000,8.000000,-12.000000,-11.000000,-6.000000,-12.000000
1312848.119725,-5.000000,-16.000000,22.000000,14.000000,19.000000,2.000000,-2.000000,-8.000000
1312848.120111,3.000000,19.000000,-35.000000,-35.000000,-21.000000,-4.000000,6.000000,20.000000
1312848.120138,-17.000000,4.000000,69.000000,-11.000000,-16.000000,-2.000000,-5.000000,-23.000000
1312848.121061,7.000000,-5.000000,-72.000000,-7.000000,0.000000,-4.000000,-4.000000,15.000000
1312848.121070,-17.000000,-14.000000,42.000000,-25.000000,4.000000,1.000000,0.000000,-8.000000
1312848.121784,-16.000000,3.000000,-26.000000,-7.000000,4.000000,-3.000000,-1.000000,-2.000000
1312848.121811,3.000000,-28.000000,-55.000000,33.000000,2.000000,-4.000000,9.000000,14.000000
1312848.123458,15.000000,10.000000,25.000000,-32.000000,-8.000000,0.000000,-3.000000,-1.000000
1312848.123467,-8.000000,-7.000000,-30.000000,-10.000000,-3.000000,-5.000000,-4.000000,-7.000000
1312848.134171,-6.000000,-4.000000,-13.000000,-16.000000,-4.000000,-2.000000,-1.000000,-5.000000
1312848.134182,-2.000000,-4.000000,22.000000,-1.000000,-1.000000,-1.000000,-6.000000,-4.000000
1312848.141704,5.000000,2.000000,-10.000000,-5.000000,-15.000000,-2.000000,-7.000000,-7.000000
1312848.141714,-11.000000,-18.000000,51.000000,-4.000000,-10.000000,-3.000000,-3.000000,-11.000000
1312848.156865,3.000000,10.000000,-86.000000,21.000000,17.000000,5.000000,-2.000000,5.000000
1312848.156877,2.000000,-8.000000,-26.000000,-28.000000,-18.000000,-10.000000,-9.000000,-3.000000
1312848.158279,-16.000000,1.000000,2.000000,19.000000,8.000000,-1.000000,2.000000,6.000000
1312848.158291,4.000000,2.000000,2.000000,-5.000000,-6.000000,0.000000,-13.000000,-20.000000
1312848.179317,-2.000000,-2.000000,-4.000000,-3.000000,-1.000000,3.000000,-5.000000,7.000000
1312848.179330,9.000000,0.000000,-50.000000,18.000000,4.000000,1.000000,8.000000,7.000000
1312848.194365,-20.000000,-7.000000,-2.000000,-21.000000,-6.000000,-7.000000,8.000000,11.000000
1312848.194378,5.000000,-4.000000,-24.000000,0.000000,-7.000000,0.000000,-1.000000,-6.000000
1312848.201875,-11.000000,-2.000000,25.000000,9.000000,-7.000000,2.000000,-1.000000,-7.000000
1312848.201885,6.000000,-9.000000,-65.000000,-39.000000,-13.000000,-5.000000,-3.000000,4.000000
1312848.217161,16.000000,23.000000,-2.000000,10.000000,0.000000,-1.000000,-1.000000,-3.000000
1312848.217190,-5.000000,-15.000000,54.000000,19.000000,5.000000,-8.000000,-3.000000,0.000000
1312848.239382,9.000000,28.000000,-46.000000,-26.000000,-2.000000,2.000000,4.000000,3.000000
1312848.239395,1.000000,-6.000000,-8.000000,31.000000,-9.000000,-1.000000,-4.000000,-8.000000
1312848.240355,-11.000000,2.000000,-26.000000,-26.000000,-15.000000,1.000000,-1.000000,-14.000000
1312848.240363,4.000000,-2.000000,93.000000,11.000000,11.000000,2.000000,14.000000,23.000000
1312848.240957,-12.000000,-10.000000,-58.000000,-18.000000,-3.000000,-7.000000,-7.000000,5.000000
1312848.240965,-11.000000,-25.000000,1.000000,11.000000,1.000000,3.000000,6.000000,-19.000000
1312848.242961,-1.000000,12.000000,48.000000,-4.000000,-5.000000,0.000000,-13.000000,-3.000000
1312848.242972,7.000000,-14.000000,-10.000000,-6.000000,-8.000000,-7.000000,-2.000000,2.000000
1312848.254326,13.000000,8.000000,10.000000,23.000000,29.000000,6.000000,6.000000,3.000000
1312848.254336,20.000000,8.000000,8.000000,8.000000,-5.000000,-1.000000,2.000000,14.000000
1312848.261668,-5.000000,6.000000,-14.000000,-33.000000,1.000000,0.000000,0.000000,-11.000000
1312848.261677,12.000000,-1.000000,22.000000,74.000000,17.000000,2.000000,-3.000000,-6.000000
1312848.276846,-32.000000,6.000000,-30.000000,-6.000000,-4.000000,-2.000000,-8.000000,-18.000000
1312848.276856,5.000000,-3.000000,-26.000000,-45.000000,-15.000000,-3.000000,4.000000,18.000000
1312848.314299,1.000000,15.000000,7.000000,79.000000,31.000000,5.000000,1.000000,-11.000000
1312848.314309,-13.000000,1.000000,-4.000000,-13.000000,-4.000000,3.000000,-16.000000,-21.000000
1312848.321798,10.000000,-14.000000,-24.000000,-15.000000,-10.000000,-9.000000,2.000000,18.000000
1312848.321825,-24.000000,-31.000000,5.000000,-3.000000,8.000000,4.000000,3.000000,-8.000000
1312848.337910,11.000000,18.000000,7.000000,-23.000000,-17.000000,-12.000000,-7.000000,-5.000000
1312848.337937,-10.000000,-8.000000,-34.000000,-4.000000,-7.000000,-3.000000,2.000000,1.000000
1312848.338357,16.000000,10.000000,42.000000,14.000000,5.000000,1.000000,1.000000,5.000000
1312848.338383,27.000000,-1.000000,24.000000,2.000000,7.000000,5.000000,8.000000,13.000000
1312848.359470,-1.000000,-8.000000,14.000000,3.000000,2.000000,-1.000000,-4.000000,-1.000000
1312848.359488,-30.000000,0.000000,-10.000000,-19.000000,-9.000000,-7.000000,-5.000000,-26.000000
1312848.366820,-15.000000,-18.000000,-27.000000,-2.000000,-4.000000,1.000000,15.000000,33.000000
1312848.366836,7.000000,16.000000,57.000000,7.000000,7.000000,11.000000,7.000000,20.000000
1312848.374472,-4.000000,-15.000000,-37.000000,-12.000000,-8.000000,-19.000000,1.000000,-1.000000
1312848.374483,-10.000000,-16.000000,13.000000,1.000000,2.000000,-3.000000,-10.000000,-15.000000
1312848.397198,-4.000000,9.000000,9.000000,0.000000,6.000000,3.000000,-4.000000,-3.000000
1312848.397209,4.000000,7.000000,16.000000,50.000000,37.000000,4.000000,4.000000,4.000000
1312848.419285,10.000000,-4.000000,-103.000000,-14.000000,-8.000000,-7.000000,-3.000000,1.000000
1312848.419302,3.000000,26.000000,127.000000,-29.000000,-10.000000,-4.000000,-5.000000,-5.000000
1312848.426835,-3.000000,-22.000000,-25.000000,19.000000,-5.000000,0.000000,4.000000,10.000000
1312848.426844,4.000000,-8.000000,-23.000000,-22.000000,-8.000000,1.000000,11.000000,9.000000
1312848.456967,-9.000000,19.000000,15.000000,14.000000,3.000000,-3.000000,-13.000000,-8.000000
1312848.456988,8.000000,-12.000000,30.000000,8.000000,-11.000000,0.000000,-10.000000,-6.000000
1312848.457654,11.000000,24.000000,-2.000000,-25.000000,3.000000,1.000000,-8.000000,5.000000
1312848.457690,9.000000,8.000000,4.000000,30.000000,-9.000000,8.000000,25.000000,43.000000
1312848.458130,31.000000,17.000000,89.000000,1.000000,0.000000,-3.000000,9.000000,21.000000
1312848.458202,9.000000,-1.000000,-42.000000,-36.000000,-7.000000,3.000000,-1.000000,0.000000
1312848.458660,0.000000,7.000000,52.000000,3.000000,-3.000000,1.000000,0.000000,-3.000000
1312848.458678,-7.000000,-15.000000,-17.000000,3.000000,0.000000,0.000000,-2.000000,-21.000000
1312848.459753,-1.000000,-6.000000,-5.000000,1.000000,-9.000000,1.000000,1.000000,-26.000000
1312848.459762,-3.000000,-9.000000,-53.000000,5.000000,-2.000000,-4.000000,-6.000000,12.000000
1312848.460608,16.000000,9.000000,82.000000,2.000000,-4.000000,1.000000,16.000000,17.000000
1312848.460618,18.000000,3.000000,67.000000,11.000000,8.000000,4.000000,0.000000,-4.000000
1312848.471877,8.000000,15.000000,-1.000000,-16.000000,-13.000000,-12.000000,-18.000000,-6.000000
1312848.471909,-11.000000,-6.000000,40.000000,11.000000,-13.000000,-4.000000,-9.000000,-12.000000
1312848.479200,-4.000000,0.000000,-27.000000,-6.000000,6.000000,5.000000,1.000000,-2.000000
1312848.479223,-27.000000,-14.000000,-2.000000,2.000000,-3.000000,0.000000,1.000000,2.000000
1312848.494386,8.000000,11.000000,2.000000,-13.000000,-13.000000,-1.000000,0.000000,0.000000
1312848.494398,14.000000,17.000000,24.000000,38.000000,16.000000,-2.000000,-3.000000,-2.000000
1312848.532360,-10.000000,8.000000,-4.000000,-4.000000,0.000000,3.000000,0.000000,-4.000000
1312848.532392,5.000000,9.000000,60.000000,15.000000,-4.000000,-3.000000,7.000000,-5.000000
1312848.539536,5.000000,-1.000000,-33.000000,-10.000000,-6.000000,1.000000,0.000000,8.000000
1312848.539548,17.000000,7.000000,-25.000000,-29.000000,-14.000000,-7.000000,-27.000000,-47.000000
1312848.576947,-27.000000,1.000000,18.000000,67.000000,21.000000,16.000000,28.000000,37.000000
1312848.576959,18.000000,14.000000,11.000000,-15.000000,-11.000000,5.000000,12.000000,-9.000000
1312848.584636,13.000000,-8.000000,-26.000000,-23.000000,-7.000000,-8.000000,-18.000000,-9.000000
1312848.584649,7.000000,8.000000,-14.000000,1.000000,3.000000,0.000000,7.000000,14.000000
1312848.592622,-5.000000,-4.000000,-23.000000,-23.000000,-6.000000,-1.000000,0.000000,-13.000000
1312848.592632,-3.000000,13.000000,31.000000,2.000000,-4.000000,-1.000000,7.000000,-10.000000
1312848.593002,4.000000,-3.000000,26.000000,13.000000,1.000000,3.000000,-7.000000,-1.000000
1312848.593012,-29.000000,-36.000000,-26.000000,-10.000000,-4.000000,1.000000,-7.000000,-8.000000
1312848.594248,-29.000000,13.000000,-16.000000,-10.000000,0.000000,3.000000,10.000000,23.000000
1312848.594259,4.000000,-24.000000,-5.000000,15.000000,-3.000000,1.000000,1.000000,1.000000
1312848.595103,5.000000,13.000000,-86.000000,-11.000000,-2.000000,-3.000000,7.000000,16.000000
1312848.595113,-4.000000,5.000000,51.000000,-12.000000,-12.000000,-9.000000,-6.000000,-11.000000
1312848.599641,7.000000,-1.000000,75.000000,20.000000,23.000000,1.000000,-2.000000,-5.000000
1312848.599652,-16.000000,-3.000000,-45.000000,-27.000000,-25.000000,-2.000000,-4.000000,-4.000000
1312848.614264,14.000000,-9.000000,-2.000000,38.000000,8.000000,0.000000,-4.000000,3.000000
1312848.614292,-22.000000,-13.000000,-17.000000,3.000000,-6.000000,1.000000,-12.000000,-10.000000
1312848.629609,-6.000000,11.000000,52.000000,-14.000000,-22.000000,-3.000000,7.000000,5.000000
1312848.629645,7.000000,2.000000,-35.000000,-2.000000,10.000000,1.000000,1.000000,2.000000
1312848.630241,3.000000,-3.000000,48.000000,48.000000,22.000000,13.000000,-5.000000,-14.000000
1312848.630268,-25.000000,-3.000000,40.000000,0.000000,-21.000000,-11.000000,13.000000,20.000000
1312848.637246,20.000000,5.000000,16.000000,-11.000000,-13.000000,-6.000000,-13.000000,-12.000000
1312848.637257,3.000000,-3.000000,8.000000,-15.000000,-6.000000,-6.000000,-11.000000,-32.000000
1312848.651810,-13.000000,-14.000000,-35.000000,9.000000,12.000000,2.000000,8.000000,25.000000
1312848.651837,-12.000000,-8.000000,-10.000000,-2.000000,-3.000000,2.000000,10.000000,-20.000000
1312848.689765,-14.000000,-7.000000,-27.000000,-7.000000,-6.000000,-3.000000,-18.000000,0.000000
1312848.689775,20.000000,18.000000,13.000000,1.000000,5.000000,-3.000000,-12.000000,-18.000000
1312848.696823,5.000000,-11.000000,-5.000000,-52.000000,-36.000000,-7.000000,1.000000,-6.000000
1312848.696845,2.000000,11.000000,1.000000,9.000000,13.000000,5.000000,6.000000,10.000000
1312848.734662,-4.000000,-14.000000,38.000000,-19.000000,-10.000000,-13.000000,-13.000000,-12.000000
1312848.734764,-5.000000,-9.000000,7.000000,10.000000,0.000000,1.000000,-7.000000,-10.000000
1312848.735165,-14.000000,-23.000000,34.000000,-5.000000,3.000000,0.000000,10.000000,23.000000
1312848.735192,3.000000,-1.000000,25.000000,37.000000,10.000000,3.000000,8.000000,6.000000
1312848.736117,24.000000,18.000000,-60.000000,22.000000,24.000000,8.000000,-2.000000,-7.000000
1312848.736148,-31.000000,-13.000000,24.000000,-17.000000,-11.000000,-1.000000,-1.000000,5.000000
1312848.736888,15.000000,-18.000000,-1.000000,4.000000,-8.000000,-8.000000,-13.000000,-6.000000
1312848.736910,0.000000,9.000000,1.000000,-33.000000,-10.000000,0.000000,9.000000,23.000000
1312848.738342,1.000000,6.000000,-25.000000,-10.000000,0.000000,5.000000,8.000000,-12.000000
1312848.738349,-24.000000,-3.000000,34.000000,12.000000,1.000000,-16.000000,-32.000000,-12.000000
1312848.749155,3.000000,-3.000000,-21.000000,-27.000000,-19.000000,-1.000000,10.000000,4.000000
1312848.749171,-9.000000,-2.000000,-4.000000,0.000000,-3.000000,0.000000,8.000000,5.000000
1312848.756929,3.000000,-16.000000,77.000000,-5.000000,-6.000000,-1.000000,-5.000000,-4.000000
1312848.756959,4.000000,5.000000,-27.000000,14.000000,8.000000,4.000000,0.000000,-1.000000
1312848.794448,-7.000000,5.000000,5.000000,12.000000,2.000000,-1.000000,-5.000000,-5.000000
1312848.794458,-8.000000,-6.000000,4.000000,-31.000000,-9.000000,-12.000000,-18.000000,-20.000000
1312848.801863,25.000000,25.000000,-21.000000,13.000000,1.000000,3.000000,11.000000,27.000000
1312848.801874,-43.000000,-33.000000,82.000000,-8.000000,9.000000,2.000000,10.000000,-10.000000
1312848.810016,-2.000000,11.000000,3.000000,-22.000000,3.000000,1.000000,-5.000000,2.000000
1312848.810027,8.000000,7.000000,27.000000,25.000000,14.000000,2.000000,-9.000000,-5.000000
1312848.810482,-8.000000,3.000000,-26.000000,-3.000000,10.000000,0.000000,-11.000000,-26.000000
1312848.810496,11.000000,12.000000,57.000000,-14.000000,-10.000000,-4.000000,-3.000000,7.000000
1312848.811719,2.000000,-13.000000,-23.000000,-24.000000,-8.000000,-1.000000,15.000000,6.000000
1312848.811729,-1.000000,1.000000,11.000000,31.000000,-3.000000,5.000000,-2.000000,-7.000000
1312848.812520,-10.000000,3.000000,-5.000000,-14.000000,-5.000000,-4.000000,-4.000000,-7.000000
1312848.812530,-6.000000,3.000000,-22.000000,-18.000000,-5.000000,3.000000,-13.000000,-6.000000
1312848.831767,-7.000000,-10.000000,-5.000000,9.000000,3.000000,-5.000000,-3.000000,-4.000000
1312848.831779,-15.000000,0.000000,74.000000,-24.000000,-12.000000,-6.000000,-9.000000,-9.000000
1312848.832411,17.000000,2.000000,-12.000000,61.000000,48.000000,12.000000,9.000000,10.000000
1312848.832422,1.000000,13.000000,93.000000,19.000000,-3.000000,3.000000,12.000000,15.000000
1312848.854388,5.000000,6.000000,-10.000000,-7.000000,-4.000000,-2.000000,-5.000000,-5.000000
1312848.854397,16.000000,3.000000,-25.000000,-4.000000,-5.000000,-1.000000,1.000000,2.000000
1312848.854769,-33.000000,-15.000000,51.000000,-21.000000,-11.000000,-5.000000,-18.000000,-2.000000
1312848.854777,-15.000000,6.000000,-51.000000,17.000000,11.000000,-3.000000,-9.000000,7.000000
1312848.869607,18.000000,-3.000000,-29.000000,9.000000,8.000000,6.000000,20.000000,1.000000
1312848.869668,-3.000000,-10.000000,29.000000,7.000000,-5.000000,-1.000000,2.000000,9.000000
1312848.877337,6.000000,-3.000000,2.000000,4.000000,1.000000,-1.000000,-4.000000,-12.000000
1312848.877366,-16.000000,-7.000000,-2.000000,-17.000000,-20.000000,4.000000,2.000000,0.000000
1312848.907184,12.000000,-10.000000,91.000000,-8.000000,-8.000000,-3.000000,-4.000000,4.000000
1312848.907194,-1.000000,2.000000,-67.000000,-24.000000,-5.000000,0.000000,0.000000,-5.000000
1312848.907631,-4.000000,2.000000,-10.000000,-24.000000,7.000000,-2.000000,2.000000,-2.000000
1312848.907665,-8.000000,2.000000,-14.000000,27.000000,3.000000,1.000000,-9.000000,-11.000000
1312848.908556,11.000000,-2.000000,22.000000,15.000000,10.000000,6.000000,9.000000,23.000000
1312848.908564,-1.000000,14.000000,-44.000000,-10.000000,-7.000000,-5.000000,-8.000000,-11.000000
1312848.914525,-5.000000,-28.000000,16.000000,3.000000,-14.000000,-1.000000,12.000000,15.000000
1312848.914559,9.000000,16.000000,1.000000,8.000000,-9.000000,-3.000000,-2.000000,5.000000
1312848.921927,12.000000,-2.000000,-1.000000,-4.000000,-3.000000,-1.000000,1.000000,14.000000
1312848.921937,-2.000000,-3.000000,-64.000000,-13.000000,1.000000,-4.000000,-4.000000,-13.000000
1312848.929197,2.000000,-11.000000,14.000000,-25.000000,-3.000000,-6.000000,-2.000000,1.000000
1312848.929218,-1.000000,1.000000,24.000000,22.000000,2.000000,0.000000,-4.000000,-3.000000
1312848.952326,5.000000,-6.000000,0.000000,6.000000,3.000000,0.000000,-7.000000,-3.000000
1312848.952336,14.000000,0.000000,-30.000000,-27.000000,-8.000000,-7.000000,-3.000000,1.000000
1312848.952851,-16.000000,2.000000,45.000000,-7.000000,-2.000000,6.000000,1.000000,1.000000
1312848.952877,-2.000000,0.000000,-8.000000,-3.000000,-3.000000,0.000000,-7.000000,-4.000000
1312848.966937,-15.000000,-12.000000,-2.000000,11.000000,-8.000000,-3.000000,27.000000,47.000000
1312848.966966,5.000000,-8.000000,-44.000000,-60.000000,-6.000000,-9.000000,-16.000000,-8.000000
1312848.974373,-3.000000,16.000000,78.000000,85.000000,42.000000,10.000000,0.000000,-2.000000
1312848.974386,7.000000,-10.000000,-21.000000,18.000000,-2.000000,-3.000000,-3.000000,-7.000000
1312848.989267,-11.000000,-1.000000,-52.000000,-25.000000,-38.000000,-5.000000,-5.000000,-14.000000
1312848.989279,-3.000000,-14.000000,26.000000,-15.000000,-7.000000,1.000000,-3.000000,-1.000000
1312849.004646,15.000000,3.000000,85.000000,0.000000,-3.000000,0.000000,16.000000,9.000000
1312849.004657,-6.000000,4.000000,12.000000,-19.000000,-12.000000,-4.000000,-9.000000,-1.000000
1312849.026837,2.000000,6.000000,3.000000,37.000000,14.000000,6.000000,2.000000,-9.000000
1312849.026847,2.000000,0.000000,30.000000,2.000000,-7.000000,-1.000000,-5.000000,-13.000000
1312849.042067,-4.000000,0.000000,-15.000000,-14.000000,-7.000000,-6.000000,-6.000000,3.000000
1312849.042095,3.000000,9.000000,-21.000000,3.000000,6.000000,4.000000,9.000000,-4.000000
1312849.049661,-8.000000,-5.000000,-10.000000,-10.000000,-7.000000,-14.000000,-12.000000,-4.000000
1312849.049688,12.000000,1.000000,-5.000000,-8.000000,-18.000000,6.000000,-4.000000,-5.000000
1312849.087874,-7.000000,-7.000000,-41.000000,-33.000000,-19.000000,-4.000000,0.000000,2.000000
1312849.087884,-6.000000,9.000000,-2.000000,39.000000,54.000000,11.000000,-1.000000,1.000000
1312849.087987,4.000000,-22.000000,-53.000000,-28.000000,-7.000000,-9.000000,-7.000000,1.000000
1312849.088096,-12.000000,6.000000,16.000000,5.000000,-19.000000,-3.000000,1.000000,-7.000000
1312849.088595,21.000000,8.000000,19.000000,10.000000,4.000000,1.000000,0.000000,-7.000000
1312849.088606,-9.000000,1.000000,20.000000,3.000000,-1.000000,2.000000,2.000000,-3.000000
1312849.089099,-12.000000,1.000000,-39.000000,-57.000000,-22.000000,-3.000000,-5.000000,-14.000000
1312849.089108,9.000000,-24.000000,24.000000,31.000000,16.000000,4.000000,3.000000,14.000000
1312849.095278,-5.000000,-7.000000,-14.000000,-6.000000,1.000000,1.000000,-15.000000,-19.000000
1312849.095289,-3.000000,4.000000,13.000000,-23.000000,-5.000000,-5.000000,-7.000000,-7.000000
1312849.109290,-3.000000,2.000000,20.000000,16.000000,-9.000000,-2.000000,-5.000000,-1.000000
1312849.109301,-5.000000,4.000000,-12.000000,25.000000,8.000000,5.000000,2.000000,-6.000000
1312849.124228,-15.000000,-3.000000,13.000000,-8.000000,-4.000000,-5.000000,4.000000,-8.000000
1312849.124238,18.000000,9.000000,-17.000000,-8.000000,6.000000,-4.000000,-15.000000,1.000000
1312849.132022,-8.000000,-8.000000,-89.000000,-4.000000,-7.000000,-1.000000,2.000000,5.000000
1312849.132054,2.000000,-3.000000,44.000000,11.000000,3.000000,10.000000,2.000000,1.000000
1312849.154967,1.000000,-10.000000,-5.000000,-15.000000,0.000000,-4.000000,3.000000,8.000000
1312849.154980,-13.000000,22.000000,-15.000000,11.000000,-3.000000,2.000000,-7.000000,-31.000000
1312849.161856,-9.000000,-26.000000,8.000000,12.000000,3.000000,-2.000000,7.000000,26.000000
1312849.161865,1.000000,-9.000000,8.000000,-49.000000,-14.000000,1.000000,9.000000,5.000000
1312849.169876,10.000000,11.000000,-5.000000,23.000000,22.000000,6.000000,9.000000,6.000000
1312849.169891,-1.000000,2.000000,-19.000000,-1.000000,-9.000000,-3.000000,-6.000000,-13.000000
1312849.170487,-4.000000,-2.000000,-8.000000,5.000000,9.000000,-5.000000,-8.000000,-15.000000
1312849.170514,7.000000,1.000000,1.000000,-15.000000,-6.000000,-5.000000,-3.000000,4.000000
1312849.184329,-24.000000,7.000000,33.000000,-50.000000,-30.000000,-2.000000,-1.000000,-5.000000
1312849.184342,11.000000,-19.000000,6.000000,127.000000,55.000000,10.000000,4.000000,5.000000
1312849.184925,-6.000000,-13.000000,-22.000000,-32.000000,-11.000000,-6.000000,-8.000000,-8.000000
1312849.184932,-9.000000,-10.000000,29.000000,-11.000000,-1.000000,0.000000,3.000000,-5.000000
1312849.192533,7.000000,8.000000,-10.000000,-13.000000,-7.000000,-8.000000,-28.000000,-31.000000
1312849.192542,10.000000,14.000000,1.000000,-54.000000,-28.000000,4.000000,30.000000,52.000000
1312849.206875,-17.000000,-23.000000,15.000000,21.000000,26.000000,6.000000,6.000000,-3.000000
1312849.206886,-4.000000,-3.000000,-22.000000,-3.000000,-11.000000,-1.000000,4.000000,-9.000000
1312849.244492,-13.000000,7.000000,20.000000,0.000000,1.000000,-3.000000,-22.000000,-27.000000
1312849.244506,1.000000,5.000000,-73.000000,-13.000000,-7.000000,5.000000,18.000000,13.000000
1312849.251992,14.000000,-2.000000,58.000000,-13.000000,-1.000000,0.000000,-4.000000,4.000000
1312849.252028,-9.000000,-17.000000,-30.000000,-24.000000,-33.000000,-5.000000,-2.000000,-5.000000
1312849.289475,7.000000,26.000000,42.000000,92.000000,43.000000,9.000000,4.000000,1.000000
1312849.289488,2.000000,-10.000000,-15.000000,-10.000000,-2.000000,0.000000,-1.000000,-3.000000
1312849.289970,-9.000000,1.000000,23.000000,6.000000,-19.000000,-4.000000,-4.000000,-11.000000
1312849.289986,2.000000,0.000000,-11.000000,-8.000000,3.000000,2.000000,-4.000000,-43.000000
1312849.291084,-39.000000,-6.000000,-83.000000,-14.000000,-2.000000,-2.000000,4.000000,26.000000
1312849.291111,28.000000,6.000000,-75.000000,-23.000000,-5.000000,-3.000000,-5.000000,-4.000000
1312849.291767,1.000000,-3.000000,29.000000,8.000000,-12.000000,-1.000000,5.000000,-12.000000
1312849.291796,-10.000000,-10.000000,-20.000000,17.000000,24.000000,3.000000,10.000000,25.000000
1312849.293221,-13.000000,-7.000000,-9.000000,15.000000,22.000000,2.000000,-14.000000,-35.000000
1312849.293242,20.000000,19.000000,-2.000000,-2.000000,-12.000000,-3.000000,15.000000,30.000000
1312849.304298,6.000000,3.000000,57.000000,-8.000000,-3.000000,-2.000000,2.000000,-1.000000
1312849.304333,-8.000000,-4.000000,-45.000000,11.000000,-6.000000,2.000000,0.000000,18.000000
1312849.312446,-10.000000,6.000000,-37.000000,-16.000000,4.000000,3.000000,25.000000,20.000000
1312849.312477,28.000000,42.000000,18.000000,-11.000000,-12.000000,-2.000000,-7.000000,12.000000
1312849.319404,14.000000,-3.000000,11.000000,7.000000,11.000000,0.000000,-8.000000,-9.000000
1312849.319420,-16.000000,-14.000000,-23.000000,-29.000000,-14.000000,-5.000000,-4.000000,-9.000000
1312849.364578,1.000000,3.000000,47.000000,17.000000,2.000000,3.000000,10.000000,-5.000000
1312849.364590,-6.000000,-1.000000,32.000000,-2.000000,5.000000,6.000000,-14.000000,-9.000000
1312849.372064,26.000000,4.000000,-12.000000,-28.000000,-20.000000,-4.000000,12.000000,21.000000
1312849.372075,-35.000000,-5.000000,-23.000000,19.000000,12.000000,3.000000,4.000000,9.000000
1312849.394308,-4.000000,2.000000,-36.000000,-2.000000,-3.000000,2.000000,0.000000,-11.000000
1312849.394318,-8.000000,-5.000000,19.000000,3.000000,-1.000000,0.000000,4.000000,7.000000
1312849.409243,-2.000000,5.000000,12.000000,-17.000000,-14.000000,-7.000000,-8.000000,-10.000000
1312849.409253,3.000000,1.000000,-24.000000,0.000000,8.000000,0.000000,-18.000000,2.000000
1312849.410231,20.000000,3.000000,-9.000000,-26.000000,-12.000000,1.000000,25.000000,18.000000
1312849.410358,-38.000000,-10.000000,48.000000,18.000000,2.000000,-4.000000,-6.000000,-6.000000
1312849.410936,19.000000,7.000000,2.000000,-9.000000,-6.000000,-1.000000,2.000000,-4.000000
1312849.410944,16.000000,35.000000,-13.000000,-13.000000,5.000000,3.000000,-5.000000,8.000000
1312849.412246,5.000000,-1.000000,-11.000000,25.000000,2.000000,4.000000,-13.000000,-20.000000
1312849.412254,19.000000,39.000000,65.000000,22.000000,12.000000,1.000000,-7.000000,-10.000000
1312849.424547,14.000000,4.000000,6.000000,-2.000000,-9.000000,-2.000000,-12.000000,-16.000000
1312849.424558,-11.000000,-1.000000,1.000000,11.000000,7.000000,-2.000000,-7.000000,-10.000000
1312849.432628,3.000000,-4.000000,-16.000000,-13.000000,-1.000000,1.000000,4.000000,4.000000
1312849.432637,-3.000000,-7.000000,-22.000000,18.000000,2.000000,3.000000,4.000000,-11.000000
1312849.446737,-3.000000,15.000000,-16.000000,-4.000000,-4.000000,-2.000000,-14.000000,0.000000
1312849.446756,5.000000,-22.000000,0.000000,-1.000000,6.000000,-2.000000,-1.000000,8.000000
1312849.469627,-12.000000,2.000000,-9.000000,-20.000000,-14.000000,1.000000,-2.000000,-9.000000
1312849.469640,-1.000000,1.000000,-4.000000,-7.000000,-10.000000,-9.000000,-1.000000,-9.000000
1312849.477169,11.000000,8.000000,-50.000000,-12.000000,-8.000000,1.000000,2.000000,-7.000000
1312849.477180,1.000000,2.000000,-8.000000,-5.000000,1.000000,-6.000000,0.000000,3.000000
1312849.507139,1.000000,21.000000,-22.000000,21.000000,-3.000000,-5.000000,-21.000000,-32.000000
1312849.507153,-26.000000,-25.000000,4.000000,1.000000,9.000000,3.000000,18.000000,28.000000
1312849.522971,8.000000,28.000000,25.000000,-22.000000,-9.000000,-5.000000,-5.000000,-10.000000
1312849.522983,-6.000000,-13.000000,-33.000000,5.000000,3.000000,3.000000,1.000000,-6.000000
1312849.529833,1.000000,4.000000,15.000000,-31.000000,-26.000000,-7.000000,-5.000000,-8.000000
1312849.529844,-6.000000,-3.000000,-11.000000,21.000000,21.000000,4.000000,11.000000,-5.000000
1312849.530506,5.000000,3.000000,1.000000,6.000000,-4.000000,-2.000000,-19.000000,-15.000000
1312849.530516,4.000000,1.000000,-12.000000,-5.000000,-2.000000,4.000000,8.000000,26.000000
1312849.532028,-3.000000,-7.000000,3.000000,-12.000000,-8.000000,-5.000000,9.000000,-7.000000
1312849.532044,-4.000000,23.000000,22.000000,-7.000000,-7.000000,1.000000,-7.000000,-5.000000
1312849.532713,-8.000000,-5.000000,-22.000000,-9.000000,-3.000000,1.000000,0.000000,3.000000
1312849.532780,5.000000,5.000000,7.000000,34.000000,-13.000000,-11.000000,-4.000000,-7.000000
1312849.544224,-4.000000,-4.000000,27.000000,1.000000,4.000000,5.000000,-6.000000,-24.000000
1312849.544235,-4.000000,-1.000000,-59.000000,-34.000000,-15.000000,-13.000000,8.000000,0.000000
1312849.567136,24.000000,11.000000,-19.000000,3.000000,5.000000,2.000000,-13.000000,-6.000000
1312849.567149,-25.000000,-8.000000,31.000000,4.000000,-8.000000,-5.000000,0.000000,1.000000
1312849.567665,11.000000,3.000000,31.000000,-5.000000,-1.000000,0.000000,-7.000000,-13.000000
1312849.567674,-8.000000,-11.000000,-38.000000,-7.000000,-7.000000,0.000000,3.000000,10.000000
1312849.589573,-10.000000,-10.000000,-13.000000,5.000000,-2.000000,-4.000000,-3.000000,-12.000000
1312849.589584,10.000000,17.000000,42.000000,-32.000000,-15.000000,-7.000000,-4.000000,-1.000000
1312849.596897,9.000000,-7.000000,13.000000,79.000000,38.000000,11.000000,6.000000,5.000000
1312849.596926,-10.000000,-7.000000,-1.000000,-35.000000,-11.000000,-7.000000,-6.000000,-7.000000
1312849.626985,5.000000,-5.000000,-38.000000,45.000000,14.000000,3.000000,0.000000,4.000000
1312849.626995,-13.000000,-20.000000,-49.000000,9.000000,-14.000000,-7.000000,-6.000000,3.000000
1312849.641891,-13.000000,13.000000,65.000000,17.000000,-10.000000,0.000000,-3.000000,-3.000000
1312849.641920,4.000000,0.000000,-3.000000,-8.000000,-2.000000,2.000000,-6.000000,-19.000000
1312849.664691,3.000000,7.000000,2.000000,-23.000000,-11.000000,-7.000000,9.000000,39.000000
1312849.664725,23.000000,14.000000,7.000000,-2.000000,2.000000,3.000000,4.000000,3.000000
1312849.671918,-20.000000,-6.000000,-9.000000,6.000000,1.000000,-1.000000,-8.000000,-9.000000
1312849.671928,-8.000000,-4.000000,11.000000,-7.000000,-7.000000,-3.000000,-8.000000,-14.000000
1312849.701981,10.000000,-3.000000,-9.000000,0.000000,-3.000000,-7.000000,2.000000,5.000000
1312849.702009,-5.000000,10.000000,21.000000,-6.000000,-7.000000,4.000000,4.000000,-1.000000
1312849.709665,13.000000,-5.000000,3.000000,-8.000000,-3.000000,1.000000,3.000000,18.000000
1312849.709694,6.000000,-9.000000,32.000000,68.000000,58.000000,13.000000,4.000000,-3.000000
1312849.717224,-2.000000,1.000000,-45.000000,-20.000000,-6.000000,-5.000000,0.000000,16.000000
1312849.717247,11.000000,10.000000,56.000000,49.000000,0.000000,1.000000,-5.000000,-9.000000
1312849.739519,-8.000000,4.000000,-14.000000,-8.000000,2.000000,2.000000,0.000000,-6.000000
1312849.739529,-10.000000,1.000000,22.000000,-10.000000,-17.000000,-5.000000,3.000000,-3.000000
1312849.761740,47.000000,23.000000,-2.000000,-21.000000,-17.000000,-5.000000,11.000000,19.000000
1312849.761750,-10.000000,0.000000,-25.000000,-9.000000,6.000000,3.000000,0.000000,-4.000000
1312849.762104,-6.000000,-12.000000,-95.000000,-9.000000,-6.000000,-2.000000,-8.000000,-23.000000
1312849.762112,7.000000,20.000000,37.000000,-3.000000,-4.000000,-2.000000,1.000000,7.000000
1312849.763440,-4.000000,-6.000000,0.000000,-30.000000,-20.000000,-4.000000,-16.000000,-14.000000
1312849.763448,4.000000,-17.000000,29.000000,66.000000,46.000000,5.000000,6.000000,11.000000
1312849.764103,-1.000000,-1.000000,-24.000000,-15.000000,-3.000000,-1.000000,-3.000000,-6.000000
1312849.764113,27.000000,13.000000,8.000000,26.000000,0.000000,2.000000,0.000000,-2.000000
1312849.765817,15.000000,13.000000,-40.000000,-30.000000,7.000000,-6.000000,2.000000,8.000000
1312849.765830,-11.000000,13.000000,76.000000,37.000000,1.000000,4.000000,-4.000000,3.000000
1312849.785194,-8.000000,-8.000000,-11.000000,3.000000,12.000000,2.000000,7.000000,8.000000
1312849.785205,-6.000000,-4.000000,9.000000,-3.000000,-1.000000,-3.000000,0.000000,-7.000000
1312849.785832,2.000000,-5.000000,-14.000000,-19.000000,-6.000000,-5.000000,-6.000000,-9.000000
1312849.785839,1.000000,9.000000,-9.000000,64.000000,25.000000,7.000000,19.000000,29.000000
1312849.807136,1.000000,3.000000,-23.000000,8.000000,22.000000,5.000000,-8.000000,-16.000000
1312849.807161,-1.000000,-8.000000,-21.000000,-2.000000,1.000000,-3.000000,-6.000000,-7.000000
1312849.807555,-7.000000,-13.000000,-7.000000,-3.000000,-5.000000,-5.000000,-5.000000,1.000000
1312849.807562,0.000000,7.000000,22.000000,3.000000,-3.000000,2.000000,-1.000000,-9.000000
1312849.844512,8.000000,-4.000000,-6.000000,-12.000000,-4.000000,-6.000000,0.000000,0.000000
1312849.844523,-13.000000,0.000000,-23.000000,-5.000000,6.000000,-3.000000,-3.000000,12.000000
1312849.859527,4.000000,-1.000000,-33.000000,-6.000000,0.000000,5.000000,8.000000,-8.000000
1312849.859543,-7.000000,-3.000000,-37.000000,16.000000,11.000000,4.000000,16.000000,10.000000
1312849.867262,14.000000,-2.000000,7.000000,-45.000000,-21.000000,-1.000000,-8.000000,-8.000000
1312849.867274,-3.000000,15.000000,-8.000000,-2.000000,-2.000000,1.000000,16.000000,45.000000
1312849.867893,18.000000,4.000000,68.000000,30.000000,27.000000,6.000000,-3.000000,-15.000000
1312849.867901,-36.000000,-36.000000,-18.000000,5.000000,-11.000000,-2.000000,-18.000000,-21.000000
1312849.869125,-1.000000,2.000000,-22.000000,9.000000,16.000000,8.000000,4.000000,-6.000000
1312849.869179,3.000000,-4.000000,18.000000,32.000000,-7.000000,-5.000000,2.000000,8.000000
1312849.870011,12.000000,5.000000,-37.000000,5.000000,30.000000,7.000000,2.000000,-1.000000
1312849.870053,2.000000,7.000000,9.000000,-9.000000,-2.000000,-2.000000,-6.000000,9.000000
1312849.874767,-9.000000,-1.000000,3.000000,-2.000000,-1.000000,-1.000000,-5.000000,-10.000000
1312849.874789,-5.000000,3.000000,-33.000000,-21.000000,-14.000000,-12.000000,-4.000000,-4.000000
1312849.881994,10.000000,-17.000000,38.000000,2.000000,3.000000,4.000000,0.000000,-1.000000
1312849.882005,-4.000000,-3.000000,20.000000,24.000000,12.000000,0.000000,1.000000,-6.000000
1312849.904723,-21.000000,4.000000,1.000000,-27.000000,-8.000000,-10.000000,-6.000000,-10.000000
1312849.904733,-7.000000,4.000000,32.000000,40.000000,9.000000,0.000000,-12.000000,-8.000000
1312849.905465,8.000000,-3.000000,3.000000,-26.000000,-17.000000,3.000000,19.000000,14.000000
1312849.905483,-9.000000,-2.000000,21.000000,27.000000,5.000000,-1.000000,-18.000000,-14.000000
1312849.919332,12.000000,1.000000,-31.000000,-25.000000,-9.000000,1.000000,13.000000,19.000000
1312849.919344,0.000000,-6.000000,-3.000000,7.000000,-3.000000,3.000000,17.000000,31.000000
1312849.927205,-4.000000,-5.000000,25.000000,-6.000000,-4.000000,-2.000000,-14.000000,-18.000000
1312849.927215,-9.000000,-16.000000,4.000000,19.000000,2.000000,-5.000000,-3.000000,-7.000000
1312849.949728,-5.000000,-10.000000,-56.000000,-35.000000,-15.000000,-6.000000,-4.000000,-5.000000
1312849.949739,3.000000,1.000000,16.000000,23.000000,11.000000,6.000000,4.000000,-1.000000
1312849.964539,-6.000000,-7.000000,12.000000,29.000000,-2.000000,-3.000000,-5.000000,-5.000000
1312849.964571,-6.000000,-21.000000,13.000000,-1.000000,0.000000,1.000000,-3.000000,-6.000000
1312849.979517,-16.000000,10.000000,13.000000,4.000000,-4.000000,0.000000,-1.000000,0.000000
1312849.979528,7.000000,-4.000000,14.000000,-3.000000,-2.000000,-1.000000,1.000000,2.000000
1312849.987104,-8.000000,-10.000000,-77.000000,-21.000000,0.000000,-4.000000,-17.000000,-26.000000
1312849.987115,-4.000000,-17.000000,-12.000000,-45.000000,-4.000000,6.000000,22.000000,41.000000
1312850.017255,1.000000,20.000000,90.000000,65.000000,22.000000,-3.000000,-10.000000,-26.000000
1312850.017284,10.000000,-6.000000,-19.000000,-7.000000,30.000000,10.000000,22.000000,-1.000000
1312850.024563,-8.000000,12.000000,6.000000,-16.000000,3.000000,-6.000000,-22.000000,-5.000000
1312850.024574,6.000000,20.000000,9.000000,27.000000,24.000000,2.000000,-17.000000,-14.000000
1312850.046675,19.000000,-4.000000,-19.000000,-28.000000,-2.000000,2.000000,28.000000,49.000000
1312850.046686,-1.000000,-6.000000,-20.000000,9.000000,-1.000000,5.000000,-3.000000,-14.000000
1312850.061879,5.000000,-1.000000,5.000000,10.000000,0.000000,0.000000,-6.000000,-6.000000
1312850.061907,-12.000000,7.000000,10.000000,-26.000000,-10.000000,-9.000000,-10.000000,-11.000000
1312850.084593,-1.000000,1.000000,-6.000000,24.000000,10.000000,1.000000,-6.000000,-5.000000
1312850.084602,-5.000000,6.000000,-32.000000,-4.000000,-10.000000,-2.000000,-3.000000,-4.000000
1312850.114321,0.000000,4.000000,-44.000000,0.000000,-4.000000,-9.000000,-19.000000,-36.000000
1312850.114332,7.000000,-5.000000,27.000000,-7.000000,5.000000,3.000000,18.000000,34.000000
1312850.122953,-17.000000,9.000000,-47.000000,-38.000000,-23.000000,-3.000000,-5.000000,-22.000000
1312850.122982,11.000000,-4.000000,-13.000000,17.000000,10.000000,1.000000,-4.000000,4.000000
1312850.123323,-1.000000,-5.000000,-17.000000,-18.000000,-1.000000,-1.000000,-4.000000,0.000000
1312850.123350,6.000000,14.000000,-6.000000,37.000000,1.000000,4.000000,-13.000000,-39.000000
1312850.124092,-6.000000,1.000000,-16.000000,-8.000000,-1.000000,0.000000,-6.000000,10.000000
1312850.124099,10.000000,16.000000,22.000000,-8.000000,-1.000000,-4.000000,8.000000,15.000000
1312850.125827,12.000000,26.000000,52.000000,15.000000,7.000000,-1.000000,-7.000000,-5.000000
1312850.125835,-3.000000,-5.000000,-24.000000,-46.000000,-12.000000,-4.000000,-3.000000,-1.000000
1312850.137465,5.000000,21.000000,-21.000000,14.000000,28.000000,3.000000,-3.000000,-7.000000
1312850.137474,-15.000000,-14.000000,32.000000,-13.000000,-20.000000,-6.000000,3.000000,0.000000
1312850.144328,-2.000000,-9.000000,4.000000,6.000000,27.000000,2.000000,-2.000000,13.000000
1312850.144349,18.000000,-11.000000,-1.000000,19.000000,-6.000000,-6.000000,0.000000,3.000000
1312850.159878,-5.000000,20.000000,89.000000,-7.000000,-7.000000,0.000000,2.000000,-1.000000
1312850.159887,10.000000,-18.000000,-44.000000,-35.000000,-18.000000,-5.000000,-23.000000,-46.000000
1312850.182004,4.000000,28.000000,47.000000,36.000000,12.000000,3.000000,25.000000,36.000000
1312850.182015,-5.000000,-14.000000,-29.000000,-12.000000,-1.000000,4.000000,4.000000,-12.000000
1312850.196878,-5.000000,3.000000,44.000000,49.000000,5.000000,-1.000000,-9.000000,2.000000
1312850.196887,-11.000000,-4.000000,-60.000000,-24.000000,-3.000000,-5.000000,0.000000,-6.000000
1312850.205499,1.000000,-17.000000,24.000000,26.000000,15.000000,9.000000,2.000000,2.000000
1312850.205883,5.000000,11.000000,-4.000000,-5.000000,-16.000000,-11.000000,-15.000000,-10.000000
1312850.227221,-10.000000,-14.000000,-7.000000,-10.000000,0.000000,0.000000,-1.000000,-4.000000
1312850.227235,8.000000,15.000000,-10.000000,-3.000000,-12.000000,-4.000000,-1.000000,-3.000000
1312850.234678,-3.000000,-14.000000,23.000000,-14.000000,-9.000000,1.000000,-6.000000,3.000000
1312850.234719,-1.000000,-3.000000,10.000000,13.000000,9.000000,7.000000,13.000000,13.000000
1312850.241507,10.000000,14.000000,23.000000,9.000000,10.000000,2.000000,-5.000000,-9.000000
1312850.241517,-1.000000,8.000000,11.000000,6.000000,-3.000000,3.000000,-13.000000,-23.000000
1312850.242195,7.000000,-9.000000,-36.000000,-18.000000,-5.000000,-5.000000,5.000000,5.000000
1312850.242208,-9.000000,-1.000000,-12.000000,-29.000000,-16.000000,-8.000000,10.000000,1.000000
1312850.243391,-4.000000,-4.000000,29.000000,-3.000000,-4.000000,-4.000000,0.000000,21.000000
1312850.243409,16.000000,-14.000000,-18.000000,36.000000,39.000000,10.000000,2.000000,3.000000
1312850.244316,-5.000000,15.000000,2.000000,-45.000000,-17.000000,-6.000000,-16.000000,-26.000000
1312850.244334,3.000000,1.000000,2.000000,-7.000000,-1.000000,-3.000000,4.000000,19.000000
1312850.257572,6.000000,14.000000,48.000000,7.000000,-8.000000,3.000000,-4.000000,-8.000000
1312850.257582,-9.000000,-36.000000,-49.000000,-15.000000,-19.000000,-6.000000,1.000000,-10.000000
1312850.264377,-11.000000,3.000000,30.000000,2.000000,7.000000,-5.000000,-14.000000,-7.000000
1312850.264387,7.000000,1.000000,-1.000000,-38.000000,-50.000000,-5.000000,-1.000000,12.000000
1312850.294314,-7.000000,3.000000,48.000000,14.000000,13.000000,-1.000000,2.000000,-2.000000
1312850.294323,-8.000000,-6.000000,-23.000000,-5.000000,2.000000,-3.000000,0.000000,2.000000
1312850.302149,4.000000,10.000000,0.000000,-6.000000,-8.000000,-5.000000,-4.000000,2.000000
1312850.302160,-26.000000,-29.000000,21.000000,7.000000,-1.000000,1.000000,7.000000,-3.000000
1312850.339270,5.000000,8.000000,-61.000000,-15.000000,-6.000000,-1.000000,6.000000,6.000000
1312850.339294,3.000000,28.000000,9.000000,-6.000000,4.000000,-4.000000,-1.000000,-2.000000
1312850.354481,-11.000000,-42.000000,15.000000,38.000000,-3.000000,1.000000,2.000000,-4.000000
1312850.354492,-6.000000,11.000000,-26.000000,-10.000000,0.000000,2.000000,-7.000000,2.000000
1312850.355423,9.000000,4.000000,-8.000000,-27.000000,-8.000000,-2.000000,4.000000,19.000000
1312850.355434,22.000000,13.000000,17.000000,36.000000,1.000000,2.000000,2.000000,6.000000
1312850.355958,-13.000000,-10.000000,-48.000000,29.000000,13.000000,2.000000,-1.000000,-26.000000
1312850.355967,-9.000000,-7.000000,19.000000,-11.000000,-9.000000,0.000000,11.000000,31.000000
1312850.357509,7.000000,-19.000000,0.000000,30.000000,0.000000,1.000000,-7.000000,-3.000000
1312850.357519,-9.000000,-6.000000,15.000000,-3.000000,-16.000000,-9.000000,-6.000000,-14.000000
1312850.361764,-12.000000,4.000000,-46.000000,-6.000000,-2.000000,2.000000,7.000000,-1.000000
1312850.361774,6.000000,-18.000000,0.000000,-20.000000,-16.000000,-1.000000,4.000000,25.000000
1312850.377502,-10.000000,4.000000,21.000000,-4.000000,-4.000000,-2.000000,-5.000000,-11.000000
1312850.377522,1.000000,-9.000000,-38.000000,-36.000000,-15.000000,-18.000000,-12.000000,-11.000000
1312850.391701,18.000000,25.000000,25.000000,37.000000,12.000000,11.000000,-2.000000,-3.000000
1312850.391711,-33.000000,-26.000000,-19.000000,-10.000000,-10.000000,-12.000000,-14.000000,-6.000000
1312850.393360,3.000000,0.000000,-3.000000,-31.000000,-5.000000,-3.000000,-6.000000,-4.000000
1312850.393371,9.000000,8.000000,18.000000,0.000000,-3.000000,-4.000000,-3.000000,-5.000000
1312850.414548,-4.000000,-8.000000,-16.000000,-4.000000,-10.000000,-1.000000,25.000000,20.000000
1312850.414569,1.000000,1.000000,-18.000000,16.000000,24.000000,7.000000,-9.000000,-16.000000
1312850.429569,10.000000,3.000000,18.000000,-31.000000,-5.000000,-1.000000,-2.000000,10.000000
1312850.429579,-11.000000,-11.000000,-35.000000,26.000000,3.000000,1.000000,2.000000,-5.000000
1312850.437256,25.000000,11.000000,-34.000000,13.000000,0.000000,0.000000,-2.000000,-3.000000
1312850.437268,1.000000,4.000000,-6.000000,-18.000000,-7.000000,-2.000000,-6.000000,-12.000000
1312850.481774,6.000000,12.000000,19.000000,-5.000000,-6.000000,-4.000000,-3.000000,-3.000000
1312850.481795,7.000000,-11.000000,17.000000,9.000000,0.000000,-2.000000,-7.000000,-24.000000
1312850.482230,-11.000000,-3.000000,-29.000000,-10.000000,3.000000,-3.000000,4.000000,18.000000
1312850.482244,-9.000000,-8.000000,-6.000000,-30.000000,-7.000000,-1.000000,4.000000,-2.000000
1312850.483422,10.000000,0.000000,-62.000000,11.000000,2.000000,4.000000,2.000000,4.000000
1312850.483432,4.000000,-6.000000,37.000000,-20.000000,-13.000000,-4.000000,-3.000000,-7.000000
1312850.484102,-7.000000,-4.000000,21.000000,-13.000000,-1.000000,3.000000,-12.000000,-7.000000
1312850.484118,-7.000000,-14.000000,13.000000,-16.000000,-17.000000,-3.000000,-6.000000,-30.000000
1312850.497942,-10.000000,-9.000000,-2.000000,14.000000,-6.000000,0.000000,-1.000000,-5.000000
1312850.497956,5.000000,2.000000,-15.000000,-6.000000,-8.000000,-2.000000,-11.000000,3.000000
1312850.519957,23.000000,-6.000000,18.000000,-44.000000,-28.000000,-6.000000,-5.000000,-11.000000
1312850.520149,-39.000000,-11.000000,-67.000000,60.000000,10.000000,0.000000,-3.000000,0.000000
1312850.520965,3.000000,11.000000,6.000000,7.000000,-1.000000,4.000000,3.000000,11.000000
1312850.520990,6.000000,-15.000000,-18.000000,-13.000000,-1.000000,-1.000000,7.000000,8.000000
1312850.534438,-6.000000,7.000000,15.000000,3.000000,2.000000,1.000000,-2.000000,-12.000000
1312850.534448,2.000000,7.000000,1.000000,-7.000000,-1.000000,-2.000000,16.000000,25.000000
1312850.557012,-6.000000,-1.000000,-17.000000,-3.000000,-2.000000,3.000000,-5.000000,-11.000000
1312850.557023,-4.000000,2.000000,23.000000,9.000000,-2.000000,-4.000000,1.000000,6.000000
1312850.571914,-15.000000,-12.000000,-20.000000,-48.000000,-46.000000,-9.000000,-16.000000,-13.000000
1312850.571925,9.000000,3.000000,-10.000000,38.000000,31.000000,5.000000,5.000000,3.000000
1312850.586773,5.000000,18.000000,37.000000,-3.000000,-8.000000,-3.000000,-15.000000,-7.000000
1312850.586809,-8.000000,-39.000000,-12.000000,-32.000000,-7.000000,-1.000000,19.000000,15.000000
1312850.594508,16.000000,23.000000,-31.000000,10.000000,10.000000,7.000000,-2.000000,0.000000
1312850.594520,-18.000000,1.000000,68.000000,14.000000,-5.000000,-5.000000,-5.000000,-10.000000
1312850.595390,-1.000000,6.000000,-12.000000,-2.000000,2.000000,-1.000000,6.000000,5.000000
1312850.595401,7.000000,-3.000000,0.000000,-14.000000,-4.000000,-3.000000,-5.000000,-7.000000
1312850.595955,-14.000000,1.000000,1.000000,-15.000000,2.000000,4.000000,-2.000000,-5.000000
1312850.595963,-4.000000,-17.000000,12.000000,39.000000,-7.000000,1.000000,1.000000,3.000000
1312850.597877,-6.000000,-4.000000,-22.000000,-29.000000,-14.000000,-3.000000,-6.000000,-8.000000
1312850.597891,-1.000000,6.000000,55.000000,-13.000000,-18.000000,-6.000000,-7.000000,-5.000000
1312850.616811,-13.000000,-12.000000,-2.000000,15.000000,-1.000000,4.000000,-4.000000,-23.000000
1312850.616830,24.000000,15.000000,2.000000,7.000000,10.000000,-6.000000,8.000000,41.000000
1312850.617938,4.000000,8.000000,-38.000000,-11.000000,-16.000000,0.000000,15.000000,-1.000000
1312850.617947,-17.000000,-32.000000,-6.000000,-4.000000,-15.000000,-5.000000,-14.000000,-17.000000
1312850.632067,9.000000,-3.000000,35.000000,-12.000000,-9.000000,0.000000,-1.000000,1.000000
1312850.632097,3.000000,13.000000,26.000000,2.000000,4.000000,4.000000,10.000000,-3.000000
1312850.633126,-7.000000,-6.000000,-22.000000,10.000000,0.000000,-1.000000,-18.000000,-16.000000
1312850.633151,11.000000,-13.000000,-19.000000,19.000000,-1.000000,0.000000,8.000000,15.000000
1312850.654477,13.000000,27.000000,55.000000,4.000000,5.000000,-2.000000,-4.000000,-6.000000
1312850.654507,21.000000,-2.000000,2.000000,-11.000000,-4.000000,-2.000000,2.000000,7.000000
1312850.676803,-32.000000,-14.000000,23.000000,2.000000,-3.000000,3.000000,-2.000000,2.000000
1312850.676813,1.000000,-6.000000,-10.000000,-2.000000,0.000000,2.000000,23.000000,8.000000
1312850.692153,-4.000000,-13.000000,-31.000000,-3.000000,-2.000000,-4.000000,-15.000000,-14.000000
1312850.692182,-9.000000,0.000000,65.000000,11.000000,-27.000000,-4.000000,-2.000000,10.000000
1312850.699712,14.000000,7.000000,-53.000000,18.000000,45.000000,9.000000,6.000000,4.000000
1312850.699722,-2.000000,-13.000000,64.000000,-25.000000,-18.000000,-9.000000,-7.000000,-6.000000
1312850.700304,-5.000000,8.000000,-24.000000,-19.000000,-10.000000,0.000000,-3.000000,-2.000000
1312850.700312,4.000000,-9.000000,7.000000,-2.000000,-4.000000,0.000000,4.000000,3.000000
1312850.701856,4.000000,3.000000,-3.000000,-17.000000,-5.000000,-9.000000,4.000000,12.000000
1312850.701866,8.000000,9.000000,-4.000000,-1.000000,6.000000,-2.000000,-3.000000,-9.000000
1312850.714179,-3.000000,2.000000,-46.000000,17.000000,-4.000000,-1.000000,1.000000,-1.000000
1312850.714210,0.000000,3.000000,83.000000,47.000000,19.000000,5.000000,-10.000000,-15.000000
1312850.715514,-22.000000,-16.000000,-53.000000,23.000000,19.000000,3.000000,6.000000,-10.000000
1312850.715541,1.000000,12.000000,10.000000,-6.000000,1.000000,2.000000,-10.000000,13.000000
1312850.737055,-10.000000,-12.000000,-6.000000,-42.000000,-10.000000,-4.000000,16.000000,13.000000
1312850.737069,5.000000,-3.000000,2.000000,22.000000,7.000000,3.000000,4.000000,15.000000
1312850.738176,4.000000,-5.000000,-6.000000,-4.000000,-6.000000,-4.000000,-4.000000,4.000000
1312850.738186,-11.000000,-5.000000,-10.000000,-10.000000,-4.000000,-8.000000,-9.000000,-23.000000
1312850.751939,20.000000,3.000000,-3.000000,17.000000,-11.000000,-3.000000,4.000000,0.000000
1312850.751966,-22.000000,-3.000000,-4.000000,26.000000,26.000000,9.000000,10.000000,0.000000
1312850.759353,-9.000000,5.000000,-53.000000,-27.000000,-19.000000,-3.000000,-11.000000,-11.000000
1312850.759362,23.000000,-3.000000,-1.000000,-9.000000,-4.000000,3.000000,-1.000000,0.000000
1312850.774255,-11.000000,-1.000000,1.000000,-1.000000,5.000000,-3.000000,0.000000,-2.000000
1312850.774265,4.000000,2.000000,-8.000000,-4.000000,0.000000,-2.000000,6.000000,2.000000
1312850.796797,-11.000000,-1.000000,0.000000,4.000000,5.000000,1.000000,0.000000,7.000000
1312850.796811,-2.000000,-14.000000,46.000000,-22.000000,-9.000000,4.000000,4.000000,3.000000
1312850.804124,7.000000,10.000000,-3.000000,1.000000,0.000000,4.000000,5.000000,17.000000
1312850.804134,-1.000000,10.000000,-25.000000,13.000000,-5.000000,-3.000000,14.000000,12.000000
1312850.812115,4.000000,-7.000000,4.000000,-10.000000,2.000000,0.000000,-10.000000,-1.000000
1312850.812125,-1.000000,1.000000,-9.000000,-16.000000,-9.000000,-3.000000,-9.000000,-2.000000
1312850.812811,1.000000,14.000000,16.000000,4.000000,-3.000000,3.000000,3.000000,10.000000
1312850.812819,-22.000000,-19.000000,-49.000000,5.000000,-7.000000,-7.000000,-8.000000,-6.000000
1312850.819651,2.000000,2.000000,-5.000000,-6.000000,-10.000000,2.000000,-6.000000,-10.000000
1312850.819679,0.000000,-4.000000,5.000000,-21.000000,-14.000000,-6.000000,-2.000000,-8.000000
1312850.827215,-13.000000,26.000000,-5.000000,-3.000000,-2.000000,-5.000000,-7.000000,-13.000000
1312850.827225,-8.000000,-31.000000,-69.000000,-7.000000,7.000000,2.000000,0.000000,27.000000
1312850.835134,39.000000,26.000000,65.000000,-6.000000,-18.000000,-4.000000,18.000000,20.000000
1312850.835143,10.000000,25.000000,-38.000000,-22.000000,-7.000000,0.000000,-4.000000,-9.000000
1312850.849210,0.000000,-3.000000,-1.000000,8.000000,-1.000000,1.000000,-8.000000,-12.000000
1312850.849239,-6.000000,-5.000000,-15.000000,-6.000000,-2.000000,2.000000,-6.000000,-7.000000
1312850.856734,-3.000000,-13.000000,3.000000,12.000000,13.000000,6.000000,4.000000,4.000000
1312850.856744,-7.000000,-7.000000,-6.000000,-35.000000,-17.000000,-7.000000,0.000000,0.000000
1312850.872245,-3.000000,-8.000000,7.000000,12.000000,9.000000,0.000000,-1.000000,-1.000000
1312850.872297,-7.000000,18.000000,7.000000,-18.000000,-17.000000,-3.000000,-4.000000,-7.000000
1312850.894532,2.000000,-3.000000,-9.000000,-16.000000,-10.000000,-3.000000,-3.000000,-9.000000
1312850.894550,-13.000000,-27.000000,5.000000,8.000000,16.000000,1.000000,4.000000,10.000000
1312850.901728,2.000000,28.000000,-15.000000,-5.000000,-12.000000,-7.000000,-12.000000,-25.000000
1312850.901741,1.000000,12.000000,23.000000,-1.000000,3.000000,-1.000000,-2.000000,0.000000
1312850.917163,-1.000000,-2.000000,88.000000,16.000000,4.000000,1.000000,4.000000,-6.000000
1312850.917175,-6.000000,8.000000,4.000000,20.000000,15.000000,8.000000,-5.000000,2.000000
1312850.931873,19.000000,-14.000000,-13.000000,-30.000000,-15.000000,-19.000000,4.000000,18.000000
1312850.931883,-15.000000,11.000000,-17.000000,7.000000,-1.000000,-4.000000,-16.000000,-16.000000
1312850.969654,-21.000000,-54.000000,-48.000000,-40.000000,-12.000000,1.000000,-12.000000,-6.000000
1312850.969683,10.000000,25.000000,-4.000000,28.000000,0.000000,4.000000,15.000000,14.000000
1312850.977273,8.000000,1.000000,44.000000,9.000000,6.000000,3.000000,-2.000000,-8.000000
1312850.977411,11.000000,23.000000,-7.000000,-29.000000,-11.000000,-5.000000,1.000000,7.000000
1312850.977931,-4.000000,0.000000,-25.000000,-6.000000,-9.000000,-1.000000,-7.000000,-15.000000
1312850.977961,6.000000,-6.000000,5.000000,-31.000000,-15.000000,1.000000,2.000000,8.000000
1312850.978552,-7.000000,-4.000000,25.000000,6.000000,19.000000,5.000000,1.000000,-9.000000
1312850.978561,-3.000000,6.000000,34.000000,-19.000000,-19.000000,-7.000000,-7.000000,2.000000
1312850.980290,3.000000,12.000000,-39.000000,-50.000000,-14.000000,-1.000000,22.000000,55.000000
1312850.980304,9.000000,-1.000000,36.000000,-12.000000,-1.000000,1.000000,10.000000,-8.000000
1312850.991859,5.000000,2.000000,-11.000000,-11.000000,-13.000000,-1.000000,-1.000000,-4.000000
1312850.991891,7.000000,7.000000,-13.000000,-30.000000,-10.000000,0.000000,1.000000,0.000000
1312851.014639,5.000000,-12.000000,-23.000000,5.000000,19.000000,8.000000,5.000000,10.000000
1312851.014667,13.000000,-3.000000,45.000000,24.000000,-2.000000,2.000000,-13.000000,-15.000000
1312851.029743,-31.000000,-7.000000,-92.000000,-36.000000,-19.000000,-5.000000,8.000000,4.000000
1312851.029754,33.000000,11.000000,24.000000,10.000000,8.000000,9.000000,19.000000,28.000000
1312851.052122,13.000000,4.000000,19.000000,-23.000000,-12.000000,6.000000,-6.000000,16.000000
1312851.052131,-2.000000,-4.000000,-25.000000,40.000000,30.000000,2.000000,8.000000,5.000000
1312851.067073,13.000000,10.000000,16.000000,-29.000000,-7.000000,-3.000000,-10.000000,-15.000000
1312851.067083,5.000000,5.000000,63.000000,20.000000,-5.000000,6.000000,0.000000,2.000000
1312851.074974,-29.000000,-10.000000,5.000000,-17.000000,-20.000000,-14.000000,-14.000000,-1.000000
1312851.075002,-1.000000,-11.000000,-13.000000,-3.000000,7.000000,3.000000,1.000000,-1.000000
1312851.075494,0.000000,-15.000000,62.000000,24.000000,8.000000,2.000000,5.000000,1.000000
1312851.075502,4.000000,-2.000000,1.000000,-2.000000,0.000000,5.000000,2.000000,-5.000000
1312851.076732,8.000000,24.000000,-39.000000,-46.000000,-26.000000,-14.000000,-3.000000,-11.000000
1312851.076744,-15.000000,-4.000000,11.000000,-33.000000,-3.000000,8.000000,8.000000,11.000000
1312851.077650,8.000000,-1.000000,26.000000,64.000000,52.000000,6.000000,0.000000,11.000000
1312851.077666,9.000000,-7.000000,4.000000,58.000000,-4.000000,-2.000000,-1.000000,-1.000000
1312851.089255,-11.000000,-18.000000,3.000000,4.000000,-1.000000,2.000000,0.000000,-5.000000
1312851.089265,-5.000000,0.000000,-30.000000,-7.000000,-6.000000,3.000000,7.000000,-2.000000
1312851.096769,-23.000000,-16.000000,-20.000000,-3.000000,-4.000000,-1.000000,-14.000000,-16.000000
1312851.096780,17.000000,-10.000000,27.000000,18.000000,14.000000,5.000000,30.000000,46.000000
1312851.112104,2.000000,1.000000,-2.000000,-3.000000,-13.000000,-5.000000,-15.000000,-11.000000
1312851.112116,-1.000000,-2.000000,-7.000000,-5.000000,1.000000,-10.000000,-10.000000,-8.000000
1312851.141890,-16.000000,-3.000000,-10.000000,-4.000000,-2.000000,-7.000000,-5.000000,-12.000000
1312851.141907,5.000000,-3.000000,-49.000000,10.000000,-5.000000,7.000000,6.000000,1.000000
1312851.149226,6.000000,6.000000,8.000000,-22.000000,-19.000000,-9.000000,-13.000000,4.000000
1312851.149249,-7.000000,-14.000000,-11.000000,1.000000,18.000000,6.000000,5.000000,-3.000000
1312851.179402,-8.000000,21.000000,29.000000,-11.000000,9.000000,-1.000000,-11.000000,-10.000000
1312851.179419,25.000000,0.000000,-56.000000,-2.000000,13.000000,3.000000,22.000000,21.000000
1312851.186808,-21.000000,-14.000000,48.000000,-13.000000,-12.000000,-11.000000,-14.000000,-33.000000
1312851.186867,6.000000,5.000000,-26.000000,33.000000,25.000000,12.000000,23.000000,21.000000
1312851.187728,28.000000,22.000000,2.000000,-15.000000,-6.000000,4.000000,-4.000000,-13.000000
1312851.187736,-22.000000,-15.000000,30.000000,-1.000000,-1.000000,-2.000000,-12.000000,1.000000
1312851.188482,14.000000,23.000000,23.000000,-20.000000,-13.000000,-5.000000,-6.000000,-10.000000
1312851.188491,-8.000000,-8.000000,-33.000000,-6.000000,-15.000000,1.000000,7.000000,5.000000
1312851.189961,-10.000000,-23.000000,-6.000000,-9.000000,-16.000000,-2.000000,-7.000000,-9.000000
1312851.189988,17.000000,6.000000,7.000000,-10.000000,-8.000000,-3.000000,7.000000,13.000000
1312851.195090,-4.000000,-1.000000,21.000000,16.000000,21.000000,2.000000,2.000000,5.000000
1312851.195102,-1.000000,-40.000000,-15.000000,20.000000,-17.000000,-5.000000,-26.000000,-41.000000
1312851.209326,9.000000,15.000000,-50.000000,-27.000000,-12.000000,-11.000000,19.000000,50.000000
1312851.209338,-10.000000,-15.000000,31.000000,-6.000000,10.000000,-4.000000,-8.000000,-21.000000
1312851.231821,2.000000,18.000000,-42.000000,4.000000,4.000000,0.000000,-3.000000,-7.000000
1312851.231831,14.000000,2.000000,-35.000000,-23.000000,-8.000000,-6.000000,-10.000000,-17.000000
1312851.247149,-30.000000,0.000000,17.000000,0.000000,-2.000000,-3.000000,3.000000,7.000000
1312851.247178,20.000000,6.000000,3.000000,16.000000,3.000000,1.000000,2.000000,-1.000000
1312851.269259,1.000000,-3.000000,38.000000,45.000000,-3.000000,4.000000,0.000000,0.000000
1312851.269270,1.000000,5.000000,-15.000000,-43.000000,-13.000000,-11.000000,-9.000000,-7.000000
1312851.291898,-4.000000,-20.000000,14.000000,-6.000000,-5.000000,2.000000,-1.000000,0.000000
1312851.291927,8.000000,9.000000,27.000000,-23.000000,-16.000000,-2.000000,3.000000,2.000000
1312851.314541,-6.000000,-3.000000,2.000000,-33.000000,-14.000000,-8.000000,-17.000000,-14.000000
1312851.314552,-11.000000,-3.000000,7.000000,-40.000000,-10.000000,2.000000,-1.000000,-17.000000
1312851.329394,-1.000000,10.000000,8.000000,9.000000,-7.000000,0.000000,28.000000,46.000000
1312851.329408,-12.000000,-19.000000,-5.000000,33.000000,31.000000,5.000000,-11.000000,-15.000000
1312851.330394,13.000000,0.000000,13.000000,-10.000000,-9.000000,0.000000,2.000000,17.000000
1312851.330403,-5.000000,3.000000,20.000000,33.000000,4.000000,4.000000,10.000000,0.000000
1312851.331047,-3.000000,13.000000,5.000000,-19.000000,-10.000000,-9.000000,-18.000000,-17.000000
1312851.331074,21.000000,11.000000,22.000000,-1.000000,-5.000000,-2.000000,-5.000000,-8.000000
1312851.331691,-20.000000,-14.000000,1.000000,5.000000,-3.000000,-6.000000,-11.000000,-17.000000
1312851.331699,18.000000,39.000000,30.000000,-2.000000,-2.000000,6.000000,3.000000,0.000000
1312851.332353,2.000000,1.000000,-8.000000,18.000000,6.000000,-5.000000,12.000000,36.000000
1312851.332381,6.000000,10.000000,-3.000000,-10.000000,6.000000,-3.000000,-10.000000,-32.000000
1312851.337050,-13.000000,-2.000000,-1.000000,58.000000,34.000000,7.000000,4.000000,2.000000
1312851.337078,6.000000,-4.000000,-18.000000,-24.000000,-16.000000,-5.000000,-7.000000,-11.000000
1312851.344296,3.000000,13.000000,-60.000000,-6.000000,-18.000000,-1.000000,-3.000000,-3.000000
1312851.344305,3.000000,-5.000000,-11.000000,-1.000000,3.000000,2.000000,10.000000,-10.000000
1312851.366986,4.000000,11.000000,26.000000,11.000000,-12.000000,-10.000000,-21.000000,14.000000
1312851.367015,15.000000,-35.000000,-22.000000,26.000000,12.000000,5.000000,2.000000,-5.000000
1312851.374296,-25.000000,-9.000000,-54.000000,-30.000000,-14.000000,-3.000000,-1.000000,-5.000000
1312851.374306,-8.000000,2.000000,-30.000000,20.000000,-2.000000,-1.000000,1.000000,-1.000000
1312851.404558,-4.000000,-6.000000,4.000000,-10.000000,1.000000,-3.000000,4.000000,-7.000000
1312851.404581,11.000000,-6.000000,6.000000,2.000000,3.000000,1.000000,3.000000,8.000000
1312851.411683,1.000000,1.000000,-8.000000,-20.000000,-9.000000,-2.000000,-5.000000,-7.000000
1312851.411699,-9.000000,-19.000000,36.000000,44.000000,26.000000,2.000000,4.000000,-15.000000
1312851.413212,-28.000000,7.000000,43.000000,-45.000000,-24.000000,-9.000000,-3.000000,16.000000
1312851.413229,14.000000,6.000000,12.000000,36.000000,6.000000,7.000000,5.000000,12.000000
1312851.414145,-10.000000,-31.000000,-17.000000,-1.000000,-1.000000,-3.000000,-2.000000,-2.000000
1312851.414167,-2.000000,1.000000,1.000000,9.000000,6.000000,3.000000,-5.000000,-8.000000
1312851.427087,0.000000,20.000000,-38.000000,-62.000000,-20.000000,-9.000000,-21.000000,-33.000000
1312851.427097,13.000000,28.000000,35.000000,39.000000,5.000000,7.000000,26.000000,46.000000
1312851.427720,5.000000,-14.000000,-61.000000,-20.000000,-8.000000,1.000000,-8.000000,-5.000000
1312851.427747,14.000000,4.000000,44.000000,-9.000000,-4.000000,2.000000,4.000000,7.000000
1312851.449895,-8.000000,-6.000000,33.000000,11.000000,-6.000000,-7.000000,-10.000000,-15.000000
1312851.449906,-1.000000,9.000000,-4.000000,-2.000000,-14.000000,-7.000000,-8.000000,-21.000000
1312851.450524,-12.000000,-37.000000,-46.000000,-14.000000,5.000000,-7.000000,-13.000000,-2.000000
1312851.450552,-14.000000,12.000000,62.000000,12.000000,0.000000,6.000000,15.000000,26.000000
1312851.464747,10.000000,18.000000,0.000000,-13.000000,-5.000000,0.000000,12.000000,20.000000
1312851.464785,-19.000000,-28.000000,-88.000000,-31.000000,-12.000000,-8.000000,-5.000000,-15.000000
1312851.465157,6.000000,5.000000,-23.000000,24.000000,19.000000,-1.000000,-8.000000,-9.000000
1312851.465164,0.000000,8.000000,80.000000,-8.000000,-10.000000,-1.000000,0.000000,-2.000000
1312851.486994,-15.000000,-12.000000,-40.000000,-14.000000,-22.000000,-5.000000,-6.000000,-2.000000
1312851.487023,2.000000,0.000000,0.000000,18.000000,7.000000,7.000000,2.000000,5.000000
1312851.509670,-2.000000,-9.000000,-9.000000,-5.000000,0.000000,-1.000000,1.000000,-1.000000
1312851.509694,-8.000000,-3.000000,1.000000,1.000000,-4.000000,-1.000000,-5.000000,-14.000000
1312851.532025,-13.000000,-1.000000,0.000000,-28.000000,-4.000000,-4.000000,14.000000,16.000000
1312851.532054,2.000000,6.000000,-23.000000,99.000000,35.000000,4.000000,-14.000000,-9.000000
1312851.547373,3.000000,-17.000000,-30.000000,-4.000000,-11.000000,-4.000000,0.000000,0.000000
1312851.547387,3.000000,5.000000,-12.000000,-2.000000,8.000000,3.000000,14.000000,-14.000000
1312851.576956,-25.000000,-28.000000,2.000000,-12.000000,1.000000,-1.000000,-9.000000,23.000000
1312851.576979,24.000000,1.000000,4.000000,14.000000,6.000000,-1.000000,5.000000,9.000000
1312851.584460,5.000000,-4.000000,-7.000000,-34.000000,-30.000000,-6.000000,-10.000000,-19.000000
1312851.584489,1.000000,14.000000,21.000000,-13.000000,-9.000000,-1.000000,-9.000000,-15.000000
1312851.607243,-25.000000,-29.000000,-27.000000,-6.000000,2.000000,-6.000000,2.000000,-3.000000
1312851.607254,10.000000,-24.000000,-51.000000,14.000000,-5.000000,-1.000000,11.000000,38.000000
1312851.621868,-5.000000,1.000000,9.000000,-11.000000,0.000000,2.000000,-5.000000,-13.000000
1312851.621879,6.000000,11.000000,30.000000,18.000000,-14.000000,0.000000,5.000000,8.000000
1312851.629515,2.000000,-28.000000,50.000000,54.000000,17.000000,3.000000,-11.000000,-26.000000
1312851.629548,11.000000,24.000000,-18.000000,-20.000000,-7.000000,-1.000000,-3.000000,2.000000
1312851.644490,-20.000000,-13.000000,-9.000000,-24.000000,-19.000000,-6.000000,-10.000000,4.000000
1312851.644507,21.000000,10.000000,73.000000,10.000000,11.000000,6.000000,23.000000,15.000000
1312851.645557,-6.000000,-7.000000,-19.000000,22.000000,-8.000000,-6.000000,-16.000000,-13.000000
1312851.645577,-5.000000,2.000000,35.000000,31.000000,-1.000000,1.000000,-3.000000,-8.000000
1312851.646553,-3.000000,-5.000000,-24.000000,-15.000000,-6.000000,-6.000000,-8.000000,-3.000000
1312851.646577,9.000000,14.000000,30.000000,-7.000000,-1.000000,-6.000000,0.000000,-4.000000
1312851.647354,-5.000000,1.000000,-7.000000,-26.000000,-8.000000,-1.000000,-1.000000,-4.000000
1312851.647369,-7.000000,-6.000000,32.000000,4.000000,-1.000000,0.000000,3.000000,2.000000
1312851.647849,18.000000,41.000000,-45.000000,-11.000000,-10.000000,2.000000,4.000000,16.000000
1312851.647858,-32.000000,-23.000000,-23.000000,13.000000,4.000000,6.000000,2.000000,-7.000000
1312851.652062,15.000000,8.000000,-21.000000,-21.000000,-5.000000,-10.000000,-17.000000,-1.000000
1312851.652083,-2.000000,6.000000,-28.000000,-6.000000,-12.000000,-2.000000,-8.000000,-17.000000
1312851.659543,3.000000,4.000000,-18.000000,40.000000,18.000000,6.000000,12.000000,8.000000
1312851.659565,-11.000000,-29.000000,-5.000000,4.000000,-2.000000,0.000000,3.000000,4.000000
1312851.667065,-1.000000,2.000000,-26.000000,-34.000000,-33.000000,-6.000000,-6.000000,-11.000000
1312851.667075,-9.000000,0.000000,23.000000,58.000000,16.000000,5.000000,-2.000000,-4.000000
1312851.682532,10.000000,14.000000,-14.000000,-22.000000,-12.000000,-7.000000,-7.000000,-8.000000
1312851.682560,-16.000000,-4.000000,-19.000000,-13.000000,7.000000,2.000000,3.000000,-13.000000
1312851.689345,13.000000,-19.000000,36.000000,-3.000000,-10.000000,-7.000000,7.000000,20.000000
1312851.689362,1.000000,3.000000,49.000000,0.000000,-15.000000,-4.000000,-10.000000,-10.000000
1312851.697207,-1.000000,-3.000000,12.000000,-11.000000,-5.000000,-5.000000,-1.000000,-8.000000
1312851.697259,-7.000000,10.000000,-7.000000,-18.000000,6.000000,1.000000,-3.000000,-10.000000
1312851.726900,14.000000,33.000000,10.000000,4.000000,0.000000,-6.000000,2.000000,21.000000
1312851.726928,0.000000,-19.000000,-1.000000,-23.000000,-15.000000,0.000000,5.000000,-1.000000
1312851.764358,8.000000,-1.000000,-46.000000,-46.000000,-36.000000,-7.000000,-5.000000,-6.000000
1312851.764375,5.000000,7.000000,42.000000,15.000000,17.000000,4.000000,-7.000000,-3.000000
1312851.764695,-16.000000,3.000000,-13.000000,-1.000000,12.000000,0.000000,12.000000,21.000000
1312851.764722,-7.000000,5.000000,9.000000,-31.000000,-15.000000,-1.000000,-1.000000,4.000000
1312851.766056,7.000000,4.000000,13.000000,15.000000,5.000000,-3.000000,-14.000000,-10.000000
1312851.766084,7.000000,3.000000,15.000000,7.000000,-2.000000,-5.000000,-3.000000,7.000000
1312851.766640,-4.000000,-8.000000,-31.000000,-3.000000,11.000000,6.000000,2.000000,-19.000000
1312851.766667,-6.000000,-12.000000,18.000000,15.000000,8.000000,8.000000,10.000000,19.000000
1312851.786917,11.000000,8.000000,18.000000,14.000000,11.000000,1.000000,-4.000000,-1.000000
1312851.786955,-24.000000,-16.000000,-23.000000,28.000000,21.000000,0.000000,15.000000,17.000000
1312851.787895,17.000000,12.000000,-25.000000,-33.000000,-18.000000,-2.000000,-4.000000,-4.000000
1312851.787917,-6.000000,0.000000,17.000000,14.000000,6.000000,0.000000,-4.000000,2.000000
1312851.788904,14.000000,-1.000000,-1.000000,-52.000000,-29.000000,0.000000,0.000000,6.000000
1312851.788943,-16.000000,-5.000000,16.000000,114.000000,47.000000,7.000000,1.000000,-3.000000
1312851.802562,-5.000000,-4.000000,-19.000000,12.000000,-13.000000,-3.000000,-10.000000,-26.000000
1312851.802589,-2.000000,7.000000,18.000000,36.000000,22.000000,1.000000,2.000000,23.000000
1312851.809454,15.000000,9.000000,-4.000000,-29.000000,-1.000000,-4.000000,3.000000,5.000000
1312851.809474,-9.000000,1.000000,6.000000,7.000000,3.000000,-2.000000,-1.000000,4.000000
1312851.816733,2.000000,-3.000000,-56.000000,-28.000000,-5.000000,2.000000,2.000000,-4.000000
1312851.816743,-2.000000,-3.000000,-62.000000,-30.000000,-19.000000,-5.000000,-9.000000,-7.000000
1312851.847038,12.000000,11.000000,86.000000,-5.000000,-1.000000,-3.000000,-13.000000,-11.000000
1312851.847048,-20.000000,-27.000000,29.000000,7.000000,7.000000,1.000000,15.000000,15.000000
1312851.862397,19.000000,3.000000,29.000000,-2.000000,-10.000000,5.000000,-14.000000,10.000000
1312851.862412,16.000000,40.000000,-3.000000,-14.000000,-1.000000,-5.000000,13.000000,33.000000
1312851.863137,-3.000000,-30.000000,-11.000000,6.000000,-8.000000,-5.000000,1.000000,-8.000000
1312851.863154,7.000000,19.000000,13.000000,9.000000,-2.000000,-3.000000,-5.000000,-11.000000
1312851.864442,8.000000,-11.000000,-17.000000,-10.000000,-1.000000,-2.000000,-8.000000,-1.000000
1312851.864452,-30.000000,-23.000000,14.000000,-11.000000,3.000000,2.000000,3.000000,-7.000000
1312851.869310,6.000000,11.000000,-4.000000,-19.000000,-13.000000,-3.000000,7.000000,11.000000
1312851.869386,-6.000000,-4.000000,-11.000000,-29.000000,-6.000000,-1.000000,4.000000,23.000000
1312851.884255,5.000000,3.000000,11.000000,47.000000,11.000000,1.000000,0.000000,-10.000000
1312851.884265,-5.000000,-5.000000,-16.000000,-24.000000,-26.000000,-6.000000,-5.000000,-13.000000
1312851.891595,-5.000000,5.000000,33.000000,55.000000,28.000000,8.000000,-16.000000,-31.000000
1312851.891605,2.000000,-15.000000,-22.000000,-31.000000,-14.000000,-1.000000,12.000000,23.000000
1312851.899867,13.000000,26.000000,106.000000,34.000000,0.000000,2.000000,2.000000,2.000000
1312851.899877,-1.000000,-11.000000,-34.000000,-37.000000,-9.000000,2.000000,5.000000,5.000000
1312851.906644,-13.000000,-6.000000,24.000000,19.000000,-14.000000,-11.000000,-10.000000,-11.000000
1312851.906652,6.000000,16.000000,6.000000,26.000000,25.000000,7.000000,1.000000,1.000000
1312851.922503,13.000000,-9.000000,-42.000000,-15.000000,-3.000000,-3.000000,-1.000000,-2.000000
1312851.922513,-8.000000,0.000000,32.000000,-4.000000,0.000000,-2.000000,-9.000000,-5.000000
1312851.929160,-6.000000,-12.000000,22.000000,15.000000,-4.000000,-3.000000,4.000000,0.000000
1312851.929171,8.000000,-9.000000,10.000000,-11.000000,-3.000000,2.000000,-5.000000,-3.000000
1312851.944393,7.000000,25.000000,1.000000,-6.000000,-8.000000,-3.000000,7.000000,21.000000
1312851.944405,1.000000,-17.000000,-2.000000,26.000000,22.000000,3.000000,-4.000000,-29.000000
1312851.959609,-6.000000,11.000000,-30.000000,6.000000,5.000000,7.000000,8.000000,11.000000
1312851.959634,1.000000,-25.000000,-5.000000,4.000000,-7.000000,-9.000000,-12.000000,-20.000000
1312851.981768,15.000000,-9.000000,-48.000000,-26.000000,5.000000,8.000000,-2.000000,-9.000000
1312851.981777,-16.000000,4.000000,-32.000000,9.000000,-1.000000,-1.000000,6.000000,5.000000
1312852.004365,6.000000,7.000000,30.000000,4.000000,9.000000,3.000000,-6.000000,0.000000
1312852.004375,-12.000000,-22.000000,-44.000000,-41.000000,-13.000000,-11.000000,-8.000000,-5.000000
1312852.019276,-3.000000,10.000000,41.000000,-6.000000,-2.000000,7.000000,0.000000,-3.000000
1312852.019287,11.000000,0.000000,-8.000000,-4.000000,-1.000000,-3.000000,3.000000,6.000000
1312852.019601,-13.000000,-1.000000,-5.000000,-7.000000,-9.000000,-3.000000,-5.000000,-20.000000
1312852.019609,0.000000,-22.000000,-20.000000,-9.000000,-5.000000,-2.000000,5.000000,40.000000
1312852.020944,-2.000000,6.000000,3.000000,-6.000000,-9.000000,3.000000,-3.000000,-16.000000
1312852.020960,6.000000,15.000000,11.000000,-2.000000,-6.000000,-6.000000,4.000000,-23.000000
1312852.021610,-15.000000,2.000000,-46.000000,-6.000000,-7.000000,-8.000000,-18.000000,21.000000
1312852.021637,27.000000,14.000000,29.000000,-6.000000,-4.000000,1.000000,19.000000,24.000000
1312852.022371,0.000000,20.000000,-36.000000,-76.000000,-15.000000,0.000000,-10.000000,-19.000000
1312852.022381,0.000000,-8.000000,31.000000,79.000000,27.000000,-5.000000,3.000000,0.000000
1312852.026516,9.000000,-5.000000,-4.000000,-27.000000,-4.000000,3.000000,4.000000,6.000000
1312852.026542,-11.000000,8.000000,94.000000,-3.000000,3.000000,6.000000,-5.000000,-15.000000
1312852.042096,-12.000000,-3.000000,-36.000000,-53.000000,-20.000000,-13.000000,-14.000000,-9.000000
1312852.042107,9.000000,-8.000000,26.000000,9.000000,2.000000,2.000000,5.000000,4.000000
1312852.057151,8.000000,10.000000,-4.000000,-13.000000,5.000000,4.000000,5.000000,8.000000
1312852.057165,5.000000,11.000000,5.000000,10.000000,-2.000000,-1.000000,-10.000000,-7.000000
1312852.079220,-28.000000,-29.000000,-34.000000,-32.000000,-18.000000,-4.000000,-5.000000,-10.000000
1312852.079229,8.000000,6.000000,7.000000,23.000000,28.000000,5.000000,-10.000000,-21.000000
1312852.086721,-12.000000,-25.000000,-18.000000,-2.000000,-6.000000,-2.000000,11.000000,12.000000
1312852.086744,13.000000,21.000000,-13.000000,-34.000000,1.000000,5.000000,0.000000,-1.000000
1312852.124252,-16.000000,-8.000000,-17.000000,-12.000000,-16.000000,-12.000000,5.000000,20.000000
1312852.124263,4.000000,-1.000000,43.000000,6.000000,-11.000000,-3.000000,-20.000000,-11.000000
1312852.139531,-15.000000,-7.000000,-62.000000,-15.000000,-15.000000,-6.000000,-10.000000,-8.000000
1312852.139542,15.000000,1.000000,37.000000,-25.000000,-13.000000,5.000000,9.000000,18.000000
1312852.140475,11.000000,1.000000,-4.000000,-17.000000,-11.000000,3.000000,14.000000,7.000000
1312852.140486,-10.000000,-19.000000,-5.000000,22.000000,7.000000,-2.000000,-4.000000,-13.000000
1312852.141601,-1.000000,14.000000,10.000000,-25.000000,-3.000000,1.000000,-3.000000,-5.000000
1312852.141609,1.000000,-5.000000,-13.000000,4.000000,-2.000000,0.000000,3.000000,0.000000
1312852.142269,8.000000,5.000000,-2.000000,-23.000000,-6.000000,-1.000000,10.000000,10.000000
1312852.142276,-4.000000,-23.000000,54.000000,57.000000,-10.000000,-12.000000,-11.000000,-7.000000
1312852.143056,-10.000000,8.000000,-42.000000,27.000000,5.000000,-3.000000,6.000000,19.000000
1312852.143078,9.000000,6.000000,22.000000,51.000000,43.000000,12.000000,0.000000,-10.000000
1312852.162392,5.000000,-3.000000,-4.000000,-16.000000,-10.000000,-5.000000,-13.000000,-5.000000
1312852.162447,-1.000000,-24.000000,-11.000000,-2.000000,-12.000000,-5.000000,27.000000,-10.000000
1312852.163332,-7.000000,20.000000,12.000000,-21.000000,-7.000000,-1.000000,-9.000000,18.000000
1312852.163343,13.000000,16.000000,-16.000000,6.000000,-6.000000,3.000000,0.000000,-8.000000
1312852.199537,-8.000000,-7.000000,4.000000,4.000000,1.000000,1.000000,-3.000000,-9.000000
1312852.199547,-2.000000,-4.000000,-1.000000,8.000000,1.000000,-3.000000,-1.000000,-3.000000
1312852.207399,-3.000000,-8.000000,33.000000,-22.000000,3.000000,0.000000,9.000000,11.000000
1312852.207428,-1.000000,1.000000,-27.000000,25.000000,-2.000000,-3.000000,-1.000000,-8.000000
1312852.221743,14.000000,8.000000,46.000000,14.000000,27.000000,6.000000,2.000000,4.000000
1312852.221753,8.000000,14.000000,22.000000,-2.000000,-2.000000,0.000000,3.000000,4.000000
1312852.237118,1.000000,-4.000000,83.000000,-47.000000,-8.000000,1.000000,0.000000,-6.000000
1312852.237141,-21.000000,-21.000000,-4.000000,-17.000000,-15.000000,-4.000000,-4.000000,-30.000000
1312852.259356,26.000000,15.000000,-42.000000,2.000000,7.000000,-1.000000,18.000000,37.000000
1312852.259367,6.000000,-1.000000,-2.000000,-46.000000,-3.000000,1.000000,-18.000000,-8.000000
1312852.282065,-11.000000,-10.000000,14.000000,0.000000,-5.000000,1.000000,7.000000,11.000000
1312852.282079,-5.000000,-10.000000,-15.000000,23.000000,-13.000000,-6.000000,-6.000000,-26.000000
1312852.282951,6.000000,-10.000000,21.000000,7.000000,7.000000,1.000000,-2.000000,15.000000
1312852.282961,7.000000,14.000000,-16.000000,-31.000000,-14.000000,2.000000,3.000000,-14.000000
1312852.283488,-2.000000,2.000000,15.000000,11.000000,21.000000,4.000000,-1.000000,6.000000
1312852.283498,1.000000,4.000000,-2.000000,28.000000,29.000000,4.000000,-1.000000,-2.000000
1312852.284853,30.000000,-5.000000,-16.000000,-17.000000,-4.000000,2.000000,9.000000,13.000000
1312852.284863,4.000000,6.000000,12.000000,-33.000000,-6.000000,-4.000000,5.000000,2.000000
1312852.319352,-8.000000,-35.000000,0.000000,-3.000000,14.000000,4.000000,-18.000000,-8.000000
1312852.319380,7.000000,19.000000,3.000000,-12.000000,-1.000000,3.000000,7.000000,17.000000
1312852.334635,-21.000000,-7.000000,-4.000000,-18.000000,-4.000000,-5.000000,-6.000000,-12.000000
1312852.334664,10.000000,1.000000,-19.000000,48.000000,-16.000000,4.000000,6.000000,6.000000
1312852.356729,-14.000000,2.000000,18.000000,-13.000000,-14.000000,-8.000000,-2.000000,0.000000
1312852.356740,1.000000,1.000000,11.000000,43.000000,26.000000,7.000000,5.000000,-10.000000
1312852.364085,13.000000,12.000000,11.000000,3.000000,-1.000000,-4.000000,3.000000,18.000000
1312852.364114,-8.000000,-13.000000,-41.000000,-2.000000,7.000000,5.000000,-2.000000,-11.000000
1312852.365165,9.000000,15.000000,-10.000000,-25.000000,-6.000000,2.000000,2.000000,1.000000
1312852.365192,-6.000000,-26.000000,14.000000,-31.000000,-3.000000,2.000000,2.000000,0.000000
1312852.365856,3.000000,-3.000000,17.000000,12.000000,1.000000,-2.000000,4.000000,0.000000
1312852.365882,0.000000,9.000000,-12.000000,-6.000000,5.000000,0.000000,-19.000000,-13.000000
1312852.367347,-26.000000,-10.000000,29.000000,6.000000,-9.000000,-21.000000,-36.000000,-31.000000
1312852.367374,-4.000000,0.000000,-32.000000,5.000000,13.000000,2.000000,1.000000,-3.000000
1312852.379692,6.000000,7.000000,15.000000,24.000000,-3.000000,1.000000,-2.000000,-3.000000
1312852.379700,-13.000000,4.000000,-13.000000,-83.000000,-42.000000,-12.000000,-4.000000,-6.000000
1312852.380515,1.000000,11.000000,5.000000,73.000000,33.000000,5.000000,0.000000,9.000000
1312852.380523,9.000000,-23.000000,3.000000,46.000000,49.000000,15.000000,23.000000,22.000000
1312852.402310,1.000000,9.000000,42.000000,0.000000,-14.000000,-9.000000,-11.000000,-14.000000
1312852.402319,19.000000,11.000000,-61.000000,-10.000000,-2.000000,-4.000000,-4.000000,-6.000000
1312852.403142,-5.000000,-16.000000,-34.000000,-24.000000,-24.000000,2.000000,1.000000,7.000000
1312852.403151,-11.000000,14.000000,-3.000000,-10.000000,-7.000000,-5.000000,-6.000000,-8.000000
1312852.424589,-9.000000,-16.000000,-6.000000,-20.000000,-9.000000,-3.000000,0.000000,-3.000000
1312852.424602,0.000000,-2.000000,-2.000000,-7.000000,-10.000000,-8.000000,-7.000000,-14.000000
1312852.439576,3.000000,7.000000,60.000000,41.000000,-7.000000,4.000000,19.000000,23.000000
1312852.439600,2.000000,1.000000,-13.000000,-45.000000,-22.000000,-5.000000,-8.000000,-3.000000
1312852.462564,-1.000000,5.000000,10.000000,-1.000000,-5.000000,7.000000,-21.000000,-30.000000
1312852.462576,-26.000000,-5.000000,-19.000000,2.000000,-3.000000,-7.000000,14.000000,23.000000
1312852.463060,7.000000,-3.000000,39.000000,4.000000,-1.000000,1.000000,8.000000,7.000000
1312852.463069,15.000000,4.000000,-10.000000,-20.000000,-8.000000,-5.000000,0.000000,2.000000
1312852.464195,20.000000,15.000000,13.000000,-14.000000,-11.000000,7.000000,-1.000000,-12.000000
1312852.464205,-20.000000,-9.000000,13.000000,26.000000,10.000000,-3.000000,-9.000000,-23.000000
1312852.465005,5.000000,-1.000000,-2.000000,21.000000,5.000000,-4.000000,0.000000,5.000000
1312852.465015,-4.000000,-1.000000,33.000000,-16.000000,-9.000000,-3.000000,1.000000,-4.000000
1312852.477673,-2.000000,-19.000000,-99.000000,-37.000000,3.000000,1.000000,-8.000000,-6.000000
1312852.477685,2.000000,15.000000,-28.000000,73.000000,23.000000,5.000000,10.000000,18.000000
1312852.478269,7.000000,7.000000,32.000000,-34.000000,-15.000000,-5.000000,-3.000000,-3.000000
1312852.478280,1.000000,4.000000,-40.000000,-45.000000,-30.000000,-4.000000,-7.000000,-15.000000
1312852.492441,0.000000,-16.000000,-25.000000,23.000000,9.000000,2.000000,9.000000,-8.000000
1312852.492451,-20.000000,6.000000,14.000000,-1.000000,3.000000,-6.000000,1.000000,10.000000
1312852.499302,12.000000,3.000000,12.000000,-12.000000,-5.000000,-8.000000,1.000000,2.000000
1312852.499326,15.000000,-3.000000,-13.000000,2.000000,0.000000,-1.000000,-29.000000,1.000000
1312852.515053,-4.000000,-14.000000,-88.000000,-16.000000,4.000000,-1.000000,0.000000,4.000000
1312852.515062,8.000000,5.000000,127.000000,12.000000,7.000000,3.000000,6.000000,3.000000
1312852.521956,-12.000000,14.000000,19.000000,-34.000000,-13.000000,2.000000,1.000000,-6.000000
1312852.521967,-12.000000,10.000000,-5.000000,-3.000000,-1.000000,2.000000,4.000000,6.000000
1312852.536860,9.000000,-3.000000,-74.000000,-23.000000,-7.000000,-1.000000,-1.000000,-7.000000
1312852.536871,4.000000,10.000000,31.000000,15.000000,6.000000,3.000000,-2.000000,-10.000000
1312852.559511,-2.000000,-4.000000,1.000000,-1.000000,-10.000000,-2.000000,0.000000,3.000000
1312852.559522,-11.000000,-19.000000,18.000000,19.000000,23.000000,5.000000,-5.000000,-15.000000
1312852.581900,9.000000,19.000000,-25.000000,-28.000000,-10.000000,-5.000000,5.000000,15.000000
1312852.581938,10.000000,-4.000000,-46.000000,24.000000,-3.000000,3.000000,4.000000,11.000000
1312852.582195,-23.000000,-8.000000,13.000000,-36.000000,-8.000000,-4.000000,-4.000000,1.000000
1312852.582203,-11.000000,-6.000000,9.000000,56.000000,16.000000,6.000000,-7.000000,-5.000000
1312852.583434,11.000000,5.000000,-5.000000,-4.000000,-12.000000,-2.000000,-6.000000,-6.000000
1312852.583451,7.000000,1.000000,0.000000,4.000000,-1.000000,-5.000000,0.000000,-4.000000
1312852.584387,-21.000000,-9.000000,-5.000000,36.000000,9.000000,-3.000000,-3.000000,-4.000000
1312852.584398,1.000000,-28.000000,41.000000,-6.000000,-12.000000,-4.000000,-4.000000,1.000000
1312852.619525,-8.000000,-1.000000,-3.000000,-10.000000,-3.000000,-3.000000,-2.000000,0.000000
1312852.619540,-14.000000,-13.000000,-17.000000,-14.000000,-3.000000,1.000000,-13.000000,-20.000000
1312852.634452,41.000000,17.000000,6.000000,1.000000,-7.000000,1.000000,16.000000,54.000000
