# participant_id: P12
# gesture: soft
# trial_number: 1
# stream_name: Myo_EMG
# stream_type: emg
# timestamp: 20260420_175638
# samples: 5676
# duration_sec: 30.465
# nominal_sample_rate: 200.0
# effective_sample_rate: 186.28
#
timestamp,emg_1,emg_2,emg_3,emg_4,emg_5,emg_6,emg_7,emg_8
1312489.746449,6.000000,16.000000,2.000000,1.000000,8.000000,5.000000,0.000000,-1.000000
1312489.746459,-4.000000,-1.000000,11.000000,-3.000000,0.000000,-6.000000,3.000000,-26.000000
1312489.753894,-3.000000,-9.000000,-79.000000,10.000000,18.000000,0.000000,11.000000,17.000000
1312489.753923,8.000000,5.000000,7.000000,23.000000,2.000000,0.000000,-3.000000,8.000000
1312489.768726,0.000000,3.000000,43.000000,-23.000000,-6.000000,-9.000000,-8.000000,-13.000000
1312489.768747,-7.000000,-12.000000,-27.000000,3.000000,-4.000000,2.000000,-3.000000,1.000000
1312489.783938,-6.000000,22.000000,32.000000,8.000000,-12.000000,1.000000,4.000000,3.000000
1312489.783949,6.000000,-14.000000,-7.000000,5.000000,9.000000,-4.000000,11.000000,20.000000
1312489.792062,1.000000,10.000000,-10.000000,-13.000000,-1.000000,-4.000000,-1.000000,-3.000000
1312489.792089,-3.000000,-7.000000,-27.000000,6.000000,-12.000000,-2.000000,-12.000000,-4.000000
1312489.792592,12.000000,7.000000,2.000000,-16.000000,-14.000000,-7.000000,-1.000000,1.000000
1312489.792602,-18.000000,-19.000000,8.000000,-27.000000,-10.000000,-4.000000,0.000000,-8.000000
1312489.806293,1.000000,7.000000,-31.000000,8.000000,-10.000000,1.000000,0.000000,-2.000000
1312489.806322,-1.000000,3.000000,22.000000,-20.000000,-7.000000,-6.000000,-2.000000,-5.000000
1312489.806819,-16.000000,-3.000000,0.000000,-40.000000,-16.000000,-4.000000,1.000000,-1.000000
1312489.806840,-13.000000,-12.000000,-99.000000,-5.000000,-3.000000,-5.000000,-5.000000,-2.000000
1312489.821897,16.000000,34.000000,55.000000,23.000000,2.000000,7.000000,4.000000,6.000000
1312489.821920,13.000000,5.000000,-15.000000,-9.000000,0.000000,-3.000000,-2.000000,-3.000000
1312489.829033,4.000000,-8.000000,-9.000000,-1.000000,0.000000,-3.000000,-2.000000,-2.000000
1312489.829044,-7.000000,-13.000000,-3.000000,4.000000,0.000000,4.000000,-2.000000,11.000000
1312489.844448,11.000000,4.000000,2.000000,8.000000,15.000000,7.000000,0.000000,7.000000
1312489.844482,6.000000,14.000000,-13.000000,-6.000000,19.000000,-5.000000,2.000000,14.000000
1312489.845433,9.000000,-10.000000,65.000000,11.000000,-3.000000,1.000000,-6.000000,-3.000000
1312489.845444,3.000000,14.000000,-12.000000,-13.000000,-13.000000,-3.000000,-2.000000,-12.000000
1312489.873678,-4.000000,-4.000000,-54.000000,-12.000000,2.000000,-5.000000,0.000000,4.000000
1312489.873693,6.000000,26.000000,-17.000000,-9.000000,0.000000,1.000000,-6.000000,-11.000000
1312489.881343,-11.000000,-6.000000,9.000000,18.000000,-8.000000,5.000000,6.000000,-4.000000
1312489.881353,8.000000,19.000000,11.000000,3.000000,-3.000000,-8.000000,-11.000000,9.000000
1312489.903786,16.000000,15.000000,-9.000000,-14.000000,4.000000,3.000000,5.000000,11.000000
1312489.903805,-14.000000,-13.000000,-4.000000,5.000000,-11.000000,0.000000,-9.000000,-19.000000
1312489.904328,-1.000000,8.000000,-12.000000,0.000000,-2.000000,-2.000000,-1.000000,13.000000
1312489.904351,31.000000,3.000000,-7.000000,-29.000000,7.000000,-3.000000,15.000000,23.000000
1312489.905419,-6.000000,8.000000,-12.000000,-10.000000,-8.000000,0.000000,-6.000000,-15.000000
1312489.905441,-7.000000,1.000000,-13.000000,81.000000,24.000000,5.000000,7.000000,-12.000000
1312489.906327,2.000000,-3.000000,42.000000,-7.000000,1.000000,-6.000000,-8.000000,-7.000000
1312489.906335,6.000000,1.000000,-3.000000,-12.000000,-9.000000,1.000000,-1.000000,14.000000
1312489.926230,-15.000000,-1.000000,-57.000000,5.000000,-7.000000,3.000000,6.000000,2.000000
1312489.926243,3.000000,14.000000,8.000000,-1.000000,2.000000,-7.000000,-2.000000,2.000000
1312489.926959,7.000000,-14.000000,19.000000,-8.000000,1.000000,-4.000000,0.000000,-9.000000
1312489.926967,-28.000000,-10.000000,-35.000000,-9.000000,-12.000000,0.000000,-3.000000,-4.000000
1312489.948865,-2.000000,12.000000,40.000000,22.000000,10.000000,2.000000,7.000000,10.000000
1312489.948880,22.000000,8.000000,-20.000000,-19.000000,-1.000000,-3.000000,1.000000,6.000000
1312489.963810,-11.000000,-6.000000,-7.000000,6.000000,-5.000000,1.000000,-2.000000,-3.000000
1312489.963833,-9.000000,-3.000000,-22.000000,6.000000,-2.000000,2.000000,-6.000000,-10.000000
1312489.993637,6.000000,13.000000,53.000000,-12.000000,-1.000000,-4.000000,4.000000,7.000000
1312489.993650,-14.000000,-8.000000,-10.000000,9.000000,2.000000,4.000000,3.000000,2.000000
1312490.001210,-14.000000,-9.000000,5.000000,3.000000,-14.000000,4.000000,-10.000000,-26.000000
1312490.001220,22.000000,14.000000,-13.000000,-6.000000,-1.000000,-1.000000,5.000000,17.000000
1312490.023953,-21.000000,-14.000000,16.000000,-10.000000,1.000000,2.000000,-2.000000,-7.000000
1312490.023964,-3.000000,-7.000000,4.000000,16.000000,-5.000000,1.000000,-1.000000,7.000000
1312490.046393,5.000000,-5.000000,-15.000000,-2.000000,0.000000,-3.000000,-2.000000,4.000000
1312490.046425,6.000000,8.000000,13.000000,-15.000000,6.000000,1.000000,7.000000,3.000000
1312490.047341,3.000000,-1.000000,-17.000000,7.000000,15.000000,2.000000,-9.000000,-9.000000
1312490.047350,-14.000000,-6.000000,-8.000000,47.000000,-1.000000,-6.000000,-21.000000,2.000000
1312490.047897,16.000000,16.000000,6.000000,-18.000000,11.000000,-2.000000,8.000000,12.000000
1312490.047916,-6.000000,-10.000000,-24.000000,3.000000,-13.000000,5.000000,-2.000000,-20.000000
1312490.049105,11.000000,-1.000000,-9.000000,4.000000,9.000000,0.000000,-3.000000,-6.000000
1312490.049114,11.000000,-4.000000,22.000000,7.000000,-4.000000,6.000000,-1.000000,-4.000000
1312490.050066,15.000000,-8.000000,31.000000,0.000000,8.000000,6.000000,1.000000,0.000000
1312490.050075,-2.000000,7.000000,-32.000000,-4.000000,-3.000000,-4.000000,-7.000000,-8.000000
1312490.061961,-8.000000,-1.000000,16.000000,-9.000000,4.000000,-7.000000,-5.000000,0.000000
1312490.061970,1.000000,-8.000000,-12.000000,-6.000000,-4.000000,-1.000000,12.000000,23.000000
1312490.068798,-3.000000,-4.000000,5.000000,27.000000,1.000000,2.000000,-8.000000,-17.000000
1312490.068808,-2.000000,10.000000,47.000000,-33.000000,-15.000000,-6.000000,-2.000000,-5.000000
1312490.098834,-5.000000,-25.000000,-2.000000,32.000000,19.000000,4.000000,5.000000,4.000000
1312490.098845,-9.000000,-3.000000,6.000000,5.000000,-13.000000,-2.000000,3.000000,-11.000000
1312490.106317,7.000000,1.000000,-6.000000,-1.000000,-5.000000,-1.000000,-9.000000,0.000000
1312490.106333,10.000000,7.000000,-48.000000,-16.000000,3.000000,-3.000000,-5.000000,10.000000
1312490.143731,-4.000000,-8.000000,16.000000,-30.000000,-19.000000,-4.000000,-11.000000,-37.000000
1312490.143747,3.000000,4.000000,-15.000000,54.000000,45.000000,11.000000,14.000000,19.000000
1312490.144224,15.000000,10.000000,7.000000,-11.000000,7.000000,-5.000000,-5.000000,-13.000000
1312490.144236,-19.000000,4.000000,2.000000,34.000000,-10.000000,-4.000000,0.000000,0.000000
1312490.145481,0.000000,-9.000000,-24.000000,-2.000000,-14.000000,0.000000,2.000000,-4.000000
1312490.145507,1.000000,9.000000,-3.000000,-19.000000,0.000000,-3.000000,-5.000000,-5.000000
1312490.145997,7.000000,-14.000000,-38.000000,-23.000000,-9.000000,-3.000000,-8.000000,-10.000000
1312490.146005,-4.000000,-8.000000,65.000000,15.000000,-10.000000,0.000000,-4.000000,2.000000
1312490.147627,3.000000,3.000000,6.000000,12.000000,10.000000,0.000000,13.000000,11.000000
1312490.147649,7.000000,3.000000,16.000000,-20.000000,-2.000000,2.000000,-6.000000,-14.000000
1312490.150936,-21.000000,-10.000000,-7.000000,7.000000,-9.000000,-9.000000,-19.000000,1.000000
1312490.150945,17.000000,-19.000000,-10.000000,10.000000,7.000000,4.000000,10.000000,15.000000
1312490.159303,3.000000,10.000000,0.000000,-3.000000,2.000000,-6.000000,-15.000000,-4.000000
1312490.159314,-12.000000,-23.000000,-9.000000,-24.000000,-16.000000,-4.000000,-10.000000,-26.000000
1312490.166417,-8.000000,-15.000000,-22.000000,10.000000,-8.000000,5.000000,15.000000,15.000000
1312490.166429,5.000000,30.000000,22.000000,-32.000000,-5.000000,-12.000000,-15.000000,-12.000000
1312490.181918,-1.000000,-9.000000,11.000000,1.000000,-7.000000,-1.000000,1.000000,-5.000000
1312490.181929,-4.000000,-11.000000,-8.000000,-8.000000,0.000000,4.000000,5.000000,4.000000
1312490.188741,4.000000,4.000000,36.000000,9.000000,10.000000,1.000000,7.000000,23.000000
1312490.188798,-4.000000,4.000000,-53.000000,-35.000000,-7.000000,0.000000,5.000000,-8.000000
1312490.218954,-6.000000,-16.000000,37.000000,-6.000000,-19.000000,-11.000000,-9.000000,0.000000
1312490.218964,7.000000,1.000000,-30.000000,4.000000,3.000000,3.000000,-1.000000,-4.000000
1312490.226506,-21.000000,-3.000000,-4.000000,-11.000000,9.000000,-2.000000,-4.000000,-4.000000
1312490.226517,7.000000,11.000000,-19.000000,-17.000000,-10.000000,1.000000,3.000000,4.000000
1312490.263839,6.000000,3.000000,50.000000,25.000000,-3.000000,4.000000,2.000000,0.000000
1312490.263850,-10.000000,0.000000,-17.000000,-3.000000,4.000000,-7.000000,-15.000000,-22.000000
1312490.264440,2.000000,8.000000,5.000000,-19.000000,-8.000000,1.000000,13.000000,28.000000
1312490.264454,-2.000000,-12.000000,-9.000000,14.000000,-6.000000,3.000000,-4.000000,-15.000000
1312490.265309,5.000000,12.000000,2.000000,15.000000,6.000000,1.000000,-1.000000,-8.000000
1312490.265316,7.000000,10.000000,-5.000000,-7.000000,7.000000,-1.000000,-11.000000,0.000000
1312490.266011,0.000000,-17.000000,-5.000000,16.000000,-17.000000,-6.000000,-3.000000,7.000000
1312490.266019,-9.000000,-3.000000,-44.000000,-23.000000,-19.000000,-10.000000,-12.000000,-24.000000
1312490.267531,8.000000,9.000000,110.000000,-32.000000,-4.000000,-10.000000,-7.000000,-28.000000
1312490.267538,-4.000000,-7.000000,3.000000,-2.000000,-18.000000,0.000000,6.000000,12.000000
1312490.278937,0.000000,4.000000,-37.000000,-9.000000,-10.000000,-2.000000,-4.000000,-4.000000
1312490.278967,1.000000,-11.000000,-34.000000,-35.000000,-1.000000,-9.000000,1.000000,-1.000000
1312490.279965,3.000000,-14.000000,-5.000000,-7.000000,9.000000,6.000000,0.000000,-5.000000
1312490.279973,-15.000000,6.000000,58.000000,22.000000,-6.000000,5.000000,-17.000000,-33.000000
1312490.286292,-3.000000,-12.000000,-59.000000,-53.000000,-18.000000,-1.000000,7.000000,13.000000
1312490.286316,2.000000,10.000000,47.000000,64.000000,51.000000,14.000000,7.000000,4.000000
1312490.301751,4.000000,1.000000,-25.000000,4.000000,-8.000000,0.000000,-7.000000,-2.000000
1312490.301760,1.000000,3.000000,15.000000,-10.000000,-12.000000,-7.000000,-4.000000,-11.000000
1312490.309081,6.000000,6.000000,-43.000000,-18.000000,3.000000,-3.000000,4.000000,11.000000
1312490.309131,-20.000000,-8.000000,18.000000,17.000000,-4.000000,1.000000,-2.000000,-1.000000
1312490.338729,5.000000,11.000000,4.000000,11.000000,-4.000000,0.000000,0.000000,-13.000000
1312490.338757,13.000000,-2.000000,11.000000,-8.000000,0.000000,-7.000000,0.000000,-5.000000
1312490.346306,3.000000,-10.000000,-12.000000,-25.000000,-3.000000,-3.000000,-12.000000,-17.000000
1312490.346316,-24.000000,-21.000000,-23.000000,25.000000,1.000000,0.000000,-8.000000,5.000000
1312490.376809,26.000000,11.000000,-26.000000,-33.000000,-10.000000,2.000000,9.000000,8.000000
1312490.376932,16.000000,7.000000,16.000000,-18.000000,0.000000,-10.000000,-6.000000,17.000000
1312490.383918,-2.000000,-17.000000,-10.000000,-34.000000,-23.000000,-5.000000,-16.000000,-28.000000
1312490.383942,1.000000,18.000000,-1.000000,20.000000,26.000000,5.000000,10.000000,9.000000
1312490.384801,7.000000,-7.000000,6.000000,-18.000000,2.000000,-1.000000,-7.000000,-18.000000
1312490.384815,-9.000000,-7.000000,105.000000,7.000000,-9.000000,-1.000000,1.000000,5.000000
1312490.385476,1.000000,3.000000,12.000000,5.000000,-5.000000,-1.000000,2.000000,6.000000
1312490.385488,-11.000000,1.000000,-21.000000,-15.000000,-1.000000,-10.000000,-6.000000,-10.000000
1312490.387132,1.000000,-6.000000,-32.000000,-12.000000,-13.000000,5.000000,6.000000,10.000000
1312490.387153,5.000000,-6.000000,6.000000,79.000000,27.000000,8.000000,1.000000,-1.000000
1312490.398584,4.000000,7.000000,4.000000,-17.000000,-2.000000,-6.000000,-4.000000,-5.000000
1312490.398598,0.000000,-8.000000,-52.000000,3.000000,-2.000000,-5.000000,-3.000000,-3.000000
1312490.400370,-10.000000,1.000000,-40.000000,-11.000000,-19.000000,2.000000,-1.000000,-3.000000
1312490.400382,17.000000,5.000000,10.000000,1.000000,-7.000000,3.000000,10.000000,22.000000
1312490.413884,-25.000000,-8.000000,-49.000000,-52.000000,-6.000000,-4.000000,-3.000000,-16.000000
1312490.413897,2.000000,18.000000,36.000000,38.000000,15.000000,6.000000,-17.000000,-28.000000
1312490.421904,-7.000000,-9.000000,-17.000000,0.000000,-12.000000,-8.000000,4.000000,23.000000
1312490.421917,17.000000,21.000000,4.000000,-14.000000,3.000000,-2.000000,-12.000000,-20.000000
1312490.436515,-13.000000,-21.000000,-1.000000,-3.000000,-4.000000,-1.000000,5.000000,-8.000000
1312490.436525,0.000000,3.000000,-15.000000,19.000000,-12.000000,6.000000,-2.000000,-1.000000
1312490.459158,-4.000000,3.000000,81.000000,2.000000,1.000000,-4.000000,-8.000000,1.000000
1312490.459238,3.000000,-7.000000,-22.000000,-20.000000,-1.000000,-4.000000,5.000000,7.000000
1312490.466574,-4.000000,-17.000000,-30.000000,-5.000000,-24.000000,3.000000,5.000000,-1.000000
1312490.466607,3.000000,7.000000,21.000000,2.000000,-5.000000,-5.000000,-6.000000,-5.000000
1312490.481191,4.000000,6.000000,-30.000000,-17.000000,5.000000,-2.000000,2.000000,-3.000000
1312490.481201,6.000000,-4.000000,26.000000,-13.000000,-13.000000,-4.000000,-2.000000,0.000000
1312490.496541,-2.000000,-2.000000,9.000000,1.000000,-6.000000,4.000000,-4.000000,2.000000
1312490.496553,-2.000000,13.000000,2.000000,8.000000,29.000000,0.000000,-3.000000,-11.000000
1312490.518622,0.000000,-4.000000,-33.000000,-32.000000,-17.000000,-2.000000,0.000000,6.000000
1312490.518654,-3.000000,-1.000000,34.000000,26.000000,0.000000,5.000000,1.000000,8.000000
1312490.519147,8.000000,-1.000000,26.000000,33.000000,-3.000000,-6.000000,-4.000000,1.000000
1312490.519154,5.000000,-10.000000,-24.000000,-12.000000,3.000000,-3.000000,16.000000,11.000000
1312490.520289,-6.000000,-2.000000,-42.000000,-12.000000,-16.000000,1.000000,-13.000000,-8.000000
1312490.520298,-4.000000,6.000000,-25.000000,-39.000000,-25.000000,-8.000000,-12.000000,-32.000000
1312490.521066,7.000000,1.000000,7.000000,-5.000000,1.000000,-3.000000,7.000000,6.000000
1312490.521075,-15.000000,-6.000000,-16.000000,3.000000,3.000000,-3.000000,5.000000,8.000000
1312490.522684,1.000000,15.000000,17.000000,-6.000000,-1.000000,3.000000,-6.000000,-2.000000
1312490.522697,0.000000,1.000000,-53.000000,-17.000000,22.000000,0.000000,-5.000000,-5.000000
1312490.541161,0.000000,-1.000000,11.000000,-18.000000,-19.000000,-6.000000,-6.000000,-10.000000
1312490.541193,-4.000000,0.000000,21.000000,25.000000,4.000000,5.000000,6.000000,7.000000
1312490.542602,-2.000000,4.000000,-21.000000,-20.000000,-10.000000,-11.000000,-18.000000,0.000000
1312490.542610,8.000000,-4.000000,5.000000,2.000000,-2.000000,-2.000000,14.000000,17.000000
1312490.556761,-6.000000,-19.000000,-24.000000,-10.000000,-7.000000,4.000000,-1.000000,-13.000000
1312490.556792,1.000000,5.000000,40.000000,1.000000,-4.000000,-4.000000,-2.000000,3.000000
1312490.579215,-1.000000,-2.000000,12.000000,-3.000000,18.000000,-2.000000,1.000000,-9.000000
1312490.579239,8.000000,-10.000000,-11.000000,22.000000,16.000000,4.000000,5.000000,12.000000
1312490.601482,-10.000000,7.000000,-27.000000,-14.000000,-8.000000,-1.000000,-5.000000,-4.000000
1312490.601492,14.000000,6.000000,-24.000000,-13.000000,2.000000,-3.000000,2.000000,-3.000000
1312490.623599,-15.000000,10.000000,-20.000000,16.000000,11.000000,0.000000,3.000000,1.000000
1312490.623609,-8.000000,-21.000000,4.000000,0.000000,-13.000000,0.000000,5.000000,-7.000000
1312490.638852,15.000000,4.000000,-19.000000,-13.000000,1.000000,-2.000000,-7.000000,12.000000
1312490.638864,-25.000000,-11.000000,-53.000000,-8.000000,3.000000,3.000000,3.000000,-8.000000
1312490.661294,-2.000000,6.000000,23.000000,16.000000,-1.000000,2.000000,-1.000000,2.000000
1312490.661313,16.000000,14.000000,-12.000000,3.000000,15.000000,3.000000,-3.000000,-6.000000
1312490.676498,-5.000000,3.000000,25.000000,0.000000,5.000000,1.000000,6.000000,15.000000
1312490.676509,-4.000000,-19.000000,-14.000000,16.000000,-6.000000,-4.000000,-8.000000,0.000000
1312490.698824,-14.000000,6.000000,3.000000,63.000000,31.000000,9.000000,3.000000,-14.000000
1312490.698853,6.000000,1.000000,-4.000000,4.000000,7.000000,-6.000000,-27.000000,-1.000000
1312490.699369,-13.000000,-7.000000,13.000000,-10.000000,-9.000000,1.000000,-4.000000,-26.000000
1312490.699377,8.000000,2.000000,-13.000000,11.000000,-9.000000,2.000000,8.000000,27.000000
1312490.699865,19.000000,1.000000,-23.000000,-14.000000,-1.000000,-5.000000,4.000000,-13.000000
1312490.699894,-12.000000,0.000000,60.000000,9.000000,0.000000,2.000000,-5.000000,-5.000000
1312490.701080,3.000000,7.000000,10.000000,-13.000000,-10.000000,-2.000000,-1.000000,2.000000
1312490.701107,6.000000,14.000000,15.000000,1.000000,10.000000,-2.000000,-1.000000,-7.000000
1312490.701816,21.000000,19.000000,-8.000000,-18.000000,-7.000000,3.000000,6.000000,13.000000
1312490.701824,-7.000000,17.000000,-8.000000,33.000000,-5.000000,3.000000,2.000000,-27.000000
1312490.702583,-8.000000,-6.000000,-38.000000,-20.000000,2.000000,-9.000000,-4.000000,16.000000
1312490.702592,11.000000,12.000000,32.000000,7.000000,1.000000,2.000000,-4.000000,-26.000000
1312490.713690,10.000000,7.000000,25.000000,-42.000000,-16.000000,-8.000000,1.000000,-7.000000
1312490.713719,-3.000000,-4.000000,-10.000000,13.000000,9.000000,4.000000,-10.000000,-13.000000
1312490.721778,-9.000000,-2.000000,8.000000,6.000000,1.000000,-1.000000,0.000000,16.000000
1312490.721787,-6.000000,11.000000,-54.000000,-24.000000,0.000000,0.000000,6.000000,-21.000000
1312490.736468,-10.000000,-21.000000,10.000000,-4.000000,4.000000,-3.000000,1.000000,23.000000
1312490.736480,-5.000000,2.000000,29.000000,16.000000,-6.000000,2.000000,-11.000000,-46.000000
1312490.737454,-3.000000,5.000000,-48.000000,-7.000000,4.000000,-4.000000,-2.000000,23.000000
1312490.737463,3.000000,17.000000,6.000000,19.000000,3.000000,2.000000,1.000000,-17.000000
1312490.758684,-16.000000,-27.000000,-33.000000,22.000000,-12.000000,0.000000,-4.000000,-4.000000
1312490.758695,7.000000,19.000000,5.000000,-1.000000,14.000000,1.000000,2.000000,-1.000000
1312490.759967,-4.000000,9.000000,19.000000,-17.000000,0.000000,-1.000000,-1.000000,-6.000000
1312490.759990,5.000000,0.000000,4.000000,1.000000,13.000000,3.000000,2.000000,13.000000
1312490.773932,-2.000000,-2.000000,-13.000000,19.000000,4.000000,0.000000,3.000000,5.000000
1312490.773946,3.000000,1.000000,-17.000000,-35.000000,-4.000000,-5.000000,-4.000000,-10.000000
1312490.781554,0.000000,-17.000000,14.000000,16.000000,-15.000000,-3.000000,-2.000000,2.000000
1312490.781566,-6.000000,12.000000,24.000000,24.000000,3.000000,3.000000,1.000000,15.000000
1312490.789005,-12.000000,9.000000,3.000000,-23.000000,5.000000,-12.000000,-8.000000,-14.000000
1312490.789017,-4.000000,-10.000000,-2.000000,4.000000,0.000000,-1.000000,-4.000000,-7.000000
1312490.818840,22.000000,6.000000,5.000000,15.000000,-4.000000,3.000000,3.000000,6.000000
1312490.818851,0.000000,-3.000000,2.000000,14.000000,-1.000000,-2.000000,-4.000000,-13.000000
1312490.826563,-4.000000,-4.000000,-22.000000,-24.000000,-6.000000,-3.000000,2.000000,3.000000
1312490.826575,-7.000000,-18.000000,-3.000000,11.000000,-9.000000,-8.000000,-7.000000,6.000000
1312490.841328,0.000000,24.000000,-38.000000,5.000000,2.000000,1.000000,3.000000,-10.000000
1312490.841350,-5.000000,2.000000,30.000000,-26.000000,6.000000,-7.000000,-4.000000,-10.000000
1312490.848727,11.000000,-2.000000,-17.000000,20.000000,9.000000,5.000000,-2.000000,-20.000000
1312490.848749,-26.000000,-17.000000,0.000000,13.000000,-11.000000,-3.000000,-7.000000,21.000000
1312490.856620,8.000000,16.000000,-6.000000,-2.000000,18.000000,2.000000,3.000000,-12.000000
1312490.856662,1.000000,9.000000,36.000000,52.000000,8.000000,7.000000,1.000000,1.000000
1312490.857147,10.000000,-7.000000,25.000000,-5.000000,4.000000,6.000000,3.000000,-2.000000
1312490.857156,-11.000000,11.000000,-7.000000,12.000000,-6.000000,-8.000000,-8.000000,-9.000000
1312490.858798,32.000000,6.000000,-41.000000,-24.000000,3.000000,1.000000,8.000000,22.000000
1312490.858824,4.000000,5.000000,-7.000000,5.000000,-10.000000,4.000000,1.000000,2.000000
1312490.878774,-3.000000,4.000000,-13.000000,5.000000,0.000000,-3.000000,-5.000000,-12.000000
1312490.878803,10.000000,11.000000,-2.000000,-23.000000,-1.000000,-4.000000,-10.000000,-12.000000
1312490.880392,-11.000000,-10.000000,-7.000000,12.000000,-2.000000,3.000000,9.000000,17.000000
1312490.880403,6.000000,-28.000000,-21.000000,-4.000000,8.000000,2.000000,-9.000000,3.000000
1312490.893587,2.000000,27.000000,31.000000,-5.000000,0.000000,-6.000000,-8.000000,-25.000000
1312490.893603,7.000000,-1.000000,-49.000000,-9.000000,-10.000000,-2.000000,6.000000,14.000000
1312490.901111,-3.000000,-13.000000,103.000000,67.000000,3.000000,6.000000,16.000000,1.000000
1312490.901120,3.000000,19.000000,-16.000000,-10.000000,-10.000000,-6.000000,-17.000000,-29.000000
1312490.916545,-22.000000,-6.000000,-1.000000,-14.000000,-7.000000,-6.000000,-3.000000,1.000000
1312490.916558,-5.000000,-10.000000,-21.000000,8.000000,2.000000,3.000000,0.000000,-10.000000
1312490.939077,3.000000,-4.000000,-32.000000,4.000000,17.000000,1.000000,3.000000,4.000000
1312490.939127,0.000000,2.000000,26.000000,-27.000000,6.000000,-3.000000,-2.000000,0.000000
1312490.953899,1.000000,0.000000,-25.000000,4.000000,-4.000000,0.000000,2.000000,-3.000000
1312490.953909,0.000000,1.000000,-15.000000,28.000000,8.000000,7.000000,2.000000,-4.000000
1312490.977132,15.000000,1.000000,-12.000000,-9.000000,3.000000,-8.000000,-5.000000,14.000000
1312490.977167,-7.000000,-4.000000,-1.000000,-12.000000,0.000000,6.000000,14.000000,32.000000
1312490.977666,-5.000000,-5.000000,6.000000,6.000000,-13.000000,2.000000,16.000000,-14.000000
1312490.977695,4.000000,1.000000,-17.000000,-15.000000,-1.000000,-4.000000,-20.000000,-26.000000
1312490.979010,-43.000000,-20.000000,23.000000,19.000000,12.000000,3.000000,1.000000,18.000000
1312490.979042,4.000000,-1.000000,-29.000000,-1.000000,-7.000000,-1.000000,-2.000000,0.000000
1312490.979648,8.000000,12.000000,-11.000000,4.000000,2.000000,4.000000,2.000000,-6.000000
1312490.979675,5.000000,26.000000,-15.000000,-6.000000,18.000000,-1.000000,3.000000,5.000000
1312490.984255,-3.000000,-21.000000,-37.000000,-8.000000,-5.000000,-3.000000,3.000000,-8.000000
1312490.984265,-9.000000,-7.000000,16.000000,7.000000,-8.000000,1.000000,-2.000000,-1.000000
1312490.991243,4.000000,14.000000,-49.000000,-26.000000,0.000000,-6.000000,-3.000000,0.000000
1312490.991261,-5.000000,-2.000000,-3.000000,21.000000,-14.000000,-2.000000,-1.000000,2.000000
1312490.998596,4.000000,-6.000000,36.000000,72.000000,14.000000,9.000000,10.000000,19.000000
1312490.998606,8.000000,13.000000,0.000000,-24.000000,-4.000000,-5.000000,4.000000,3.000000
1312491.013818,-6.000000,0.000000,-13.000000,-13.000000,4.000000,3.000000,-7.000000,-14.000000
1312491.013834,10.000000,-2.000000,-9.000000,6.000000,-26.000000,-3.000000,-5.000000,2.000000
1312491.029312,6.000000,7.000000,24.000000,3.000000,38.000000,8.000000,1.000000,2.000000
1312491.029365,6.000000,14.000000,0.000000,12.000000,22.000000,4.000000,9.000000,9.000000
1312491.036191,3.000000,-26.000000,4.000000,11.000000,-11.000000,-2.000000,2.000000,12.000000
1312491.036200,-15.000000,-4.000000,10.000000,10.000000,-7.000000,0.000000,-7.000000,-11.000000
1312491.059009,3.000000,2.000000,3.000000,-11.000000,6.000000,-6.000000,-5.000000,1.000000
1312491.059022,3.000000,-1.000000,-9.000000,-3.000000,3.000000,4.000000,-7.000000,8.000000
1312491.066576,-3.000000,-29.000000,50.000000,25.000000,-4.000000,-1.000000,4.000000,9.000000
1312491.066589,-5.000000,22.000000,-18.000000,3.000000,-2.000000,-3.000000,-6.000000,-5.000000
1312491.098211,1.000000,-13.000000,-35.000000,-28.000000,-5.000000,-8.000000,10.000000,19.000000
1312491.098677,-4.000000,-5.000000,-17.000000,13.000000,-10.000000,4.000000,-5.000000,-5.000000
1312491.100408,-13.000000,-29.000000,16.000000,-2.000000,-5.000000,-4.000000,-6.000000,-5.000000
1312491.100454,-1.000000,3.000000,-8.000000,-17.000000,-1.000000,-4.000000,3.000000,0.000000
1312491.102341,2.000000,-8.000000,-12.000000,26.000000,7.000000,2.000000,-5.000000,-9.000000
1312491.102385,1.000000,7.000000,14.000000,-6.000000,-18.000000,-3.000000,4.000000,8.000000
1312491.103375,7.000000,-5.000000,31.000000,42.000000,45.000000,7.000000,6.000000,5.000000
1312491.103392,6.000000,8.000000,5.000000,-15.000000,-12.000000,-5.000000,-16.000000,-2.000000
1312491.112431,-14.000000,-9.000000,0.000000,0.000000,-18.000000,-13.000000,-10.000000,-5.000000
1312491.112530,1.000000,-2.000000,-27.000000,-37.000000,-13.000000,-9.000000,3.000000,-13.000000
1312491.112940,-15.000000,3.000000,1.000000,1.000000,6.000000,3.000000,-5.000000,3.000000
1312491.112987,6.000000,-13.000000,-16.000000,4.000000,-4.000000,1.000000,4.000000,17.000000
1312491.119432,8.000000,1.000000,1.000000,10.000000,-1.000000,5.000000,1.000000,-30.000000
1312491.119460,5.000000,12.000000,11.000000,-13.000000,6.000000,-4.000000,-3.000000,14.000000
1312491.134200,-2.000000,-6.000000,-3.000000,18.000000,21.000000,7.000000,5.000000,-10.000000
1312491.134213,-13.000000,-13.000000,15.000000,39.000000,-1.000000,1.000000,-1.000000,0.000000
1312491.156463,10.000000,-3.000000,-15.000000,-22.000000,-1.000000,-8.000000,-6.000000,-5.000000
1312491.156486,-1.000000,4.000000,-23.000000,-8.000000,-1.000000,-2.000000,0.000000,6.000000
1312491.171528,-1.000000,0.000000,-26.000000,0.000000,-12.000000,-3.000000,-4.000000,3.000000
1312491.171538,-1.000000,3.000000,39.000000,12.000000,6.000000,-5.000000,-4.000000,-10.000000
1312491.193801,-9.000000,8.000000,6.000000,-12.000000,-1.000000,1.000000,8.000000,6.000000
1312491.193959,-3.000000,-4.000000,-56.000000,-2.000000,-6.000000,0.000000,-6.000000,-18.000000
1312491.195018,3.000000,-26.000000,30.000000,-1.000000,-9.000000,-1.000000,2.000000,11.000000
1312491.195058,-4.000000,12.000000,6.000000,-24.000000,3.000000,-10.000000,-5.000000,2.000000
1312491.195921,-8.000000,-6.000000,15.000000,4.000000,-6.000000,-2.000000,2.000000,-25.000000
1312491.195956,-8.000000,1.000000,3.000000,4.000000,-14.000000,-2.000000,-11.000000,8.000000
1312491.196257,21.000000,23.000000,-29.000000,-35.000000,17.000000,1.000000,-3.000000,-4.000000
1312491.196284,-1.000000,-16.000000,-10.000000,26.000000,5.000000,1.000000,-3.000000,-6.000000
1312491.208698,-2.000000,11.000000,3.000000,-2.000000,-19.000000,-2.000000,9.000000,9.000000
1312491.208728,-19.000000,-3.000000,-70.000000,-4.000000,18.000000,-1.000000,-9.000000,-11.000000
1312491.209176,8.000000,14.000000,49.000000,4.000000,-5.000000,-2.000000,2.000000,15.000000
1312491.209184,13.000000,4.000000,-11.000000,8.000000,-4.000000,3.000000,0.000000,-8.000000
1312491.231200,-10.000000,-9.000000,-13.000000,-16.000000,0.000000,-5.000000,-11.000000,6.000000
1312491.231223,1.000000,3.000000,-2.000000,20.000000,26.000000,2.000000,0.000000,-2.000000
1312491.253758,0.000000,8.000000,51.000000,17.000000,-8.000000,5.000000,5.000000,2.000000
1312491.253767,-7.000000,-5.000000,-63.000000,-15.000000,-11.000000,-2.000000,-1.000000,-7.000000
1312491.276276,13.000000,10.000000,41.000000,31.000000,48.000000,5.000000,1.000000,-1.000000
1312491.276300,2.000000,-6.000000,9.000000,4.000000,-4.000000,0.000000,3.000000,8.000000
1312491.291246,2.000000,-4.000000,18.000000,1.000000,-16.000000,-2.000000,-1.000000,-5.000000
1312491.291256,-2.000000,-7.000000,-16.000000,-24.000000,-5.000000,-5.000000,-11.000000,-27.000000
1312491.313687,-10.000000,2.000000,39.000000,17.000000,-14.000000,-1.000000,5.000000,15.000000
1312491.313697,0.000000,-8.000000,-54.000000,-13.000000,-4.000000,5.000000,11.000000,-13.000000
1312491.314963,-1.000000,-7.000000,55.000000,9.000000,5.000000,-4.000000,-6.000000,16.000000
1312491.315004,7.000000,2.000000,-85.000000,-30.000000,0.000000,-8.000000,-7.000000,-23.000000
1312491.315565,5.000000,-5.000000,27.000000,43.000000,3.000000,5.000000,3.000000,12.000000
1312491.315574,13.000000,7.000000,10.000000,-4.000000,-9.000000,3.000000,30.000000,33.000000
1312491.316273,-34.000000,-20.000000,-18.000000,12.000000,-1.000000,0.000000,-6.000000,-20.000000
1312491.316292,5.000000,19.000000,10.000000,7.000000,21.000000,4.000000,4.000000,24.000000
1312491.317610,-1.000000,-12.000000,2.000000,17.000000,0.000000,0.000000,10.000000,6.000000
1312491.317620,0.000000,-7.000000,3.000000,8.000000,-17.000000,0.000000,-1.000000,-3.000000
1312491.328930,7.000000,12.000000,20.000000,11.000000,4.000000,2.000000,9.000000,-3.000000
1312491.328941,16.000000,7.000000,-1.000000,-16.000000,-1.000000,2.000000,-1.000000,20.000000
1312491.351393,1.000000,-10.000000,8.000000,12.000000,-1.000000,-2.000000,5.000000,4.000000
1312491.351429,-4.000000,-3.000000,10.000000,-3.000000,3.000000,0.000000,-2.000000,-5.000000
1312491.351815,-6.000000,3.000000,-43.000000,-5.000000,9.000000,-2.000000,-1.000000,-31.000000
1312491.351823,5.000000,19.000000,75.000000,-3.000000,-3.000000,3.000000,0.000000,27.000000
1312491.353211,-10.000000,-9.000000,48.000000,35.000000,15.000000,-2.000000,-5.000000,-15.000000
1312491.353239,-1.000000,-4.000000,-57.000000,-17.000000,4.000000,-6.000000,-3.000000,-6.000000
1312491.373834,31.000000,13.000000,83.000000,-12.000000,-12.000000,1.000000,2.000000,6.000000
1312491.373845,-18.000000,8.000000,8.000000,10.000000,-4.000000,6.000000,3.000000,1.000000
1312491.375034,-11.000000,1.000000,-29.000000,11.000000,3.000000,0.000000,0.000000,2.000000
1312491.375043,1.000000,4.000000,32.000000,22.000000,0.000000,0.000000,-1.000000,-9.000000
1312491.381234,-10.000000,-11.000000,-22.000000,-17.000000,-13.000000,1.000000,-2.000000,-3.000000
1312491.381258,-8.000000,-10.000000,6.000000,49.000000,10.000000,1.000000,-1.000000,39.000000
1312491.449359,10.000000,12.000000,0.000000,-31.000000,-6.000000,-10.000000,1.000000,-2.000000
1312491.449374,0.000000,12.000000,15.000000,6.000000,-7.000000,-2.000000,-1.000000,-6.000000
1312491.449878,-2.000000,2.000000,-13.000000,8.000000,4.000000,3.000000,-3.000000,-30.000000
1312491.449961,-10.000000,-8.000000,-58.000000,-3.000000,2.000000,-7.000000,2.000000,18.000000
1312491.451404,1.000000,-6.000000,-3.000000,-19.000000,-2.000000,-7.000000,-4.000000,19.000000
1312491.451422,-7.000000,1.000000,5.000000,3.000000,-16.000000,-2.000000,-7.000000,-18.000000
1312491.451762,6.000000,-2.000000,7.000000,-27.000000,-6.000000,-7.000000,-4.000000,-6.000000
1312491.451789,3.000000,-9.000000,19.000000,48.000000,14.000000,2.000000,1.000000,-5.000000
1312491.456262,-4.000000,6.000000,-12.000000,7.000000,1.000000,4.000000,-7.000000,0.000000
1312491.456277,-3.000000,4.000000,44.000000,-13.000000,1.000000,-9.000000,-15.000000,-1.000000
1312491.471149,4.000000,-17.000000,-30.000000,10.000000,-6.000000,4.000000,2.000000,-1.000000
1312491.471159,10.000000,0.000000,11.000000,-22.000000,-8.000000,2.000000,10.000000,1.000000
1312491.472728,0.000000,8.000000,51.000000,8.000000,11.000000,-3.000000,0.000000,4.000000
1312491.472745,13.000000,3.000000,-27.000000,-14.000000,-2.000000,5.000000,17.000000,40.000000
1312491.486314,8.000000,8.000000,-22.000000,36.000000,10.000000,5.000000,10.000000,-11.000000
1312491.486323,-20.000000,-43.000000,9.000000,-7.000000,-10.000000,-3.000000,-21.000000,-39.000000
1312491.494888,-15.000000,-9.000000,-19.000000,-42.000000,-9.000000,-12.000000,-1.000000,11.000000
1312491.494916,14.000000,22.000000,-33.000000,62.000000,16.000000,6.000000,10.000000,-9.000000
1312491.508784,-1.000000,-23.000000,24.000000,-21.000000,-15.000000,-1.000000,-1.000000,8.000000
1312491.508793,-4.000000,9.000000,31.000000,3.000000,5.000000,-5.000000,-2.000000,1.000000
1312491.554031,7.000000,4.000000,2.000000,-11.000000,-4.000000,0.000000,5.000000,6.000000
1312491.554054,3.000000,-5.000000,-18.000000,-3.000000,-10.000000,3.000000,-5.000000,-4.000000
1312491.568797,11.000000,1.000000,6.000000,16.000000,5.000000,-4.000000,-6.000000,-11.000000
1312491.568825,-27.000000,3.000000,12.000000,-24.000000,-7.000000,-7.000000,-9.000000,-6.000000
1312491.591330,1.000000,-5.000000,23.000000,9.000000,-17.000000,3.000000,4.000000,4.000000
1312491.591366,14.000000,10.000000,1.000000,9.000000,13.000000,-2.000000,-5.000000,-1.000000
1312491.591944,-6.000000,-17.000000,13.000000,21.000000,24.000000,4.000000,3.000000,-3.000000
1312491.591974,-3.000000,7.000000,69.000000,-2.000000,-9.000000,-3.000000,-3.000000,-3.000000
1312491.593088,3.000000,-13.000000,-3.000000,-15.000000,-15.000000,1.000000,-2.000000,-2.000000
1312491.593097,-2.000000,3.000000,-9.000000,-4.000000,1.000000,-3.000000,2.000000,3.000000
1312491.594927,7.000000,-5.000000,-18.000000,1.000000,4.000000,7.000000,11.000000,6.000000
1312491.594947,2.000000,4.000000,8.000000,-36.000000,-21.000000,-4.000000,-3.000000,-10.000000
1312491.606320,21.000000,16.000000,6.000000,-5.000000,-13.000000,-3.000000,3.000000,11.000000
1312491.606349,7.000000,5.000000,-19.000000,30.000000,32.000000,1.000000,-10.000000,-7.000000
1312491.614459,-7.000000,-13.000000,-17.000000,-34.000000,-11.000000,-3.000000,-6.000000,-11.000000
1312491.614487,-7.000000,1.000000,110.000000,5.000000,-8.000000,2.000000,2.000000,1.000000
1312491.621669,0.000000,3.000000,-22.000000,-17.000000,-9.000000,-3.000000,-4.000000,-1.000000
1312491.621689,3.000000,0.000000,30.000000,-2.000000,0.000000,0.000000,1.000000,5.000000
1312491.651459,-25.000000,-24.000000,-36.000000,2.000000,-8.000000,2.000000,3.000000,2.000000
1312491.651470,12.000000,21.000000,42.000000,-3.000000,1.000000,-2.000000,-5.000000,-7.000000
1312491.666320,-3.000000,-3.000000,0.000000,-30.000000,-11.000000,-8.000000,1.000000,8.000000
1312491.666348,-12.000000,-8.000000,-15.000000,30.000000,6.000000,1.000000,0.000000,12.000000
1312491.688971,6.000000,4.000000,16.000000,10.000000,-3.000000,5.000000,6.000000,16.000000
1312491.689063,0.000000,10.000000,-3.000000,-16.000000,2.000000,-11.000000,-30.000000,-24.000000
1312491.689305,-4.000000,-12.000000,-86.000000,-19.000000,-12.000000,-4.000000,-6.000000,-16.000000
1312491.689324,-2.000000,-13.000000,67.000000,54.000000,15.000000,1.000000,6.000000,4.000000
1312491.690505,6.000000,23.000000,100.000000,-3.000000,-2.000000,5.000000,16.000000,21.000000
1312491.690514,7.000000,-6.000000,-2.000000,-49.000000,-14.000000,-13.000000,-12.000000,-14.000000
1312491.691345,9.000000,15.000000,6.000000,65.000000,-4.000000,8.000000,5.000000,9.000000
1312491.691412,1.000000,5.000000,-17.000000,-1.000000,-1.000000,0.000000,-4.000000,-5.000000
1312491.696773,-16.000000,-26.000000,-14.000000,-53.000000,-6.000000,-7.000000,-5.000000,-5.000000
1312491.696789,-1.000000,9.000000,2.000000,33.000000,18.000000,6.000000,0.000000,4.000000
1312491.711420,4.000000,-2.000000,10.000000,8.000000,-8.000000,-4.000000,-5.000000,-1.000000
1312491.711453,-1.000000,6.000000,-4.000000,-16.000000,11.000000,-9.000000,1.000000,-2.000000
1312491.712512,6.000000,-5.000000,-1.000000,3.000000,-4.000000,-1.000000,-3.000000,-2.000000
1312491.712524,-6.000000,-12.000000,-24.000000,-2.000000,-11.000000,4.000000,12.000000,29.000000
1312491.726429,0.000000,9.000000,-13.000000,4.000000,10.000000,-1.000000,-3.000000,-14.000000
1312491.726441,6.000000,7.000000,31.000000,-2.000000,-6.000000,-6.000000,-5.000000,3.000000
1312491.748914,-6.000000,0.000000,32.000000,-9.000000,-21.000000,4.000000,3.000000,-15.000000
1312491.748925,-15.000000,0.000000,30.000000,1.000000,-14.000000,-1.000000,19.000000,29.000000
1312491.763800,23.000000,-11.000000,-76.000000,-45.000000,4.000000,-5.000000,-20.000000,-9.000000
1312491.763810,-1.000000,-11.000000,-16.000000,-2.000000,-5.000000,0.000000,-5.000000,-12.000000
1312491.779810,-10.000000,7.000000,27.000000,23.000000,-7.000000,-3.000000,1.000000,-7.000000
1312491.779841,9.000000,11.000000,-2.000000,-43.000000,-14.000000,-4.000000,5.000000,9.000000
1312491.786795,-9.000000,-9.000000,-4.000000,-1.000000,-4.000000,0.000000,-21.000000,-33.000000
1312491.786833,-4.000000,-5.000000,-18.000000,31.000000,-6.000000,0.000000,-1.000000,5.000000
1312491.809121,14.000000,6.000000,-4.000000,-28.000000,1.000000,-1.000000,8.000000,8.000000
1312491.809146,-4.000000,-10.000000,58.000000,10.000000,0.000000,-6.000000,5.000000,-1.000000
1312491.809908,-10.000000,-10.000000,7.000000,1.000000,-10.000000,2.000000,1.000000,4.000000
1312491.809918,10.000000,10.000000,-17.000000,-11.000000,-4.000000,0.000000,1.000000,-4.000000
1312491.811114,-7.000000,2.000000,12.000000,-11.000000,-1.000000,-6.000000,-5.000000,-13.000000
1312491.811123,0.000000,5.000000,9.000000,19.000000,-6.000000,5.000000,5.000000,7.000000
1312491.811774,2.000000,5.000000,-42.000000,-25.000000,-16.000000,-5.000000,-4.000000,-2.000000
1312491.811783,6.000000,-20.000000,7.000000,17.000000,12.000000,-1.000000,4.000000,5.000000
1312491.823812,0.000000,12.000000,-28.000000,22.000000,16.000000,0.000000,-7.000000,-3.000000
1312491.823841,9.000000,-10.000000,-65.000000,-8.000000,2.000000,1.000000,2.000000,9.000000
1312491.832078,-1.000000,-4.000000,-12.000000,-3.000000,-15.000000,2.000000,3.000000,3.000000
1312491.832108,-8.000000,-11.000000,14.000000,4.000000,-8.000000,-1.000000,-14.000000,-22.000000
1312491.846500,5.000000,25.000000,28.000000,9.000000,-1.000000,-5.000000,7.000000,31.000000
1312491.846516,-5.000000,-3.000000,-16.000000,0.000000,-7.000000,0.000000,1.000000,-11.000000
1312491.861333,-4.000000,-13.000000,5.000000,16.000000,17.000000,5.000000,-1.000000,-12.000000
1312491.861362,9.000000,5.000000,25.000000,-6.000000,0.000000,-5.000000,-7.000000,-9.000000
1312491.868861,-12.000000,-8.000000,-13.000000,13.000000,2.000000,-1.000000,-11.000000,-1.000000
1312491.868871,-6.000000,-1.000000,-50.000000,-6.000000,-7.000000,-5.000000,-7.000000,-5.000000
1312491.891287,-5.000000,7.000000,0.000000,-15.000000,1.000000,-7.000000,-2.000000,-4.000000
1312491.891297,4.000000,-6.000000,-18.000000,8.000000,-5.000000,3.000000,-2.000000,-15.000000
1312491.906326,-4.000000,-14.000000,32.000000,47.000000,20.000000,8.000000,22.000000,31.000000
1312491.906338,8.000000,-2.000000,-72.000000,2.000000,7.000000,3.000000,0.000000,17.000000
1312491.951354,13.000000,-4.000000,-1.000000,-22.000000,0.000000,-10.000000,-3.000000,-14.000000
1312491.951369,-8.000000,0.000000,-1.000000,-16.000000,-9.000000,1.000000,-5.000000,-2.000000
1312491.966545,-12.000000,-9.000000,16.000000,10.000000,-4.000000,1.000000,-1.000000,-1.000000
1312491.966566,0.000000,-8.000000,43.000000,71.000000,67.000000,11.000000,15.000000,8.000000
1312491.988929,-4.000000,5.000000,-13.000000,12.000000,4.000000,5.000000,-12.000000,-11.000000
1312491.988942,17.000000,-2.000000,12.000000,-9.000000,-15.000000,-4.000000,-10.000000,-12.000000
1312492.003930,0.000000,2.000000,2.000000,-6.000000,4.000000,1.000000,3.000000,6.000000
1312492.003943,15.000000,2.000000,-71.000000,-11.000000,1.000000,0.000000,12.000000,0.000000
1312492.011619,14.000000,9.000000,6.000000,-17.000000,-1.000000,-2.000000,0.000000,-4.000000
1312492.011630,-11.000000,-11.000000,5.000000,5.000000,1.000000,3.000000,-5.000000,-19.000000
1312492.012353,5.000000,11.000000,-8.000000,1.000000,-1.000000,3.000000,0.000000,-4.000000
1312492.012363,10.000000,-3.000000,-15.000000,-3.000000,-22.000000,-2.000000,-5.000000,-10.000000
1312492.013033,-9.000000,-9.000000,-10.000000,51.000000,-22.000000,0.000000,-6.000000,0.000000
1312492.013048,4.000000,6.000000,114.000000,2.000000,-4.000000,-3.000000,-2.000000,3.000000
1312492.013897,3.000000,-4.000000,6.000000,-20.000000,3.000000,-2.000000,-5.000000,-15.000000
1312492.013918,-6.000000,-6.000000,-10.000000,9.000000,-8.000000,-3.000000,-1.000000,4.000000
1312492.014443,-1.000000,2.000000,-11.000000,-15.000000,-9.000000,-4.000000,2.000000,-7.000000
1312492.014510,7.000000,-11.000000,-5.000000,-20.000000,3.000000,-5.000000,1.000000,-5.000000
1312492.026284,-5.000000,12.000000,6.000000,-12.000000,-3.000000,-4.000000,0.000000,5.000000
1312492.026301,3.000000,1.000000,10.000000,10.000000,0.000000,3.000000,10.000000,10.000000
1312492.041852,0.000000,-7.000000,-11.000000,10.000000,-12.000000,-2.000000,-7.000000,-6.000000
1312492.041862,1.000000,4.000000,-16.000000,-13.000000,0.000000,-1.000000,1.000000,4.000000
1312492.042600,-3.000000,-8.000000,24.000000,5.000000,6.000000,5.000000,1.000000,3.000000
1312492.042615,-5.000000,-11.000000,-78.000000,4.000000,-9.000000,-6.000000,-11.000000,-5.000000
1312492.063559,4.000000,17.000000,18.000000,-1.000000,4.000000,1.000000,-3.000000,0.000000
1312492.063570,11.000000,1.000000,-29.000000,-22.000000,-4.000000,-5.000000,-2.000000,-1.000000
1312492.064345,-6.000000,-2.000000,20.000000,11.000000,-8.000000,-4.000000,-4.000000,1.000000
1312492.064354,7.000000,10.000000,-42.000000,-26.000000,-19.000000,-1.000000,5.000000,8.000000
1312492.086971,-10.000000,15.000000,26.000000,-23.000000,3.000000,-6.000000,-4.000000,-11.000000
1312492.086982,8.000000,-1.000000,-14.000000,44.000000,10.000000,3.000000,-1.000000,-5.000000
1312492.087681,-20.000000,-31.000000,15.000000,8.000000,-6.000000,1.000000,-2.000000,-8.000000
1312492.087688,10.000000,16.000000,-2.000000,-46.000000,-19.000000,-5.000000,1.000000,14.000000
1312492.101690,14.000000,4.000000,19.000000,31.000000,23.000000,4.000000,5.000000,8.000000
1312492.101718,-17.000000,-9.000000,5.000000,-5.000000,-13.000000,3.000000,7.000000,3.000000
1312492.102513,13.000000,15.000000,-29.000000,18.000000,30.000000,7.000000,2.000000,1.000000
1312492.102539,-21.000000,-2.000000,4.000000,-19.000000,5.000000,-5.000000,1.000000,-2.000000
1312492.123741,-5.000000,-7.000000,-31.000000,14.000000,3.000000,5.000000,-2.000000,-16.000000
1312492.123751,12.000000,16.000000,22.000000,-7.000000,-15.000000,3.000000,6.000000,8.000000
1312492.146697,3.000000,19.000000,-30.000000,3.000000,25.000000,-5.000000,-6.000000,-1.000000
1312492.146710,18.000000,-8.000000,10.000000,-7.000000,-10.000000,-1.000000,5.000000,6.000000
1312492.169200,-1.000000,1.000000,24.000000,33.000000,-10.000000,-1.000000,5.000000,20.000000
1312492.169226,-1.000000,12.000000,-34.000000,-25.000000,1.000000,-2.000000,-4.000000,-11.000000
1312492.169798,6.000000,2.000000,1.000000,-5.000000,8.000000,3.000000,11.000000,3.000000
1312492.169819,-11.000000,-5.000000,7.000000,13.000000,-6.000000,-1.000000,-10.000000,-5.000000
1312492.170970,-6.000000,2.000000,4.000000,-4.000000,-7.000000,-6.000000,-16.000000,-41.000000
1312492.170991,20.000000,11.000000,-4.000000,-33.000000,-16.000000,-3.000000,6.000000,32.000000
1312492.171564,-16.000000,-15.000000,-6.000000,-13.000000,9.000000,3.000000,14.000000,26.000000
1312492.171585,8.000000,7.000000,2.000000,8.000000,-2.000000,1.000000,1.000000,-3.000000
1312492.176165,-8.000000,0.000000,12.000000,-16.000000,-2.000000,-8.000000,-3.000000,-12.000000
1312492.176175,-7.000000,-12.000000,-37.000000,-26.000000,-7.000000,7.000000,0.000000,-2.000000
1312492.183918,-6.000000,1.000000,-9.000000,8.000000,-19.000000,-3.000000,-4.000000,-9.000000
1312492.183929,1.000000,3.000000,-6.000000,-9.000000,1.000000,-1.000000,-3.000000,-4.000000
1312492.206144,21.000000,1.000000,-31.000000,-16.000000,-1.000000,-3.000000,1.000000,0.000000
1312492.206154,3.000000,11.000000,-8.000000,23.000000,-10.000000,4.000000,12.000000,2.000000
1312492.206830,-9.000000,-12.000000,-6.000000,-18.000000,-10.000000,-5.000000,-8.000000,-8.000000
1312492.206839,5.000000,11.000000,25.000000,-12.000000,0.000000,-5.000000,1.000000,0.000000
1312492.221591,-4.000000,-41.000000,-23.000000,2.000000,6.000000,10.000000,3.000000,-20.000000
1312492.221600,-5.000000,6.000000,-4.000000,25.000000,-3.000000,1.000000,1.000000,6.000000
1312492.222612,2.000000,25.000000,10.000000,-13.000000,6.000000,-4.000000,-2.000000,-10.000000
1312492.222620,0.000000,-12.000000,-28.000000,-11.000000,-4.000000,-5.000000,3.000000,-10.000000
1312492.258680,6.000000,-1.000000,20.000000,2.000000,-6.000000,-4.000000,-3.000000,17.000000
1312492.258690,2.000000,13.000000,6.000000,-14.000000,-11.000000,-5.000000,-2.000000,7.000000
1312492.266571,2.000000,0.000000,10.000000,59.000000,39.000000,0.000000,-5.000000,-8.000000
1312492.266581,-11.000000,-14.000000,-45.000000,7.000000,-10.000000,5.000000,9.000000,3.000000
1312492.281660,-14.000000,4.000000,-7.000000,-21.000000,-14.000000,-4.000000,0.000000,10.000000
1312492.281685,10.000000,-5.000000,8.000000,14.000000,1.000000,-3.000000,3.000000,4.000000
1312492.282189,7.000000,-12.000000,-12.000000,-21.000000,-16.000000,-6.000000,-6.000000,10.000000
1312492.282215,-13.000000,-10.000000,28.000000,5.000000,-2.000000,2.000000,-5.000000,-17.000000
1312492.283060,12.000000,12.000000,15.000000,-16.000000,1.000000,-6.000000,-9.000000,9.000000
1312492.283067,1.000000,-3.000000,-35.000000,-5.000000,-1.000000,2.000000,7.000000,10.000000
1312492.283874,0.000000,-12.000000,-25.000000,13.000000,-1.000000,3.000000,-4.000000,-8.000000
1312492.283880,-8.000000,0.000000,-14.000000,15.000000,-3.000000,-4.000000,-2.000000,-5.000000
1312492.303615,-3.000000,1.000000,5.000000,15.000000,10.000000,-6.000000,-12.000000,-13.000000
1312492.303631,-5.000000,-8.000000,-12.000000,9.000000,-11.000000,-1.000000,3.000000,4.000000
1312492.304305,3.000000,8.000000,18.000000,-2.000000,3.000000,7.000000,2.000000,3.000000
1312492.304320,15.000000,8.000000,-5.000000,-27.000000,5.000000,-3.000000,6.000000,11.000000
1312492.319462,-7.000000,-5.000000,-6.000000,2.000000,-7.000000,0.000000,3.000000,-4.000000
1312492.319470,-10.000000,-2.000000,-9.000000,-29.000000,-12.000000,-1.000000,-4.000000,-23.000000
1312492.326501,-4.000000,17.000000,23.000000,35.000000,18.000000,3.000000,-12.000000,-13.000000
1312492.326511,16.000000,-11.000000,-41.000000,-2.000000,-7.000000,0.000000,33.000000,43.000000
1312492.341888,-15.000000,-15.000000,29.000000,17.000000,-1.000000,2.000000,-15.000000,-3.000000
1312492.341903,5.000000,10.000000,-12.000000,-26.000000,-6.000000,-3.000000,-6.000000,-22.000000
1312492.363937,-6.000000,-10.000000,-5.000000,-3.000000,-4.000000,-3.000000,-13.000000,0.000000
1312492.363948,-3.000000,2.000000,20.000000,17.000000,-5.000000,5.000000,0.000000,-5.000000
1312492.378825,4.000000,7.000000,-23.000000,-12.000000,-6.000000,-9.000000,-8.000000,-11.000000
1312492.378853,-9.000000,-14.000000,49.000000,-6.000000,6.000000,-2.000000,9.000000,13.000000
1312492.386317,-4.000000,-9.000000,-75.000000,2.000000,-4.000000,6.000000,8.000000,5.000000
1312492.386327,14.000000,2.000000,8.000000,-33.000000,-10.000000,-1.000000,-2.000000,-1.000000
1312492.416562,11.000000,20.000000,-4.000000,37.000000,43.000000,5.000000,-1.000000,-5.000000
1312492.416575,0.000000,-37.000000,-23.000000,-15.000000,-12.000000,0.000000,-8.000000,-23.000000
1312492.423900,-6.000000,30.000000,11.000000,11.000000,-2.000000,6.000000,8.000000,20.000000
1312492.423927,10.000000,6.000000,6.000000,-12.000000,-12.000000,-5.000000,2.000000,-8.000000
1312492.426856,-9.000000,-13.000000,9.000000,66.000000,46.000000,4.000000,0.000000,5.000000
1312492.426880,-9.000000,8.000000,-26.000000,0.000000,-19.000000,0.000000,-2.000000,-7.000000
1312492.427065,-1.000000,7.000000,94.000000,17.000000,4.000000,-3.000000,-8.000000,-9.000000
1312492.427079,-6.000000,-3.000000,-42.000000,-44.000000,-6.000000,-3.000000,-1.000000,-1.000000
1312492.427934,-2.000000,-4.000000,34.000000,33.000000,5.000000,3.000000,-3.000000,-3.000000
1312492.427946,-6.000000,3.000000,35.000000,1.000000,0.000000,-1.000000,1.000000,-4.000000
1312492.439332,-7.000000,-8.000000,3.000000,-6.000000,-13.000000,-3.000000,-6.000000,-8.000000
1312492.439348,-3.000000,7.000000,-9.000000,4.000000,-2.000000,1.000000,6.000000,-2.000000
1312492.446195,13.000000,-2.000000,1.000000,3.000000,2.000000,3.000000,3.000000,2.000000
1312492.446205,4.000000,-7.000000,-7.000000,-7.000000,-11.000000,1.000000,-12.000000,4.000000
1312492.461410,-35.000000,0.000000,14.000000,61.000000,20.000000,2.000000,6.000000,-6.000000
1312492.461438,10.000000,20.000000,-18.000000,-3.000000,1.000000,-6.000000,-7.000000,-4.000000
1312492.483949,9.000000,-1.000000,-9.000000,-13.000000,-19.000000,-7.000000,12.000000,50.000000
1312492.483965,9.000000,14.000000,-44.000000,38.000000,37.000000,14.000000,-9.000000,-23.000000
1312492.506552,-3.000000,3.000000,59.000000,-6.000000,0.000000,-3.000000,1.000000,5.000000
1312492.506565,-1.000000,-4.000000,-26.000000,-6.000000,-2.000000,-1.000000,-5.000000,-20.000000
1312492.521285,-4.000000,3.000000,17.000000,8.000000,-4.000000,-1.000000,3.000000,9.000000
1312492.521296,-4.000000,-7.000000,-46.000000,-9.000000,1.000000,0.000000,-3.000000,-8.000000
1312492.558974,22.000000,16.000000,-27.000000,7.000000,8.000000,0.000000,-5.000000,-3.000000
1312492.558985,-23.000000,-13.000000,4.000000,13.000000,-7.000000,-1.000000,3.000000,2.000000
1312492.559665,9.000000,16.000000,58.000000,-7.000000,-2.000000,-2.000000,2.000000,3.000000
1312492.559679,3.000000,2.000000,2.000000,-3.000000,7.000000,0.000000,-1.000000,0.000000
1312492.560570,19.000000,1.000000,-16.000000,11.000000,-8.000000,4.000000,-5.000000,0.000000
1312492.560577,-17.000000,2.000000,43.000000,4.000000,-1.000000,-2.000000,-9.000000,-9.000000
1312492.561080,-2.000000,2.000000,-31.000000,-30.000000,-3.000000,-6.000000,2.000000,-25.000000
1312492.561088,6.000000,0.000000,35.000000,6.000000,1.000000,3.000000,3.000000,17.000000
1312492.561776,-3.000000,-19.000000,-47.000000,-27.000000,-16.000000,-1.000000,7.000000,8.000000
1312492.561783,9.000000,2.000000,5.000000,-4.000000,-5.000000,-6.000000,-10.000000,-17.000000
1312492.566091,-4.000000,-7.000000,33.000000,12.000000,-12.000000,-1.000000,-3.000000,-1.000000
1312492.566099,-4.000000,0.000000,-11.000000,-5.000000,2.000000,1.000000,1.000000,-5.000000
1312492.596485,6.000000,3.000000,4.000000,-16.000000,2.000000,-4.000000,-6.000000,-10.000000
1312492.596498,-9.000000,-6.000000,0.000000,-12.000000,0.000000,1.000000,1.000000,23.000000
1312492.604008,2.000000,8.000000,93.000000,-1.000000,-9.000000,0.000000,8.000000,10.000000
1312492.604022,9.000000,18.000000,-36.000000,5.000000,14.000000,-1.000000,9.000000,11.000000
1312492.618720,14.000000,-1.000000,9.000000,-7.000000,-5.000000,-7.000000,-10.000000,-20.000000
1312492.618730,-5.000000,3.000000,-5.000000,9.000000,-8.000000,-1.000000,-9.000000,5.000000
1312492.641459,-3.000000,-9.000000,-9.000000,14.000000,19.000000,-1.000000,-10.000000,-2.000000
1312492.641474,9.000000,6.000000,50.000000,17.000000,10.000000,0.000000,-6.000000,-17.000000
1312492.642570,-5.000000,-8.000000,-20.000000,4.000000,-9.000000,0.000000,4.000000,12.000000
1312492.642586,-6.000000,0.000000,-7.000000,8.000000,-2.000000,-2.000000,-5.000000,0.000000
1312492.643351,3.000000,2.000000,-25.000000,-22.000000,-21.000000,-6.000000,0.000000,-6.000000
1312492.643361,2.000000,-4.000000,65.000000,19.000000,2.000000,7.000000,3.000000,-3.000000
1312492.644271,-1.000000,6.000000,-36.000000,-5.000000,-12.000000,-6.000000,-6.000000,-2.000000
1312492.644282,-8.000000,-10.000000,2.000000,1.000000,4.000000,-9.000000,-6.000000,-9.000000
1312492.645246,1.000000,-6.000000,5.000000,11.000000,-9.000000,6.000000,2.000000,6.000000
1312492.645257,-2.000000,11.000000,24.000000,8.000000,-2.000000,0.000000,-7.000000,-19.000000
1312492.656561,11.000000,19.000000,-7.000000,-15.000000,-3.000000,-4.000000,7.000000,19.000000
1312492.656574,12.000000,2.000000,22.000000,11.000000,11.000000,4.000000,3.000000,-5.000000
1312492.663867,1.000000,10.000000,-45.000000,4.000000,-13.000000,0.000000,-14.000000,-29.000000
1312492.663879,-6.000000,12.000000,-3.000000,26.000000,9.000000,-5.000000,6.000000,20.000000
1312492.679370,-11.000000,5.000000,4.000000,-14.000000,13.000000,0.000000,-1.000000,-5.000000
1312492.679381,6.000000,2.000000,-25.000000,2.000000,-3.000000,5.000000,4.000000,-1.000000
1312492.701512,-6.000000,-8.000000,-32.000000,2.000000,-7.000000,-1.000000,-1.000000,-7.000000
1312492.701523,20.000000,20.000000,3.000000,11.000000,2.000000,-6.000000,-4.000000,-9.000000
1312492.723953,-20.000000,-25.000000,-9.000000,-25.000000,-5.000000,1.000000,-3.000000,-11.000000
1312492.723964,-8.000000,-12.000000,-14.000000,20.000000,-11.000000,-10.000000,-2.000000,2.000000
1312492.731211,-7.000000,0.000000,-11.000000,-20.000000,1.000000,0.000000,-8.000000,-11.000000
1312492.731221,9.000000,10.000000,29.000000,-5.000000,0.000000,1.000000,-1.000000,-10.000000
1312492.761199,11.000000,2.000000,-27.000000,9.000000,-3.000000,6.000000,8.000000,21.000000
1312492.761219,5.000000,6.000000,0.000000,0.000000,-2.000000,-3.000000,1.000000,-7.000000
1312492.761683,1.000000,0.000000,-1.000000,-30.000000,-4.000000,-4.000000,-1.000000,-8.000000
1312492.761742,-13.000000,-20.000000,-30.000000,-27.000000,-12.000000,-2.000000,-5.000000,-4.000000
1312492.762930,-5.000000,15.000000,44.000000,21.000000,0.000000,4.000000,-5.000000,-16.000000
1312492.762938,0.000000,-5.000000,-46.000000,-71.000000,-10.000000,-8.000000,9.000000,12.000000
1312492.763446,21.000000,9.000000,-6.000000,25.000000,11.000000,1.000000,-2.000000,-1.000000
1312492.763454,-15.000000,-2.000000,0.000000,12.000000,-7.000000,6.000000,-4.000000,-3.000000
1312492.765211,-16.000000,-17.000000,-13.000000,-22.000000,-2.000000,-6.000000,6.000000,13.000000
1312492.765225,7.000000,3.000000,19.000000,-23.000000,-6.000000,-3.000000,6.000000,-4.000000
1312492.776805,18.000000,8.000000,-1.000000,-24.000000,-2.000000,-13.000000,-15.000000,-5.000000
1312492.776826,-4.000000,-1.000000,29.000000,16.000000,1.000000,0.000000,-11.000000,-10.000000
1312492.783951,-2.000000,-11.000000,-5.000000,-5.000000,-6.000000,-1.000000,12.000000,24.000000
1312492.783961,-9.000000,7.000000,-17.000000,-15.000000,3.000000,0.000000,5.000000,-20.000000
1312492.799555,12.000000,21.000000,16.000000,7.000000,0.000000,0.000000,-8.000000,15.000000
1312492.799564,-19.000000,-18.000000,-26.000000,10.000000,-9.000000,3.000000,-1.000000,-2.000000
1312492.806518,3.000000,4.000000,5.000000,-4.000000,1.000000,1.000000,-4.000000,-13.000000
1312492.806529,-3.000000,5.000000,-9.000000,-12.000000,-4.000000,-3.000000,-10.000000,-21.000000
1312492.843826,2.000000,-7.000000,-32.000000,-3.000000,-11.000000,1.000000,11.000000,34.000000
1312492.843836,-1.000000,7.000000,-7.000000,28.000000,20.000000,3.000000,2.000000,-15.000000
1312492.859411,12.000000,13.000000,-38.000000,-41.000000,-10.000000,-7.000000,-4.000000,-4.000000
1312492.859426,1.000000,-3.000000,5.000000,13.000000,3.000000,5.000000,2.000000,16.000000
1312492.881216,-6.000000,-17.000000,-19.000000,22.000000,6.000000,3.000000,-5.000000,-32.000000
1312492.881226,0.000000,10.000000,-16.000000,-22.000000,3.000000,-7.000000,-3.000000,13.000000
1312492.881625,7.000000,3.000000,-10.000000,-8.000000,-7.000000,-1.000000,-1.000000,-2.000000
1312492.881633,1.000000,-6.000000,-14.000000,-16.000000,-9.000000,-2.000000,-8.000000,-2.000000
1312492.882936,0.000000,7.000000,10.000000,15.000000,5.000000,0.000000,18.000000,10.000000
1312492.882947,-9.000000,-6.000000,-4.000000,20.000000,1.000000,-1.000000,-7.000000,0.000000
1312492.883679,10.000000,21.000000,2.000000,26.000000,11.000000,7.000000,-5.000000,1.000000
1312492.883687,-9.000000,-6.000000,-8.000000,-6.000000,2.000000,-3.000000,2.000000,-3.000000
1312492.896524,-5.000000,-1.000000,17.000000,-7.000000,-8.000000,-3.000000,4.000000,0.000000
1312492.896651,-9.000000,7.000000,-15.000000,-22.000000,7.000000,-2.000000,7.000000,0.000000
1312492.897641,-1.000000,-14.000000,7.000000,-32.000000,-19.000000,-1.000000,-4.000000,-3.000000
1312492.897669,-7.000000,-2.000000,-16.000000,28.000000,28.000000,10.000000,-2.000000,-7.000000
1312492.918663,9.000000,10.000000,16.000000,57.000000,34.000000,3.000000,2.000000,0.000000
1312492.918673,1.000000,1.000000,3.000000,5.000000,10.000000,-5.000000,-7.000000,-15.000000
1312492.919932,-10.000000,0.000000,-10.000000,8.000000,-8.000000,4.000000,4.000000,13.000000
1312492.919954,4.000000,15.000000,43.000000,-9.000000,0.000000,2.000000,3.000000,-11.000000
1312492.933931,16.000000,1.000000,-9.000000,-41.000000,-10.000000,-8.000000,8.000000,24.000000
1312492.933941,-3.000000,-6.000000,19.000000,32.000000,-2.000000,1.000000,-8.000000,-7.000000
1312492.956404,-20.000000,6.000000,12.000000,-1.000000,-6.000000,-5.000000,-8.000000,-10.000000
1312492.956414,8.000000,-10.000000,-22.000000,-15.000000,9.000000,-4.000000,7.000000,0.000000
1312492.978807,2.000000,11.000000,10.000000,-7.000000,1.000000,1.000000,-7.000000,1.000000
1312492.978829,0.000000,-3.000000,1.000000,25.000000,8.000000,8.000000,5.000000,-1.000000
1312493.000945,2.000000,1.000000,11.000000,-6.000000,1.000000,-5.000000,-10.000000,-8.000000
1312493.000964,10.000000,11.000000,-17.000000,-19.000000,-9.000000,-3.000000,4.000000,9.000000
1312493.001578,-4.000000,-4.000000,3.000000,32.000000,-3.000000,3.000000,7.000000,-7.000000
1312493.001597,-9.000000,-1.000000,19.000000,4.000000,-4.000000,-5.000000,-8.000000,-3.000000
1312493.002768,6.000000,-3.000000,-44.000000,-14.000000,4.000000,-1.000000,2.000000,19.000000
1312493.002777,-1.000000,2.000000,19.000000,2.000000,-8.000000,-1.000000,0.000000,0.000000
1312493.003550,-9.000000,-7.000000,-50.000000,-4.000000,-2.000000,0.000000,-1.000000,-10.000000
1312493.003558,2.000000,1.000000,-14.000000,-32.000000,-7.000000,-7.000000,-10.000000,-9.000000
1312493.008549,3.000000,7.000000,-12.000000,-27.000000,-8.000000,-6.000000,-4.000000,-1.000000
1312493.008560,-6.000000,6.000000,11.000000,-20.000000,0.000000,-2.000000,0.000000,-5.000000
1312493.017014,1.000000,2.000000,8.000000,29.000000,-3.000000,5.000000,-1.000000,-6.000000
1312493.017041,3.000000,-1.000000,-5.000000,-11.000000,-3.000000,-2.000000,-4.000000,-3.000000
1312493.038831,-13.000000,-4.000000,4.000000,-5.000000,3.000000,-2.000000,-6.000000,-11.000000
1312493.038842,5.000000,-1.000000,-33.000000,8.000000,2.000000,2.000000,5.000000,10.000000
1312493.039952,12.000000,5.000000,127.000000,11.000000,5.000000,3.000000,23.000000,9.000000
1312493.039977,-3.000000,-4.000000,13.000000,20.000000,18.000000,-16.000000,-25.000000,-15.000000
1312493.053658,12.000000,-10.000000,-23.000000,-23.000000,-8.000000,0.000000,11.000000,22.000000
1312493.053681,-19.000000,-5.000000,-4.000000,27.000000,-6.000000,5.000000,-4.000000,-11.000000
1312493.100771,5.000000,7.000000,-9.000000,-25.000000,-5.000000,-3.000000,1.000000,8.000000
1312493.101558,-5.000000,-6.000000,-8.000000,-4.000000,-1.000000,-2.000000,-6.000000,-10.000000
1312493.102193,-5.000000,-10.000000,-11.000000,12.000000,-14.000000,-2.000000,-2.000000,0.000000
1312493.102234,-3.000000,1.000000,6.000000,-31.000000,-13.000000,-6.000000,-2.000000,-4.000000
1312493.103430,3.000000,-7.000000,-8.000000,18.000000,41.000000,6.000000,7.000000,12.000000
1312493.103460,7.000000,16.000000,13.000000,16.000000,-1.000000,4.000000,3.000000,-3.000000
1312493.103907,-13.000000,-43.000000,-32.000000,-29.000000,-14.000000,-10.000000,-9.000000,-10.000000
1312493.103933,6.000000,9.000000,7.000000,-43.000000,-3.000000,-6.000000,4.000000,9.000000
1312493.104923,0.000000,-3.000000,23.000000,15.000000,4.000000,4.000000,-12.000000,-26.000000
1312493.104950,-10.000000,-18.000000,-14.000000,-3.000000,-8.000000,1.000000,0.000000,34.000000
1312493.115371,13.000000,15.000000,8.000000,-10.000000,5.000000,-5.000000,0.000000,-19.000000
1312493.115423,-4.000000,-1.000000,-31.000000,-25.000000,-12.000000,-5.000000,-3.000000,0.000000
1312493.117359,2.000000,-8.000000,-32.000000,42.000000,24.000000,13.000000,3.000000,3.000000
1312493.117385,2.000000,-1.000000,122.000000,38.000000,23.000000,-2.000000,-4.000000,-5.000000
1312493.129915,6.000000,2.000000,0.000000,-27.000000,-11.000000,-5.000000,8.000000,17.000000
1312493.129948,-6.000000,-13.000000,-55.000000,31.000000,17.000000,4.000000,-3.000000,-6.000000
1312493.151819,5.000000,11.000000,-1.000000,-10.000000,-13.000000,-5.000000,-18.000000,-9.000000
1312493.151838,-11.000000,-6.000000,3.000000,-13.000000,5.000000,-5.000000,4.000000,13.000000
1312493.159380,-1.000000,-9.000000,0.000000,2.000000,-1.000000,4.000000,2.000000,-4.000000
1312493.159398,-2.000000,1.000000,-4.000000,10.000000,-7.000000,-1.000000,-2.000000,-6.000000
1312493.196395,-5.000000,9.000000,8.000000,-10.000000,8.000000,-6.000000,-6.000000,-16.000000
1312493.196423,10.000000,-11.000000,-23.000000,9.000000,-6.000000,-1.000000,2.000000,8.000000
1312493.211231,-31.000000,-18.000000,81.000000,19.000000,-4.000000,6.000000,5.000000,5.000000
1312493.211249,12.000000,11.000000,-24.000000,-15.000000,0.000000,-5.000000,-3.000000,-4.000000
1312493.234011,3.000000,5.000000,45.000000,-13.000000,5.000000,0.000000,-2.000000,-2.000000
1312493.234040,-2.000000,-1.000000,-16.000000,3.000000,-5.000000,-2.000000,-4.000000,-4.000000
1312493.256349,3.000000,0.000000,33.000000,11.000000,-6.000000,-3.000000,-8.000000,-14.000000
1312493.256360,6.000000,7.000000,-31.000000,-36.000000,15.000000,-6.000000,1.000000,21.000000
1312493.279130,-3.000000,-13.000000,-28.000000,18.000000,1.000000,3.000000,-7.000000,-12.000000
1312493.279151,-4.000000,-14.000000,23.000000,45.000000,10.000000,2.000000,0.000000,1.000000
1312493.279851,8.000000,2.000000,22.000000,-6.000000,-5.000000,1.000000,2.000000,8.000000
1312493.279861,12.000000,-1.000000,9.000000,8.000000,-6.000000,5.000000,2.000000,9.000000
1312493.281122,-5.000000,0.000000,-4.000000,-10.000000,-10.000000,1.000000,3.000000,22.000000
1312493.281132,-5.000000,1.000000,-33.000000,2.000000,11.000000,4.000000,2.000000,-15.000000
1312493.293828,-12.000000,3.000000,28.000000,0.000000,-15.000000,-3.000000,2.000000,-3.000000
1312493.293848,3.000000,-17.000000,-35.000000,-17.000000,11.000000,0.000000,4.000000,-6.000000
1312493.324138,-1.000000,5.000000,37.000000,-5.000000,-12.000000,-3.000000,2.000000,0.000000
1312493.324156,-1.000000,10.000000,-16.000000,-7.000000,-18.000000,-6.000000,-5.000000,4.000000
1312493.331768,7.000000,-5.000000,6.000000,-23.000000,8.000000,-5.000000,0.000000,-1.000000
1312493.331777,-2.000000,-6.000000,-54.000000,-17.000000,-4.000000,1.000000,6.000000,12.000000
1312493.353786,9.000000,7.000000,6.000000,14.000000,-15.000000,3.000000,0.000000,-2.000000
1312493.353796,-7.000000,-6.000000,34.000000,-3.000000,2.000000,-4.000000,1.000000,-5.000000
1312493.368918,-3.000000,-7.000000,2.000000,2.000000,1.000000,-1.000000,-5.000000,-3.000000
1312493.368930,-23.000000,-9.000000,-23.000000,9.000000,-11.000000,2.000000,-3.000000,-1.000000
1312493.376712,9.000000,3.000000,6.000000,8.000000,0.000000,-1.000000,-1.000000,-5.000000
1312493.376727,-3.000000,2.000000,0.000000,-16.000000,4.000000,-7.000000,-10.000000,-17.000000
1312493.377241,-3.000000,-8.000000,31.000000,-5.000000,2.000000,3.000000,7.000000,27.000000
1312493.377261,4.000000,8.000000,-15.000000,30.000000,-3.000000,3.000000,3.000000,-5.000000
1312493.377871,17.000000,9.000000,63.000000,-18.000000,6.000000,0.000000,-4.000000,-11.000000
1312493.377879,-24.000000,-22.000000,-35.000000,-11.000000,-4.000000,-11.000000,-22.000000,-18.000000
1312493.378654,4.000000,10.000000,11.000000,8.000000,-14.000000,3.000000,6.000000,29.000000
1312493.378664,-6.000000,-2.000000,27.000000,9.000000,3.000000,1.000000,-4.000000,-12.000000
1312493.379658,1.000000,-4.000000,-39.000000,-18.000000,-9.000000,-2.000000,3.000000,-1.000000
1312493.379677,10.000000,-9.000000,-34.000000,31.000000,6.000000,9.000000,10.000000,4.000000
1312493.391188,-3.000000,5.000000,25.000000,-7.000000,-5.000000,-8.000000,-2.000000,3.000000
1312493.391225,11.000000,25.000000,16.000000,-38.000000,-12.000000,-2.000000,2.000000,-2.000000
1312493.398599,-8.000000,-19.000000,10.000000,15.000000,5.000000,7.000000,3.000000,5.000000
1312493.398607,1.000000,3.000000,-25.000000,-25.000000,-15.000000,-4.000000,-1.000000,-3.000000
1312493.413938,-5.000000,22.000000,-4.000000,-21.000000,-2.000000,-5.000000,-4.000000,-5.000000
1312493.413949,-25.000000,-21.000000,-19.000000,-6.000000,-2.000000,1.000000,5.000000,22.000000
1312493.436592,7.000000,-8.000000,0.000000,8.000000,-9.000000,-4.000000,-3.000000,-5.000000
1312493.436610,6.000000,10.000000,21.000000,12.000000,6.000000,-5.000000,-6.000000,-9.000000
1312493.451271,4.000000,-9.000000,-52.000000,-16.000000,-7.000000,-3.000000,-2.000000,6.000000
1312493.451300,3.000000,-3.000000,-19.000000,16.000000,3.000000,8.000000,1.000000,2.000000
1312493.488703,-6.000000,1.000000,-28.000000,7.000000,10.000000,3.000000,24.000000,2.000000
1312493.488714,14.000000,8.000000,12.000000,-14.000000,1.000000,-4.000000,-19.000000,-5.000000
1312493.489061,6.000000,0.000000,20.000000,-2.000000,-2.000000,-1.000000,9.000000,6.000000
1312493.489070,-16.000000,-6.000000,33.000000,19.000000,8.000000,3.000000,-4.000000,-4.000000
1312493.490357,9.000000,13.000000,-10.000000,-2.000000,13.000000,-4.000000,3.000000,-2.000000
1312493.490365,0.000000,9.000000,10.000000,-8.000000,-16.000000,-3.000000,-1.000000,-4.000000
1312493.491190,-6.000000,-28.000000,-33.000000,25.000000,11.000000,1.000000,-3.000000,-3.000000
1312493.491226,20.000000,7.000000,10.000000,-35.000000,4.000000,-1.000000,-8.000000,-23.000000
1312493.492804,-6.000000,-5.000000,-23.000000,-13.000000,-9.000000,-6.000000,-6.000000,-10.000000
1312493.492813,13.000000,1.000000,-24.000000,0.000000,12.000000,-3.000000,-7.000000,-4.000000
1312493.496486,-8.000000,-3.000000,-31.000000,22.000000,9.000000,2.000000,2.000000,-5.000000
1312493.496514,-2.000000,-5.000000,-44.000000,-26.000000,-10.000000,0.000000,2.000000,19.000000
1312493.511255,1.000000,12.000000,16.000000,-15.000000,3.000000,-3.000000,1.000000,-15.000000
1312493.511269,10.000000,-14.000000,3.000000,9.000000,-2.000000,4.000000,17.000000,1.000000
1312493.533761,-16.000000,5.000000,-4.000000,8.000000,-8.000000,1.000000,-19.000000,-3.000000
1312493.533807,8.000000,7.000000,5.000000,-13.000000,2.000000,-5.000000,-4.000000,-1.000000
1312493.549053,5.000000,-1.000000,-8.000000,3.000000,1.000000,0.000000,-2.000000,-2.000000
1312493.549082,-5.000000,-4.000000,9.000000,0.000000,-13.000000,6.000000,5.000000,-3.000000
1312493.571378,-6.000000,-5.000000,-24.000000,-11.000000,-14.000000,-10.000000,-2.000000,-1.000000
1312493.571398,2.000000,5.000000,-9.000000,-2.000000,-2.000000,-1.000000,1.000000,5.000000
1312493.594112,3.000000,-13.000000,3.000000,-12.000000,-21.000000,0.000000,-14.000000,-42.000000
1312493.594143,-18.000000,17.000000,-4.000000,12.000000,13.000000,-1.000000,20.000000,36.000000
1312493.595013,19.000000,21.000000,20.000000,-20.000000,-3.000000,-7.000000,-11.000000,-4.000000
1312493.595040,2.000000,-6.000000,45.000000,7.000000,-5.000000,1.000000,-4.000000,-9.000000
1312493.595601,-12.000000,-14.000000,-1.000000,16.000000,-2.000000,0.000000,-5.000000,-1.000000
1312493.595628,-4.000000,6.000000,3.000000,-14.000000,-1.000000,-5.000000,7.000000,-4.000000
1312493.596704,-3.000000,-7.000000,-30.000000,-8.000000,-8.000000,-3.000000,5.000000,12.000000
1312493.596730,4.000000,-2.000000,-26.000000,27.000000,5.000000,3.000000,-5.000000,2.000000
1312493.597480,2.000000,3.000000,6.000000,2.000000,2.000000,-3.000000,0.000000,-9.000000
1312493.597506,-26.000000,-2.000000,-11.000000,-21.000000,-8.000000,-10.000000,-5.000000,-4.000000
1312493.609072,13.000000,9.000000,2.000000,-5.000000,4.000000,-5.000000,0.000000,5.000000
1312493.609088,-3.000000,-6.000000,3.000000,-2.000000,2.000000,0.000000,-3.000000,0.000000
1312493.616371,-7.000000,-5.000000,28.000000,2.000000,-14.000000,-3.000000,-5.000000,-9.000000
1312493.616388,9.000000,7.000000,15.000000,-7.000000,4.000000,-5.000000,9.000000,17.000000
1312493.631197,2.000000,-8.000000,-35.000000,16.000000,8.000000,4.000000,3.000000,-14.000000
1312493.631209,-8.000000,-5.000000,26.000000,14.000000,-4.000000,-1.000000,-10.000000,-1.000000
1312493.653848,26.000000,31.000000,10.000000,-12.000000,5.000000,3.000000,9.000000,21.000000
1312493.653860,14.000000,2.000000,-3.000000,-18.000000,0.000000,2.000000,0.000000,-1.000000
1312493.677703,-11.000000,-8.000000,-3.000000,10.000000,-5.000000,8.000000,9.000000,13.000000
1312493.677751,0.000000,6.000000,-21.000000,-24.000000,-3.000000,-4.000000,-14.000000,9.000000
1312493.706677,8.000000,12.000000,-6.000000,5.000000,21.000000,-3.000000,-5.000000,-6.000000
1312493.706810,-5.000000,-3.000000,-12.000000,3.000000,-3.000000,3.000000,-7.000000,-13.000000
1312493.707155,7.000000,-1.000000,11.000000,8.000000,-11.000000,1.000000,1.000000,-1.000000
1312493.707172,-4.000000,10.000000,3.000000,-4.000000,9.000000,0.000000,10.000000,-3.000000
1312493.708323,4.000000,-7.000000,-25.000000,-16.000000,-7.000000,0.000000,-3.000000,11.000000
1312493.708346,-2.000000,15.000000,24.000000,-2.000000,-16.000000,0.000000,5.000000,2.000000
1312493.709096,3.000000,-14.000000,-51.000000,26.000000,21.000000,-2.000000,0.000000,12.000000
1312493.709112,4.000000,16.000000,-3.000000,-7.000000,16.000000,3.000000,-2.000000,-8.000000
1312493.710412,8.000000,11.000000,22.000000,-26.000000,4.000000,-1.000000,-1.000000,-4.000000
1312493.710428,-1.000000,2.000000,14.000000,1.000000,-7.000000,-2.000000,13.000000,0.000000
1312493.714575,-32.000000,-15.000000,-33.000000,-11.000000,-14.000000,-2.000000,-8.000000,3.000000
1312493.714657,19.000000,23.000000,19.000000,-7.000000,7.000000,-4.000000,4.000000,-3.000000
1312493.728670,-2.000000,-10.000000,11.000000,-5.000000,-8.000000,0.000000,-6.000000,-16.000000
1312493.728683,2.000000,-5.000000,-11.000000,24.000000,3.000000,5.000000,8.000000,-2.000000
1312493.751469,-8.000000,-1.000000,19.000000,-4.000000,-1.000000,-4.000000,-10.000000,18.000000
1312493.751558,18.000000,7.000000,29.000000,-8.000000,9.000000,-4.000000,6.000000,7.000000
1312493.751752,-5.000000,-28.000000,-24.000000,7.000000,4.000000,6.000000,-1.000000,-13.000000
1312493.751764,-10.000000,4.000000,-7.000000,2.000000,-2.000000,-5.000000,-6.000000,-9.000000
1312493.766260,6.000000,18.000000,99.000000,-15.000000,3.000000,-7.000000,-4.000000,-6.000000
1312493.766270,-3.000000,3.000000,-56.000000,-21.000000,-12.000000,0.000000,-2.000000,-3.000000
1312493.773642,-1.000000,-2.000000,-39.000000,13.000000,5.000000,2.000000,3.000000,-2.000000
1312493.773668,15.000000,11.000000,2.000000,-33.000000,-15.000000,-6.000000,13.000000,11.000000
1312493.803968,3.000000,-6.000000,12.000000,22.000000,-3.000000,3.000000,-6.000000,-4.000000
1312493.803981,-14.000000,4.000000,-2.000000,-6.000000,-18.000000,-1.000000,-3.000000,-4.000000
1312493.811308,1.000000,9.000000,8.000000,-11.000000,-2.000000,-3.000000,0.000000,1.000000
1312493.811337,5.000000,1.000000,-1.000000,-22.000000,-2.000000,1.000000,5.000000,1.000000
1312493.833677,-7.000000,-12.000000,-3.000000,11.000000,-5.000000,1.000000,-4.000000,-8.000000
1312493.833704,9.000000,0.000000,-1.000000,-8.000000,-6.000000,-8.000000,0.000000,-3.000000
1312493.841396,1.000000,-19.000000,-6.000000,-10.000000,8.000000,-6.000000,-4.000000,-8.000000
1312493.841424,-27.000000,7.000000,2.000000,11.000000,-16.000000,4.000000,-6.000000,-10.000000
1312493.871333,18.000000,-11.000000,-29.000000,-29.000000,-16.000000,-10.000000,-9.000000,56.000000
1312493.871347,11.000000,7.000000,22.000000,-11.000000,13.000000,0.000000,5.000000,-13.000000
1312493.872001,10.000000,5.000000,31.000000,4.000000,-2.000000,1.000000,-1.000000,-7.000000
1312493.872009,-9.000000,-8.000000,-15.000000,10.000000,-12.000000,0.000000,-5.000000,-16.000000
1312493.893907,-9.000000,1.000000,16.000000,-10.000000,-6.000000,-7.000000,1.000000,-2.000000
1312493.893918,1.000000,-1.000000,-9.000000,-2.000000,3.000000,1.000000,2.000000,-2.000000
1312493.908808,-3.000000,-9.000000,-10.000000,8.000000,-10.000000,0.000000,-1.000000,-6.000000
1312493.908818,-1.000000,1.000000,-11.000000,-7.000000,-1.000000,-7.000000,-1.000000,0.000000
1312493.931503,6.000000,0.000000,-13.000000,-17.000000,4.000000,-4.000000,-2.000000,-3.000000
1312493.931515,-3.000000,10.000000,23.000000,-27.000000,-13.000000,-6.000000,-3.000000,-2.000000
1312493.931999,2.000000,-8.000000,11.000000,61.000000,46.000000,11.000000,-4.000000,4.000000
1312493.932023,27.000000,18.000000,1.000000,-13.000000,3.000000,-6.000000,5.000000,9.000000
1312493.932494,-21.000000,5.000000,18.000000,-8.000000,-1.000000,2.000000,-4.000000,-14.000000
1312493.932502,3.000000,-6.000000,-12.000000,7.000000,-13.000000,-1.000000,1.000000,1.000000
1312493.933062,-5.000000,2.000000,-3.000000,-11.000000,-2.000000,-5.000000,-4.000000,10.000000
1312493.933082,-14.000000,-8.000000,2.000000,-6.000000,2.000000,0.000000,7.000000,3.000000
1312493.933695,1.000000,-9.000000,8.000000,19.000000,-1.000000,10.000000,-4.000000,-3.000000
1312493.933705,-6.000000,-3.000000,-12.000000,-12.000000,-12.000000,-3.000000,-8.000000,-23.000000
1312493.934329,8.000000,1.000000,-10.000000,-26.000000,1.000000,1.000000,4.000000,25.000000
1312493.934352,-13.000000,-3.000000,67.000000,18.000000,9.000000,4.000000,7.000000,14.000000
1312493.935254,-11.000000,-11.000000,-22.000000,-2.000000,1.000000,-2.000000,6.000000,24.000000
1312493.935276,0.000000,-6.000000,-7.000000,-22.000000,-11.000000,0.000000,-2.000000,-9.000000
1312493.946175,-2.000000,2.000000,-41.000000,-5.000000,6.000000,-1.000000,-1.000000,-4.000000
1312493.946185,-8.000000,-11.000000,82.000000,3.000000,3.000000,1.000000,-6.000000,-3.000000
1312493.946765,1.000000,-19.000000,-21.000000,2.000000,-12.000000,-6.000000,-13.000000,-24.000000
1312493.946774,-8.000000,13.000000,10.000000,-6.000000,-4.000000,-1.000000,8.000000,15.000000
1312493.969045,10.000000,6.000000,4.000000,-28.000000,9.000000,1.000000,4.000000,-4.000000
1312493.969076,-4.000000,-3.000000,-16.000000,18.000000,-4.000000,1.000000,-5.000000,-10.000000
1312493.969559,3.000000,5.000000,29.000000,8.000000,-11.000000,0.000000,-23.000000,-6.000000
1312493.969587,-4.000000,3.000000,-17.000000,-25.000000,12.000000,-1.000000,9.000000,-9.000000
1312493.984295,-32.000000,-28.000000,-10.000000,-13.000000,-11.000000,-5.000000,-6.000000,7.000000
1312493.984305,6.000000,0.000000,5.000000,24.000000,2.000000,3.000000,0.000000,-5.000000
1312493.991212,0.000000,6.000000,-2.000000,-3.000000,7.000000,-4.000000,-4.000000,-15.000000
1312493.991222,4.000000,-5.000000,6.000000,-28.000000,-9.000000,-3.000000,4.000000,8.000000
1312493.998613,-9.000000,-13.000000,-3.000000,19.000000,-4.000000,2.000000,-4.000000,-4.000000
1312493.998623,3.000000,6.000000,15.000000,-1.000000,0.000000,-1.000000,-2.000000,0.000000
1312494.006577,1.000000,7.000000,-50.000000,-58.000000,-15.000000,-8.000000,2.000000,1.000000
1312494.006605,-9.000000,-14.000000,29.000000,43.000000,10.000000,6.000000,-7.000000,-15.000000
1312494.051461,0.000000,7.000000,-29.000000,-18.000000,-9.000000,-2.000000,15.000000,37.000000
1312494.051475,9.000000,5.000000,-2.000000,-8.000000,11.000000,-1.000000,0.000000,1.000000
1312494.051853,-1.000000,-4.000000,8.000000,9.000000,1.000000,0.000000,-8.000000,-9.000000
1312494.051863,6.000000,0.000000,9.000000,6.000000,-11.000000,-1.000000,-4.000000,-4.000000
1312494.052934,-4.000000,5.000000,0.000000,1.000000,12.000000,2.000000,3.000000,18.000000
1312494.052944,-4.000000,-1.000000,25.000000,1.000000,0.000000,-4.000000,-19.000000,-38.000000
1312494.053543,-35.000000,-16.000000,2.000000,-31.000000,-35.000000,-5.000000,7.000000,16.000000
1312494.053553,21.000000,7.000000,7.000000,4.000000,40.000000,5.000000,6.000000,9.000000
1312494.066505,14.000000,10.000000,-12.000000,-46.000000,-5.000000,-5.000000,-4.000000,0.000000
1312494.066519,-20.000000,-5.000000,-13.000000,-11.000000,-7.000000,4.000000,-13.000000,-23.000000
1312494.067094,18.000000,-5.000000,19.000000,6.000000,-1.000000,1.000000,6.000000,23.000000
1312494.067105,-7.000000,11.000000,-8.000000,-9.000000,4.000000,-6.000000,3.000000,-1.000000
1312494.088780,11.000000,1.000000,-29.000000,-4.000000,-2.000000,3.000000,-9.000000,-6.000000
1312494.088800,-5.000000,-11.000000,-56.000000,29.000000,-4.000000,0.000000,10.000000,5.000000
1312494.103738,-15.000000,8.000000,48.000000,3.000000,4.000000,-9.000000,-12.000000,-8.000000
1312494.103751,8.000000,-5.000000,-14.000000,-7.000000,3.000000,4.000000,-8.000000,4.000000
1312494.104924,9.000000,-3.000000,-3.000000,10.000000,-1.000000,5.000000,-2.000000,-2.000000
1312494.104933,7.000000,5.000000,0.000000,-2.000000,-6.000000,-7.000000,-1.000000,2.000000
1312494.111412,6.000000,2.000000,3.000000,-14.000000,4.000000,1.000000,6.000000,5.000000
1312494.111425,-6.000000,-8.000000,-5.000000,10.000000,13.000000,4.000000,2.000000,0.000000
1312494.126253,4.000000,9.000000,1.000000,4.000000,-8.000000,-4.000000,-3.000000,9.000000
1312494.126277,-14.000000,-4.000000,4.000000,-22.000000,-4.000000,-16.000000,3.000000,0.000000
1312494.148766,1.000000,-8.000000,-12.000000,-5.000000,-19.000000,1.000000,-5.000000,-9.000000
1312494.148776,9.000000,-8.000000,3.000000,9.000000,-13.000000,2.000000,4.000000,20.000000
1312494.171905,14.000000,3.000000,-5.000000,-4.000000,19.000000,0.000000,-4.000000,-16.000000
1312494.171982,-15.000000,-18.000000,-30.000000,-53.000000,-23.000000,-6.000000,-6.000000,4.000000
1312494.172455,6.000000,3.000000,21.000000,19.000000,15.000000,7.000000,6.000000,-1.000000
1312494.172479,-8.000000,25.000000,-5.000000,11.000000,5.000000,0.000000,-2.000000,-8.000000
1312494.173669,4.000000,2.000000,5.000000,-13.000000,-4.000000,-5.000000,5.000000,-5.000000
1312494.173697,0.000000,-10.000000,-37.000000,2.000000,-6.000000,0.000000,-8.000000,-1.000000
1312494.174389,7.000000,22.000000,-7.000000,-12.000000,-4.000000,-2.000000,5.000000,-1.000000
1312494.174397,-24.000000,-13.000000,4.000000,-12.000000,6.000000,-1.000000,1.000000,6.000000
1312494.186129,-7.000000,-10.000000,5.000000,-8.000000,-6.000000,1.000000,-6.000000,-11.000000
1312494.186152,4.000000,-2.000000,1.000000,16.000000,-5.000000,-1.000000,-5.000000,11.000000
1312494.186846,5.000000,4.000000,46.000000,5.000000,6.000000,0.000000,4.000000,3.000000
1312494.186856,1.000000,-8.000000,-74.000000,-16.000000,-4.000000,2.000000,18.000000,10.000000
1312494.208872,-6.000000,-7.000000,20.000000,20.000000,-2.000000,5.000000,-19.000000,-26.000000
1312494.208884,2.000000,2.000000,-39.000000,2.000000,7.000000,5.000000,7.000000,16.000000
1312494.209209,2.000000,1.000000,41.000000,-23.000000,-12.000000,-13.000000,-9.000000,-18.000000
1312494.209219,6.000000,-15.000000,-41.000000,5.000000,-7.000000,-1.000000,3.000000,32.000000
1312494.223837,-2.000000,21.000000,-4.000000,-10.000000,-2.000000,-4.000000,-7.000000,-17.000000
1312494.223849,-1.000000,3.000000,24.000000,-19.000000,-6.000000,-4.000000,0.000000,0.000000
1312494.231112,-4.000000,-7.000000,-17.000000,10.000000,-1.000000,-1.000000,-3.000000,-7.000000
1312494.231129,-8.000000,-2.000000,-4.000000,9.000000,-6.000000,1.000000,4.000000,-3.000000
1312494.246571,1.000000,5.000000,-9.000000,-14.000000,-3.000000,-9.000000,-8.000000,-4.000000
1312494.246581,-3.000000,-1.000000,-5.000000,-48.000000,-23.000000,-4.000000,-2.000000,10.000000
1312494.261383,-1.000000,-4.000000,10.000000,13.000000,19.000000,9.000000,4.000000,1.000000
1312494.261411,18.000000,3.000000,-12.000000,-14.000000,-5.000000,-10.000000,-7.000000,-4.000000
1312494.283727,-25.000000,1.000000,-15.000000,-13.000000,-7.000000,2.000000,0.000000,-3.000000
1312494.283755,-1.000000,-27.000000,-8.000000,-9.000000,-11.000000,0.000000,2.000000,-6.000000
1312494.306429,12.000000,7.000000,-15.000000,-2.000000,3.000000,2.000000,6.000000,21.000000
1312494.306438,6.000000,12.000000,7.000000,-24.000000,6.000000,-2.000000,-3.000000,-1.000000
1312494.321669,-1.000000,-9.000000,-15.000000,10.000000,-6.000000,-4.000000,2.000000,18.000000
1312494.321691,-4.000000,-5.000000,18.000000,16.000000,-3.000000,3.000000,2.000000,-5.000000
1312494.322258,10.000000,10.000000,-30.000000,-28.000000,3.000000,-1.000000,-11.000000,-15.000000
1312494.322280,-11.000000,-8.000000,0.000000,-18.000000,-7.000000,-3.000000,-1.000000,-3.000000
1312494.323525,0.000000,-13.000000,4.000000,25.000000,-4.000000,4.000000,9.000000,20.000000
1312494.323546,-5.000000,16.000000,81.000000,-8.000000,-5.000000,0.000000,-1.000000,-14.000000
1312494.324677,2.000000,-6.000000,-14.000000,23.000000,36.000000,6.000000,-1.000000,9.000000
1312494.324694,0.000000,-8.000000,-21.000000,16.000000,-2.000000,3.000000,2.000000,1.000000
1312494.325536,10.000000,9.000000,23.000000,-13.000000,-7.000000,-2.000000,-3.000000,-3.000000
1312494.325564,-5.000000,4.000000,-13.000000,-15.000000,4.000000,-2.000000,-3.000000,-1.000000
1312494.329408,19.000000,1.000000,-57.000000,-4.000000,-7.000000,-3.000000,1.000000,1.000000
1312494.329417,-5.000000,4.000000,-19.000000,40.000000,15.000000,0.000000,1.000000,-2.000000
1312494.344004,16.000000,26.000000,-4.000000,-66.000000,-13.000000,-4.000000,5.000000,5.000000
1312494.344017,-9.000000,-17.000000,-17.000000,20.000000,34.000000,5.000000,-1.000000,0.000000
1312494.381456,-3.000000,-10.000000,11.000000,16.000000,-2.000000,10.000000,0.000000,-9.000000
1312494.381468,8.000000,12.000000,-6.000000,-33.000000,-13.000000,-10.000000,1.000000,16.000000
1312494.388921,14.000000,15.000000,-29.000000,-6.000000,7.000000,3.000000,8.000000,-7.000000
1312494.388932,1.000000,-26.000000,1.000000,27.000000,-12.000000,2.000000,3.000000,9.000000
1312494.404245,8.000000,1.000000,25.000000,-18.000000,-6.000000,3.000000,10.000000,-4.000000
1312494.404274,-11.000000,4.000000,-32.000000,-32.000000,3.000000,-4.000000,3.000000,7.000000
1312494.426268,3.000000,-19.000000,87.000000,24.000000,-4.000000,-2.000000,-19.000000,-24.000000
1312494.426278,-53.000000,-11.000000,-41.000000,-6.000000,-3.000000,0.000000,0.000000,-7.000000
1312494.448865,14.000000,5.000000,82.000000,9.000000,12.000000,3.000000,11.000000,15.000000
1312494.448894,6.000000,2.000000,-24.000000,-22.000000,-3.000000,0.000000,0.000000,-15.000000
1312494.463894,-29.000000,-16.000000,-57.000000,-4.000000,-17.000000,-1.000000,-5.000000,-9.000000
1312494.463904,-8.000000,10.000000,-4.000000,-52.000000,-9.000000,-6.000000,-3.000000,1.000000
1312494.486473,5.000000,0.000000,19.000000,37.000000,10.000000,5.000000,5.000000,4.000000
1312494.486484,-4.000000,-6.000000,-6.000000,43.000000,17.000000,3.000000,2.000000,-1.000000
1312494.501553,-12.000000,-1.000000,-21.000000,-42.000000,-11.000000,-4.000000,-4.000000,-10.000000
1312494.501563,22.000000,11.000000,36.000000,21.000000,22.000000,1.000000,-4.000000,30.000000
1312494.508907,5.000000,8.000000,47.000000,2.000000,4.000000,0.000000,-1.000000,-6.000000
1312494.508920,-18.000000,-8.000000,-44.000000,-17.000000,-14.000000,-6.000000,-4.000000,-4.000000
1312494.524104,-2.000000,-4.000000,-31.000000,-18.000000,-1.000000,-5.000000,5.000000,11.000000
1312494.524114,11.000000,0.000000,-17.000000,11.000000,-4.000000,8.000000,0.000000,-2.000000
1312494.539658,-1.000000,0.000000,8.000000,-14.000000,-17.000000,-11.000000,-8.000000,-24.000000
1312494.539685,5.000000,-6.000000,-12.000000,8.000000,1.000000,4.000000,1.000000,17.000000
1312494.540684,-20.000000,-10.000000,42.000000,61.000000,25.000000,10.000000,-3.000000,-16.000000
1312494.540694,0.000000,6.000000,-2.000000,-30.000000,-7.000000,-3.000000,1.000000,-2.000000
1312494.541512,12.000000,2.000000,9.000000,-3.000000,1.000000,-2.000000,1.000000,5.000000
1312494.541526,1.000000,4.000000,-12.000000,-21.000000,1.000000,-5.000000,-7.000000,-11.000000
1312494.542777,16.000000,11.000000,27.000000,-15.000000,7.000000,-3.000000,-4.000000,1.000000
1312494.542803,9.000000,-6.000000,2.000000,-5.000000,-1.000000,-2.000000,0.000000,-5.000000
1312494.561726,0.000000,-6.000000,31.000000,-9.000000,-15.000000,0.000000,2.000000,-7.000000
1312494.561741,-10.000000,7.000000,8.000000,33.000000,15.000000,-4.000000,-4.000000,-10.000000
1312494.562499,9.000000,-7.000000,-17.000000,-35.000000,-18.000000,-7.000000,-4.000000,-6.000000
1312494.562527,-3.000000,-4.000000,-5.000000,36.000000,6.000000,5.000000,12.000000,13.000000
1312494.584264,3.000000,8.000000,5.000000,31.000000,26.000000,6.000000,-1.000000,4.000000
1312494.584290,-10.000000,-17.000000,-112.000000,-5.000000,-10.000000,-4.000000,-14.000000,-17.000000
1312494.585078,-5.000000,-11.000000,7.000000,5.000000,6.000000,3.000000,3.000000,10.000000
1312494.585105,3.000000,1.000000,-20.000000,25.000000,14.000000,1.000000,-1.000000,-5.000000
1312494.606369,4.000000,18.000000,-16.000000,-30.000000,-5.000000,-5.000000,-3.000000,-1.000000
1312494.606379,1.000000,-15.000000,39.000000,0.000000,-3.000000,-3.000000,-4.000000,-3.000000
1312494.621126,-12.000000,-14.000000,8.000000,13.000000,-3.000000,1.000000,-6.000000,-13.000000
1312494.621135,5.000000,10.000000,-15.000000,-8.000000,8.000000,-5.000000,-4.000000,0.000000
1312494.644190,20.000000,-18.000000,2.000000,-18.000000,0.000000,0.000000,3.000000,14.000000
1312494.644320,-8.000000,-11.000000,-24.000000,10.000000,-11.000000,0.000000,-22.000000,-17.000000
1312494.644489,-3.000000,5.000000,9.000000,7.000000,-1.000000,-2.000000,8.000000,29.000000
1312494.644497,10.000000,18.000000,-21.000000,-26.000000,4.000000,2.000000,5.000000,-15.000000
1312494.645408,-4.000000,-9.000000,22.000000,7.000000,-21.000000,3.000000,-6.000000,-4.000000
1312494.645417,6.000000,1.000000,-31.000000,10.000000,22.000000,2.000000,2.000000,27.000000
1312494.646704,22.000000,39.000000,40.000000,-42.000000,-2.000000,-4.000000,-4.000000,-7.000000
1312494.646713,2.000000,3.000000,-14.000000,40.000000,19.000000,3.000000,-4.000000,8.000000
1312494.659218,-9.000000,-26.000000,-4.000000,3.000000,-8.000000,3.000000,3.000000,-2.000000
1312494.659228,1.000000,6.000000,3.000000,-15.000000,-4.000000,-6.000000,-2.000000,-6.000000
1312494.660318,-4.000000,-2.000000,-1.000000,-7.000000,1.000000,2.000000,-3.000000,-3.000000
1312494.660327,-10.000000,-13.000000,-35.000000,-18.000000,-12.000000,-1.000000,-9.000000,-19.000000
1312494.681511,-7.000000,-9.000000,-18.000000,16.000000,10.000000,0.000000,9.000000,12.000000
1312494.681545,17.000000,7.000000,60.000000,-5.000000,4.000000,-8.000000,4.000000,16.000000
1312494.682185,-7.000000,-14.000000,-99.000000,1.000000,-6.000000,1.000000,2.000000,-10.000000
1312494.682215,-4.000000,8.000000,35.000000,-3.000000,-4.000000,-6.000000,-23.000000,-9.000000
1312494.703806,1.000000,6.000000,-5.000000,-21.000000,5.000000,2.000000,10.000000,18.000000
1312494.703839,-1.000000,-9.000000,-11.000000,-1.000000,-5.000000,-1.000000,2.000000,-7.000000
1312494.704407,-5.000000,-4.000000,-1.000000,10.000000,-7.000000,-3.000000,-3.000000,-11.000000
1312494.704416,0.000000,5.000000,-1.000000,-4.000000,9.000000,-3.000000,1.000000,0.000000
1312494.726327,-5.000000,-10.000000,2.000000,-59.000000,-25.000000,-6.000000,-2.000000,-12.000000
1312494.726356,25.000000,-14.000000,-4.000000,47.000000,15.000000,15.000000,12.000000,24.000000
1312494.741686,-18.000000,22.000000,-1.000000,-29.000000,-11.000000,1.000000,8.000000,12.000000
1312494.741705,15.000000,3.000000,5.000000,-19.000000,3.000000,-6.000000,-8.000000,-4.000000
1312494.764282,-8.000000,-8.000000,-5.000000,-4.000000,-9.000000,0.000000,-4.000000,14.000000
1312494.764291,-3.000000,11.000000,63.000000,14.000000,3.000000,2.000000,2.000000,-10.000000
1312494.764843,-5.000000,-4.000000,15.000000,-19.000000,3.000000,1.000000,-7.000000,-8.000000
1312494.764852,-3.000000,-5.000000,-3.000000,2.000000,-6.000000,0.000000,-2.000000,1.000000
1312494.766090,-3.000000,-1.000000,-12.000000,5.000000,-6.000000,0.000000,0.000000,0.000000
1312494.766098,2.000000,3.000000,-37.000000,-23.000000,-1.000000,-6.000000,-1.000000,-3.000000
1312494.766922,5.000000,-3.000000,44.000000,26.000000,-3.000000,2.000000,1.000000,-4.000000
1312494.766930,8.000000,7.000000,-15.000000,14.000000,6.000000,5.000000,1.000000,2.000000
1312494.779164,-13.000000,-15.000000,-41.000000,-31.000000,-18.000000,-14.000000,-13.000000,1.000000
1312494.779174,-6.000000,28.000000,25.000000,-1.000000,4.000000,0.000000,-2.000000,7.000000
1312494.780174,-7.000000,-4.000000,-45.000000,-9.000000,-13.000000,-4.000000,-6.000000,-8.000000
1312494.780196,-9.000000,-12.000000,23.000000,5.000000,-2.000000,-4.000000,-4.000000,-8.000000
1312494.801788,4.000000,7.000000,14.000000,-15.000000,3.000000,-3.000000,-2.000000,-2.000000
1312494.801808,0.000000,-4.000000,-2.000000,4.000000,-2.000000,1.000000,0.000000,4.000000
1312494.802741,-2.000000,-2.000000,-11.000000,5.000000,-5.000000,2.000000,19.000000,-3.000000
1312494.802768,-10.000000,-5.000000,-23.000000,-29.000000,5.000000,-12.000000,-46.000000,-53.000000
1312494.816951,-5.000000,4.000000,59.000000,85.000000,67.000000,23.000000,24.000000,55.000000
1312494.816960,28.000000,-2.000000,-33.000000,-31.000000,-20.000000,5.000000,19.000000,16.000000
1312494.824022,0.000000,-5.000000,30.000000,4.000000,1.000000,-3.000000,-6.000000,-10.000000
1312494.824035,-2.000000,11.000000,-60.000000,-10.000000,0.000000,-5.000000,-3.000000,-10.000000
1312494.838810,-12.000000,-5.000000,8.000000,18.000000,-5.000000,-1.000000,-1.000000,-4.000000
1312494.838822,-10.000000,-5.000000,0.000000,6.000000,-7.000000,-6.000000,-9.000000,-7.000000
1312494.861247,3.000000,0.000000,8.000000,2.000000,24.000000,1.000000,3.000000,0.000000
1312494.861276,-3.000000,-4.000000,-25.000000,-3.000000,-14.000000,4.000000,-2.000000,-4.000000
1312494.876765,-7.000000,-3.000000,21.000000,1.000000,2.000000,6.000000,-10.000000,-9.000000
1312494.876775,5.000000,-2.000000,1.000000,-19.000000,4.000000,-1.000000,5.000000,17.000000
1312494.877436,4.000000,16.000000,-28.000000,-27.000000,-9.000000,-6.000000,-1.000000,9.000000
1312494.877463,-28.000000,-21.000000,-4.000000,22.000000,-9.000000,3.000000,11.000000,14.000000
1312494.879061,-4.000000,2.000000,-12.000000,31.000000,17.000000,3.000000,4.000000,-7.000000
1312494.879083,6.000000,-4.000000,-5.000000,-12.000000,4.000000,1.000000,-10.000000,-1.000000
1312494.884031,-3.000000,-16.000000,-24.000000,10.000000,-10.000000,-2.000000,5.000000,1.000000
1312494.884074,-6.000000,1.000000,13.000000,18.000000,8.000000,4.000000,-2.000000,-1.000000
1312494.899122,17.000000,7.000000,-23.000000,-13.000000,10.000000,4.000000,-1.000000,-3.000000
1312494.899131,-9.000000,-6.000000,-42.000000,-16.000000,-17.000000,-11.000000,-6.000000,5.000000
1312494.900050,7.000000,-10.000000,-5.000000,2.000000,9.000000,13.000000,21.000000,18.000000
1312494.900060,3.000000,5.000000,45.000000,15.000000,4.000000,-5.000000,-5.000000,-9.000000
1312494.921298,-5.000000,-4.000000,-11.000000,7.000000,2.000000,6.000000,8.000000,17.000000
1312494.921310,-12.000000,-11.000000,-4.000000,8.000000,-7.000000,2.000000,-2.000000,-16.000000
1312494.921853,6.000000,9.000000,-20.000000,-15.000000,-8.000000,-5.000000,4.000000,-11.000000
1312494.921862,1.000000,-8.000000,11.000000,-15.000000,-2.000000,-8.000000,-15.000000,-7.000000
1312494.936914,1.000000,-16.000000,-10.000000,8.000000,-7.000000,4.000000,1.000000,2.000000
1312494.936924,11.000000,20.000000,-15.000000,-6.000000,-9.000000,-6.000000,4.000000,28.000000
1312494.943794,18.000000,15.000000,13.000000,-18.000000,3.000000,0.000000,4.000000,-4.000000
1312494.943823,4.000000,-7.000000,-3.000000,12.000000,8.000000,7.000000,4.000000,8.000000
1312495.003791,-2.000000,-6.000000,-14.000000,6.000000,-8.000000,-4.000000,-6.000000,-9.000000
1312495.003821,4.000000,15.000000,-44.000000,-70.000000,-10.000000,-5.000000,-1.000000,2.000000
1312495.004361,-13.000000,-14.000000,-12.000000,8.000000,-3.000000,-1.000000,0.000000,-4.000000
1312495.004369,17.000000,-1.000000,-68.000000,9.000000,-7.000000,4.000000,1.000000,5.000000
1312495.005628,-1.000000,-1.000000,-20.000000,-17.000000,-4.000000,-5.000000,-2.000000,-3.000000
1312495.005638,-3.000000,-8.000000,-24.000000,-8.000000,7.000000,-2.000000,-6.000000,2.000000
1312495.006332,-9.000000,-5.000000,7.000000,5.000000,-14.000000,-2.000000,-6.000000,-18.000000
1312495.006343,-1.000000,-6.000000,8.000000,12.000000,19.000000,3.000000,5.000000,17.000000
1312495.007997,2.000000,16.000000,21.000000,-26.000000,7.000000,0.000000,-17.000000,-13.000000
1312495.008026,-10.000000,-5.000000,22.000000,58.000000,25.000000,14.000000,27.000000,38.000000
1312495.019302,1.000000,-4.000000,-2.000000,-3.000000,-9.000000,-2.000000,-2.000000,-2.000000
1312495.019316,-8.000000,-14.000000,-22.000000,1.000000,-13.000000,3.000000,4.000000,-4.000000
1312495.019962,-3.000000,4.000000,18.000000,-9.000000,2.000000,-7.000000,-5.000000,4.000000
1312495.019971,6.000000,9.000000,15.000000,7.000000,10.000000,-1.000000,-1.000000,0.000000
1312495.033737,14.000000,-13.000000,-54.000000,18.000000,-13.000000,5.000000,3.000000,-2.000000
1312495.033747,-27.000000,10.000000,96.000000,8.000000,12.000000,-3.000000,-1.000000,-5.000000
1312495.041393,0.000000,2.000000,-8.000000,-5.000000,16.000000,0.000000,-10.000000,0.000000
1312495.041422,-4.000000,-1.000000,-68.000000,-10.000000,-22.000000,0.000000,15.000000,14.000000
1312495.057203,12.000000,2.000000,-7.000000,2.000000,-7.000000,-8.000000,-10.000000,-9.000000
1312495.057215,-21.000000,6.000000,49.000000,-18.000000,10.000000,-3.000000,-7.000000,0.000000
1312495.063830,11.000000,-5.000000,-8.000000,19.000000,-1.000000,2.000000,-12.000000,11.000000
1312495.063851,4.000000,4.000000,14.000000,15.000000,-7.000000,0.000000,-5.000000,-7.000000
1312495.093857,-16.000000,3.000000,4.000000,-17.000000,-3.000000,-6.000000,-7.000000,-12.000000
1312495.093886,3.000000,0.000000,-3.000000,19.000000,1.000000,-3.000000,13.000000,16.000000
1312495.101335,8.000000,-10.000000,8.000000,-2.000000,-10.000000,3.000000,-9.000000,-5.000000
1312495.101364,-10.000000,-4.000000,-6.000000,-6.000000,0.000000,-1.000000,2.000000,2.000000
1312495.138831,-1.000000,8.000000,19.000000,-40.000000,-2.000000,-5.000000,-14.000000,-10.000000
1312495.138843,13.000000,0.000000,-1.000000,-12.000000,-10.000000,3.000000,-1.000000,1.000000
1312495.153746,6.000000,5.000000,-2.000000,9.000000,0.000000,3.000000,7.000000,-2.000000
1312495.153776,2.000000,-4.000000,48.000000,-15.000000,4.000000,-6.000000,-7.000000,-4.000000
1312495.154810,-8.000000,12.000000,15.000000,7.000000,-4.000000,-9.000000,-9.000000,-5.000000
1312495.154827,-18.000000,-6.000000,-44.000000,35.000000,3.000000,3.000000,11.000000,15.000000
1312495.155401,22.000000,15.000000,93.000000,-18.000000,-4.000000,-4.000000,-1.000000,11.000000
1312495.155418,19.000000,14.000000,-14.000000,-18.000000,6.000000,4.000000,9.000000,7.000000
1312495.156739,-5.000000,-5.000000,-32.000000,5.000000,-8.000000,1.000000,-5.000000,-6.000000
1312495.156780,-7.000000,0.000000,19.000000,1.000000,-3.000000,-5.000000,-3.000000,-7.000000
1312495.157989,13.000000,9.000000,-20.000000,12.000000,-3.000000,-3.000000,1.000000,-3.000000
1312495.158008,-13.000000,1.000000,37.000000,8.000000,6.000000,-3.000000,-8.000000,-10.000000
1312495.161227,-20.000000,-8.000000,14.000000,-15.000000,-7.000000,0.000000,2.000000,2.000000
1312495.161235,0.000000,-15.000000,-22.000000,26.000000,-7.000000,-1.000000,-8.000000,-5.000000
1312495.176910,5.000000,7.000000,28.000000,-29.000000,-7.000000,-4.000000,3.000000,10.000000
1312495.176920,-8.000000,-2.000000,8.000000,-17.000000,-7.000000,0.000000,-3.000000,-16.000000
1312495.199281,-6.000000,-32.000000,-19.000000,7.000000,-11.000000,-11.000000,-23.000000,-13.000000
1312495.199290,-5.000000,3.000000,22.000000,-16.000000,-10.000000,0.000000,-1.000000,30.000000
1312495.221376,7.000000,4.000000,1.000000,-18.000000,2.000000,3.000000,4.000000,-1.000000
1312495.221388,-3.000000,0.000000,-37.000000,8.000000,0.000000,5.000000,-3.000000,-10.000000
1312495.236503,-1.000000,4.000000,66.000000,-1.000000,-7.000000,-4.000000,-1.000000,-1.000000
1312495.236515,1.000000,3.000000,-8.000000,-18.000000,-5.000000,-9.000000,-6.000000,-24.000000
1312495.259215,-1.000000,-23.000000,-22.000000,-26.000000,-14.000000,-3.000000,-5.000000,10.000000
1312495.259225,-6.000000,-5.000000,13.000000,21.000000,-4.000000,1.000000,6.000000,0.000000
1312495.259734,2.000000,-2.000000,-23.000000,-16.000000,-1.000000,-2.000000,0.000000,0.000000
1312495.259743,9.000000,3.000000,-14.000000,-22.000000,-10.000000,-2.000000,-2.000000,-8.000000
1312495.261081,-11.000000,-8.000000,-4.000000,19.000000,-7.000000,2.000000,-4.000000,-3.000000
1312495.261097,-5.000000,-2.000000,21.000000,-12.000000,4.000000,0.000000,4.000000,12.000000
1312495.261708,9.000000,16.000000,-13.000000,-17.000000,-1.000000,-8.000000,-6.000000,-9.000000
1312495.261716,13.000000,5.000000,2.000000,31.000000,-12.000000,1.000000,4.000000,12.000000
1312495.273801,-14.000000,-4.000000,11.000000,-18.000000,1.000000,-6.000000,-9.000000,-14.000000
1312495.273813,4.000000,1.000000,21.000000,-22.000000,-4.000000,1.000000,4.000000,6.000000
1312495.281481,-11.000000,-9.000000,19.000000,22.000000,-8.000000,3.000000,0.000000,-7.000000
1312495.281492,0.000000,5.000000,-11.000000,-5.000000,-1.000000,-6.000000,10.000000,1.000000
1312495.311236,0.000000,1.000000,4.000000,-13.000000,0.000000,-5.000000,-7.000000,2.000000
1312495.311247,2.000000,-11.000000,-12.000000,-8.000000,-10.000000,4.000000,0.000000,-5.000000
1312495.318778,11.000000,6.000000,47.000000,-19.000000,-12.000000,-1.000000,-5.000000,-3.000000
1312495.318789,14.000000,16.000000,41.000000,12.000000,11.000000,4.000000,3.000000,7.000000
1312495.341707,1.000000,5.000000,-6.000000,-5.000000,-3.000000,-1.000000,0.000000,-16.000000
1312495.341733,-6.000000,-5.000000,-24.000000,6.000000,-12.000000,-4.000000,-9.000000,-12.000000
1312495.356146,5.000000,3.000000,-23.000000,-24.000000,-7.000000,-4.000000,17.000000,22.000000
1312495.356156,6.000000,16.000000,14.000000,10.000000,-1.000000,-1.000000,-20.000000,-27.000000
1312495.371801,-11.000000,-15.000000,-31.000000,5.000000,-11.000000,-3.000000,-1.000000,5.000000
1312495.371810,8.000000,4.000000,33.000000,-7.000000,-3.000000,-1.000000,7.000000,12.000000
1312495.372470,-1.000000,5.000000,14.000000,3.000000,8.000000,2.000000,-7.000000,-16.000000
1312495.372498,-4.000000,-16.000000,-17.000000,0.000000,-11.000000,5.000000,7.000000,4.000000
1312495.374035,2.000000,1.000000,0.000000,-4.000000,-6.000000,-4.000000,-15.000000,-3.000000
1312495.374045,-5.000000,10.000000,-18.000000,-24.000000,-1.000000,-7.000000,-6.000000,-13.000000
1312495.374597,1.000000,12.000000,-6.000000,-1.000000,-9.000000,4.000000,5.000000,10.000000
1312495.374607,-5.000000,-9.000000,-7.000000,-14.000000,-18.000000,-1.000000,1.000000,-6.000000
1312495.378665,-21.000000,-19.000000,-16.000000,47.000000,8.000000,1.000000,1.000000,9.000000
1312495.378674,-5.000000,-4.000000,10.000000,-14.000000,-1.000000,1.000000,7.000000,6.000000
1312495.393670,25.000000,3.000000,-14.000000,-15.000000,-2.000000,-3.000000,1.000000,-6.000000
1312495.393688,13.000000,7.000000,26.000000,36.000000,-3.000000,2.000000,-3.000000,0.000000
1312495.416560,-17.000000,5.000000,33.000000,-14.000000,-11.000000,0.000000,4.000000,-6.000000
1312495.416573,2.000000,2.000000,-10.000000,-25.000000,5.000000,-1.000000,-8.000000,-11.000000
1312495.438659,7.000000,-2.000000,-6.000000,-14.000000,-11.000000,-2.000000,-1.000000,16.000000
1312495.438669,-3.000000,0.000000,5.000000,17.000000,-6.000000,4.000000,14.000000,-20.000000
1312495.453616,-6.000000,-5.000000,-15.000000,-23.000000,-4.000000,-14.000000,-17.000000,18.000000
1312495.453625,10.000000,-15.000000,-33.000000,-25.000000,-5.000000,2.000000,3.000000,10.000000
1312495.468939,-4.000000,-4.000000,30.000000,22.000000,-4.000000,2.000000,-10.000000,-31.000000
1312495.468950,-5.000000,5.000000,-15.000000,-17.000000,-2.000000,0.000000,4.000000,7.000000
1312495.476300,4.000000,9.000000,-22.000000,1.000000,4.000000,0.000000,-3.000000,-8.000000
1312495.476331,3.000000,-7.000000,-31.000000,5.000000,-11.000000,2.000000,0.000000,2.000000
1312495.477332,-6.000000,-1.000000,-14.000000,-2.000000,4.000000,-1.000000,-4.000000,-7.000000
1312495.477361,6.000000,7.000000,27.000000,-18.000000,2.000000,-3.000000,-3.000000,3.000000
1312495.478084,5.000000,-9.000000,-2.000000,-11.000000,-8.000000,6.000000,3.000000,5.000000
1312495.478111,-18.000000,-2.000000,-3.000000,35.000000,3.000000,3.000000,-2.000000,2.000000
1312495.492166,-14.000000,-3.000000,-12.000000,-19.000000,-12.000000,4.000000,0.000000,-10.000000
1312495.492408,7.000000,-3.000000,-5.000000,-11.000000,-8.000000,-9.000000,-9.000000,-18.000000
1312495.493240,5.000000,9.000000,52.000000,-54.000000,-7.000000,-5.000000,-2.000000,11.000000
1312495.493258,15.000000,-8.000000,35.000000,56.000000,20.000000,10.000000,4.000000,5.000000
1312495.499026,-23.000000,-15.000000,-43.000000,-15.000000,0.000000,-6.000000,-11.000000,-6.000000
1312495.499043,6.000000,15.000000,70.000000,-11.000000,6.000000,-5.000000,-6.000000,5.000000
1312495.514394,11.000000,-7.000000,-32.000000,1.000000,-5.000000,1.000000,7.000000,12.000000
1312495.514444,-5.000000,4.000000,31.000000,8.000000,-1.000000,-1.000000,1.000000,-5.000000
1312495.536752,-5.000000,10.000000,6.000000,-14.000000,3.000000,-2.000000,-5.000000,-9.000000
1312495.536772,6.000000,-6.000000,4.000000,8.000000,0.000000,0.000000,-7.000000,3.000000
1312495.558932,-5.000000,3.000000,18.000000,10.000000,-17.000000,0.000000,-3.000000,-6.000000
1312495.558943,5.000000,-37.000000,-62.000000,-20.000000,7.000000,-3.000000,7.000000,26.000000
1312495.574324,0.000000,7.000000,20.000000,59.000000,54.000000,8.000000,0.000000,0.000000
1312495.574354,0.000000,-10.000000,-14.000000,0.000000,-11.000000,1.000000,0.000000,-2.000000
1312495.596266,-2.000000,1.000000,6.000000,-29.000000,-8.000000,2.000000,-1.000000,8.000000
1312495.596276,-5.000000,7.000000,-9.000000,-11.000000,6.000000,-7.000000,0.000000,6.000000
1312495.611473,4.000000,4.000000,-18.000000,11.000000,2.000000,2.000000,-2.000000,-2.000000
1312495.611504,-10.000000,-7.000000,-2.000000,-12.000000,-14.000000,-1.000000,-4.000000,-6.000000
1312495.612414,9.000000,10.000000,-4.000000,-13.000000,1.000000,-7.000000,-3.000000,-8.000000
1312495.612440,12.000000,-4.000000,-11.000000,2.000000,-7.000000,0.000000,4.000000,19.000000
1312495.613125,-11.000000,-7.000000,-16.000000,2.000000,5.000000,3.000000,2.000000,-3.000000
1312495.613154,2.000000,4.000000,62.000000,-5.000000,-11.000000,-2.000000,-13.000000,-8.000000
1312495.614272,0.000000,2.000000,-31.000000,-22.000000,-2.000000,-4.000000,-17.000000,-22.000000
1312495.614299,10.000000,22.000000,48.000000,-14.000000,-4.000000,1.000000,13.000000,23.000000
1312495.619252,15.000000,19.000000,21.000000,-50.000000,-7.000000,-7.000000,-4.000000,-6.000000
1312495.619263,-26.000000,-35.000000,24.000000,71.000000,44.000000,11.000000,1.000000,-12.000000
1312495.634364,-16.000000,11.000000,16.000000,-16.000000,-18.000000,-1.000000,-5.000000,-21.000000
1312495.634396,22.000000,-7.000000,74.000000,-2.000000,6.000000,-2.000000,-10.000000,16.000000
1312495.648766,10.000000,8.000000,8.000000,3.000000,3.000000,-2.000000,6.000000,2.000000
1312495.648777,-14.000000,-13.000000,-91.000000,-5.000000,-10.000000,5.000000,-2.000000,-14.000000
1312495.656449,2.000000,-3.000000,-3.000000,-20.000000,-6.000000,-7.000000,0.000000,-4.000000
1312495.656462,12.000000,8.000000,0.000000,14.000000,11.000000,-8.000000,0.000000,6.000000
1312495.671429,-3.000000,-4.000000,-9.000000,-25.000000,-29.000000,-4.000000,-4.000000,1.000000
1312495.671465,8.000000,8.000000,29.000000,13.000000,14.000000,4.000000,-2.000000,2.000000
1312495.693945,3.000000,6.000000,7.000000,-15.000000,-1.000000,-3.000000,-5.000000,-5.000000
1312495.693975,2.000000,-5.000000,-27.000000,-7.000000,-5.000000,-2.000000,1.000000,2.000000
1312495.694311,-11.000000,1.000000,18.000000,-1.000000,-19.000000,-9.000000,-6.000000,-1.000000
1312495.694340,-13.000000,-2.000000,4.000000,23.000000,17.000000,0.000000,-6.000000,16.000000
1312495.695848,-2.000000,-4.000000,-18.000000,-13.000000,2.000000,0.000000,6.000000,13.000000
1312495.695875,-9.000000,-11.000000,12.000000,14.000000,-15.000000,0.000000,-2.000000,5.000000
1312495.708883,-1.000000,-4.000000,-21.000000,-19.000000,-5.000000,-4.000000,-9.000000,-11.000000
1312495.708914,-9.000000,-6.000000,-37.000000,-26.000000,1.000000,2.000000,6.000000,14.000000
1312495.731196,-2.000000,5.000000,-8.000000,7.000000,2.000000,-2.000000,-4.000000,-7.000000
1312495.731206,1.000000,5.000000,-9.000000,-1.000000,-2.000000,-5.000000,-3.000000,-5.000000
1312495.746542,2.000000,10.000000,0.000000,-13.000000,-1.000000,-4.000000,-3.000000,-2.000000
1312495.746553,-4.000000,8.000000,7.000000,10.000000,22.000000,8.000000,-4.000000,-7.000000
1312495.768941,-2.000000,-13.000000,-81.000000,13.000000,7.000000,5.000000,2.000000,6.000000
1312495.768958,-1.000000,4.000000,-34.000000,-43.000000,-10.000000,-9.000000,-4.000000,-12.000000
1312495.791513,6.000000,14.000000,75.000000,10.000000,-4.000000,-1.000000,4.000000,5.000000
1312495.791543,6.000000,-20.000000,-31.000000,36.000000,-1.000000,9.000000,-5.000000,10.000000
1312495.792546,11.000000,6.000000,8.000000,-4.000000,-9.000000,-3.000000,-3.000000,-6.000000
1312495.792554,-2.000000,11.000000,-1.000000,-1.000000,8.000000,1.000000,1.000000,-7.000000
1312495.793111,-5.000000,-7.000000,-15.000000,-4.000000,-9.000000,-2.000000,-4.000000,-22.000000
1312495.793119,-1.000000,0.000000,1.000000,0.000000,-5.000000,-2.000000,0.000000,10.000000
1312495.794228,-7.000000,3.000000,17.000000,-11.000000,1.000000,-3.000000,4.000000,2.000000
1312495.794256,-31.000000,-15.000000,-53.000000,12.000000,3.000000,0.000000,-19.000000,-16.000000
1312495.813619,-23.000000,-5.000000,-19.000000,1.000000,4.000000,-3.000000,-6.000000,-18.000000
1312495.813643,3.000000,-9.000000,-20.000000,-12.000000,9.000000,-6.000000,0.000000,18.000000
1312495.815190,-9.000000,-19.000000,9.000000,13.000000,-1.000000,7.000000,12.000000,15.000000
1312495.815203,-7.000000,6.000000,-53.000000,26.000000,16.000000,0.000000,-3.000000,-6.000000
1312495.821178,-1.000000,5.000000,5.000000,-3.000000,8.000000,-8.000000,-8.000000,7.000000
1312495.821202,4.000000,-1.000000,7.000000,-17.000000,-16.000000,1.000000,6.000000,4.000000
1312495.836341,-21.000000,-7.000000,-6.000000,0.000000,3.000000,5.000000,-4.000000,-14.000000
1312495.836352,-3.000000,12.000000,9.000000,29.000000,6.000000,-2.000000,-6.000000,-2.000000
1312495.844016,7.000000,1.000000,0.000000,35.000000,0.000000,-1.000000,-6.000000,-1.000000
1312495.844027,8.000000,-4.000000,-5.000000,-25.000000,-26.000000,-3.000000,-4.000000,-5.000000
1312495.851829,-24.000000,-5.000000,12.000000,-10.000000,3.000000,-4.000000,4.000000,5.000000
1312495.851843,15.000000,11.000000,-28.000000,-36.000000,-10.000000,-8.000000,-3.000000,-6.000000
1312495.873937,-24.000000,-10.000000,8.000000,6.000000,-11.000000,-1.000000,1.000000,-20.000000
1312495.873966,7.000000,15.000000,0.000000,1.000000,4.000000,-2.000000,1.000000,16.000000
1312495.874951,-3.000000,13.000000,3.000000,-22.000000,4.000000,-2.000000,5.000000,-1.000000
1312495.874959,-8.000000,-6.000000,10.000000,-1.000000,-7.000000,3.000000,-11.000000,-18.000000
1312495.888836,-6.000000,-5.000000,-23.000000,21.000000,18.000000,4.000000,-5.000000,-3.000000
1312495.888845,-1.000000,6.000000,50.000000,0.000000,3.000000,-7.000000,-2.000000,-22.000000
1312495.911432,3.000000,-6.000000,-24.000000,0.000000,0.000000,3.000000,17.000000,32.000000
1312495.911456,2.000000,-1.000000,1.000000,19.000000,2.000000,7.000000,-1.000000,-15.000000
1312495.926227,-8.000000,-4.000000,-22.000000,-14.000000,-5.000000,-5.000000,-11.000000,-17.000000
1312495.926239,6.000000,3.000000,-45.000000,-32.000000,-13.000000,-3.000000,-7.000000,9.000000
1312495.949031,-15.000000,-12.000000,-8.000000,21.000000,-5.000000,5.000000,-3.000000,-10.000000
1312495.949140,8.000000,2.000000,10.000000,1.000000,-2.000000,-2.000000,11.000000,4.000000
1312495.949367,5.000000,20.000000,-41.000000,-41.000000,-9.000000,-5.000000,-12.000000,-3.000000
1312495.949378,0.000000,-13.000000,6.000000,-10.000000,0.000000,2.000000,0.000000,-2.000000
1312495.950477,-5.000000,-11.000000,-16.000000,11.000000,-24.000000,-6.000000,2.000000,5.000000
1312495.950504,-15.000000,12.000000,-10.000000,-41.000000,-3.000000,-9.000000,-1.000000,-2.000000
1312495.951125,13.000000,-2.000000,-6.000000,-17.000000,-12.000000,4.000000,2.000000,-2.000000
1312495.951153,-15.000000,-14.000000,75.000000,23.000000,-11.000000,1.000000,5.000000,-3.000000
1312495.971106,-13.000000,-4.000000,-43.000000,-20.000000,0.000000,-10.000000,-35.000000,-38.000000
1312495.971117,6.000000,-1.000000,11.000000,-9.000000,3.000000,-5.000000,1.000000,10.000000
1312495.971680,18.000000,-3.000000,-5.000000,21.000000,-4.000000,2.000000,9.000000,8.000000
1312495.971690,-13.000000,-3.000000,-44.000000,-2.000000,-2.000000,0.000000,-5.000000,-9.000000
1312495.973467,12.000000,3.000000,10.000000,-4.000000,10.000000,-3.000000,-5.000000,3.000000
1312495.973477,3.000000,-2.000000,-29.000000,-1.000000,-7.000000,1.000000,-1.000000,-3.000000
1312495.986100,-7.000000,-1.000000,22.000000,11.000000,-3.000000,-2.000000,3.000000,1.000000
1312495.986127,0.000000,-14.000000,-1.000000,-34.000000,-6.000000,-6.000000,-4.000000,-6.000000
1312495.993906,-1.000000,-10.000000,-15.000000,14.000000,5.000000,0.000000,1.000000,17.000000
1312495.993943,4.000000,-1.000000,0.000000,48.000000,4.000000,8.000000,2.000000,8.000000
1312496.008954,3.000000,-3.000000,4.000000,-16.000000,-10.000000,-5.000000,-6.000000,-12.000000
1312496.008986,-2.000000,-3.000000,-65.000000,11.000000,30.000000,5.000000,3.000000,3.000000
1312496.046183,-19.000000,-5.000000,6.000000,44.000000,15.000000,11.000000,-4.000000,-23.000000
1312496.046201,-3.000000,-21.000000,-10.000000,-2.000000,0.000000,-10.000000,2.000000,8.000000
1312496.053700,7.000000,-1.000000,37.000000,-20.000000,-7.000000,-4.000000,1.000000,-7.000000
1312496.053709,6.000000,11.000000,-17.000000,4.000000,0.000000,2.000000,-3.000000,1.000000
1312496.069437,-11.000000,-2.000000,-4.000000,-16.000000,-19.000000,0.000000,0.000000,-6.000000
1312496.069448,7.000000,13.000000,26.000000,-37.000000,3.000000,-5.000000,-1.000000,-7.000000
1312496.069971,-1.000000,-5.000000,15.000000,30.000000,8.000000,1.000000,9.000000,14.000000
1312496.069981,10.000000,7.000000,44.000000,17.000000,2.000000,2.000000,-17.000000,0.000000
1312496.071133,4.000000,7.000000,-46.000000,-23.000000,-7.000000,-6.000000,3.000000,5.000000
1312496.071143,-24.000000,-5.000000,5.000000,-2.000000,9.000000,-3.000000,2.000000,-11.000000
1312496.071732,1.000000,-9.000000,-6.000000,15.000000,-8.000000,1.000000,2.000000,0.000000
1312496.071742,5.000000,6.000000,14.000000,-14.000000,-9.000000,-4.000000,13.000000,-3.000000
1312496.091163,11.000000,8.000000,0.000000,0.000000,8.000000,-2.000000,-4.000000,15.000000
1312496.091174,-3.000000,-3.000000,-2.000000,3.000000,6.000000,4.000000,3.000000,0.000000
1312496.091619,4.000000,-6.000000,-17.000000,32.000000,-8.000000,-12.000000,-11.000000,-11.000000
1312496.091662,-1.000000,-2.000000,18.000000,-23.000000,-8.000000,-4.000000,5.000000,5.000000
1312496.093046,1.000000,1.000000,15.000000,11.000000,11.000000,6.000000,18.000000,12.000000
1312496.093073,2.000000,0.000000,22.000000,15.000000,-8.000000,3.000000,-13.000000,-13.000000
1312496.106215,2.000000,21.000000,-58.000000,-18.000000,-1.000000,-5.000000,6.000000,5.000000
1312496.106235,-7.000000,-38.000000,4.000000,-42.000000,-28.000000,-3.000000,2.000000,-4.000000
1312496.114178,-9.000000,-5.000000,-27.000000,19.000000,3.000000,2.000000,-6.000000,-3.000000
1312496.114188,-2.000000,3.000000,-22.000000,7.000000,-3.000000,-2.000000,-6.000000,-4.000000
1312496.129313,9.000000,10.000000,-24.000000,-22.000000,2.000000,-7.000000,-16.000000,-1.000000
1312496.129345,-16.000000,-15.000000,-20.000000,-6.000000,-9.000000,-2.000000,7.000000,9.000000
1312496.151235,-4.000000,12.000000,27.000000,4.000000,1.000000,0.000000,-2.000000,-7.000000
1312496.151318,2.000000,7.000000,26.000000,-18.000000,3.000000,-3.000000,0.000000,-3.000000
1312496.158825,-8.000000,-8.000000,37.000000,6.000000,-3.000000,-3.000000,0.000000,-3.000000
1312496.158835,2.000000,-5.000000,-5.000000,4.000000,-1.000000,1.000000,-6.000000,-10.000000
1312496.173835,16.000000,12.000000,13.000000,23.000000,23.000000,4.000000,7.000000,31.000000
1312496.173845,-1.000000,-4.000000,-76.000000,10.000000,14.000000,5.000000,-3.000000,-21.000000
1312496.174230,-8.000000,-5.000000,53.000000,-4.000000,-15.000000,-1.000000,3.000000,19.000000
1312496.174238,-3.000000,9.000000,55.000000,13.000000,9.000000,4.000000,1.000000,-11.000000
1312496.175899,3.000000,-8.000000,-1.000000,-23.000000,-7.000000,-9.000000,-12.000000,-9.000000
1312496.175910,5.000000,-32.000000,-21.000000,-11.000000,-2.000000,3.000000,-3.000000,8.000000
1312496.189038,-4.000000,19.000000,-7.000000,27.000000,1.000000,3.000000,13.000000,7.000000
1312496.189055,12.000000,10.000000,22.000000,-15.000000,6.000000,-11.000000,-6.000000,-3.000000
1312496.203576,-2.000000,-8.000000,-1.000000,1.000000,-10.000000,-2.000000,-5.000000,-8.000000
1312496.203585,18.000000,7.000000,16.000000,0.000000,-13.000000,5.000000,9.000000,20.000000
1312496.204315,-37.000000,-6.000000,-49.000000,9.000000,16.000000,-4.000000,7.000000,-27.000000
1312496.204322,5.000000,4.000000,-5.000000,-12.000000,-4.000000,-6.000000,-14.000000,6.000000
1312496.211973,-20.000000,-9.000000,16.000000,17.000000,-6.000000,2.000000,-3.000000,10.000000
1312496.211983,1.000000,-3.000000,-28.000000,-13.000000,-3.000000,3.000000,2.000000,-9.000000
1312496.226142,8.000000,0.000000,31.000000,21.000000,11.000000,-5.000000,2.000000,4.000000
1312496.226152,-10.000000,4.000000,-19.000000,6.000000,-3.000000,3.000000,-8.000000,-20.000000
1312496.248820,3.000000,10.000000,44.000000,-2.000000,-5.000000,-2.000000,9.000000,17.000000
1312496.248832,11.000000,-14.000000,-50.000000,-30.000000,9.000000,3.000000,18.000000,21.000000
1312496.264030,-1.000000,-1.000000,-37.000000,-11.000000,-4.000000,-3.000000,-13.000000,-19.000000
1312496.264043,-13.000000,-6.000000,-2.000000,35.000000,14.000000,6.000000,-1.000000,7.000000
1312496.271665,-7.000000,1.000000,-2.000000,5.000000,3.000000,-7.000000,-11.000000,-8.000000
1312496.271675,7.000000,-22.000000,4.000000,-33.000000,-8.000000,-1.000000,-3.000000,2.000000
1312496.272341,-12.000000,-17.000000,-24.000000,34.000000,3.000000,1.000000,2.000000,-1.000000
1312496.272351,-2.000000,4.000000,-14.000000,-10.000000,-5.000000,-3.000000,-3.000000,-6.000000
1312496.274039,6.000000,10.000000,20.000000,-7.000000,3.000000,-8.000000,-7.000000,-2.000000
1312496.274051,-7.000000,-5.000000,-14.000000,34.000000,-3.000000,3.000000,-3.000000,-3.000000
1312496.286117,-8.000000,0.000000,26.000000,23.000000,12.000000,1.000000,-2.000000,0.000000
1312496.286127,-5.000000,-3.000000,-35.000000,-27.000000,-2.000000,-6.000000,4.000000,2.000000
1312496.293643,-17.000000,0.000000,-1.000000,2.000000,-10.000000,0.000000,1.000000,-8.000000
1312496.293672,-7.000000,-25.000000,-19.000000,50.000000,18.000000,2.000000,-14.000000,-7.000000
1312496.308855,-5.000000,5.000000,-31.000000,4.000000,4.000000,-1.000000,-5.000000,-12.000000
1312496.308871,7.000000,3.000000,0.000000,-13.000000,-9.000000,-3.000000,1.000000,16.000000
1312496.323918,-22.000000,-11.000000,-49.000000,1.000000,-9.000000,4.000000,2.000000,-35.000000
1312496.323928,7.000000,-7.000000,-6.000000,1.000000,3.000000,2.000000,7.000000,25.000000
1312496.324272,15.000000,11.000000,41.000000,-20.000000,-3.000000,-4.000000,-7.000000,-9.000000
1312496.324280,-6.000000,6.000000,6.000000,9.000000,-3.000000,5.000000,0.000000,2.000000
1312496.331792,-7.000000,-8.000000,-10.000000,16.000000,-5.000000,-6.000000,-7.000000,-8.000000
1312496.331801,-11.000000,3.000000,9.000000,-7.000000,8.000000,0.000000,9.000000,13.000000
1312496.346572,8.000000,4.000000,-83.000000,-9.000000,8.000000,1.000000,-1.000000,-8.000000
1312496.346585,-11.000000,-9.000000,-5.000000,4.000000,-7.000000,-4.000000,-4.000000,-9.000000
1312496.376215,8.000000,10.000000,24.000000,-17.000000,-3.000000,-10.000000,-3.000000,-1.000000
1312496.376226,10.000000,-3.000000,-11.000000,-17.000000,-2.000000,-3.000000,1.000000,2.000000
1312496.383650,-13.000000,-13.000000,-19.000000,18.000000,0.000000,7.000000,4.000000,14.000000
1312496.383665,1.000000,7.000000,12.000000,-3.000000,4.000000,-4.000000,-2.000000,-5.000000
1312496.406374,12.000000,0.000000,6.000000,-13.000000,7.000000,1.000000,-3.000000,-4.000000
1312496.406389,-26.000000,-17.000000,-9.000000,5.000000,-10.000000,3.000000,-2.000000,0.000000
1312496.429146,-4.000000,4.000000,14.000000,3.000000,-5.000000,-2.000000,3.000000,16.000000
1312496.429164,5.000000,0.000000,-7.000000,-17.000000,2.000000,-7.000000,-14.000000,-29.000000
1312496.444562,-5.000000,-10.000000,-17.000000,8.000000,-3.000000,-1.000000,2.000000,15.000000
1312496.444586,5.000000,8.000000,42.000000,12.000000,-4.000000,-1.000000,0.000000,-7.000000
1312496.445019,-5.000000,5.000000,-41.000000,-3.000000,4.000000,-3.000000,-2.000000,-12.000000
1312496.445027,-9.000000,-13.000000,-61.000000,-7.000000,4.000000,6.000000,-2.000000,-2.000000
1312496.446089,0.000000,1.000000,31.000000,17.000000,-1.000000,-4.000000,-3.000000,7.000000
1312496.446097,-2.000000,17.000000,15.000000,0.000000,5.000000,-2.000000,-4.000000,-2.000000
1312496.446788,7.000000,19.000000,-8.000000,-8.000000,5.000000,-3.000000,-2.000000,0.000000
1312496.446796,-1.000000,-15.000000,18.000000,13.000000,-2.000000,5.000000,5.000000,-3.000000
1312496.447523,4.000000,1.000000,0.000000,19.000000,3.000000,1.000000,8.000000,18.000000
1312496.447531,-9.000000,6.000000,10.000000,1.000000,-14.000000,-5.000000,-9.000000,-5.000000
1312496.451841,-8.000000,5.000000,21.000000,-3.000000,13.000000,2.000000,8.000000,4.000000
1312496.451849,22.000000,7.000000,38.000000,-7.000000,-8.000000,0.000000,-6.000000,-1.000000
1312496.466307,-29.000000,-14.000000,1.000000,8.000000,-4.000000,3.000000,-2.000000,2.000000
1312496.466331,-9.000000,-2.000000,28.000000,-19.000000,-7.000000,0.000000,2.000000,-8.000000
1312496.488961,11.000000,0.000000,7.000000,-7.000000,10.000000,-1.000000,-18.000000,-11.000000
1312496.488973,-1.000000,-11.000000,-11.000000,12.000000,-1.000000,1.000000,3.000000,-14.000000
1312496.503817,2.000000,-3.000000,-20.000000,-9.000000,3.000000,0.000000,8.000000,32.000000
1312496.503827,-5.000000,3.000000,21.000000,-11.000000,5.000000,-8.000000,-8.000000,-29.000000
1312496.541532,3.000000,-5.000000,-7.000000,-1.000000,-12.000000,0.000000,-2.000000,-3.000000
1312496.541582,5.000000,0.000000,-32.000000,5.000000,-8.000000,-1.000000,9.000000,12.000000
1312496.542090,1.000000,5.000000,-21.000000,-22.000000,0.000000,-4.000000,-6.000000,-13.000000
1312496.542117,-7.000000,-4.000000,-12.000000,3.000000,2.000000,2.000000,5.000000,28.000000
1312496.542939,5.000000,5.000000,16.000000,11.000000,-9.000000,4.000000,7.000000,2.000000
1312496.542946,3.000000,9.000000,-22.000000,-1.000000,-9.000000,-3.000000,-2.000000,-11.000000
1312496.543703,8.000000,-7.000000,-14.000000,19.000000,36.000000,1.000000,-7.000000,-7.000000
1312496.543713,-15.000000,-7.000000,97.000000,73.000000,17.000000,8.000000,2.000000,0.000000
1312496.545424,-7.000000,-10.000000,-16.000000,71.000000,26.000000,3.000000,-3.000000,-13.000000
1312496.545435,15.000000,14.000000,-16.000000,-8.000000,-15.000000,1.000000,3.000000,7.000000
1312496.563722,-19.000000,-1.000000,8.000000,-15.000000,1.000000,-6.000000,-3.000000,6.000000
1312496.563745,-9.000000,1.000000,-4.000000,-7.000000,-7.000000,-5.000000,1.000000,-8.000000
1312496.564304,3.000000,-5.000000,6.000000,26.000000,3.000000,-1.000000,-9.000000,-10.000000
1312496.564313,10.000000,0.000000,-2.000000,-15.000000,-1.000000,1.000000,-9.000000,4.000000
1312496.579587,-10.000000,0.000000,8.000000,-1.000000,4.000000,-1.000000,0.000000,-2.000000
1312496.579599,-11.000000,3.000000,3.000000,20.000000,-1.000000,6.000000,0.000000,-21.000000
1312496.586510,16.000000,-10.000000,-64.000000,2.000000,5.000000,0.000000,11.000000,23.000000
1312496.586525,20.000000,23.000000,123.000000,-14.000000,-3.000000,-1.000000,-8.000000,-10.000000
1312496.601362,-3.000000,-1.000000,-28.000000,-4.000000,-7.000000,-2.000000,-10.000000,-10.000000
1312496.601381,-16.000000,-9.000000,1.000000,30.000000,13.000000,5.000000,6.000000,-2.000000
1312496.608880,-4.000000,5.000000,2.000000,-35.000000,-2.000000,-8.000000,-1.000000,0.000000
1312496.608910,10.000000,2.000000,30.000000,32.000000,8.000000,5.000000,5.000000,16.000000
1312496.623816,-34.000000,-12.000000,-3.000000,7.000000,-12.000000,1.000000,-3.000000,-6.000000
