# participant_id: P11
# gesture: baseline
# trial_number: 1
# stream_name: Myo_EMG
# stream_type: emg
# timestamp: 20260420_170754
# samples: 5404
# duration_sec: 30.465
# nominal_sample_rate: 200.0
# effective_sample_rate: 177.35
#
timestamp,emg_1,emg_2,emg_3,emg_4,emg_5,emg_6,emg_7,emg_8
1309566.024190,-1.000000,4.000000,5.000000,-5.000000,-6.000000,7.000000,7.000000,11.000000
1309566.024201,-1.000000,-11.000000,-8.000000,1.000000,5.000000,-6.000000,-5.000000,-9.000000
1309566.046463,0.000000,1.000000,-1.000000,2.000000,-1.000000,0.000000,-3.000000,-2.000000
1309566.046472,-5.000000,5.000000,4.000000,0.000000,-7.000000,4.000000,8.000000,9.000000
1309566.054172,1.000000,-7.000000,-3.000000,0.000000,2.000000,-3.000000,0.000000,-2.000000
1309566.054184,-4.000000,-1.000000,-2.000000,-1.000000,4.000000,-8.000000,-6.000000,-8.000000
1309566.083931,-1.000000,5.000000,5.000000,0.000000,-12.000000,6.000000,2.000000,4.000000
1309566.083949,-2.000000,-3.000000,-9.000000,-3.000000,-3.000000,-2.000000,2.000000,0.000000
1309566.084253,-2.000000,-5.000000,-7.000000,-1.000000,8.000000,-8.000000,-13.000000,1.000000
1309566.084261,2.000000,-3.000000,1.000000,-1.000000,-6.000000,1.000000,5.000000,5.000000
1309566.085633,-4.000000,5.000000,7.000000,1.000000,-4.000000,5.000000,1.000000,2.000000
1309566.085648,-4.000000,-7.000000,-6.000000,0.000000,-1.000000,-2.000000,0.000000,1.000000
1309566.086127,-1.000000,-6.000000,-5.000000,-2.000000,6.000000,-9.000000,-10.000000,-11.000000
1309566.086135,-2.000000,2.000000,1.000000,-1.000000,-7.000000,0.000000,0.000000,0.000000
1309566.086854,-2.000000,-4.000000,1.000000,-1.000000,-2.000000,2.000000,6.000000,8.000000
1309566.086867,-4.000000,-4.000000,-7.000000,-3.000000,-1.000000,-5.000000,-7.000000,-4.000000
1309566.099085,-1.000000,-8.000000,-8.000000,5.000000,4.000000,0.000000,-4.000000,-3.000000
1309566.099095,2.000000,2.000000,-2.000000,0.000000,0.000000,-6.000000,-5.000000,-8.000000
1309566.114042,-5.000000,5.000000,6.000000,-7.000000,-5.000000,0.000000,6.000000,5.000000
1309566.114052,-3.000000,-9.000000,-15.000000,3.000000,7.000000,-1.000000,1.000000,2.000000
1309566.121464,6.000000,-3.000000,-6.000000,-3.000000,3.000000,-5.000000,-11.000000,-11.000000
1309566.121475,-4.000000,2.000000,0.000000,0.000000,-4.000000,-1.000000,-1.000000,1.000000
1309566.136428,0.000000,-5.000000,-4.000000,-1.000000,-4.000000,1.000000,7.000000,8.000000
1309566.136439,2.000000,-5.000000,-12.000000,2.000000,2.000000,-3.000000,-7.000000,-6.000000
1309566.144219,0.000000,6.000000,2.000000,-4.000000,-5.000000,-1.000000,-1.000000,0.000000
1309566.144230,-3.000000,7.000000,0.000000,-5.000000,-5.000000,6.000000,6.000000,7.000000
1309566.159130,-4.000000,-1.000000,-6.000000,-1.000000,-1.000000,-6.000000,-1.000000,-3.000000
1309566.159141,0.000000,-3.000000,1.000000,-3.000000,4.000000,-4.000000,-7.000000,-8.000000
1309566.181506,-3.000000,-2.000000,7.000000,1.000000,-6.000000,7.000000,8.000000,2.000000
1309566.181552,3.000000,-7.000000,-4.000000,2.000000,1.000000,-5.000000,-1.000000,-1.000000
1309566.182574,3.000000,-5.000000,-2.000000,2.000000,9.000000,-5.000000,-11.000000,-8.000000
1309566.182585,-2.000000,-3.000000,-1.000000,0.000000,-3.000000,1.000000,-2.000000,1.000000
1309566.183044,-10.000000,-1.000000,-1.000000,1.000000,-7.000000,3.000000,7.000000,4.000000
1309566.183054,-1.000000,-7.000000,-18.000000,6.000000,2.000000,-8.000000,-6.000000,-5.000000
1309566.184596,-5.000000,0.000000,0.000000,0.000000,-3.000000,4.000000,-3.000000,-1.000000
1309566.184622,-3.000000,1.000000,7.000000,-9.000000,-4.000000,10.000000,10.000000,7.000000
1309566.196718,1.000000,-3.000000,-3.000000,-1.000000,1.000000,-2.000000,-3.000000,-2.000000
1309566.196739,0.000000,-4.000000,1.000000,5.000000,2.000000,-7.000000,-9.000000,-5.000000
1309566.204050,-5.000000,-3.000000,13.000000,-4.000000,-11.000000,3.000000,3.000000,5.000000
1309566.204062,-1.000000,-6.000000,-8.000000,-2.000000,3.000000,0.000000,0.000000,-1.000000
1309566.218996,5.000000,-7.000000,-6.000000,-6.000000,4.000000,-6.000000,-14.000000,-8.000000
1309566.219006,1.000000,-4.000000,5.000000,-4.000000,-3.000000,2.000000,4.000000,3.000000
1309566.256779,-3.000000,-2.000000,-5.000000,-4.000000,-2.000000,4.000000,4.000000,4.000000
1309566.256792,-4.000000,-13.000000,-12.000000,2.000000,8.000000,-8.000000,-8.000000,-10.000000
1309566.264110,-3.000000,6.000000,4.000000,-5.000000,-4.000000,1.000000,-2.000000,-1.000000
1309566.264130,0.000000,7.000000,7.000000,-4.000000,-7.000000,7.000000,8.000000,7.000000
1309566.286929,1.000000,-5.000000,-8.000000,-3.000000,-2.000000,-5.000000,-7.000000,-4.000000
1309566.286957,-1.000000,-2.000000,0.000000,-3.000000,2.000000,-3.000000,-4.000000,-5.000000
1309566.287700,-4.000000,6.000000,6.000000,-6.000000,-6.000000,2.000000,7.000000,7.000000
1309566.287727,-2.000000,-2.000000,-4.000000,4.000000,5.000000,-2.000000,2.000000,0.000000
1309566.294089,-2.000000,-8.000000,-12.000000,-3.000000,4.000000,-5.000000,-12.000000,-10.000000
1309566.294099,-1.000000,-1.000000,12.000000,5.000000,-5.000000,0.000000,3.000000,4.000000
1309566.301898,-1.000000,-4.000000,-7.000000,-1.000000,-1.000000,1.000000,3.000000,1.000000
1309566.301926,-1.000000,-4.000000,-10.000000,5.000000,2.000000,-8.000000,-8.000000,-9.000000
1309566.302362,-1.000000,-10.000000,-4.000000,-1.000000,5.000000,-5.000000,-6.000000,-3.000000
1309566.302409,-3.000000,5.000000,3.000000,-7.000000,2.000000,-2.000000,-7.000000,-3.000000
1309566.303414,-4.000000,11.000000,4.000000,-2.000000,-6.000000,4.000000,6.000000,7.000000
1309566.303421,-3.000000,-10.000000,-3.000000,-4.000000,0.000000,-5.000000,3.000000,2.000000
1309566.317362,1.000000,-6.000000,-9.000000,0.000000,3.000000,-5.000000,-10.000000,-8.000000
1309566.317386,0.000000,3.000000,-1.000000,-3.000000,-5.000000,5.000000,4.000000,6.000000
1309566.324639,-1.000000,-2.000000,-4.000000,-1.000000,-5.000000,-1.000000,6.000000,9.000000
1309566.324695,5.000000,-8.000000,-11.000000,-3.000000,6.000000,-6.000000,-7.000000,-6.000000
1309566.339940,-6.000000,6.000000,5.000000,-1.000000,-5.000000,-2.000000,-1.000000,1.000000
1309566.339964,-8.000000,0.000000,0.000000,-9.000000,-7.000000,5.000000,7.000000,9.000000
1309566.377392,-1.000000,-7.000000,-8.000000,-1.000000,2.000000,-8.000000,-3.000000,-6.000000
1309566.377415,-4.000000,1.000000,2.000000,5.000000,1.000000,0.000000,-5.000000,-7.000000
1309566.400311,-6.000000,9.000000,11.000000,4.000000,-10.000000,3.000000,9.000000,5.000000
1309566.400435,-1.000000,-6.000000,-7.000000,-4.000000,3.000000,-3.000000,-1.000000,1.000000
1309566.401073,0.000000,-1.000000,-9.000000,0.000000,2.000000,-6.000000,-10.000000,-9.000000
1309566.401086,-5.000000,8.000000,1.000000,-9.000000,-1.000000,3.000000,5.000000,5.000000
1309566.401661,1.000000,0.000000,-7.000000,-1.000000,-3.000000,0.000000,6.000000,5.000000
1309566.401675,3.000000,-12.000000,-12.000000,-1.000000,6.000000,-8.000000,-11.000000,-10.000000
1309566.402353,-3.000000,2.000000,2.000000,2.000000,-6.000000,-1.000000,-4.000000,3.000000
1309566.402366,1.000000,4.000000,1.000000,-2.000000,-8.000000,3.000000,9.000000,7.000000
1309566.403044,3.000000,-8.000000,-7.000000,0.000000,5.000000,-6.000000,-7.000000,-7.000000
1309566.403056,1.000000,-2.000000,3.000000,1.000000,2.000000,-1.000000,-6.000000,-5.000000
1309566.406617,-7.000000,11.000000,11.000000,0.000000,-9.000000,6.000000,7.000000,8.000000
1309566.406634,-4.000000,-6.000000,-2.000000,4.000000,1.000000,-4.000000,-2.000000,-1.000000
1309566.414136,-3.000000,-5.000000,-10.000000,4.000000,4.000000,-8.000000,-11.000000,-10.000000
1309566.414164,-3.000000,2.000000,6.000000,-10.000000,-7.000000,4.000000,3.000000,1.000000
1309566.429328,-3.000000,-2.000000,-4.000000,4.000000,4.000000,1.000000,5.000000,4.000000
1309566.429342,1.000000,-7.000000,-11.000000,5.000000,9.000000,-4.000000,-9.000000,-10.000000
1309566.436665,0.000000,1.000000,2.000000,-7.000000,-5.000000,1.000000,1.000000,3.000000
1309566.436675,-3.000000,2.000000,5.000000,6.000000,-9.000000,6.000000,6.000000,7.000000
1309566.458923,-1.000000,-1.000000,-1.000000,1.000000,8.000000,-1.000000,-2.000000,-6.000000
1309566.458934,-2.000000,3.000000,2.000000,-2.000000,-2.000000,-4.000000,-2.000000,-6.000000
1309566.474091,-4.000000,9.000000,14.000000,-4.000000,-7.000000,8.000000,7.000000,11.000000
1309566.474103,5.000000,-8.000000,-6.000000,-3.000000,5.000000,-1.000000,-1.000000,-3.000000
1309566.489126,-2.000000,-8.000000,-6.000000,-6.000000,5.000000,-7.000000,-10.000000,-10.000000
1309566.489138,-5.000000,4.000000,2.000000,-1.000000,-4.000000,2.000000,2.000000,3.000000
1309566.496740,2.000000,-9.000000,-9.000000,1.000000,0.000000,2.000000,2.000000,0.000000
1309566.496750,3.000000,-8.000000,-12.000000,0.000000,1.000000,-9.000000,-10.000000,-11.000000
1309566.519184,-1.000000,4.000000,7.000000,-3.000000,-7.000000,4.000000,-1.000000,1.000000
1309566.519195,-6.000000,8.000000,5.000000,0.000000,-6.000000,5.000000,11.000000,29.000000
1309566.519714,-2.000000,-8.000000,-10.000000,0.000000,0.000000,-3.000000,-4.000000,-10.000000
1309566.519722,-5.000000,6.000000,4.000000,-9.000000,-3.000000,-4.000000,-4.000000,-1.000000
1309566.520614,-3.000000,12.000000,8.000000,-2.000000,-9.000000,6.000000,7.000000,11.000000
1309566.520741,0.000000,0.000000,-3.000000,-3.000000,2.000000,-4.000000,-3.000000,1.000000
1309566.521286,-3.000000,-8.000000,-14.000000,-5.000000,6.000000,-7.000000,-10.000000,-11.000000
1309566.521294,-2.000000,4.000000,2.000000,-2.000000,-4.000000,1.000000,2.000000,4.000000
1309566.534177,5.000000,-7.000000,-6.000000,5.000000,1.000000,3.000000,4.000000,0.000000
1309566.534189,1.000000,-9.000000,-8.000000,1.000000,3.000000,-7.000000,-8.000000,-5.000000
1309566.534656,-2.000000,7.000000,8.000000,-5.000000,-5.000000,3.000000,0.000000,3.000000
1309566.534664,-3.000000,-5.000000,-6.000000,-5.000000,-6.000000,4.000000,6.000000,5.000000
1309566.556407,0.000000,-5.000000,-1.000000,0.000000,6.000000,-3.000000,-6.000000,-4.000000
1309566.556417,-2.000000,2.000000,3.000000,-4.000000,-3.000000,-2.000000,-4.000000,-6.000000
1309566.556735,-6.000000,5.000000,7.000000,-6.000000,-8.000000,5.000000,9.000000,10.000000
1309566.556761,-1.000000,-6.000000,-6.000000,-3.000000,-2.000000,0.000000,-6.000000,-2.000000
1309566.571725,2.000000,-6.000000,1.000000,-1.000000,5.000000,-6.000000,-9.000000,-11.000000
1309566.571736,-1.000000,4.000000,7.000000,-2.000000,-1.000000,2.000000,3.000000,5.000000
1309566.579171,-1.000000,-5.000000,-1.000000,-3.000000,-2.000000,0.000000,2.000000,6.000000
1309566.579181,4.000000,-8.000000,-9.000000,5.000000,8.000000,-8.000000,-11.000000,-10.000000
1309566.601462,-3.000000,2.000000,5.000000,-7.000000,-4.000000,2.000000,-1.000000,3.000000
1309566.601480,-6.000000,1.000000,2.000000,-3.000000,-3.000000,5.000000,9.000000,9.000000
1309566.608985,2.000000,-3.000000,-10.000000,0.000000,6.000000,-4.000000,-4.000000,-8.000000
1309566.608994,1.000000,5.000000,4.000000,-6.000000,-4.000000,0.000000,-7.000000,0.000000
1309566.639580,-9.000000,6.000000,3.000000,-1.000000,-9.000000,7.000000,5.000000,7.000000
1309566.639622,1.000000,-8.000000,-3.000000,1.000000,3.000000,0.000000,-3.000000,-1.000000
1309566.639709,2.000000,-8.000000,0.000000,-2.000000,3.000000,-6.000000,-8.000000,-2.000000
1309566.639717,-9.000000,7.000000,5.000000,-3.000000,-3.000000,-1.000000,4.000000,-31.000000
1309566.640725,-2.000000,-6.000000,-3.000000,0.000000,0.000000,-1.000000,2.000000,5.000000
1309566.640733,-1.000000,-14.000000,-13.000000,4.000000,4.000000,-8.000000,-9.000000,-7.000000
1309566.641484,-3.000000,7.000000,9.000000,-1.000000,-2.000000,-3.000000,0.000000,3.000000
1309566.641507,-2.000000,-2.000000,2.000000,1.000000,-4.000000,3.000000,9.000000,6.000000
1309566.646580,0.000000,-1.000000,-7.000000,-5.000000,6.000000,-7.000000,-2.000000,-4.000000
1309566.646630,-3.000000,2.000000,5.000000,-1.000000,-1.000000,1.000000,-4.000000,-2.000000
1309566.653694,-5.000000,13.000000,-1.000000,-3.000000,-8.000000,7.000000,11.000000,7.000000
1309566.653716,-3.000000,-5.000000,-4.000000,-4.000000,1.000000,-5.000000,-1.000000,-3.000000
1309566.676681,0.000000,-4.000000,-5.000000,-2.000000,5.000000,-6.000000,-9.000000,-8.000000
1309566.676694,-4.000000,-3.000000,3.000000,-6.000000,-1.000000,2.000000,3.000000,-2.000000
1309566.677071,2.000000,-2.000000,-7.000000,0.000000,4.000000,-3.000000,2.000000,2.000000
1309566.677079,5.000000,-7.000000,-7.000000,0.000000,8.000000,-7.000000,-10.000000,-9.000000
1309566.691650,-3.000000,3.000000,-5.000000,-1.000000,0.000000,1.000000,0.000000,2.000000
1309566.691661,1.000000,1.000000,-2.000000,-5.000000,-3.000000,5.000000,5.000000,4.000000
1309566.699017,0.000000,-4.000000,-9.000000,5.000000,6.000000,-3.000000,-11.000000,-6.000000
1309566.699039,-1.000000,4.000000,6.000000,-3.000000,-2.000000,0.000000,-3.000000,-1.000000
1309566.736573,-3.000000,2.000000,9.000000,-4.000000,-9.000000,10.000000,9.000000,5.000000
1309566.736666,-2.000000,-5.000000,-9.000000,-8.000000,4.000000,-3.000000,-2.000000,-2.000000
1309566.736830,2.000000,-4.000000,3.000000,0.000000,3.000000,-4.000000,-5.000000,-10.000000
1309566.736857,2.000000,8.000000,5.000000,-4.000000,-3.000000,4.000000,3.000000,7.000000
1309566.738237,-5.000000,-3.000000,-1.000000,0.000000,-5.000000,-2.000000,1.000000,0.000000
1309566.738249,5.000000,-8.000000,-7.000000,1.000000,10.000000,-8.000000,-8.000000,-10.000000
1309566.738642,0.000000,-3.000000,0.000000,-6.000000,-5.000000,4.000000,-1.000000,3.000000
1309566.738650,1.000000,0.000000,1.000000,-1.000000,-5.000000,3.000000,6.000000,7.000000
1309566.743771,0.000000,-10.000000,-12.000000,-4.000000,5.000000,-7.000000,-11.000000,-51.000000
1309566.743799,0.000000,5.000000,2.000000,2.000000,-5.000000,-1.000000,-4.000000,1.000000
1309566.759731,-2.000000,1.000000,4.000000,-2.000000,-8.000000,8.000000,7.000000,10.000000
1309566.759741,-2.000000,-4.000000,-1.000000,-7.000000,-3.000000,-5.000000,-3.000000,-2.000000
1309566.773939,4.000000,-1.000000,-1.000000,2.000000,3.000000,-8.000000,-6.000000,-7.000000
1309566.773950,0.000000,6.000000,6.000000,-2.000000,-8.000000,1.000000,6.000000,6.000000
1309566.796571,1.000000,0.000000,-7.000000,3.000000,3.000000,-2.000000,-1.000000,0.000000
1309566.796583,3.000000,-2.000000,-7.000000,-7.000000,4.000000,-6.000000,-8.000000,-12.000000
1309566.796886,1.000000,-4.000000,1.000000,-3.000000,-3.000000,1.000000,0.000000,0.000000
1309566.796897,-4.000000,-2.000000,-3.000000,1.000000,-6.000000,3.000000,4.000000,10.000000
1309566.798775,-4.000000,-6.000000,-9.000000,1.000000,6.000000,-5.000000,-7.000000,-8.000000
1309566.798787,-4.000000,7.000000,2.000000,-3.000000,-6.000000,-3.000000,-1.000000,0.000000
1309566.811853,-7.000000,4.000000,8.000000,-5.000000,-9.000000,8.000000,5.000000,7.000000
1309566.811868,3.000000,-4.000000,-7.000000,0.000000,3.000000,-5.000000,-2.000000,1.000000
1309566.834067,1.000000,2.000000,0.000000,-3.000000,2.000000,-2.000000,-7.000000,-13.000000
1309566.834077,-8.000000,11.000000,11.000000,-5.000000,-3.000000,5.000000,6.000000,6.000000
1309566.849267,-4.000000,-9.000000,-4.000000,-3.000000,-1.000000,-4.000000,-2.000000,-3.000000
1309566.849278,4.000000,-1.000000,-5.000000,3.000000,11.000000,-4.000000,-11.000000,-9.000000
1309566.857066,-3.000000,5.000000,6.000000,2.000000,-4.000000,0.000000,1.000000,0.000000
1309566.857101,0.000000,2.000000,-4.000000,-1.000000,-2.000000,-1.000000,4.000000,8.000000
1309566.857724,4.000000,-10.000000,-6.000000,0.000000,7.000000,-8.000000,-8.000000,-5.000000
1309566.857732,3.000000,8.000000,5.000000,-2.000000,-1.000000,-1.000000,-7.000000,-42.000000
1309566.859408,-6.000000,-1.000000,1.000000,-3.000000,-6.000000,4.000000,9.000000,9.000000
1309566.859419,0.000000,-7.000000,-5.000000,5.000000,-3.000000,-5.000000,-3.000000,-2.000000
1309566.871496,-2.000000,-2.000000,5.000000,-3.000000,4.000000,-5.000000,-7.000000,-6.000000
1309566.871511,-3.000000,5.000000,9.000000,-4.000000,-8.000000,5.000000,5.000000,3.000000
1309566.879512,3.000000,-4.000000,-13.000000,2.000000,0.000000,-2.000000,0.000000,0.000000
1309566.879541,-3.000000,-6.000000,-1.000000,4.000000,3.000000,-5.000000,-10.000000,-9.000000
1309566.894191,-3.000000,5.000000,3.000000,-1.000000,-7.000000,2.000000,1.000000,1.000000
1309566.894205,-1.000000,-4.000000,0.000000,-7.000000,-2.000000,3.000000,7.000000,7.000000
1309566.916493,3.000000,-14.000000,-14.000000,7.000000,3.000000,-9.000000,-9.000000,-10.000000
1309566.916505,2.000000,3.000000,7.000000,-4.000000,0.000000,1.000000,-3.000000,-3.000000
1309566.916913,-3.000000,4.000000,5.000000,-2.000000,-8.000000,2.000000,10.000000,9.000000
1309566.916923,-2.000000,-8.000000,-7.000000,-3.000000,1.000000,-2.000000,-1.000000,-4.000000
1309566.918471,1.000000,-2.000000,2.000000,-6.000000,2.000000,-7.000000,-4.000000,-8.000000
1309566.918483,-5.000000,10.000000,14.000000,2.000000,-6.000000,6.000000,6.000000,6.000000
1309566.931397,3.000000,-1.000000,-8.000000,1.000000,3.000000,0.000000,0.000000,0.000000
1309566.931421,2.000000,-8.000000,-7.000000,-5.000000,5.000000,-9.000000,-12.000000,-11.000000
1309566.961568,-1.000000,2.000000,2.000000,-1.000000,-5.000000,7.000000,0.000000,6.000000
1309566.961581,-4.000000,-6.000000,6.000000,0.000000,-8.000000,4.000000,5.000000,3.000000
1309566.968935,6.000000,-15.000000,-11.000000,2.000000,6.000000,-7.000000,-12.000000,-7.000000
1309566.968945,-1.000000,4.000000,11.000000,-3.000000,-4.000000,-1.000000,-2.000000,0.000000
1309566.984219,-3.000000,2.000000,6.000000,-1.000000,-9.000000,4.000000,8.000000,12.000000
1309566.984230,0.000000,-7.000000,-10.000000,-4.000000,1.000000,-3.000000,-2.000000,-8.000000
1309566.991786,-3.000000,0.000000,1.000000,0.000000,4.000000,-5.000000,-6.000000,-4.000000
1309566.991816,3.000000,14.000000,10.000000,-3.000000,-9.000000,6.000000,7.000000,21.000000
1309566.992571,-1.000000,-8.000000,-4.000000,-3.000000,1.000000,2.000000,2.000000,-8.000000
1309566.992579,-3.000000,-10.000000,-5.000000,-5.000000,1.000000,-6.000000,-11.000000,-3.000000
1309566.993294,-3.000000,2.000000,2.000000,-2.000000,-4.000000,0.000000,4.000000,6.000000
1309566.993302,-1.000000,-2.000000,-4.000000,4.000000,-3.000000,6.000000,7.000000,4.000000
1309567.013900,4.000000,-13.000000,-14.000000,0.000000,7.000000,-9.000000,-9.000000,-11.000000
1309567.013921,1.000000,2.000000,4.000000,-4.000000,2.000000,2.000000,-1.000000,-3.000000
1309567.029061,-6.000000,6.000000,12.000000,-4.000000,-5.000000,6.000000,9.000000,8.000000
1309567.029073,-1.000000,-7.000000,-10.000000,0.000000,1.000000,-5.000000,-2.000000,-5.000000
1309567.030040,0.000000,3.000000,-5.000000,-1.000000,3.000000,-2.000000,-11.000000,-3.000000
1309567.030049,-6.000000,9.000000,10.000000,-2.000000,-8.000000,6.000000,9.000000,9.000000
1309567.030859,5.000000,-11.000000,-9.000000,0.000000,1.000000,-1.000000,-4.000000,-1.000000
1309567.030869,2.000000,-2.000000,-10.000000,-3.000000,1.000000,-6.000000,-10.000000,-9.000000
1309567.037296,-4.000000,6.000000,14.000000,2.000000,0.000000,6.000000,6.000000,1.000000
1309567.037307,0.000000,-4.000000,1.000000,4.000000,-1.000000,2.000000,6.000000,4.000000
1309567.051748,-1.000000,-16.000000,-17.000000,0.000000,6.000000,-9.000000,-8.000000,-7.000000
1309567.051763,0.000000,0.000000,4.000000,-7.000000,-4.000000,2.000000,-3.000000,-1.000000
1309567.089226,-2.000000,0.000000,3.000000,2.000000,-9.000000,7.000000,8.000000,9.000000
1309567.089237,2.000000,-1.000000,-14.000000,2.000000,3.000000,-6.000000,-1.000000,-6.000000
1309567.096602,-5.000000,3.000000,9.000000,0.000000,7.000000,-2.000000,-7.000000,-4.000000
1309567.096612,-4.000000,13.000000,11.000000,-3.000000,-9.000000,4.000000,6.000000,6.000000
1309567.134187,-3.000000,-4.000000,-10.000000,-1.000000,-1.000000,-2.000000,-1.000000,-2.000000
1309567.134199,3.000000,1.000000,-5.000000,0.000000,6.000000,-6.000000,-7.000000,-5.000000
1309567.149101,-2.000000,2.000000,6.000000,-3.000000,-5.000000,2.000000,1.000000,17.000000
1309567.149113,-3.000000,-11.000000,-7.000000,-4.000000,-2.000000,1.000000,5.000000,5.000000
1309567.156847,5.000000,-12.000000,-12.000000,1.000000,10.000000,-9.000000,-9.000000,-3.000000
1309567.156856,-3.000000,2.000000,7.000000,0.000000,-4.000000,-1.000000,1.000000,0.000000
1309567.157893,-1.000000,-3.000000,3.000000,-7.000000,-1.000000,1.000000,7.000000,7.000000
1309567.157915,-2.000000,-3.000000,-8.000000,-2.000000,-1.000000,-5.000000,-6.000000,-7.000000
1309567.171757,-1.000000,-5.000000,-2.000000,1.000000,2.000000,-2.000000,-2.000000,-2.000000
1309567.171770,-2.000000,-7.000000,-5.000000,-2.000000,4.000000,-4.000000,-10.000000,-10.000000
1309567.194134,0.000000,-9.000000,-14.000000,-1.000000,6.000000,-8.000000,-11.000000,-12.000000
1309567.194146,-1.000000,4.000000,-1.000000,3.000000,-5.000000,-1.000000,-5.000000,-2.000000
1309567.201481,-1.000000,5.000000,4.000000,0.000000,-3.000000,-2.000000,-2.000000,-7.000000
1309567.201505,-1.000000,3.000000,9.000000,-7.000000,-10.000000,6.000000,8.000000,12.000000
1309567.231701,1.000000,-9.000000,-4.000000,6.000000,4.000000,-2.000000,-3.000000,2.000000
1309567.231727,3.000000,-6.000000,-9.000000,2.000000,5.000000,-10.000000,-8.000000,-11.000000
1309567.232384,-1.000000,3.000000,5.000000,-6.000000,-1.000000,2.000000,2.000000,1.000000
1309567.232391,-2.000000,-1.000000,-8.000000,3.000000,1.000000,-1.000000,-1.000000,1.000000
1309567.250346,-1.000000,-6.000000,-12.000000,5.000000,4.000000,-7.000000,-11.000000,-9.000000
1309567.250386,-1.000000,-3.000000,-1.000000,-5.000000,-7.000000,2.000000,2.000000,3.000000
1309567.250661,-6.000000,7.000000,5.000000,-4.000000,-4.000000,4.000000,6.000000,5.000000
1309567.250771,1.000000,-10.000000,-13.000000,2.000000,4.000000,0.000000,-1.000000,-6.000000
1309567.252353,-1.000000,-8.000000,-8.000000,-4.000000,2.000000,-3.000000,1.000000,-4.000000
1309567.252382,2.000000,4.000000,0.000000,3.000000,4.000000,-9.000000,-9.000000,-11.000000
1309567.252584,5.000000,-6.000000,-11.000000,2.000000,5.000000,-5.000000,-10.000000,-7.000000
1309567.252602,-2.000000,7.000000,3.000000,-1.000000,-2.000000,-1.000000,0.000000,-2.000000
1309567.256697,0.000000,5.000000,5.000000,-5.000000,-5.000000,4.000000,8.000000,25.000000
1309567.256767,7.000000,-7.000000,-2.000000,-1.000000,0.000000,-1.000000,-4.000000,-10.000000
1309567.270902,-1.000000,-3.000000,3.000000,-5.000000,-4.000000,1.000000,-2.000000,2.000000
1309567.270935,-3.000000,9.000000,11.000000,-6.000000,-7.000000,5.000000,7.000000,8.000000
1309567.306994,0.000000,-2.000000,-9.000000,-3.000000,1.000000,-1.000000,-1.000000,-7.000000
1309567.307014,7.000000,-4.000000,-2.000000,-1.000000,4.000000,-11.000000,-13.000000,-9.000000
1309567.329795,-4.000000,2.000000,2.000000,0.000000,0.000000,2.000000,4.000000,4.000000
1309567.329816,3.000000,-9.000000,-8.000000,0.000000,-1.000000,-1.000000,2.000000,2.000000
1309567.351846,-2.000000,-8.000000,-6.000000,2.000000,7.000000,-9.000000,-8.000000,-9.000000
1309567.351855,-5.000000,4.000000,10.000000,-6.000000,-1.000000,0.000000,-2.000000,0.000000
1309567.352543,-2.000000,-5.000000,-4.000000,0.000000,-8.000000,3.000000,9.000000,7.000000
1309567.352570,1.000000,-5.000000,-6.000000,1.000000,3.000000,-5.000000,-5.000000,-6.000000
1309567.353785,-4.000000,5.000000,9.000000,-8.000000,-7.000000,-2.000000,-2.000000,-3.000000
1309567.353793,-6.000000,1.000000,-1.000000,0.000000,-9.000000,5.000000,9.000000,9.000000
1309567.354543,1.000000,-6.000000,-7.000000,1.000000,-1.000000,-3.000000,-4.000000,0.000000
1309567.354551,-1.000000,-3.000000,0.000000,-1.000000,2.000000,-4.000000,-10.000000,-18.000000
1309567.355304,4.000000,-4.000000,-9.000000,3.000000,4.000000,-7.000000,-12.000000,-11.000000
1309567.355311,-4.000000,-1.000000,5.000000,-2.000000,-2.000000,0.000000,1.000000,3.000000
1309567.366944,1.000000,4.000000,3.000000,-4.000000,-6.000000,4.000000,7.000000,6.000000
1309567.366970,4.000000,-5.000000,-5.000000,1.000000,3.000000,-5.000000,-6.000000,-5.000000
1309567.367822,-7.000000,2.000000,6.000000,-8.000000,-1.000000,-1.000000,-2.000000,-4.000000
1309567.367848,2.000000,4.000000,4.000000,-3.000000,-11.000000,7.000000,7.000000,6.000000
1309567.389023,-2.000000,-10.000000,-8.000000,1.000000,-2.000000,-3.000000,-2.000000,-3.000000
1309567.389047,-1.000000,-2.000000,-5.000000,2.000000,4.000000,-6.000000,-10.000000,10.000000
1309567.396689,-3.000000,7.000000,13.000000,-3.000000,-9.000000,2.000000,4.000000,3.000000
1309567.396717,4.000000,-7.000000,-7.000000,2.000000,-2.000000,-2.000000,2.000000,2.000000
1309567.411635,1.000000,-10.000000,-8.000000,2.000000,5.000000,-9.000000,-9.000000,-9.000000
1309567.411645,-4.000000,4.000000,6.000000,0.000000,2.000000,3.000000,5.000000,3.000000
1309567.426681,-2.000000,0.000000,0.000000,-4.000000,-5.000000,5.000000,5.000000,8.000000
1309567.426710,-4.000000,-6.000000,-14.000000,0.000000,4.000000,-7.000000,-8.000000,-7.000000
1309567.441713,-1.000000,5.000000,10.000000,-5.000000,-3.000000,2.000000,-4.000000,-3.000000
1309567.441740,-6.000000,2.000000,-3.000000,-5.000000,-4.000000,6.000000,12.000000,7.000000
1309567.448964,0.000000,-5.000000,-1.000000,4.000000,3.000000,-1.000000,-3.000000,-4.000000
1309567.448974,2.000000,0.000000,0.000000,-4.000000,4.000000,-3.000000,-8.000000,-8.000000
1309567.472068,-6.000000,8.000000,7.000000,-2.000000,-3.000000,6.000000,5.000000,5.000000
1309567.472097,3.000000,-9.000000,-10.000000,-1.000000,-1.000000,-2.000000,0.000000,4.000000
1309567.472804,5.000000,-7.000000,-5.000000,8.000000,6.000000,-8.000000,-11.000000,-12.000000
1309567.472812,0.000000,2.000000,3.000000,-8.000000,0.000000,3.000000,4.000000,3.000000
1309567.473837,-3.000000,-2.000000,1.000000,-2.000000,-9.000000,6.000000,2.000000,6.000000
1309567.473845,1.000000,-15.000000,-10.000000,-1.000000,2.000000,-9.000000,-6.000000,-6.000000
1309567.474713,-7.000000,7.000000,9.000000,-2.000000,-5.000000,1.000000,-5.000000,-2.000000
1309567.474721,-4.000000,5.000000,2.000000,2.000000,-8.000000,3.000000,8.000000,3.000000
1309567.486338,-2.000000,-5.000000,-11.000000,1.000000,7.000000,-4.000000,-4.000000,-2.000000
1309567.486348,3.000000,-3.000000,-3.000000,2.000000,1.000000,-7.000000,-9.000000,-8.000000
1309567.487105,-4.000000,6.000000,6.000000,-1.000000,-2.000000,6.000000,2.000000,-41.000000
1309567.487113,3.000000,-4.000000,-10.000000,-2.000000,2.000000,-3.000000,1.000000,3.000000
1309567.509092,-1.000000,0.000000,-1.000000,-4.000000,6.000000,-3.000000,-8.000000,-4.000000
1309567.509122,-5.000000,2.000000,8.000000,0.000000,-4.000000,3.000000,0.000000,4.000000
1309567.509881,-3.000000,-1.000000,-4.000000,-6.000000,-5.000000,-1.000000,5.000000,5.000000
1309567.509888,-1.000000,-6.000000,-9.000000,-4.000000,4.000000,-10.000000,-6.000000,-9.000000
1309567.539259,1.000000,10.000000,11.000000,-8.000000,-3.000000,1.000000,1.000000,-2.000000
1309567.539272,-6.000000,1.000000,5.000000,2.000000,-6.000000,3.000000,7.000000,-11.000000
1309567.546779,1.000000,-5.000000,-8.000000,1.000000,1.000000,-2.000000,-2.000000,3.000000
1309567.546792,-2.000000,-2.000000,1.000000,3.000000,4.000000,-6.000000,-5.000000,-8.000000
1309567.569072,1.000000,10.000000,14.000000,-2.000000,-5.000000,3.000000,8.000000,5.000000
1309567.569083,-6.000000,-5.000000,-11.000000,3.000000,1.000000,-2.000000,0.000000,1.000000
1309567.576429,1.000000,-5.000000,-1.000000,6.000000,1.000000,-7.000000,-10.000000,-4.000000
1309567.576445,-4.000000,8.000000,8.000000,-3.000000,-4.000000,3.000000,10.000000,24.000000
1309567.591662,-3.000000,-6.000000,-9.000000,-4.000000,-2.000000,2.000000,4.000000,-29.000000
1309567.591673,1.000000,-9.000000,-12.000000,2.000000,3.000000,-8.000000,-10.000000,-4.000000
1309567.592160,1.000000,1.000000,9.000000,-2.000000,0.000000,1.000000,-3.000000,5.000000
1309567.592169,-5.000000,0.000000,2.000000,-7.000000,-7.000000,5.000000,4.000000,-36.000000
1309567.593087,2.000000,-2.000000,-4.000000,-5.000000,0.000000,-4.000000,-5.000000,2.000000
1309567.593095,2.000000,2.000000,-2.000000,3.000000,0.000000,-4.000000,-4.000000,-2.000000
1309567.593949,-5.000000,4.000000,12.000000,-8.000000,-6.000000,4.000000,9.000000,7.000000
1309567.593957,-3.000000,-3.000000,-11.000000,1.000000,-2.000000,3.000000,-3.000000,1.000000
1309567.607091,0.000000,-3.000000,-9.000000,-7.000000,8.000000,-3.000000,-11.000000,-13.000000
1309567.607101,-2.000000,1.000000,5.000000,-4.000000,-5.000000,2.000000,3.000000,1.000000
1309567.607774,-4.000000,-1.000000,-3.000000,-2.000000,-5.000000,1.000000,5.000000,6.000000
1309567.607782,0.000000,-12.000000,-13.000000,1.000000,7.000000,-5.000000,-6.000000,-5.000000
1309567.629302,-3.000000,7.000000,9.000000,0.000000,-1.000000,-1.000000,0.000000,1.000000
1309567.629329,-3.000000,4.000000,2.000000,2.000000,-9.000000,5.000000,8.000000,8.000000
1309567.630085,2.000000,0.000000,-6.000000,-4.000000,5.000000,-5.000000,-3.000000,-4.000000
1309567.630093,-4.000000,0.000000,4.000000,3.000000,6.000000,0.000000,-5.000000,-8.000000
1309567.651750,-1.000000,9.000000,8.000000,-3.000000,-6.000000,5.000000,5.000000,6.000000
1309567.651760,1.000000,-4.000000,-1.000000,4.000000,1.000000,-4.000000,-1.000000,0.000000
1309567.667476,4.000000,-7.000000,-1.000000,1.000000,4.000000,-9.000000,-11.000000,-11.000000
1309567.667500,-1.000000,1.000000,6.000000,-2.000000,-4.000000,0.000000,1.000000,1.000000
1309567.689875,-5.000000,-3.000000,-1.000000,-2.000000,-2.000000,2.000000,3.000000,6.000000
1309567.689919,0.000000,-7.000000,-15.000000,2.000000,9.000000,-8.000000,-7.000000,-12.000000
1309567.704935,-4.000000,5.000000,5.000000,-5.000000,-3.000000,4.000000,-2.000000,16.000000
1309567.704959,-5.000000,3.000000,2.000000,-4.000000,-9.000000,6.000000,9.000000,5.000000
1309567.727149,-1.000000,-6.000000,-6.000000,-4.000000,0.000000,-5.000000,-4.000000,1.000000
1309567.727174,0.000000,-1.000000,8.000000,1.000000,0.000000,-2.000000,-4.000000,-4.000000
1309567.749815,-4.000000,6.000000,13.000000,-3.000000,-7.000000,4.000000,6.000000,13.000000
1309567.749840,1.000000,-5.000000,-11.000000,-4.000000,2.000000,-3.000000,0.000000,0.000000
1309567.772523,3.000000,-5.000000,-7.000000,3.000000,2.000000,-5.000000,-9.000000,-8.000000
1309567.772556,-5.000000,5.000000,8.000000,-2.000000,-3.000000,1.000000,0.000000,-2.000000
1309567.801676,-1.000000,-6.000000,-2.000000,4.000000,-8.000000,4.000000,3.000000,3.000000
1309567.801690,4.000000,-11.000000,-11.000000,-3.000000,7.000000,-7.000000,-12.000000,-10.000000
1309567.816659,0.000000,-1.000000,-6.000000,-1.000000,3.000000,-3.000000,-4.000000,-2.000000
1309567.816706,1.000000,1.000000,2.000000,1.000000,1.000000,-2.000000,-7.000000,-7.000000
1309567.824227,-4.000000,7.000000,10.000000,0.000000,-9.000000,7.000000,9.000000,12.000000
1309567.824248,2.000000,0.000000,-2.000000,-4.000000,-1.000000,1.000000,-2.000000,-3.000000
1309567.824689,-3.000000,-5.000000,-2.000000,-1.000000,0.000000,-2.000000,-4.000000,-50.000000
1309567.824700,-5.000000,5.000000,11.000000,-4.000000,-8.000000,9.000000,9.000000,13.000000
1309567.825733,-5.000000,12.000000,13.000000,-6.000000,-9.000000,12.000000,11.000000,10.000000
1309567.825744,0.000000,-6.000000,-9.000000,-4.000000,-3.000000,-3.000000,-3.000000,-1.000000
1309567.839184,0.000000,-5.000000,-11.000000,1.000000,4.000000,-3.000000,-3.000000,-8.000000
1309567.839198,-3.000000,2.000000,6.000000,-3.000000,-1.000000,-5.000000,-8.000000,-4.000000
1309567.847166,-11.000000,14.000000,19.000000,-1.000000,-6.000000,8.000000,9.000000,10.000000
1309567.847181,0.000000,-12.000000,-4.000000,3.000000,0.000000,0.000000,-3.000000,-1.000000
1309567.847867,1.000000,-2.000000,-4.000000,-3.000000,4.000000,-4.000000,-12.000000,-8.000000
1309567.847877,-2.000000,-4.000000,1.000000,1.000000,-4.000000,2.000000,-1.000000,1.000000
1309567.862192,-1.000000,-5.000000,-3.000000,-5.000000,2.000000,-1.000000,3.000000,2.000000
1309567.862204,-3.000000,-8.000000,-13.000000,1.000000,5.000000,-8.000000,-9.000000,-10.000000
1309567.869051,4.000000,0.000000,3.000000,-6.000000,-8.000000,0.000000,-1.000000,3.000000
1309567.869062,-3.000000,3.000000,2.000000,-6.000000,-5.000000,4.000000,7.000000,5.000000
1309567.906713,1.000000,-4.000000,-4.000000,2.000000,4.000000,-2.000000,-4.000000,-6.000000
1309567.906727,7.000000,3.000000,10.000000,1.000000,-3.000000,2.000000,-5.000000,12.000000
1309567.921631,-9.000000,14.000000,11.000000,-3.000000,-8.000000,7.000000,9.000000,-9.000000
1309567.921644,-3.000000,-5.000000,-10.000000,-1.000000,4.000000,-6.000000,-1.000000,2.000000
1309567.944264,-2.000000,0.000000,-6.000000,4.000000,6.000000,-6.000000,-9.000000,-5.000000
1309567.944279,3.000000,6.000000,5.000000,-6.000000,-3.000000,-2.000000,2.000000,3.000000
1309567.944693,1.000000,-5.000000,-6.000000,1.000000,-1.000000,-3.000000,4.000000,3.000000
1309567.944710,4.000000,-12.000000,-11.000000,-3.000000,9.000000,-8.000000,-8.000000,-9.000000
1309567.945799,-6.000000,-1.000000,5.000000,-6.000000,-3.000000,0.000000,0.000000,0.000000
1309567.945810,-5.000000,1.000000,4.000000,1.000000,-6.000000,4.000000,9.000000,9.000000
1309567.946327,-3.000000,-3.000000,-9.000000,-5.000000,5.000000,-5.000000,-3.000000,-6.000000
1309567.946337,-2.000000,5.000000,6.000000,-5.000000,-7.000000,-2.000000,-6.000000,-4.000000
1309567.966566,5.000000,-4.000000,-5.000000,-5.000000,4.000000,-5.000000,-8.000000,-9.000000
1309567.966579,-4.000000,3.000000,5.000000,0.000000,-5.000000,3.000000,6.000000,2.000000
1309567.967562,3.000000,-3.000000,-5.000000,-3.000000,1.000000,-1.000000,4.000000,2.000000
1309567.967573,3.000000,-7.000000,-6.000000,0.000000,5.000000,-5.000000,-11.000000,-9.000000
1309567.968420,-4.000000,6.000000,4.000000,-3.000000,-3.000000,1.000000,1.000000,0.000000
1309567.968440,-5.000000,-10.000000,2.000000,-2.000000,-9.000000,2.000000,10.000000,7.000000
1309567.982407,2.000000,-8.000000,-6.000000,-3.000000,5.000000,-2.000000,-7.000000,-5.000000
1309567.982419,4.000000,5.000000,12.000000,-5.000000,-4.000000,1.000000,0.000000,-1.000000
1309567.989369,-3.000000,6.000000,5.000000,-1.000000,-9.000000,6.000000,13.000000,7.000000
1309567.989383,2.000000,-8.000000,-7.000000,0.000000,4.000000,-4.000000,-2.000000,5.000000
1309568.026820,-1.000000,-1.000000,-6.000000,6.000000,4.000000,-5.000000,-12.000000,-25.000000
1309568.026854,-3.000000,4.000000,7.000000,-7.000000,-8.000000,2.000000,2.000000,9.000000
1309568.041883,4.000000,-11.000000,-8.000000,-1.000000,2.000000,0.000000,0.000000,3.000000
1309568.041898,2.000000,-5.000000,-3.000000,2.000000,4.000000,-5.000000,-8.000000,-8.000000
1309568.079063,1.000000,4.000000,4.000000,-2.000000,-2.000000,0.000000,1.000000,3.000000
1309568.079075,1.000000,-2.000000,-3.000000,-2.000000,-4.000000,5.000000,8.000000,5.000000
1309568.079440,5.000000,-8.000000,-13.000000,2.000000,0.000000,-6.000000,-6.000000,-5.000000
1309568.079451,-3.000000,10.000000,5.000000,-3.000000,-1.000000,-2.000000,-4.000000,-1.000000
1309568.080700,-6.000000,0.000000,3.000000,-5.000000,-9.000000,4.000000,9.000000,5.000000
1309568.080717,6.000000,-5.000000,-8.000000,-3.000000,-1.000000,-2.000000,-3.000000,-1.000000
1309568.081363,1.000000,-1.000000,0.000000,-7.000000,3.000000,-7.000000,-10.000000,-7.000000
1309568.081379,0.000000,7.000000,11.000000,-2.000000,-5.000000,5.000000,8.000000,5.000000
1309568.086880,-3.000000,3.000000,8.000000,1.000000,-10.000000,5.000000,6.000000,10.000000
1309568.086893,-3.000000,-1.000000,-7.000000,-6.000000,1.000000,0.000000,-1.000000,-3.000000
1309568.101768,3.000000,-4.000000,-2.000000,-1.000000,2.000000,-7.000000,-8.000000,7.000000
1309568.101874,0.000000,6.000000,1.000000,-2.000000,-7.000000,5.000000,5.000000,7.000000
1309568.124363,2.000000,-3.000000,-6.000000,-3.000000,1.000000,-3.000000,-1.000000,2.000000
1309568.124378,-1.000000,-6.000000,-7.000000,-2.000000,9.000000,-5.000000,-10.000000,-10.000000
1309568.154291,-4.000000,-1.000000,7.000000,0.000000,-3.000000,1.000000,3.000000,3.000000
1309568.154304,-6.000000,2.000000,1.000000,-1.000000,-5.000000,3.000000,5.000000,6.000000
1309568.161635,1.000000,-8.000000,-10.000000,0.000000,1.000000,-6.000000,-6.000000,-9.000000
1309568.161648,-3.000000,5.000000,4.000000,-2.000000,-1.000000,-2.000000,-4.000000,-2.000000
1309568.185036,-5.000000,4.000000,7.000000,-7.000000,-8.000000,6.000000,5.000000,11.000000
1309568.185049,-1.000000,-8.000000,-7.000000,-1.000000,5.000000,-1.000000,0.000000,-2.000000
1309568.185435,0.000000,0.000000,-10.000000,-4.000000,0.000000,-6.000000,-4.000000,-10.000000
1309568.185446,-4.000000,3.000000,13.000000,0.000000,-8.000000,4.000000,2.000000,2.000000
1309568.186486,-2.000000,-4.000000,-8.000000,0.000000,1.000000,-3.000000,-2.000000,1.000000
1309568.186498,5.000000,-4.000000,-3.000000,-2.000000,6.000000,-7.000000,-11.000000,-12.000000
1309568.187054,2.000000,2.000000,-2.000000,-5.000000,-6.000000,-1.000000,-1.000000,2.000000
1309568.187066,-6.000000,1.000000,1.000000,1.000000,0.000000,3.000000,3.000000,6.000000
1309568.199103,-8.000000,0.000000,-1.000000,-8.000000,-10.000000,8.000000,8.000000,7.000000
1309568.199117,-2.000000,-9.000000,-12.000000,-3.000000,3.000000,-3.000000,-4.000000,-4.000000
1309568.200420,3.000000,5.000000,0.000000,-1.000000,6.000000,-5.000000,-8.000000,-8.000000
1309568.200432,-4.000000,5.000000,8.000000,-2.000000,-2.000000,7.000000,5.000000,4.000000
1309568.206617,-1.000000,-7.000000,-5.000000,1.000000,0.000000,-5.000000,0.000000,2.000000
1309568.206629,2.000000,0.000000,-5.000000,4.000000,5.000000,-6.000000,-7.000000,7.000000
1309568.229168,-3.000000,2.000000,5.000000,-5.000000,-2.000000,2.000000,2.000000,-7.000000
1309568.229182,-5.000000,-4.000000,1.000000,1.000000,-3.000000,-1.000000,4.000000,10.000000
1309568.236539,4.000000,-15.000000,-14.000000,-1.000000,6.000000,-8.000000,-8.000000,0.000000
1309568.236552,1.000000,3.000000,9.000000,-3.000000,-4.000000,2.000000,-2.000000,-2.000000
1309568.259356,-1.000000,-1.000000,2.000000,0.000000,-7.000000,4.000000,8.000000,5.000000
1309568.259371,3.000000,0.000000,-7.000000,1.000000,-1.000000,-7.000000,-7.000000,-5.000000
1309568.266826,1.000000,-1.000000,-2.000000,-2.000000,4.000000,-2.000000,-11.000000,-5.000000
1309568.266840,-3.000000,4.000000,15.000000,-4.000000,-7.000000,8.000000,3.000000,8.000000
1309568.304003,0.000000,-4.000000,-4.000000,1.000000,0.000000,0.000000,3.000000,-1.000000
1309568.304015,3.000000,-10.000000,-6.000000,0.000000,4.000000,-8.000000,-10.000000,-10.000000
1309568.304454,-3.000000,2.000000,8.000000,-1.000000,-1.000000,3.000000,0.000000,-2.000000
1309568.304465,-1.000000,-1.000000,-1.000000,5.000000,0.000000,1.000000,5.000000,2.000000
1309568.305674,0.000000,-10.000000,-15.000000,3.000000,4.000000,-10.000000,-9.000000,-8.000000
1309568.305685,-3.000000,3.000000,12.000000,-8.000000,-1.000000,2.000000,1.000000,1.000000
1309568.306333,1.000000,7.000000,7.000000,0.000000,-5.000000,6.000000,6.000000,7.000000
1309568.306345,0.000000,-4.000000,-5.000000,-1.000000,1.000000,-8.000000,-4.000000,-4.000000
1309568.307943,5.000000,-3.000000,9.000000,-1.000000,-1.000000,-2.000000,-8.000000,-7.000000
1309568.307953,-2.000000,10.000000,2.000000,-3.000000,-5.000000,6.000000,11.000000,9.000000
1309568.319291,0.000000,-6.000000,-8.000000,2.000000,-2.000000,-4.000000,2.000000,-2.000000
1309568.319310,0.000000,-9.000000,-8.000000,-3.000000,4.000000,-9.000000,-12.000000,-10.000000
1309568.320357,-1.000000,2.000000,7.000000,2.000000,-4.000000,-1.000000,0.000000,14.000000
1309568.320367,-2.000000,-3.000000,-9.000000,4.000000,-7.000000,3.000000,6.000000,8.000000
1309568.334175,5.000000,-13.000000,-18.000000,2.000000,2.000000,-8.000000,-8.000000,-5.000000
1309568.334188,-5.000000,2.000000,4.000000,-3.000000,-5.000000,-1.000000,-1.000000,1.000000
1309568.356681,-2.000000,0.000000,6.000000,-1.000000,-7.000000,5.000000,7.000000,8.000000
1309568.356695,0.000000,1.000000,-5.000000,0.000000,5.000000,-3.000000,-4.000000,-5.000000
1309568.364357,6.000000,6.000000,10.000000,-4.000000,-3.000000,-3.000000,-5.000000,-9.000000
1309568.364372,-4.000000,6.000000,11.000000,-2.000000,-8.000000,4.000000,5.000000,7.000000
1309568.386518,1.000000,-6.000000,-5.000000,-5.000000,-3.000000,-5.000000,0.000000,-6.000000
1309568.386529,3.000000,-14.000000,-12.000000,-2.000000,2.000000,-7.000000,-8.000000,-11.000000
1309568.401984,-3.000000,5.000000,7.000000,0.000000,-4.000000,1.000000,3.000000,2.000000
1309568.401999,-6.000000,-1.000000,-5.000000,-1.000000,-2.000000,2.000000,4.000000,4.000000
1309568.431812,2.000000,-13.000000,-13.000000,4.000000,8.000000,-9.000000,-10.000000,-9.000000
1309568.431825,-3.000000,5.000000,8.000000,-3.000000,-3.000000,0.000000,2.000000,-2.000000
1309568.439135,0.000000,7.000000,7.000000,2.000000,-10.000000,6.000000,10.000000,7.000000
1309568.439149,2.000000,-6.000000,-4.000000,-2.000000,0.000000,-3.000000,-5.000000,-1.000000
1309568.476737,0.000000,2.000000,1.000000,5.000000,-1.000000,1.000000,-5.000000,-16.000000
1309568.476751,-8.000000,13.000000,19.000000,-9.000000,-6.000000,3.000000,9.000000,6.000000
1309568.484108,0.000000,-6.000000,-8.000000,0.000000,2.000000,-3.000000,1.000000,-2.000000
1309568.484121,2.000000,-8.000000,-6.000000,-4.000000,9.000000,-7.000000,-9.000000,-9.000000
1309568.536543,0.000000,2.000000,4.000000,-1.000000,4.000000,-2.000000,-5.000000,-4.000000
1309568.536556,-5.000000,11.000000,10.000000,-3.000000,-11.000000,6.000000,6.000000,9.000000
1309568.559241,-1.000000,-7.000000,-14.000000,6.000000,5.000000,-9.000000,-11.000000,-8.000000
1309568.559256,0.000000,1.000000,4.000000,-1.000000,-4.000000,-1.000000,2.000000,-3.000000
1309568.581594,-8.000000,0.000000,1.000000,-1.000000,-8.000000,5.000000,11.000000,8.000000
1309568.581607,3.000000,-7.000000,-4.000000,0.000000,3.000000,-1.000000,-5.000000,-5.000000
1309568.596867,0.000000,-6.000000,-4.000000,-3.000000,5.000000,-2.000000,-3.000000,-1.000000
1309568.596882,2.000000,-5.000000,-3.000000,0.000000,7.000000,-10.000000,-14.000000,-9.000000
1309568.634174,-3.000000,6.000000,1.000000,-3.000000,-2.000000,-2.000000,0.000000,-3.000000
1309568.634185,-3.000000,10.000000,10.000000,-3.000000,-7.000000,8.000000,6.000000,8.000000
1309568.635077,-2.000000,5.000000,12.000000,-3.000000,-6.000000,3.000000,4.000000,3.000000
1309568.635088,2.000000,-5.000000,-8.000000,-1.000000,-5.000000,-1.000000,3.000000,-1.000000
1309568.635721,-3.000000,3.000000,6.000000,-3.000000,-3.000000,-2.000000,-3.000000,-1.000000
1309568.635732,-1.000000,9.000000,9.000000,-2.000000,-9.000000,6.000000,11.000000,8.000000
1309568.636314,-4.000000,-5.000000,-5.000000,-5.000000,-1.000000,-3.000000,-2.000000,-1.000000
1309568.636322,-1.000000,1.000000,-1.000000,-1.000000,9.000000,-7.000000,-9.000000,-12.000000
1309568.637099,3.000000,-7.000000,-10.000000,1.000000,7.000000,-7.000000,-12.000000,-8.000000
1309568.637107,-3.000000,0.000000,5.000000,-1.000000,-3.000000,0.000000,2.000000,17.000000
1309568.641295,-4.000000,4.000000,6.000000,-2.000000,-5.000000,6.000000,6.000000,2.000000
1309568.641303,1.000000,-8.000000,-3.000000,4.000000,0.000000,-5.000000,-7.000000,-2.000000
1309568.649206,1.000000,-2.000000,8.000000,-7.000000,0.000000,0.000000,-1.000000,-2.000000
1309568.649217,-3.000000,7.000000,11.000000,-1.000000,-6.000000,7.000000,8.000000,11.000000
1309568.664166,2.000000,0.000000,-1.000000,2.000000,4.000000,0.000000,-5.000000,1.000000
1309568.664190,3.000000,-2.000000,1.000000,2.000000,7.000000,-5.000000,-11.000000,-7.000000
1309568.671450,-5.000000,7.000000,-4.000000,0.000000,-4.000000,4.000000,3.000000,1.000000
1309568.671473,-4.000000,-7.000000,-7.000000,-2.000000,-2.000000,1.000000,2.000000,3.000000
1309568.679695,-1.000000,-8.000000,-11.000000,0.000000,7.000000,-5.000000,-10.000000,-12.000000
1309568.679704,-2.000000,2.000000,-1.000000,-1.000000,-3.000000,1.000000,1.000000,-5.000000
1309568.694093,0.000000,1.000000,1.000000,1.000000,-6.000000,2.000000,8.000000,5.000000
1309568.694105,2.000000,-9.000000,-4.000000,2.000000,4.000000,-6.000000,-2.000000,-6.000000
1309568.709078,2.000000,4.000000,8.000000,-1.000000,-1.000000,-1.000000,-5.000000,-4.000000
1309568.709088,-4.000000,4.000000,3.000000,-4.000000,-10.000000,6.000000,9.000000,8.000000
1309568.716572,-1.000000,-1.000000,-4.000000,3.000000,-1.000000,-5.000000,-2.000000,0.000000
1309568.716583,0.000000,1.000000,0.000000,-1.000000,3.000000,-8.000000,-8.000000,-6.000000
1309568.754055,-1.000000,5.000000,2.000000,2.000000,-5.000000,3.000000,2.000000,3.000000
1309568.754097,-2.000000,-7.000000,-8.000000,-2.000000,0.000000,-3.000000,1.000000,1.000000
1309568.776977,-2.000000,-4.000000,-10.000000,5.000000,7.000000,-7.000000,-11.000000,-8.000000
1309568.777220,2.000000,4.000000,4.000000,0.000000,-3.000000,3.000000,3.000000,1.000000
1309568.778006,-1.000000,4.000000,0.000000,-1.000000,-5.000000,4.000000,8.000000,8.000000
1309568.778037,3.000000,-8.000000,-8.000000,0.000000,-1.000000,-7.000000,-6.000000,-7.000000
1309568.778672,-7.000000,3.000000,7.000000,-2.000000,-5.000000,1.000000,0.000000,-5.000000
1309568.778681,-4.000000,8.000000,3.000000,-4.000000,-9.000000,5.000000,6.000000,8.000000
1309568.779476,-4.000000,-9.000000,-11.000000,-7.000000,7.000000,-1.000000,-4.000000,-4.000000
1309568.779485,3.000000,2.000000,7.000000,-1.000000,4.000000,-3.000000,-6.000000,-4.000000
1309568.791645,-1.000000,-6.000000,-4.000000,2.000000,6.000000,-8.000000,-9.000000,-10.000000
1309568.791657,-5.000000,3.000000,8.000000,-2.000000,-8.000000,3.000000,2.000000,0.000000
1309568.798888,-6.000000,3.000000,5.000000,3.000000,-5.000000,6.000000,5.000000,3.000000
1309568.798906,-2.000000,-12.000000,-5.000000,-1.000000,8.000000,-5.000000,-8.000000,-5.000000
1309568.800552,2.000000,6.000000,6.000000,-2.000000,-4.000000,-2.000000,1.000000,2.000000
1309568.800574,0.000000,2.000000,5.000000,-1.000000,-8.000000,5.000000,5.000000,9.000000
1309568.814656,-3.000000,-3.000000,0.000000,5.000000,4.000000,-1.000000,-3.000000,-1.000000
1309568.814680,1.000000,1.000000,6.000000,4.000000,0.000000,-6.000000,-7.000000,-6.000000
1309568.837226,-5.000000,7.000000,5.000000,-1.000000,-5.000000,4.000000,4.000000,8.000000
1309568.837250,2.000000,-4.000000,-7.000000,1.000000,-1.000000,-2.000000,1.000000,0.000000
1309568.859889,-1.000000,-8.000000,-4.000000,8.000000,6.000000,-10.000000,-8.000000,-16.000000
1309568.859913,-4.000000,3.000000,8.000000,-6.000000,-5.000000,3.000000,1.000000,0.000000
1309568.874796,4.000000,-2.000000,0.000000,-2.000000,-4.000000,6.000000,7.000000,8.000000
1309568.874852,-3.000000,-5.000000,-11.000000,3.000000,4.000000,-7.000000,-8.000000,-7.000000
1309568.875282,-3.000000,5.000000,3.000000,-1.000000,-4.000000,-1.000000,-1.000000,-1.000000
1309568.875299,-3.000000,6.000000,4.000000,2.000000,-5.000000,5.000000,7.000000,7.000000
1309568.876374,2.000000,-8.000000,-10.000000,-4.000000,2.000000,-5.000000,-4.000000,-3.000000
1309568.876385,-2.000000,3.000000,4.000000,-4.000000,2.000000,-6.000000,-5.000000,-7.000000
1309568.877230,-4.000000,10.000000,4.000000,-4.000000,-8.000000,4.000000,6.000000,6.000000
1309568.877243,-5.000000,0.000000,-6.000000,3.000000,-2.000000,-3.000000,-1.000000,-1.000000
1309568.896567,-1.000000,-4.000000,-13.000000,-2.000000,8.000000,-5.000000,-14.000000,-8.000000
1309568.896586,1.000000,7.000000,6.000000,-5.000000,-3.000000,0.000000,6.000000,2.000000
1309568.896886,-3.000000,-4.000000,-3.000000,-1.000000,-7.000000,3.000000,6.000000,6.000000
1309568.896896,-2.000000,-11.000000,-17.000000,-2.000000,3.000000,-8.000000,-9.000000,-8.000000
1309568.911514,-1.000000,1.000000,3.000000,1.000000,-1.000000,-5.000000,-1.000000,-10.000000
1309568.911532,-10.000000,-4.000000,-3.000000,-4.000000,-5.000000,7.000000,5.000000,-42.000000
1309568.912143,3.000000,-8.000000,-4.000000,1.000000,4.000000,-3.000000,-3.000000,4.000000
1309568.912153,-4.000000,3.000000,1.000000,-6.000000,1.000000,-5.000000,-7.000000,-6.000000
1309568.919847,1.000000,6.000000,17.000000,1.000000,-7.000000,6.000000,10.000000,7.000000
1309568.919859,1.000000,-8.000000,-11.000000,-1.000000,2.000000,0.000000,1.000000,3.000000
1309568.956856,-1.000000,-2.000000,-10.000000,-1.000000,3.000000,-7.000000,-9.000000,-10.000000
1309568.956871,-4.000000,5.000000,2.000000,-8.000000,-2.000000,1.000000,5.000000,-3.000000
1309568.972111,-3.000000,-1.000000,-6.000000,-4.000000,-4.000000,3.000000,6.000000,6.000000
1309568.972122,0.000000,-8.000000,-14.000000,-1.000000,8.000000,-6.000000,-8.000000,-7.000000
1309568.972918,-3.000000,2.000000,3.000000,-3.000000,0.000000,2.000000,-1.000000,-1.000000
1309568.972928,-5.000000,4.000000,3.000000,1.000000,-9.000000,5.000000,9.000000,5.000000
1309568.986582,3.000000,-5.000000,-4.000000,2.000000,5.000000,0.000000,-4.000000,-5.000000
1309568.986599,2.000000,0.000000,-1.000000,-3.000000,3.000000,-3.000000,-4.000000,-4.000000
1309568.994116,0.000000,11.000000,10.000000,-3.000000,-10.000000,6.000000,4.000000,6.000000
1309568.994161,-4.000000,-1.000000,-8.000000,1.000000,0.000000,-1.000000,-1.000000,-4.000000
1309569.024476,2.000000,-13.000000,-10.000000,2.000000,4.000000,-9.000000,-9.000000,-9.000000
1309569.024492,-2.000000,5.000000,7.000000,0.000000,-3.000000,4.000000,1.000000,0.000000
1309569.031729,0.000000,-8.000000,-4.000000,-2.000000,-3.000000,-1.000000,5.000000,8.000000
1309569.031742,3.000000,-10.000000,-18.000000,2.000000,5.000000,-11.000000,-9.000000,-10.000000
1309569.054416,-1.000000,2.000000,5.000000,-3.000000,-1.000000,-1.000000,-1.000000,4.000000
1309569.054430,2.000000,4.000000,3.000000,0.000000,-7.000000,8.000000,7.000000,8.000000
1309569.076692,1.000000,0.000000,-2.000000,-1.000000,2.000000,-6.000000,-4.000000,-7.000000
1309569.076707,-5.000000,-3.000000,-6.000000,-3.000000,0.000000,-4.000000,-9.000000,-58.000000
1309569.099380,12.000000,-4.000000,1.000000,6.000000,5.000000,-7.000000,-11.000000,-9.000000
1309569.099395,-1.000000,3.000000,5.000000,-3.000000,-4.000000,5.000000,4.000000,2.000000
1309569.136682,-3.000000,3.000000,4.000000,-1.000000,-2.000000,2.000000,0.000000,0.000000
1309569.136708,-1.000000,2.000000,0.000000,-14.000000,-5.000000,6.000000,6.000000,6.000000
1309569.137621,-5.000000,11.000000,11.000000,-3.000000,-4.000000,6.000000,7.000000,4.000000
1309569.137634,-1.000000,-11.000000,-7.000000,2.000000,4.000000,-2.000000,-2.000000,-2.000000
1309569.138193,1.000000,-1.000000,-4.000000,-1.000000,-8.000000,2.000000,4.000000,5.000000
1309569.138204,-1.000000,-10.000000,-11.000000,2.000000,9.000000,-9.000000,-7.000000,-9.000000
1309569.138809,3.000000,-3.000000,1.000000,9.000000,-1.000000,-7.000000,-5.000000,-4.000000
1309569.138820,-4.000000,1.000000,-2.000000,-6.000000,2.000000,-4.000000,-9.000000,-54.000000
1309569.140307,1.000000,-4.000000,-13.000000,3.000000,4.000000,-9.000000,-14.000000,-10.000000
1309569.140318,-2.000000,9.000000,6.000000,-1.000000,-6.000000,3.000000,3.000000,3.000000
1309569.151835,-3.000000,0.000000,-1.000000,1.000000,-4.000000,0.000000,3.000000,9.000000
1309569.151850,-4.000000,-14.000000,-16.000000,-4.000000,3.000000,-8.000000,-8.000000,-11.000000
1309569.152342,1.000000,3.000000,4.000000,2.000000,-5.000000,-4.000000,-2.000000,1.000000
1309569.152353,1.000000,3.000000,5.000000,5.000000,-4.000000,6.000000,7.000000,7.000000
1309569.189111,3.000000,0.000000,-9.000000,-4.000000,0.000000,-4.000000,-4.000000,-8.000000
1309569.189125,-4.000000,2.000000,5.000000,1.000000,-3.000000,-1.000000,-1.000000,-8.000000
1309569.196710,-5.000000,5.000000,10.000000,2.000000,-5.000000,6.000000,12.000000,12.000000
1309569.196725,5.000000,-3.000000,-10.000000,-1.000000,3.000000,-3.000000,-1.000000,-3.000000
1309569.211944,5.000000,-7.000000,-3.000000,-3.000000,4.000000,-7.000000,-6.000000,-10.000000
1309569.211958,-2.000000,2.000000,3.000000,0.000000,-2.000000,-1.000000,3.000000,5.000000
1309569.219284,-4.000000,-4.000000,-8.000000,-3.000000,-2.000000,-1.000000,5.000000,0.000000
1309569.219298,11.000000,-12.000000,-13.000000,1.000000,6.000000,-7.000000,-10.000000,-12.000000
1309569.234094,-5.000000,2.000000,9.000000,1.000000,-4.000000,3.000000,2.000000,1.000000
1309569.234110,-5.000000,4.000000,3.000000,-2.000000,-8.000000,6.000000,9.000000,7.000000
1309569.249303,-3.000000,-6.000000,-7.000000,-3.000000,5.000000,-3.000000,-6.000000,-4.000000
1309569.249318,0.000000,8.000000,5.000000,-1.000000,1.000000,-1.000000,-3.000000,-7.000000
1309569.250215,-4.000000,5.000000,10.000000,0.000000,-10.000000,7.000000,10.000000,24.000000
1309569.250226,5.000000,-1.000000,-7.000000,2.000000,1.000000,-1.000000,-2.000000,-8.000000
1309569.250720,3.000000,-2.000000,-8.000000,4.000000,8.000000,-5.000000,-9.000000,-8.000000
1309569.250731,-3.000000,5.000000,4.000000,-5.000000,-9.000000,-1.000000,0.000000,5.000000
1309569.252054,-1.000000,-3.000000,-7.000000,-2.000000,-4.000000,-5.000000,0.000000,4.000000
1309569.252065,1.000000,-5.000000,-12.000000,-1.000000,7.000000,-6.000000,-8.000000,-10.000000
1309569.252928,-4.000000,-4.000000,8.000000,0.000000,-3.000000,3.000000,1.000000,-3.000000
1309569.252939,-5.000000,1.000000,4.000000,1.000000,-3.000000,7.000000,7.000000,10.000000
1309569.264176,4.000000,-7.000000,-8.000000,-6.000000,5.000000,-4.000000,-5.000000,-7.000000
1309569.264189,1.000000,5.000000,5.000000,-2.000000,-3.000000,-2.000000,-1.000000,0.000000
1309569.271607,-8.000000,9.000000,7.000000,-6.000000,-9.000000,5.000000,7.000000,8.000000
1309569.271623,-1.000000,-6.000000,-4.000000,1.000000,2.000000,-1.000000,-7.000000,-2.000000
1309569.309161,-1.000000,-5.000000,-6.000000,-3.000000,4.000000,0.000000,-9.000000,-12.000000
1309569.309175,-4.000000,4.000000,2.000000,-5.000000,-5.000000,-1.000000,4.000000,1.000000
1309569.316641,-1.000000,-5.000000,-5.000000,-4.000000,-1.000000,1.000000,4.000000,2.000000
1309569.316655,0.000000,-7.000000,-12.000000,3.000000,4.000000,-9.000000,-10.000000,-7.000000
1309569.339385,-4.000000,-1.000000,8.000000,-4.000000,-5.000000,1.000000,1.000000,0.000000
1309569.339400,-3.000000,2.000000,-1.000000,-4.000000,-4.000000,9.000000,9.000000,8.000000
1309569.354066,-1.000000,-10.000000,-5.000000,2.000000,3.000000,-7.000000,-6.000000,-3.000000
1309569.354078,-3.000000,3.000000,4.000000,-3.000000,0.000000,-3.000000,-2.000000,-2.000000
1309569.355187,-4.000000,0.000000,3.000000,-4.000000,-9.000000,7.000000,9.000000,7.000000
1309569.355199,3.000000,-4.000000,-6.000000,-2.000000,1.000000,-8.000000,-4.000000,-8.000000
1309569.355806,4.000000,-1.000000,0.000000,1.000000,2.000000,-4.000000,-8.000000,-7.000000
1309569.355819,-1.000000,-1.000000,3.000000,-4.000000,-7.000000,-1.000000,4.000000,4.000000
1309569.357111,-5.000000,8.000000,4.000000,-3.000000,-2.000000,0.000000,-3.000000,-3.000000
1309569.357126,0.000000,-1.000000,3.000000,0.000000,-7.000000,5.000000,5.000000,12.000000
1309569.369170,-3.000000,-6.000000,-6.000000,7.000000,5.000000,-2.000000,-6.000000,-4.000000
1309569.369183,-5.000000,8.000000,9.000000,-3.000000,-5.000000,0.000000,-3.000000,0.000000
1309569.376514,-5.000000,0.000000,3.000000,-6.000000,-8.000000,6.000000,9.000000,10.000000
1309569.376530,2.000000,-5.000000,-7.000000,4.000000,2.000000,-3.000000,-2.000000,-1.000000
1309569.384378,3.000000,-5.000000,1.000000,-3.000000,0.000000,-5.000000,-9.000000,-9.000000
1309569.384392,0.000000,2.000000,10.000000,-6.000000,-3.000000,1.000000,2.000000,5.000000
1309569.391828,0.000000,-10.000000,-6.000000,4.000000,3.000000,-3.000000,3.000000,-2.000000
1309569.391842,4.000000,-4.000000,-14.000000,3.000000,7.000000,-7.000000,-11.000000,-10.000000
1309569.429211,-1.000000,6.000000,2.000000,-3.000000,-9.000000,8.000000,-1.000000,0.000000
1309569.429231,-5.000000,0.000000,1.000000,-2.000000,-3.000000,6.000000,8.000000,6.000000
1309569.451661,0.000000,-2.000000,-5.000000,-3.000000,0.000000,-9.000000,-5.000000,-1.000000
1309569.451675,0.000000,3.000000,1.000000,-4.000000,-4.000000,1.000000,-1.000000,-3.000000
1309569.459855,-8.000000,8.000000,10.000000,-3.000000,-6.000000,5.000000,7.000000,11.000000
1309569.459867,-1.000000,-3.000000,-3.000000,2.000000,5.000000,-5.000000,-2.000000,-4.000000
1309569.466377,1.000000,-1.000000,0.000000,-2.000000,1.000000,-6.000000,-9.000000,-6.000000
1309569.466392,-4.000000,6.000000,11.000000,1.000000,-5.000000,4.000000,5.000000,5.000000
1309569.467458,-1.000000,-7.000000,-1.000000,4.000000,-2.000000,-1.000000,-1.000000,1.000000
1309569.467485,1.000000,-7.000000,-12.000000,4.000000,3.000000,-8.000000,-10.000000,-10.000000
1309569.468068,-1.000000,2.000000,2.000000,-1.000000,0.000000,-3.000000,2.000000,14.000000
1309569.468095,4.000000,0.000000,2.000000,3.000000,-7.000000,1.000000,6.000000,12.000000
1309569.468856,0.000000,-12.000000,-14.000000,3.000000,7.000000,-5.000000,-6.000000,0.000000
1309569.468883,-2.000000,6.000000,3.000000,-7.000000,-5.000000,-1.000000,-4.000000,1.000000
1309569.473563,1.000000,3.000000,4.000000,-4.000000,-9.000000,4.000000,11.000000,8.000000
1309569.473571,-2.000000,-5.000000,-3.000000,-1.000000,3.000000,1.000000,-1.000000,-4.000000
1309569.481501,1.000000,6.000000,3.000000,0.000000,0.000000,-8.000000,-7.000000,-9.000000
1309569.481511,-4.000000,7.000000,9.000000,-2.000000,-5.000000,4.000000,7.000000,5.000000
1309569.497230,5.000000,-1.000000,-8.000000,0.000000,-1.000000,-5.000000,0.000000,-3.000000
1309569.497241,1.000000,-4.000000,-8.000000,-1.000000,2.000000,-9.000000,-8.000000,-9.000000
1309569.511450,3.000000,2.000000,3.000000,-5.000000,-2.000000,1.000000,1.000000,-1.000000
1309569.511462,3.000000,-4.000000,-4.000000,0.000000,-1.000000,1.000000,6.000000,2.000000
1309569.512038,1.000000,-4.000000,-9.000000,5.000000,8.000000,-3.000000,-8.000000,-7.000000
1309569.512047,-3.000000,1.000000,3.000000,-4.000000,-2.000000,1.000000,4.000000,6.000000
1309569.534105,-4.000000,4.000000,4.000000,-6.000000,-7.000000,6.000000,5.000000,4.000000
1309569.534133,-3.000000,-7.000000,-6.000000,0.000000,2.000000,-4.000000,-3.000000,9.000000
1309569.549148,-3.000000,-1.000000,-1.000000,-3.000000,0.000000,-1.000000,-6.000000,-12.000000
1309569.549171,1.000000,5.000000,5.000000,1.000000,-2.000000,7.000000,7.000000,11.000000
1309569.586590,-3.000000,-5.000000,-7.000000,2.000000,-1.000000,-3.000000,0.000000,4.000000
1309569.586619,2.000000,-9.000000,-6.000000,-3.000000,6.000000,-9.000000,-12.000000,-10.000000
1309569.594276,-1.000000,5.000000,5.000000,-4.000000,-2.000000,-2.000000,-1.000000,5.000000
1309569.594305,-2.000000,-3.000000,4.000000,1.000000,-5.000000,4.000000,4.000000,4.000000
1309569.609612,4.000000,-9.000000,-10.000000,5.000000,6.000000,-9.000000,-9.000000,-6.000000
1309569.609643,0.000000,8.000000,7.000000,3.000000,-3.000000,-3.000000,-2.000000,1.000000
1309569.610322,-7.000000,6.000000,2.000000,-7.000000,-2.000000,6.000000,7.000000,8.000000
1309569.610334,-2.000000,-3.000000,-3.000000,0.000000,2.000000,-4.000000,0.000000,-4.000000
1309569.611394,1.000000,4.000000,6.000000,2.000000,4.000000,-6.000000,-5.000000,-8.000000
1309569.611401,-4.000000,13.000000,15.000000,0.000000,-7.000000,5.000000,8.000000,8.000000
1309569.612236,-2.000000,3.000000,6.000000,-5.000000,-6.000000,4.000000,3.000000,3.000000
1309569.612243,-3.000000,-7.000000,-2.000000,-3.000000,0.000000,-1.000000,6.000000,3.000000
1309569.624205,-1.000000,-12.000000,-24.000000,6.000000,5.000000,-6.000000,-9.000000,-8.000000
1309569.624216,-5.000000,9.000000,5.000000,-5.000000,-2.000000,2.000000,-1.000000,2.000000
1309569.646486,-2.000000,2.000000,8.000000,-2.000000,-7.000000,8.000000,7.000000,4.000000
1309569.646496,3.000000,-1.000000,-5.000000,1.000000,3.000000,-5.000000,-5.000000,-2.000000
1309569.654244,-1.000000,-5.000000,-6.000000,-4.000000,0.000000,-5.000000,-10.000000,-58.000000
1309569.654255,-4.000000,3.000000,12.000000,-3.000000,-6.000000,2.000000,8.000000,11.000000
1309569.691581,1.000000,-3.000000,-6.000000,-3.000000,2.000000,1.000000,-3.000000,2.000000
1309569.691600,2.000000,-5.000000,-4.000000,0.000000,4.000000,-5.000000,-10.000000,-8.000000
1309569.706513,-1.000000,1.000000,6.000000,-2.000000,-5.000000,5.000000,0.000000,2.000000
1309569.706523,0.000000,-2.000000,-3.000000,-2.000000,-4.000000,-1.000000,6.000000,1.000000
1309569.729505,-1.000000,-11.000000,-7.000000,2.000000,8.000000,-7.000000,-8.000000,-10.000000
1309569.729535,-1.000000,2.000000,1.000000,-4.000000,-1.000000,-4.000000,-1.000000,-1.000000
1309569.730132,-4.000000,5.000000,3.000000,-5.000000,-6.000000,3.000000,7.000000,5.000000
1309569.730141,0.000000,-6.000000,-4.000000,1.000000,-1.000000,-2.000000,-1.000000,0.000000
1309569.731340,6.000000,-2.000000,0.000000,-1.000000,0.000000,-5.000000,-7.000000,-4.000000
1309569.731366,-5.000000,9.000000,16.000000,0.000000,-9.000000,5.000000,8.000000,12.000000
1309569.732081,-2.000000,4.000000,2.000000,-2.000000,-2.000000,2.000000,6.000000,1.000000
1309569.732108,-1.000000,-4.000000,-3.000000,-8.000000,-4.000000,4.000000,7.000000,5.000000
1309569.732960,-4.000000,5.000000,5.000000,-1.000000,-6.000000,5.000000,7.000000,11.000000
1309569.732987,-2.000000,-12.000000,-2.000000,-9.000000,1.000000,-4.000000,-2.000000,-3.000000
1309569.736668,-1.000000,3.000000,6.000000,-2.000000,-1.000000,-3.000000,-6.000000,-7.000000
1309569.736722,0.000000,2.000000,6.000000,-4.000000,-10.000000,3.000000,11.000000,9.000000
1309569.744695,0.000000,-8.000000,-5.000000,9.000000,-1.000000,-6.000000,0.000000,-2.000000
1309569.744742,2.000000,-4.000000,-6.000000,3.000000,5.000000,-10.000000,-8.000000,-11.000000
1309569.751483,-6.000000,4.000000,3.000000,-6.000000,-3.000000,3.000000,5.000000,2.000000
1309569.751493,3.000000,-5.000000,-2.000000,-1.000000,1.000000,2.000000,6.000000,3.000000
1309569.789042,3.000000,-11.000000,-12.000000,-4.000000,9.000000,-9.000000,-10.000000,-9.000000
1309569.789052,-4.000000,1.000000,3.000000,-1.000000,-8.000000,2.000000,-4.000000,0.000000
1309569.804074,-2.000000,6.000000,7.000000,0.000000,-5.000000,4.000000,7.000000,10.000000
1309569.804086,0.000000,-5.000000,-3.000000,1.000000,1.000000,-4.000000,-3.000000,-4.000000
1309569.811864,2.000000,2.000000,10.000000,5.000000,0.000000,0.000000,-4.000000,-2.000000
1309569.811875,-3.000000,9.000000,13.000000,-1.000000,-8.000000,4.000000,6.000000,4.000000
1309569.818777,-2.000000,-4.000000,-6.000000,3.000000,4.000000,-5.000000,-2.000000,-4.000000
1309569.818787,2.000000,-10.000000,0.000000,-4.000000,2.000000,-4.000000,-10.000000,-9.000000
1309569.826793,2.000000,7.000000,3.000000,-9.000000,-5.000000,1.000000,2.000000,3.000000
1309569.826806,-6.000000,-6.000000,-7.000000,1.000000,-3.000000,1.000000,1.000000,4.000000
1309569.864142,4.000000,-12.000000,-7.000000,1.000000,9.000000,-10.000000,-13.000000,-2.000000
1309569.864156,0.000000,4.000000,4.000000,-1.000000,-3.000000,0.000000,3.000000,8.000000
1309569.864621,-9.000000,4.000000,0.000000,-3.000000,-4.000000,5.000000,10.000000,3.000000
1309569.864631,-1.000000,-10.000000,-5.000000,-4.000000,-1.000000,-6.000000,-3.000000,-1.000000
1309569.865649,-4.000000,2.000000,1.000000,2.000000,0.000000,-3.000000,-4.000000,-1.000000
1309569.865659,-2.000000,12.000000,12.000000,1.000000,-6.000000,5.000000,3.000000,8.000000
1309569.866271,-6.000000,-5.000000,-6.000000,-5.000000,3.000000,-6.000000,-5.000000,-4.000000
1309569.866281,5.000000,-3.000000,-3.000000,4.000000,7.000000,-9.000000,-9.000000,-10.000000
1309569.868347,3.000000,-14.000000,-13.000000,5.000000,10.000000,-6.000000,-8.000000,-8.000000
1309569.868361,-2.000000,3.000000,2.000000,-3.000000,-1.000000,2.000000,1.000000,-1.000000
1309569.909303,1.000000,5.000000,9.000000,-8.000000,-7.000000,7.000000,6.000000,4.000000
1309569.909315,-1.000000,-7.000000,-5.000000,0.000000,2.000000,-4.000000,-5.000000,-8.000000
1309569.924042,-3.000000,6.000000,6.000000,4.000000,-2.000000,1.000000,-3.000000,-5.000000
1309569.924053,-5.000000,2.000000,6.000000,-6.000000,-7.000000,5.000000,8.000000,7.000000
1309569.946897,3.000000,-2.000000,-6.000000,0.000000,4.000000,-2.000000,-1.000000,-3.000000
1309569.946910,-1.000000,-2.000000,-11.000000,0.000000,5.000000,-7.000000,-8.000000,-9.000000
1309569.947350,-1.000000,-1.000000,3.000000,-1.000000,-2.000000,1.000000,5.000000,18.000000
1309569.947358,2.000000,-9.000000,-12.000000,0.000000,2.000000,0.000000,5.000000,3.000000
1309569.948207,4.000000,-8.000000,-9.000000,0.000000,6.000000,-8.000000,-11.000000,-8.000000
1309569.948215,-3.000000,1.000000,-2.000000,-3.000000,-5.000000,0.000000,-1.000000,4.000000
1309569.949484,4.000000,3.000000,7.000000,-3.000000,0.000000,0.000000,-5.000000,1.000000
1309569.949492,0.000000,5.000000,7.000000,-1.000000,-11.000000,9.000000,10.000000,9.000000
1309569.950207,0.000000,-5.000000,-4.000000,5.000000,5.000000,-4.000000,-3.000000,-4.000000
1309569.950214,3.000000,-11.000000,-5.000000,1.000000,5.000000,-7.000000,-12.000000,-10.000000
1309569.969693,-3.000000,4.000000,7.000000,-4.000000,-8.000000,4.000000,3.000000,2.000000
1309569.969708,0.000000,-6.000000,-7.000000,3.000000,1.000000,-3.000000,0.000000,0.000000
1309569.970221,3.000000,-5.000000,-10.000000,-3.000000,8.000000,-10.000000,-11.000000,-13.000000
1309569.970229,-4.000000,-1.000000,6.000000,-1.000000,-5.000000,0.000000,2.000000,2.000000
1309569.984239,-6.000000,-3.000000,1.000000,-5.000000,-5.000000,3.000000,7.000000,5.000000
1309569.984247,2.000000,-6.000000,-11.000000,3.000000,3.000000,-3.000000,-6.000000,-6.000000
1309569.985163,-1.000000,6.000000,7.000000,-3.000000,-3.000000,0.000000,-1.000000,16.000000
1309569.985170,-3.000000,9.000000,10.000000,-2.000000,-9.000000,9.000000,7.000000,1.000000
1309570.021492,3.000000,-8.000000,-8.000000,5.000000,3.000000,-4.000000,-4.000000,9.000000
1309570.021502,-1.000000,1.000000,2.000000,5.000000,6.000000,-4.000000,-11.000000,-34.000000
1309570.029010,-2.000000,0.000000,8.000000,1.000000,-9.000000,-3.000000,5.000000,7.000000
1309570.029022,2.000000,-7.000000,-7.000000,-2.000000,2.000000,-1.000000,5.000000,5.000000
1309570.044139,0.000000,-6.000000,-8.000000,2.000000,1.000000,-6.000000,-5.000000,-8.000000
1309570.044152,-2.000000,8.000000,2.000000,1.000000,-3.000000,2.000000,3.000000,3.000000
1309570.066415,-2.000000,4.000000,-4.000000,-3.000000,-8.000000,0.000000,5.000000,4.000000
1309570.066438,0.000000,-11.000000,-7.000000,5.000000,6.000000,-5.000000,-6.000000,-7.000000
1309570.067479,-1.000000,3.000000,3.000000,2.000000,0.000000,-3.000000,0.000000,-1.000000
1309570.067487,-3.000000,8.000000,6.000000,-8.000000,-8.000000,7.000000,11.000000,8.000000
1309570.067996,-2.000000,-3.000000,-4.000000,-3.000000,3.000000,-4.000000,-4.000000,-5.000000
1309570.068004,1.000000,1.000000,-6.000000,5.000000,4.000000,-3.000000,-10.000000,-3.000000
1309570.069389,4.000000,2.000000,8.000000,-1.000000,-3.000000,3.000000,4.000000,0.000000
1309570.069398,1.000000,-3.000000,-7.000000,6.000000,0.000000,-2.000000,2.000000,5.000000
1309570.070281,1.000000,-6.000000,-9.000000,-5.000000,6.000000,-11.000000,-11.000000,-6.000000
1309570.070289,-3.000000,5.000000,6.000000,-1.000000,-3.000000,-1.000000,0.000000,3.000000
1309570.082095,-4.000000,3.000000,5.000000,-6.000000,-2.000000,2.000000,5.000000,4.000000
1309570.082106,-1.000000,-4.000000,-4.000000,-1.000000,5.000000,-6.000000,-3.000000,-8.000000
1309570.082773,-3.000000,-1.000000,-1.000000,-2.000000,-4.000000,2.000000,-3.000000,-2.000000
1309570.082782,-2.000000,7.000000,5.000000,-6.000000,-5.000000,1.000000,5.000000,5.000000
1309570.104487,-3.000000,-10.000000,-3.000000,2.000000,-1.000000,-5.000000,-3.000000,-4.000000
1309570.104498,3.000000,1.000000,-3.000000,-2.000000,5.000000,-4.000000,-9.000000,-6.000000
1309570.105265,-2.000000,8.000000,13.000000,-5.000000,-4.000000,5.000000,5.000000,4.000000
1309570.105275,1.000000,-6.000000,-6.000000,6.000000,1.000000,-4.000000,-1.000000,-3.000000
1309570.141806,0.000000,-6.000000,-9.000000,4.000000,5.000000,-10.000000,-14.000000,-61.000000
1309570.141819,-2.000000,2.000000,4.000000,-5.000000,-9.000000,0.000000,0.000000,5.000000
1309570.149327,2.000000,-1.000000,-4.000000,-5.000000,-7.000000,1.000000,8.000000,12.000000
1309570.149342,0.000000,-12.000000,-7.000000,3.000000,5.000000,-6.000000,-9.000000,-5.000000
1309570.179293,-4.000000,7.000000,-1.000000,1.000000,-2.000000,0.000000,-4.000000,1.000000
1309570.179306,-3.000000,6.000000,4.000000,0.000000,-9.000000,3.000000,8.000000,8.000000
1309570.186723,-1.000000,-5.000000,-5.000000,-1.000000,6.000000,-2.000000,-3.000000,-2.000000
1309570.186736,1.000000,-1.000000,-1.000000,-2.000000,1.000000,-6.000000,-7.000000,-10.000000
1309570.187662,-2.000000,8.000000,7.000000,-2.000000,-6.000000,5.000000,6.000000,6.000000
1309570.187672,5.000000,-5.000000,-1.000000,-5.000000,2.000000,0.000000,3.000000,1.000000
1309570.188123,5.000000,-4.000000,-6.000000,2.000000,8.000000,-8.000000,-10.000000,-11.000000
1309570.188132,-6.000000,5.000000,3.000000,0.000000,-3.000000,0.000000,1.000000,1.000000
1309570.190153,-2.000000,-5.000000,-4.000000,0.000000,-5.000000,1.000000,5.000000,7.000000
1309570.190166,3.000000,-7.000000,-12.000000,-1.000000,8.000000,-6.000000,-7.000000,-10.000000
1309570.201901,-2.000000,-6.000000,-3.000000,1.000000,4.000000,-4.000000,-3.000000,-6.000000
1309570.201911,3.000000,-1.000000,-2.000000,1.000000,0.000000,-5.000000,-4.000000,8.000000
1309570.202885,-3.000000,9.000000,8.000000,-1.000000,-5.000000,5.000000,6.000000,-5.000000
1309570.202895,5.000000,-6.000000,-9.000000,-7.000000,0.000000,0.000000,1.000000,11.000000
1309570.217461,-2.000000,-8.000000,-3.000000,2.000000,5.000000,-8.000000,-12.000000,-8.000000
1309570.217487,-3.000000,4.000000,8.000000,0.000000,-5.000000,4.000000,2.000000,5.000000
1309570.224032,0.000000,2.000000,-4.000000,-4.000000,-3.000000,0.000000,6.000000,5.000000
1309570.224061,3.000000,-15.000000,-8.000000,0.000000,5.000000,-8.000000,-7.000000,-9.000000
1309570.246896,0.000000,3.000000,8.000000,-5.000000,-3.000000,-1.000000,-1.000000,1.000000
1309570.246905,-8.000000,2.000000,9.000000,-3.000000,-8.000000,5.000000,9.000000,10.000000
1309570.247834,3.000000,-8.000000,-6.000000,5.000000,7.000000,-1.000000,-5.000000,-7.000000
1309570.247842,1.000000,-1.000000,6.000000,2.000000,0.000000,-5.000000,-6.000000,-8.000000
1309570.276701,-5.000000,7.000000,12.000000,6.000000,-9.000000,5.000000,7.000000,6.000000
1309570.276710,1.000000,-4.000000,-5.000000,0.000000,2.000000,-5.000000,0.000000,-5.000000
1309570.284235,3.000000,-4.000000,-5.000000,-2.000000,7.000000,-6.000000,-11.000000,-7.000000
1309570.284245,-7.000000,5.000000,6.000000,1.000000,-5.000000,2.000000,2.000000,2.000000
1309570.314244,-5.000000,-6.000000,-5.000000,2.000000,-7.000000,1.000000,7.000000,2.000000
1309570.314254,-3.000000,-11.000000,-12.000000,12.000000,9.000000,-7.000000,-7.000000,-5.000000
1309570.321719,-6.000000,0.000000,7.000000,-4.000000,-6.000000,0.000000,-1.000000,1.000000
1309570.321730,-4.000000,0.000000,6.000000,0.000000,-9.000000,6.000000,4.000000,8.000000
1309570.344663,-3.000000,-7.000000,-5.000000,-1.000000,5.000000,-4.000000,-4.000000,-8.000000
1309570.344674,-3.000000,1.000000,6.000000,1.000000,-3.000000,-1.000000,-10.000000,-4.000000
1309570.345288,-3.000000,9.000000,14.000000,2.000000,-10.000000,4.000000,9.000000,8.000000
1309570.345309,-1.000000,1.000000,-4.000000,4.000000,3.000000,-3.000000,-2.000000,-1.000000
1309570.346303,-7.000000,-4.000000,-4.000000,-4.000000,-6.000000,0.000000,3.000000,2.000000
1309570.346358,3.000000,-10.000000,-10.000000,1.000000,5.000000,-6.000000,-12.000000,-11.000000
1309570.358979,-4.000000,5.000000,2.000000,0.000000,-4.000000,-1.000000,-3.000000,1.000000
1309570.358988,2.000000,4.000000,4.000000,-3.000000,-8.000000,4.000000,7.000000,8.000000
1309570.381759,-4.000000,10.000000,7.000000,-3.000000,-4.000000,7.000000,9.000000,31.000000
1309570.381770,12.000000,-9.000000,-11.000000,5.000000,0.000000,-1.000000,-2.000000,9.000000
1309570.404128,-8.000000,-3.000000,-6.000000,1.000000,6.000000,-7.000000,-10.000000,-22.000000
1309570.404138,-4.000000,8.000000,9.000000,-4.000000,-5.000000,4.000000,7.000000,13.000000
1309570.419255,3.000000,-4.000000,-3.000000,-1.000000,-3.000000,0.000000,3.000000,4.000000
1309570.419266,4.000000,-11.000000,-16.000000,-3.000000,5.000000,-10.000000,-10.000000,-5.000000
1309570.426738,-3.000000,1.000000,4.000000,-5.000000,-5.000000,1.000000,-3.000000,-3.000000
1309570.426771,-3.000000,5.000000,3.000000,-4.000000,-7.000000,9.000000,8.000000,6.000000
1309570.441573,1.000000,-9.000000,-10.000000,1.000000,0.000000,-5.000000,-4.000000,-9.000000
1309570.441593,-1.000000,0.000000,3.000000,6.000000,2.000000,-1.000000,-4.000000,-4.000000
1309570.441960,1.000000,9.000000,9.000000,0.000000,-6.000000,6.000000,7.000000,5.000000
1309570.441987,-3.000000,-8.000000,-7.000000,-3.000000,4.000000,-6.000000,-2.000000,-1.000000
1309570.442455,5.000000,-1.000000,-7.000000,0.000000,5.000000,-6.000000,-10.000000,-8.000000
1309570.442482,0.000000,2.000000,6.000000,5.000000,-5.000000,3.000000,3.000000,6.000000
1309570.443120,-3.000000,-3.000000,-1.000000,-2.000000,-1.000000,1.000000,6.000000,1.000000
1309570.443126,3.000000,-17.000000,-15.000000,3.000000,6.000000,-10.000000,-8.000000,-8.000000
1309570.444635,-4.000000,1.000000,12.000000,-4.000000,-3.000000,4.000000,-2.000000,-1.000000
1309570.444644,1.000000,-2.000000,-1.000000,-5.000000,-6.000000,7.000000,5.000000,7.000000
1309570.464126,1.000000,-5.000000,-10.000000,3.000000,0.000000,-3.000000,-5.000000,-1.000000
1309570.464139,-1.000000,3.000000,1.000000,-4.000000,1.000000,-5.000000,-4.000000,-5.000000
1309570.465291,-5.000000,12.000000,9.000000,2.000000,-7.000000,7.000000,9.000000,-2.000000
1309570.465298,0.000000,-2.000000,-3.000000,-1.000000,1.000000,1.000000,0.000000,19.000000
1309570.479036,0.000000,-7.000000,-3.000000,7.000000,5.000000,-6.000000,-10.000000,-11.000000
1309570.479046,2.000000,3.000000,1.000000,2.000000,-6.000000,1.000000,2.000000,9.000000
1309570.501742,-1.000000,-1.000000,-5.000000,0.000000,0.000000,-1.000000,1.000000,0.000000
1309570.501753,2.000000,-13.000000,-11.000000,2.000000,9.000000,-8.000000,-12.000000,-15.000000
1309570.538832,-5.000000,3.000000,3.000000,1.000000,-3.000000,1.000000,1.000000,3.000000
1309570.538856,-9.000000,-1.000000,5.000000,2.000000,-4.000000,2.000000,10.000000,8.000000
1309570.539881,0.000000,-10.000000,-3.000000,1.000000,0.000000,-2.000000,-1.000000,-6.000000
1309570.539891,-2.000000,3.000000,-2.000000,0.000000,-4.000000,-5.000000,-5.000000,-5.000000
1309570.540581,0.000000,10.000000,16.000000,-5.000000,-5.000000,9.000000,8.000000,9.000000
1309570.540595,4.000000,-8.000000,-9.000000,1.000000,2.000000,-3.000000,-7.000000,-4.000000
1309570.541955,2.000000,-2.000000,-4.000000,-1.000000,2.000000,-8.000000,-10.000000,-9.000000
1309570.541983,-2.000000,3.000000,5.000000,-3.000000,0.000000,2.000000,1.000000,2.000000
1309570.542760,1.000000,-4.000000,-7.000000,-2.000000,0.000000,-2.000000,1.000000,4.000000
1309570.542786,5.000000,-11.000000,-6.000000,4.000000,8.000000,-8.000000,-11.000000,-8.000000
1309570.561794,0.000000,-4.000000,-5.000000,0.000000,2.000000,-4.000000,-1.000000,-11.000000
1309570.561807,-3.000000,10.000000,12.000000,-3.000000,0.000000,0.000000,-4.000000,-2.000000
1309570.576666,0.000000,4.000000,12.000000,2.000000,-12.000000,7.000000,8.000000,10.000000
1309570.576725,1.000000,-6.000000,-9.000000,3.000000,2.000000,0.000000,2.000000,2.000000
1309570.577028,9.000000,-8.000000,3.000000,1.000000,4.000000,-6.000000,-11.000000,11.000000
1309570.577038,-2.000000,-1.000000,3.000000,0.000000,-2.000000,1.000000,-1.000000,-57.000000
1309570.578477,-3.000000,-4.000000,-5.000000,-2.000000,-2.000000,-1.000000,15.000000,15.000000
1309570.578487,5.000000,-13.000000,-15.000000,-3.000000,7.000000,-9.000000,-11.000000,-5.000000
1309570.583768,-4.000000,1.000000,4.000000,-5.000000,-8.000000,4.000000,3.000000,0.000000
1309570.583777,-1.000000,2.000000,2.000000,-1.000000,-5.000000,4.000000,5.000000,10.000000
1309570.599217,3.000000,-10.000000,-7.000000,5.000000,4.000000,-8.000000,-5.000000,-6.000000
1309570.599227,0.000000,4.000000,4.000000,0.000000,-2.000000,1.000000,-1.000000,1.000000
1309570.606682,-8.000000,6.000000,9.000000,-6.000000,-5.000000,9.000000,9.000000,5.000000
1309570.606693,3.000000,-6.000000,-6.000000,-2.000000,3.000000,-2.000000,-5.000000,-1.000000
1309570.636399,1.000000,-3.000000,4.000000,2.000000,2.000000,-6.000000,-10.000000,-9.000000
1309570.636428,0.000000,8.000000,3.000000,-4.000000,-8.000000,1.000000,3.000000,1.000000
1309570.644225,1.000000,-5.000000,-6.000000,-1.000000,1.000000,0.000000,3.000000,2.000000
1309570.644240,1.000000,-13.000000,-4.000000,-1.000000,5.000000,-5.000000,-10.000000,-9.000000
1309570.645123,-7.000000,8.000000,2.000000,-4.000000,-6.000000,2.000000,2.000000,1.000000
1309570.645133,-2.000000,1.000000,1.000000,2.000000,-5.000000,8.000000,5.000000,6.000000
1309570.645811,0.000000,-12.000000,-3.000000,4.000000,3.000000,-4.000000,-6.000000,-6.000000
1309570.645821,0.000000,3.000000,9.000000,-4.000000,-1.000000,2.000000,-1.000000,1.000000
1309570.659798,-5.000000,0.000000,-2.000000,-7.000000,-6.000000,6.000000,7.000000,5.000000
1309570.659809,2.000000,-2.000000,-3.000000,0.000000,3.000000,-2.000000,-4.000000,-4.000000
1309570.681514,3.000000,-7.000000,-4.000000,-1.000000,3.000000,-6.000000,-10.000000,-12.000000
1309570.681525,0.000000,4.000000,10.000000,-4.000000,-7.000000,6.000000,7.000000,18.000000
1309570.682635,1.000000,-8.000000,-4.000000,2.000000,-4.000000,0.000000,4.000000,4.000000
1309570.682645,3.000000,-4.000000,-15.000000,-3.000000,6.000000,-9.000000,-12.000000,-8.000000
1309570.696644,-5.000000,2.000000,2.000000,-2.000000,-7.000000,-1.000000,2.000000,2.000000
1309570.696656,-1.000000,-1.000000,1.000000,-5.000000,-3.000000,3.000000,7.000000,6.000000
1309570.697768,0.000000,-7.000000,-9.000000,2.000000,3.000000,-1.000000,-3.000000,-5.000000
1309570.697776,1.000000,0.000000,5.000000,-2.000000,-3.000000,0.000000,-4.000000,0.000000
1309570.704234,-8.000000,2.000000,12.000000,-3.000000,-9.000000,4.000000,10.000000,7.000000
1309570.704246,2.000000,-6.000000,-5.000000,-2.000000,0.000000,-2.000000,-1.000000,-1.000000
1309570.726385,-1.000000,-2.000000,-5.000000,-1.000000,10.000000,-7.000000,-6.000000,-8.000000
1309570.726408,-6.000000,5.000000,3.000000,-2.000000,-6.000000,6.000000,5.000000,3.000000
1309570.741725,-3.000000,-7.000000,-3.000000,4.000000,2.000000,-3.000000,2.000000,2.000000
1309570.741736,1.000000,-10.000000,-10.000000,2.000000,8.000000,-9.000000,-8.000000,-9.000000
1309570.764382,-2.000000,8.000000,9.000000,-1.000000,-1.000000,1.000000,2.000000,1.000000
1309570.764405,3.000000,0.000000,0.000000,-2.000000,-6.000000,6.000000,8.000000,6.000000
1309570.764669,-1.000000,-9.000000,-6.000000,3.000000,4.000000,-8.000000,-4.000000,-5.000000
1309570.764679,1.000000,7.000000,2.000000,-1.000000,-5.000000,-1.000000,-3.000000,1.000000
1309570.765564,0.000000,4.000000,7.000000,2.000000,-8.000000,3.000000,7.000000,11.000000
1309570.765572,5.000000,0.000000,-8.000000,-1.000000,3.000000,-6.000000,-2.000000,0.000000
1309570.766431,0.000000,-2.000000,0.000000,-3.000000,6.000000,-6.000000,-7.000000,-7.000000
1309570.766459,-2.000000,5.000000,10.000000,-4.000000,-9.000000,3.000000,3.000000,6.000000
1309570.801978,-4.000000,-7.000000,-4.000000,2.000000,4.000000,-5.000000,-1.000000,-30.000000
1309570.802007,10.000000,-7.000000,-7.000000,3.000000,2.000000,-5.000000,-10.000000,-5.000000
1309570.802325,0.000000,8.000000,4.000000,1.000000,-5.000000,3.000000,3.000000,23.000000
1309570.802339,-8.000000,2.000000,-1.000000,-5.000000,-3.000000,3.000000,8.000000,-5.000000
1309570.803357,3.000000,-7.000000,-9.000000,-3.000000,4.000000,-5.000000,-6.000000,0.000000
1309570.803365,2.000000,4.000000,1.000000,-4.000000,-4.000000,2.000000,-4.000000,0.000000
1309570.808906,-7.000000,2.000000,5.000000,-1.000000,-8.000000,3.000000,9.000000,6.000000
1309570.808915,0.000000,-8.000000,-3.000000,4.000000,1.000000,0.000000,6.000000,3.000000
1309570.817085,2.000000,-6.000000,1.000000,3.000000,3.000000,-4.000000,-7.000000,9.000000
1309570.817096,-6.000000,12.000000,9.000000,-5.000000,-8.000000,5.000000,10.000000,3.000000
1309570.839299,-1.000000,-14.000000,-9.000000,2.000000,-3.000000,-4.000000,0.000000,3.000000
1309570.839313,2.000000,-10.000000,-6.000000,0.000000,6.000000,-9.000000,-11.000000,-7.000000
1309570.861674,-1.000000,-1.000000,5.000000,-3.000000,0.000000,3.000000,2.000000,1.000000
1309570.861686,-3.000000,-3.000000,-5.000000,0.000000,-3.000000,4.000000,3.000000,4.000000
1309570.868928,4.000000,-4.000000,-13.000000,-2.000000,3.000000,-5.000000,-7.000000,-7.000000
1309570.868938,-6.000000,3.000000,7.000000,-2.000000,-3.000000,0.000000,-1.000000,13.000000
1309570.899252,-2.000000,-1.000000,-4.000000,1.000000,-5.000000,4.000000,9.000000,1.000000
1309570.899273,-3.000000,0.000000,-9.000000,3.000000,4.000000,-1.000000,-4.000000,-5.000000
1309570.914032,-3.000000,-3.000000,0.000000,-5.000000,2.000000,-3.000000,-7.000000,-5.000000
1309570.914044,-8.000000,7.000000,13.000000,3.000000,-8.000000,7.000000,4.000000,7.000000
1309570.936714,0.000000,-6.000000,-10.000000,1.000000,-1.000000,-4.000000,1.000000,0.000000
1309570.936727,5.000000,-5.000000,-3.000000,-2.000000,6.000000,-6.000000,-8.000000,-8.000000
1309570.937060,-2.000000,0.000000,1.000000,-1.000000,-4.000000,1.000000,-2.000000,-23.000000
1309570.937069,-1.000000,-5.000000,0.000000,-6.000000,-7.000000,2.000000,8.000000,17.000000
1309570.974248,4.000000,-4.000000,-14.000000,0.000000,3.000000,-7.000000,-10.000000,-1.000000
1309570.974296,1.000000,7.000000,9.000000,-6.000000,-4.000000,0.000000,2.000000,4.000000
1309570.996413,0.000000,-2.000000,-12.000000,1.000000,2.000000,-2.000000,0.000000,-6.000000
1309570.996423,5.000000,-3.000000,-12.000000,-4.000000,7.000000,-9.000000,-10.000000,-11.000000
1309571.011625,1.000000,-10.000000,-17.000000,1.000000,6.000000,-10.000000,-9.000000,-4.000000
1309571.011636,-3.000000,5.000000,4.000000,-1.000000,-3.000000,-1.000000,-1.000000,-1.000000
1309571.019178,-3.000000,4.000000,3.000000,-3.000000,-8.000000,7.000000,9.000000,7.000000
1309571.019191,3.000000,-7.000000,-6.000000,1.000000,2.000000,-1.000000,-3.000000,-4.000000
1309571.019679,-1.000000,7.000000,6.000000,0.000000,-5.000000,5.000000,4.000000,1.000000
1309571.019706,1.000000,-7.000000,-8.000000,3.000000,1.000000,0.000000,6.000000,5.000000
1309571.020196,-3.000000,-1.000000,-4.000000,0.000000,-4.000000,7.000000,7.000000,5.000000
1309571.020204,1.000000,-4.000000,-5.000000,-3.000000,4.000000,-2.000000,-3.000000,-5.000000
1309571.021893,-4.000000,-1.000000,1.000000,-3.000000,-1.000000,-3.000000,-7.000000,-6.000000
1309571.021903,-6.000000,10.000000,15.000000,-4.000000,-10.000000,7.000000,8.000000,4.000000
1309571.034004,1.000000,-5.000000,-9.000000,-1.000000,-3.000000,-1.000000,2.000000,-2.000000
1309571.034034,-1.000000,0.000000,-7.000000,1.000000,5.000000,-5.000000,-10.000000,-11.000000
1309571.035245,-7.000000,1.000000,-3.000000,0.000000,-3.000000,3.000000,0.000000,-4.000000
1309571.035253,-5.000000,-4.000000,-5.000000,-2.000000,0.000000,1.000000,1.000000,7.000000
1309571.049731,1.000000,-14.000000,-13.000000,5.000000,7.000000,-10.000000,-7.000000,-6.000000
1309571.049761,4.000000,0.000000,12.000000,-3.000000,-3.000000,0.000000,0.000000,0.000000
1309571.079227,-7.000000,-2.000000,1.000000,-6.000000,-7.000000,5.000000,4.000000,-46.000000
1309571.079256,-2.000000,-5.000000,-8.000000,-2.000000,2.000000,-4.000000,-4.000000,2.000000
1309571.094887,1.000000,2.000000,6.000000,1.000000,0.000000,2.000000,-5.000000,-3.000000
1309571.094925,-3.000000,9.000000,7.000000,-1.000000,-12.000000,10.000000,8.000000,9.000000
1309571.096943,-2.000000,1.000000,2.000000,-1.000000,-5.000000,5.000000,6.000000,-6.000000
1309571.096992,-3.000000,-4.000000,-7.000000,-4.000000,-3.000000,1.000000,2.000000,1.000000
1309571.097547,-1.000000,-7.000000,-6.000000,1.000000,3.000000,-6.000000,-1.000000,0.000000
1309571.097577,4.000000,-7.000000,-6.000000,2.000000,8.000000,-6.000000,-10.000000,-9.000000
1309571.098554,1.000000,-7.000000,-11.000000,1.000000,8.000000,-8.000000,-11.000000,-10.000000
1309571.098574,-2.000000,0.000000,5.000000,-1.000000,-4.000000,2.000000,-2.000000,22.000000
1309571.109611,-8.000000,4.000000,-2.000000,-3.000000,-6.000000,3.000000,-3.000000,-3.000000
1309571.109634,-1.000000,-6.000000,-7.000000,8.000000,-3.000000,-6.000000,-4.000000,-2.000000
1309571.132315,-1.000000,2.000000,5.000000,0.000000,-3.000000,0.000000,-2.000000,-6.000000
1309571.132339,-1.000000,9.000000,9.000000,-3.000000,-11.000000,10.000000,7.000000,19.000000
1309571.139997,5.000000,-6.000000,-6.000000,2.000000,2.000000,-3.000000,-1.000000,6.000000
1309571.140050,0.000000,-7.000000,-4.000000,1.000000,4.000000,-6.000000,-8.000000,-3.000000
1309571.154080,-5.000000,1.000000,9.000000,1.000000,-3.000000,-1.000000,-1.000000,-50.000000
1309571.154094,2.000000,-7.000000,-8.000000,4.000000,-1.000000,-1.000000,1.000000,24.000000
1309571.176722,1.000000,-13.000000,-8.000000,0.000000,6.000000,-10.000000,-10.000000,-12.000000
1309571.176736,-5.000000,3.000000,1.000000,-3.000000,-1.000000,5.000000,2.000000,7.000000
1309571.200713,-3.000000,5.000000,5.000000,-2.000000,-8.000000,3.000000,9.000000,9.000000
1309571.200758,-3.000000,-2.000000,-7.000000,0.000000,4.000000,-5.000000,-3.000000,-7.000000
1309571.214545,1.000000,1.000000,7.000000,-3.000000,2.000000,-2.000000,-4.000000,-4.000000
1309571.214564,-8.000000,8.000000,8.000000,-6.000000,-2.000000,3.000000,9.000000,8.000000
1309571.251518,-1.000000,-12.000000,-5.000000,1.000000,4.000000,-2.000000,0.000000,-6.000000
1309571.251542,1.000000,-7.000000,-3.000000,0.000000,1.000000,-5.000000,-9.000000,-7.000000
1309571.251940,0.000000,5.000000,8.000000,-1.000000,-7.000000,1.000000,6.000000,1.000000
1309571.251956,-2.000000,-9.000000,-4.000000,-3.000000,-2.000000,2.000000,1.000000,2.000000
1309571.253389,-3.000000,0.000000,-1.000000,-3.000000,-1.000000,3.000000,8.000000,5.000000
1309571.253413,-3.000000,-7.000000,-7.000000,1.000000,2.000000,-8.000000,-2.000000,-6.000000
1309571.254592,-3.000000,-3.000000,-10.000000,3.000000,-3.000000,-4.000000,-1.000000,0.000000
1309571.254606,1.000000,-4.000000,1.000000,5.000000,4.000000,-8.000000,-11.000000,-7.000000
1309571.259281,-5.000000,-1.000000,1.000000,0.000000,-6.000000,4.000000,4.000000,9.000000
1309571.259293,-2.000000,-10.000000,-5.000000,0.000000,6.000000,-4.000000,-5.000000,-7.000000
1309571.274224,1.000000,3.000000,-1.000000,0.000000,-1.000000,-3.000000,-1.000000,1.000000
1309571.274243,-9.000000,7.000000,6.000000,-4.000000,-12.000000,6.000000,10.000000,9.000000
1309571.296679,4.000000,-5.000000,-10.000000,2.000000,1.000000,-4.000000,0.000000,-3.000000
1309571.296693,-1.000000,1.000000,-2.000000,1.000000,3.000000,-5.000000,-10.000000,0.000000
1309571.311816,-4.000000,6.000000,9.000000,0.000000,-2.000000,5.000000,5.000000,6.000000
1309571.311830,1.000000,-9.000000,-9.000000,2.000000,-4.000000,-4.000000,0.000000,18.000000
1309571.334059,4.000000,-9.000000,-9.000000,-4.000000,10.000000,-7.000000,-8.000000,-8.000000
1309571.334072,-3.000000,0.000000,2.000000,-1.000000,-3.000000,5.000000,2.000000,-1.000000
1309571.356860,-4.000000,6.000000,-2.000000,1.000000,-4.000000,4.000000,9.000000,5.000000
1309571.356874,1.000000,-6.000000,-9.000000,1.000000,0.000000,-5.000000,-2.000000,-6.000000
1309571.372080,1.000000,8.000000,7.000000,-3.000000,-5.000000,2.000000,-3.000000,-2.000000
1309571.372092,-1.000000,8.000000,12.000000,-7.000000,-7.000000,8.000000,10.000000,11.000000
1309571.372690,0.000000,-6.000000,-6.000000,4.000000,2.000000,0.000000,-1.000000,-5.000000
1309571.372701,2.000000,-4.000000,-6.000000,6.000000,5.000000,-11.000000,-12.000000,-7.000000
1309571.373958,-4.000000,3.000000,10.000000,0.000000,-5.000000,6.000000,9.000000,5.000000
1309571.373975,0.000000,-1.000000,-6.000000,5.000000,-4.000000,-2.000000,1.000000,26.000000
1309571.374633,0.000000,-5.000000,-6.000000,2.000000,7.000000,-8.000000,-6.000000,-25.000000
1309571.374644,-3.000000,5.000000,6.000000,1.000000,-1.000000,4.000000,-2.000000,0.000000
1309571.375718,-1.000000,8.000000,-2.000000,-5.000000,0.000000,0.000000,-1.000000,0.000000
1309571.375731,-4.000000,1.000000,2.000000,-9.000000,-8.000000,3.000000,8.000000,8.000000
1309571.395662,2.000000,-6.000000,-5.000000,-4.000000,5.000000,-3.000000,-3.000000,-7.000000
1309571.395697,-1.000000,-4.000000,-5.000000,2.000000,2.000000,-7.000000,-10.000000,-2.000000
1309571.395912,-5.000000,5.000000,11.000000,0.000000,-5.000000,5.000000,3.000000,6.000000
1309571.395935,1.000000,-7.000000,-7.000000,-2.000000,4.000000,-2.000000,3.000000,3.000000
1309571.410344,0.000000,-13.000000,-3.000000,0.000000,2.000000,-8.000000,-9.000000,-7.000000
1309571.410643,4.000000,-1.000000,0.000000,0.000000,-4.000000,0.000000,2.000000,-3.000000
1309571.411179,-4.000000,0.000000,4.000000,1.000000,-7.000000,1.000000,5.000000,6.000000
1309571.411214,5.000000,-14.000000,-12.000000,3.000000,5.000000,-4.000000,-7.000000,-5.000000
1309571.424567,2.000000,2.000000,5.000000,-8.000000,-4.000000,-5.000000,1.000000,-4.000000
1309571.424586,-9.000000,3.000000,7.000000,-7.000000,-5.000000,5.000000,8.000000,7.000000
1309571.432019,0.000000,-5.000000,-3.000000,1.000000,5.000000,-5.000000,-5.000000,-1.000000
1309571.432114,-1.000000,-6.000000,1.000000,-2.000000,5.000000,-4.000000,-6.000000,11.000000
1309571.454224,-7.000000,9.000000,8.000000,-3.000000,-2.000000,4.000000,7.000000,3.000000
1309571.454236,4.000000,-4.000000,-16.000000,1.000000,-3.000000,0.000000,0.000000,0.000000
1309571.469411,-2.000000,-7.000000,-11.000000,-1.000000,6.000000,-8.000000,-8.000000,-6.000000
1309571.469439,-5.000000,4.000000,3.000000,-4.000000,-4.000000,4.000000,10.000000,9.000000
1309571.477096,-3.000000,0.000000,0.000000,2.000000,0.000000,5.000000,10.000000,-16.000000
1309571.477109,-3.000000,-3.000000,-9.000000,1.000000,5.000000,-7.000000,-7.000000,-7.000000
1309571.477586,-4.000000,0.000000,8.000000,-7.000000,0.000000,4.000000,-3.000000,1.000000
1309571.477598,-5.000000,5.000000,8.000000,-4.000000,-6.000000,3.000000,8.000000,10.000000
1309571.479166,-2.000000,-4.000000,-11.000000,7.000000,2.000000,-7.000000,-1.000000,-7.000000
1309571.479192,-1.000000,-4.000000,1.000000,4.000000,-1.000000,-4.000000,-8.000000,-7.000000
1309571.491506,-6.000000,8.000000,10.000000,1.000000,-2.000000,3.000000,4.000000,6.000000
1309571.491520,3.000000,-7.000000,-10.000000,2.000000,0.000000,-5.000000,2.000000,-4.000000
1309571.514100,2.000000,-7.000000,-9.000000,1.000000,1.000000,-8.000000,-11.000000,-11.000000
1309571.514113,-3.000000,2.000000,0.000000,-2.000000,0.000000,0.000000,1.000000,4.000000
1309571.514488,0.000000,-3.000000,2.000000,0.000000,-1.000000,2.000000,4.000000,6.000000
1309571.514499,4.000000,-11.000000,-9.000000,5.000000,5.000000,-5.000000,-10.000000,-5.000000
1309571.529044,2.000000,5.000000,3.000000,-7.000000,-4.000000,-2.000000,0.000000,-1.000000
1309571.529057,-4.000000,2.000000,8.000000,-1.000000,-4.000000,6.000000,9.000000,7.000000
1309571.536645,3.000000,-3.000000,-8.000000,-5.000000,0.000000,-3.000000,-1.000000,-3.000000
1309571.536655,-3.000000,2.000000,2.000000,-4.000000,1.000000,-4.000000,-8.000000,-5.000000
1309571.559124,-7.000000,8.000000,5.000000,-8.000000,-7.000000,4.000000,5.000000,2.000000
1309571.559134,1.000000,-13.000000,-8.000000,2.000000,1.000000,-4.000000,-6.000000,-32.000000
1309571.574072,3.000000,-1.000000,-9.000000,0.000000,9.000000,-8.000000,-13.000000,-27.000000
1309571.574084,-6.000000,5.000000,2.000000,0.000000,1.000000,2.000000,2.000000,7.000000
1309571.596807,-6.000000,-8.000000,-3.000000,0.000000,-3.000000,-2.000000,0.000000,-45.000000
1309571.596820,1.000000,-13.000000,-10.000000,6.000000,4.000000,-5.000000,-6.000000,-5.000000
1309571.611501,1.000000,4.000000,7.000000,1.000000,-4.000000,-1.000000,-5.000000,0.000000
1309571.611514,-4.000000,-1.000000,3.000000,-2.000000,-7.000000,3.000000,7.000000,7.000000
1309571.641524,1.000000,-6.000000,-8.000000,1.000000,3.000000,-6.000000,2.000000,4.000000
1309571.641556,-2.000000,1.000000,4.000000,2.000000,-2.000000,-1.000000,-4.000000,-5.000000
1309571.648970,-2.000000,9.000000,13.000000,0.000000,-6.000000,4.000000,4.000000,4.000000
1309571.648996,-1.000000,-5.000000,-4.000000,2.000000,2.000000,4.000000,2.000000,-4.000000
1309571.686618,0.000000,-5.000000,-1.000000,3.000000,-4.000000,4.000000,6.000000,3.000000
1309571.686647,-1.000000,-14.000000,-15.000000,1.000000,9.000000,-8.000000,-10.000000,-12.000000
1309571.701657,4.000000,-7.000000,-5.000000,-2.000000,2.000000,-4.000000,-5.000000,0.000000
1309571.701685,1.000000,1.000000,4.000000,-4.000000,1.000000,-2.000000,-4.000000,-5.000000
1309571.716457,-1.000000,-7.000000,-2.000000,3.000000,4.000000,-6.000000,-8.000000,-6.000000
1309571.716485,-3.000000,5.000000,3.000000,-1.000000,-3.000000,2.000000,1.000000,9.000000
1309571.731718,4.000000,5.000000,5.000000,-3.000000,-6.000000,5.000000,0.000000,2.000000
1309571.731750,-1.000000,1.000000,2.000000,1.000000,-8.000000,6.000000,8.000000,4.000000
1309571.732165,-1.000000,12.000000,13.000000,-2.000000,-11.000000,11.000000,12.000000,18.000000
1309571.732191,4.000000,-6.000000,-9.000000,-3.000000,1.000000,0.000000,0.000000,0.000000
1309571.732868,-1.000000,-6.000000,-6.000000,7.000000,10.000000,-7.000000,-6.000000,-7.000000
1309571.732894,0.000000,5.000000,7.000000,-4.000000,0.000000,6.000000,0.000000,2.000000
1309571.733190,-2.000000,-4.000000,-1.000000,0.000000,-1.000000,2.000000,6.000000,-1.000000
1309571.733201,0.000000,-13.000000,-15.000000,2.000000,4.000000,-11.000000,-8.000000,-9.000000
1309571.733883,1.000000,-2.000000,-4.000000,2.000000,4.000000,-6.000000,-7.000000,-4.000000
1309571.733890,-4.000000,1.000000,3.000000,-6.000000,-3.000000,-2.000000,-5.000000,-7.000000
1309571.746994,-2.000000,8.000000,13.000000,-9.000000,-9.000000,6.000000,10.000000,9.000000
1309571.747016,4.000000,-12.000000,-3.000000,4.000000,-3.000000,-2.000000,1.000000,0.000000
1309571.747523,1.000000,-9.000000,-9.000000,-3.000000,6.000000,-10.000000,-7.000000,-10.000000
1309571.747539,-2.000000,7.000000,1.000000,-1.000000,-3.000000,-1.000000,3.000000,10.000000
1309571.784213,-4.000000,-7.000000,-2.000000,-3.000000,2.000000,4.000000,5.000000,11.000000
1309571.784224,2.000000,-13.000000,-16.000000,-1.000000,1.000000,-9.000000,-13.000000,-6.000000
1309571.791663,-4.000000,3.000000,8.000000,-3.000000,-2.000000,0.000000,0.000000,-10.000000
1309571.791674,-3.000000,2.000000,5.000000,-6.000000,-4.000000,5.000000,3.000000,6.000000
1309571.814190,3.000000,-8.000000,-9.000000,-1.000000,0.000000,-6.000000,-1.000000,-6.000000
1309571.814201,2.000000,5.000000,9.000000,0.000000,-4.000000,3.000000,-5.000000,-5.000000
1309571.829219,-7.000000,12.000000,7.000000,-4.000000,-8.000000,7.000000,7.000000,5.000000
1309571.829230,0.000000,-7.000000,-11.000000,3.000000,2.000000,-1.000000,-1.000000,-1.000000
1309571.851294,6.000000,-7.000000,-8.000000,-5.000000,6.000000,-6.000000,-8.000000,-8.000000
1309571.851305,-3.000000,4.000000,4.000000,-1.000000,-1.000000,1.000000,5.000000,4.000000
1309571.851848,4.000000,-3.000000,-5.000000,1.000000,0.000000,3.000000,1.000000,2.000000
1309571.851864,1.000000,-10.000000,-7.000000,3.000000,4.000000,-9.000000,-11.000000,-11.000000
1309571.853135,2.000000,4.000000,6.000000,-9.000000,-6.000000,3.000000,0.000000,-2.000000
1309571.853145,-2.000000,-1.000000,4.000000,-4.000000,-3.000000,6.000000,8.000000,9.000000
1309571.854518,1.000000,-5.000000,-3.000000,1.000000,5.000000,-7.000000,-11.000000,-6.000000
1309571.854533,-1.000000,12.000000,5.000000,2.000000,-7.000000,4.000000,4.000000,-1.000000
1309571.866600,1.000000,-4.000000,-11.000000,1.000000,2.000000,-1.000000,2.000000,4.000000
1309571.866612,4.000000,-8.000000,-14.000000,3.000000,6.000000,-11.000000,-10.000000,-14.000000
1309571.867267,-3.000000,-1.000000,-3.000000,-3.000000,-1.000000,-3.000000,-4.000000,-44.000000
1309571.867275,-7.000000,1.000000,-1.000000,-6.000000,-7.000000,5.000000,10.000000,17.000000
1309571.889156,1.000000,-7.000000,-8.000000,-6.000000,2.000000,-2.000000,-7.000000,-4.000000
1309571.889175,-1.000000,4.000000,4.000000,-1.000000,-3.000000,0.000000,-4.000000,2.000000
1309571.913352,-5.000000,9.000000,1.000000,-3.000000,-9.000000,4.000000,6.000000,5.000000
1309571.913427,-4.000000,-3.000000,-8.000000,1.000000,4.000000,-6.000000,-2.000000,-3.000000
1309571.927809,2.000000,-2.000000,-8.000000,3.000000,8.000000,-10.000000,-12.000000,-13.000000
1309571.927841,-1.000000,3.000000,-1.000000,0.000000,-8.000000,4.000000,1.000000,7.000000
1309571.950285,2.000000,-10.000000,-5.000000,2.000000,-2.000000,-4.000000,1.000000,22.000000
1309571.950318,4.000000,-12.000000,-9.000000,3.000000,9.000000,-5.000000,-10.000000,-10.000000
1309571.965772,0.000000,3.000000,-1.000000,-1.000000,-1.000000,0.000000,1.000000,1.000000
1309571.965812,-5.000000,2.000000,2.000000,1.000000,-7.000000,5.000000,6.000000,8.000000
1309571.966117,2.000000,-6.000000,-12.000000,4.000000,6.000000,-9.000000,-4.000000,-6.000000
1309571.966150,-1.000000,2.000000,8.000000,-4.000000,-2.000000,0.000000,-3.000000,-2.000000
1309571.967523,-2.000000,7.000000,4.000000,-5.000000,-8.000000,6.000000,8.000000,6.000000
1309571.967545,3.000000,-5.000000,-10.000000,3.000000,3.000000,-5.000000,-5.000000,-5.000000
1309571.968138,0.000000,1.000000,-1.000000,1.000000,4.000000,-3.000000,-5.000000,-9.000000
1309571.968163,-4.000000,9.000000,8.000000,1.000000,-6.000000,3.000000,0.000000,2.000000
1309571.972116,-7.000000,2.000000,-1.000000,-2.000000,-5.000000,4.000000,4.000000,5.000000
1309571.972146,-3.000000,3.000000,1.000000,-1.000000,-7.000000,5.000000,7.000000,9.000000
1309571.979997,5.000000,-11.000000,-10.000000,1.000000,6.000000,-6.000000,-1.000000,-5.000000
1309571.980076,-3.000000,9.000000,7.000000,-3.000000,-3.000000,2.000000,-2.000000,-3.000000
1309571.987136,-2.000000,3.000000,4.000000,-4.000000,-9.000000,7.000000,8.000000,11.000000
1309571.987180,0.000000,-9.000000,-2.000000,-4.000000,4.000000,-5.000000,-2.000000,-3.000000
1309572.010015,3.000000,-5.000000,-1.000000,-3.000000,2.000000,-6.000000,-6.000000,-3.000000
1309572.010036,5.000000,7.000000,2.000000,-5.000000,-4.000000,5.000000,3.000000,3.000000
1309572.024157,-2.000000,-8.000000,-6.000000,2.000000,-4.000000,1.000000,0.000000,0.000000
1309572.024168,2.000000,-9.000000,-12.000000,3.000000,7.000000,-5.000000,-6.000000,-11.000000
1309572.046756,2.000000,5.000000,4.000000,-11.000000,-2.000000,0.000000,2.000000,6.000000
1309572.046769,-6.000000,2.000000,-2.000000,-1.000000,-10.000000,5.000000,7.000000,4.000000
1309572.069098,1.000000,-15.000000,-12.000000,2.000000,1.000000,-4.000000,-6.000000,-4.000000
1309572.069110,1.000000,4.000000,3.000000,-5.000000,0.000000,2.000000,-4.000000,-2.000000
1309572.070083,-6.000000,7.000000,9.000000,2.000000,-7.000000,6.000000,4.000000,6.000000
1309572.070095,0.000000,-8.000000,-7.000000,-2.000000,1.000000,-3.000000,0.000000,0.000000
1309572.070680,2.000000,-3.000000,2.000000,-4.000000,3.000000,0.000000,-10.000000,-6.000000
1309572.070689,-2.000000,3.000000,11.000000,2.000000,-7.000000,2.000000,4.000000,25.000000
1309572.071966,4.000000,-2.000000,-6.000000,2.000000,1.000000,-1.000000,1.000000,-3.000000
1309572.071975,-2.000000,-3.000000,-1.000000,-2.000000,10.000000,-11.000000,-11.000000,-32.000000
1309572.072811,-6.000000,4.000000,8.000000,-8.000000,-2.000000,0.000000,2.000000,6.000000
1309572.072820,-4.000000,0.000000,-6.000000,-2.000000,-3.000000,4.000000,7.000000,8.000000
1309572.083797,1.000000,-12.000000,-12.000000,6.000000,5.000000,-5.000000,-7.000000,-9.000000
1309572.083807,0.000000,3.000000,8.000000,-4.000000,-2.000000,-4.000000,0.000000,0.000000
1309572.091622,-1.000000,5.000000,7.000000,-1.000000,-11.000000,6.000000,11.000000,8.000000
1309572.091650,-1.000000,-3.000000,-8.000000,1.000000,2.000000,-4.000000,-1.000000,-1.000000
1309572.106661,2.000000,-1.000000,-2.000000,-3.000000,2.000000,-5.000000,-6.000000,-4.000000
1309572.106713,-3.000000,6.000000,4.000000,-6.000000,-5.000000,7.000000,9.000000,7.000000
1309572.107436,-1.000000,-9.000000,-3.000000,6.000000,1.000000,-1.000000,3.000000,-1.000000
1309572.107447,0.000000,-11.000000,-9.000000,2.000000,7.000000,-7.000000,-12.000000,-10.000000
1309572.122140,-3.000000,6.000000,4.000000,-2.000000,-5.000000,0.000000,-2.000000,2.000000
1309572.122150,-4.000000,-4.000000,2.000000,-1.000000,-7.000000,4.000000,4.000000,5.000000
1309572.128825,0.000000,-8.000000,-13.000000,0.000000,7.000000,-5.000000,-7.000000,-4.000000
1309572.128835,-4.000000,-1.000000,9.000000,-3.000000,-5.000000,-1.000000,-4.000000,-1.000000
1309572.151750,-3.000000,6.000000,0.000000,-1.000000,-4.000000,3.000000,8.000000,7.000000
1309572.151762,2.000000,-5.000000,-6.000000,3.000000,2.000000,-3.000000,-4.000000,-1.000000
1309572.159122,2.000000,-1.000000,1.000000,2.000000,4.000000,-3.000000,-7.000000,-5.000000
1309572.159134,0.000000,15.000000,8.000000,-3.000000,-7.000000,3.000000,7.000000,1.000000
1309572.189305,-6.000000,0.000000,-11.000000,-1.000000,2.000000,-5.000000,2.000000,-3.000000
1309572.189318,4.000000,-6.000000,-3.000000,1.000000,0.000000,-5.000000,-9.000000,-16.000000
1309572.204110,-4.000000,7.000000,4.000000,-4.000000,-1.000000,0.000000,1.000000,6.000000
1309572.204139,0.000000,1.000000,2.000000,2.000000,-2.000000,4.000000,6.000000,5.000000
1309572.256726,1.000000,-10.000000,-9.000000,5.000000,6.000000,-8.000000,-9.000000,-28.000000
1309572.256738,-1.000000,-5.000000,6.000000,-7.000000,1.000000,2.000000,-1.000000,3.000000
1309572.264196,-4.000000,6.000000,3.000000,-1.000000,-10.000000,4.000000,5.000000,8.000000
1309572.264221,-2.000000,-5.000000,-7.000000,-6.000000,6.000000,-2.000000,-5.000000,-2.000000
1309572.286811,-1.000000,7.000000,5.000000,-7.000000,1.000000,-5.000000,-6.000000,-8.000000
1309572.286824,-5.000000,8.000000,9.000000,-3.000000,-8.000000,3.000000,7.000000,5.000000
1309572.309182,0.000000,-1.000000,-6.000000,2.000000,2.000000,-2.000000,-2.000000,-1.000000
1309572.309193,6.000000,-3.000000,-2.000000,4.000000,2.000000,-8.000000,-11.000000,-11.000000
1309572.309473,0.000000,3.000000,5.000000,-3.000000,-6.000000,1.000000,2.000000,3.000000
1309572.309484,0.000000,-4.000000,-5.000000,-5.000000,-9.000000,0.000000,6.000000,0.000000
1309572.309974,-10.000000,5.000000,6.000000,-4.000000,-8.000000,3.000000,12.000000,29.000000
1309572.309984,2.000000,-9.000000,-3.000000,2.000000,2.000000,0.000000,1.000000,-14.000000
1309572.310733,-2.000000,3.000000,5.000000,-1.000000,-8.000000,2.000000,3.000000,2.000000
1309572.310748,-2.000000,-1.000000,-4.000000,3.000000,-5.000000,-1.000000,4.000000,25.000000
1309572.311371,2.000000,-7.000000,-14.000000,0.000000,7.000000,-8.000000,-7.000000,-4.000000
1309572.311402,-2.000000,3.000000,3.000000,-4.000000,-7.000000,-4.000000,-6.000000,8.000000
1309572.311958,-5.000000,6.000000,3.000000,-12.000000,-10.000000,7.000000,6.000000,7.000000
1309572.311979,1.000000,-8.000000,-3.000000,6.000000,4.000000,-6.000000,-2.000000,-3.000000
1309572.312810,-3.000000,0.000000,8.000000,4.000000,0.000000,-4.000000,-8.000000,-6.000000
1309572.312819,-4.000000,14.000000,15.000000,-2.000000,-8.000000,7.000000,6.000000,6.000000
1309572.324713,-1.000000,7.000000,-1.000000,-3.000000,-11.000000,-1.000000,3.000000,2.000000
1309572.324721,1.000000,-1.000000,-3.000000,1.000000,0.000000,3.000000,6.000000,2.000000
1309572.346663,-1.000000,-15.000000,-10.000000,2.000000,8.000000,-6.000000,-9.000000,-11.000000
1309572.346675,1.000000,7.000000,3.000000,-3.000000,-2.000000,-1.000000,-1.000000,0.000000
1309572.347734,-3.000000,4.000000,8.000000,-5.000000,-10.000000,3.000000,12.000000,6.000000
1309572.347742,-4.000000,-9.000000,-8.000000,3.000000,4.000000,-3.000000,-2.000000,-1.000000
1309572.353876,3.000000,-1.000000,3.000000,-1.000000,-1.000000,-3.000000,-5.000000,-6.000000
1309572.353886,-4.000000,15.000000,9.000000,-2.000000,-8.000000,3.000000,5.000000,-4.000000
1309572.361416,-3.000000,-2.000000,-10.000000,-4.000000,3.000000,-5.000000,0.000000,3.000000
1309572.361425,2.000000,-2.000000,-8.000000,6.000000,8.000000,-5.000000,-9.000000,-5.000000
1309572.368959,-6.000000,2.000000,-1.000000,-1.000000,-5.000000,0.000000,5.000000,3.000000
1309572.368969,-6.000000,-6.000000,-9.000000,-1.000000,-1.000000,-3.000000,4.000000,2.000000
1309572.399102,2.000000,-11.000000,-14.000000,0.000000,5.000000,-7.000000,-12.000000,-5.000000
1309572.399130,-4.000000,3.000000,7.000000,0.000000,-3.000000,2.000000,2.000000,-26.000000
1309572.407253,-1.000000,7.000000,-1.000000,-5.000000,-4.000000,5.000000,8.000000,17.000000
1309572.407275,-3.000000,-8.000000,-9.000000,0.000000,1.000000,-5.000000,-4.000000,-3.000000
1309572.429759,-4.000000,1.000000,3.000000,1.000000,2.000000,-1.000000,0.000000,-4.000000
1309572.429781,-1.000000,14.000000,11.000000,-3.000000,-4.000000,3.000000,7.000000,8.000000
1309572.444760,-2.000000,-5.000000,-9.000000,5.000000,1.000000,0.000000,0.000000,1.000000
1309572.444781,0.000000,-2.000000,-4.000000,3.000000,7.000000,-6.000000,-11.000000,-6.000000
1309572.482986,-1.000000,1.000000,7.000000,1.000000,-7.000000,0.000000,3.000000,3.000000
1309572.483039,2.000000,-4.000000,2.000000,-2.000000,-2.000000,0.000000,14.000000,5.000000
1309572.504393,3.000000,-11.000000,-13.000000,1.000000,6.000000,-4.000000,-8.000000,1.000000
1309572.504408,-4.000000,1.000000,-2.000000,-5.000000,-4.000000,3.000000,0.000000,-1.000000
1309572.519122,-4.000000,2.000000,4.000000,-9.000000,-3.000000,4.000000,11.000000,4.000000
1309572.519137,4.000000,-7.000000,-4.000000,1.000000,1.000000,-7.000000,-6.000000,-6.000000
1309572.526495,1.000000,2.000000,3.000000,-4.000000,1.000000,-3.000000,-5.000000,-7.000000
1309572.526518,-2.000000,10.000000,9.000000,-2.000000,-10.000000,3.000000,9.000000,7.000000
1309572.534207,4.000000,-11.000000,-4.000000,0.000000,0.000000,-4.000000,0.000000,-3.000000
1309572.534218,-1.000000,-3.000000,-3.000000,5.000000,2.000000,-5.000000,-7.000000,-7.000000
1309572.541921,1.000000,-9.000000,-4.000000,5.000000,9.000000,-6.000000,-15.000000,-9.000000
1309572.541950,-1.000000,7.000000,4.000000,-5.000000,-5.000000,2.000000,-1.000000,3.000000
1309572.556339,0.000000,3.000000,5.000000,4.000000,-5.000000,2.000000,3.000000,2.000000
1309572.556382,-2.000000,-3.000000,-8.000000,-3.000000,-1.000000,0.000000,-1.000000,1.000000
1309572.564143,12.000000,-6.000000,-7.000000,-3.000000,3.000000,-8.000000,-9.000000,-11.000000
1309572.564156,-1.000000,2.000000,13.000000,1.000000,-4.000000,5.000000,2.000000,0.000000
1309572.565128,-7.000000,-5.000000,-3.000000,-4.000000,-7.000000,1.000000,3.000000,-41.000000
1309572.565140,5.000000,-5.000000,-3.000000,-5.000000,3.000000,-5.000000,-5.000000,-3.000000
1309572.565627,-6.000000,6.000000,5.000000,0.000000,-5.000000,-1.000000,-4.000000,1.000000
1309572.565637,-4.000000,4.000000,2.000000,-4.000000,-2.000000,5.000000,7.000000,5.000000
1309572.567608,2.000000,-8.000000,3.000000,-1.000000,-1.000000,-6.000000,-2.000000,-2.000000
1309572.567621,-2.000000,-9.000000,-4.000000,-1.000000,4.000000,-9.000000,-8.000000,-19.000000
1309572.579038,-3.000000,8.000000,5.000000,-1.000000,-2.000000,3.000000,5.000000,6.000000
1309572.579049,-2.000000,-9.000000,-10.000000,-3.000000,2.000000,-1.000000,2.000000,0.000000
1309572.580177,-1.000000,-12.000000,-10.000000,2.000000,7.000000,-5.000000,-11.000000,-8.000000
1309572.580185,-4.000000,6.000000,4.000000,2.000000,-2.000000,-1.000000,-3.000000,0.000000
1309572.602440,-4.000000,-4.000000,-2.000000,-2.000000,-5.000000,4.000000,10.000000,8.000000
1309572.602484,2.000000,-5.000000,-9.000000,0.000000,4.000000,-7.000000,-4.000000,-5.000000
1309572.632044,-5.000000,0.000000,1.000000,-4.000000,-2.000000,3.000000,-3.000000,-32.000000
1309572.632060,-1.000000,2.000000,7.000000,-8.000000,-6.000000,6.000000,6.000000,15.000000
1309572.639122,0.000000,-1.000000,-10.000000,4.000000,-1.000000,-6.000000,-3.000000,2.000000
1309572.639135,3.000000,-1.000000,0.000000,2.000000,-1.000000,-7.000000,-8.000000,4.000000
1309572.661870,1.000000,7.000000,9.000000,0.000000,-4.000000,2.000000,5.000000,5.000000
1309572.661883,0.000000,0.000000,-5.000000,2.000000,-1.000000,3.000000,3.000000,0.000000
1309572.662257,5.000000,-9.000000,-2.000000,5.000000,8.000000,-7.000000,-9.000000,-8.000000
1309572.662267,2.000000,7.000000,5.000000,-1.000000,-8.000000,3.000000,1.000000,2.000000
1309572.663191,-1.000000,2.000000,0.000000,3.000000,-8.000000,5.000000,6.000000,6.000000
1309572.663205,1.000000,-5.000000,-10.000000,-1.000000,2.000000,-7.000000,-3.000000,-6.000000
1309572.663842,-2.000000,4.000000,7.000000,-7.000000,-4.000000,0.000000,-3.000000,-4.000000
1309572.663853,-10.000000,6.000000,13.000000,0.000000,-8.000000,9.000000,11.000000,20.000000
1309572.665402,-4.000000,-8.000000,-7.000000,2.000000,2.000000,-4.000000,-5.000000,-55.000000
1309572.665412,8.000000,-5.000000,3.000000,1.000000,0.000000,-3.000000,-6.000000,-2.000000
1309572.676837,-3.000000,5.000000,9.000000,2.000000,-7.000000,1.000000,2.000000,13.000000
1309572.676855,-3.000000,-5.000000,-8.000000,2.000000,4.000000,-2.000000,2.000000,-19.000000
1309572.684061,-1.000000,-7.000000,-2.000000,7.000000,10.000000,-8.000000,-9.000000,-5.000000
1309572.684074,-1.000000,4.000000,5.000000,0.000000,-4.000000,2.000000,2.000000,8.000000
1309572.698954,-4.000000,1.000000,-10.000000,-4.000000,-4.000000,2.000000,8.000000,7.000000
1309572.699004,4.000000,-8.000000,-13.000000,-3.000000,5.000000,-4.000000,-7.000000,-6.000000
1309572.700258,9.000000,2.000000,9.000000,1.000000,-1.000000,1.000000,-1.000000,-1.000000
1309572.700269,-5.000000,4.000000,5.000000,-3.000000,-11.000000,5.000000,6.000000,9.000000
1309572.721875,-1.000000,-8.000000,-1.000000,1.000000,-2.000000,-3.000000,0.000000,-3.000000
1309572.721889,5.000000,-6.000000,0.000000,-5.000000,4.000000,-6.000000,-12.000000,-6.000000
1309572.759375,-5.000000,8.000000,3.000000,-7.000000,-5.000000,1.000000,5.000000,5.000000
1309572.759389,-1.000000,0.000000,-3.000000,2.000000,2.000000,1.000000,2.000000,1.000000
1309572.781433,-2.000000,-4.000000,-6.000000,4.000000,7.000000,-8.000000,-10.000000,-6.000000
1309572.781446,-3.000000,1.000000,5.000000,2.000000,-5.000000,0.000000,3.000000,2.000000
1309572.796796,-3.000000,2.000000,-2.000000,-3.000000,-6.000000,2.000000,5.000000,5.000000
1309572.796811,-3.000000,-13.000000,-18.000000,2.000000,3.000000,-8.000000,-9.000000,-7.000000
1309572.797307,-3.000000,5.000000,5.000000,2.000000,0.000000,-2.000000,1.000000,-1.000000
1309572.797317,-1.000000,3.000000,5.000000,-7.000000,-7.000000,6.000000,8.000000,6.000000
1309572.798203,1.000000,-7.000000,-1.000000,-3.000000,2.000000,-5.000000,-5.000000,-5.000000
1309572.798219,1.000000,2.000000,1.000000,1.000000,2.000000,-4.000000,-7.000000,-6.000000
1309572.798895,4.000000,11.000000,15.000000,-2.000000,-5.000000,6.000000,1.000000,6.000000
1309572.798911,1.000000,-10.000000,-8.000000,4.000000,1.000000,-3.000000,1.000000,11.000000
1309572.799487,-5.000000,-1.000000,1.000000,-5.000000,-3.000000,3.000000,12.000000,18.000000
1309572.799498,3.000000,-15.000000,-16.000000,3.000000,5.000000,-6.000000,-8.000000,-4.000000
1309572.803951,-3.000000,7.000000,3.000000,-3.000000,-2.000000,-1.000000,-7.000000,-48.000000
1309572.803962,-7.000000,2.000000,2.000000,-3.000000,-8.000000,8.000000,9.000000,10.000000
1309572.812374,2.000000,-2.000000,-8.000000,4.000000,2.000000,-4.000000,-6.000000,-4.000000
1309572.812385,1.000000,2.000000,1.000000,-6.000000,5.000000,-3.000000,-9.000000,-9.000000
1309572.819122,-4.000000,4.000000,7.000000,7.000000,-4.000000,4.000000,4.000000,5.000000
1309572.819135,1.000000,-3.000000,-6.000000,0.000000,3.000000,-3.000000,-1.000000,2.000000
1309572.856703,5.000000,-9.000000,5.000000,3.000000,6.000000,-9.000000,-8.000000,-9.000000
1309572.856715,2.000000,5.000000,12.000000,0.000000,-2.000000,2.000000,-2.000000,-1.000000
1309572.864511,4.000000,-1.000000,-2.000000,1.000000,-4.000000,4.000000,8.000000,3.000000
1309572.864527,2.000000,-11.000000,-17.000000,1.000000,7.000000,-7.000000,-5.000000,-7.000000
1309572.879007,-1.000000,7.000000,4.000000,2.000000,-4.000000,1.000000,-2.000000,1.000000
1309572.879022,-3.000000,9.000000,7.000000,-2.000000,-9.000000,4.000000,7.000000,-3.000000
1309572.901835,-4.000000,-6.000000,-9.000000,1.000000,2.000000,-3.000000,-1.000000,1.000000
1309572.901849,11.000000,-5.000000,2.000000,2.000000,6.000000,-7.000000,-7.000000,-4.000000
1309572.916999,-7.000000,13.000000,10.000000,-2.000000,-7.000000,3.000000,9.000000,7.000000
1309572.917015,1.000000,-6.000000,-5.000000,0.000000,-2.000000,-3.000000,-2.000000,1.000000
1309572.917696,3.000000,-5.000000,-6.000000,4.000000,9.000000,-10.000000,-9.000000,-8.000000
1309572.917741,-1.000000,6.000000,7.000000,1.000000,-6.000000,3.000000,1.000000,2.000000
1309572.919006,-6.000000,0.000000,-5.000000,-3.000000,0.000000,1.000000,3.000000,8.000000
1309572.919022,4.000000,-16.000000,-17.000000,4.000000,4.000000,-6.000000,-8.000000,-10.000000
1309572.919587,-1.000000,7.000000,10.000000,3.000000,-1.000000,2.000000,-2.000000,11.000000
1309572.919598,-9.000000,7.000000,0.000000,-2.000000,-8.000000,4.000000,8.000000,-13.000000
1309572.923987,-8.000000,8.000000,13.000000,-2.000000,-3.000000,6.000000,5.000000,7.000000
1309572.924001,6.000000,-7.000000,-4.000000,2.000000,1.000000,-2.000000,2.000000,-2.000000
1309572.939812,1.000000,-5.000000,-6.000000,2.000000,3.000000,-7.000000,-10.000000,-11.000000
1309572.939825,7.000000,2.000000,8.000000,4.000000,0.000000,-2.000000,5.000000,3.000000
1309572.940611,-4.000000,3.000000,-7.000000,2.000000,-1.000000,-1.000000,2.000000,4.000000
1309572.940623,0.000000,-5.000000,-13.000000,0.000000,8.000000,-7.000000,-12.000000,-12.000000
1309572.976663,-1.000000,6.000000,4.000000,1.000000,-1.000000,1.000000,0.000000,-1.000000
1309572.976699,-5.000000,-2.000000,4.000000,-3.000000,-6.000000,9.000000,6.000000,6.000000
1309572.984379,2.000000,-7.000000,-10.000000,-5.000000,5.000000,-3.000000,-5.000000,-4.000000
1309572.984394,0.000000,5.000000,8.000000,-4.000000,-2.000000,-3.000000,-1.000000,-4.000000
1309572.999379,-1.000000,9.000000,10.000000,1.000000,-11.000000,3.000000,6.000000,12.000000
1309572.999394,-5.000000,-1.000000,-8.000000,4.000000,0.000000,-5.000000,1.000000,0.000000
1309573.021461,-3.000000,-8.000000,-7.000000,1.000000,7.000000,-5.000000,-11.000000,-43.000000
1309573.021475,2.000000,1.000000,2.000000,-6.000000,-6.000000,2.000000,3.000000,15.000000
1309573.022881,-2.000000,3.000000,-7.000000,2.000000,0.000000,0.000000,3.000000,-13.000000
1309573.022907,1.000000,-12.000000,-10.000000,4.000000,13.000000,-5.000000,-9.000000,-4.000000
1309573.023475,-5.000000,6.000000,0.000000,-6.000000,-1.000000,4.000000,-1.000000,1.000000
1309573.023498,-5.000000,5.000000,1.000000,1.000000,-4.000000,3.000000,7.000000,8.000000
1309573.024568,-4.000000,-6.000000,-7.000000,3.000000,3.000000,0.000000,-5.000000,-7.000000
1309573.024580,2.000000,-5.000000,3.000000,-4.000000,-2.000000,-3.000000,0.000000,-11.000000
1309573.025382,1.000000,11.000000,16.000000,0.000000,-8.000000,9.000000,4.000000,18.000000
1309573.025393,-4.000000,-1.000000,-3.000000,6.000000,2.000000,-2.000000,-1.000000,-4.000000
1309573.037252,-2.000000,-10.000000,-10.000000,-1.000000,8.000000,-8.000000,-11.000000,-9.000000
1309573.037264,-2.000000,12.000000,-3.000000,4.000000,-2.000000,4.000000,3.000000,4.000000
1309573.058989,-4.000000,-4.000000,-1.000000,1.000000,-2.000000,1.000000,6.000000,2.000000
1309573.059002,3.000000,-10.000000,-19.000000,6.000000,6.000000,-7.000000,-11.000000,-12.000000
1309573.060049,-1.000000,2.000000,4.000000,-12.000000,-2.000000,-1.000000,-2.000000,-2.000000
1309573.060061,-7.000000,1.000000,4.000000,-2.000000,-10.000000,7.000000,7.000000,6.000000
1309573.060994,-1.000000,-6.000000,-3.000000,0.000000,2.000000,-7.000000,-8.000000,-5.000000
1309573.061005,1.000000,6.000000,8.000000,2.000000,3.000000,-3.000000,-4.000000,0.000000
1309573.081723,-6.000000,5.000000,12.000000,-5.000000,-8.000000,5.000000,10.000000,7.000000
1309573.081736,2.000000,-7.000000,-8.000000,2.000000,0.000000,-2.000000,0.000000,2.000000
1309573.089403,14.000000,-5.000000,-2.000000,4.000000,2.000000,-10.000000,-9.000000,-6.000000
1309573.089418,-1.000000,9.000000,8.000000,-3.000000,-4.000000,0.000000,2.000000,2.000000
1309573.104127,-3.000000,-7.000000,-14.000000,-3.000000,-1.000000,-3.000000,2.000000,21.000000
1309573.104148,1.000000,-13.000000,-12.000000,-2.000000,7.000000,-5.000000,-10.000000,-7.000000
1309573.119066,-3.000000,1.000000,6.000000,-2.000000,-5.000000,3.000000,-1.000000,2.000000
1309573.119079,0.000000,6.000000,10.000000,-3.000000,-10.000000,1.000000,8.000000,25.000000
1309573.134730,-7.000000,-10.000000,-10.000000,-6.000000,6.000000,-7.000000,-3.000000,-9.000000
1309573.134742,0.000000,8.000000,3.000000,4.000000,0.000000,-1.000000,-1.000000,3.000000
1309573.135203,-4.000000,10.000000,11.000000,-2.000000,-6.000000,10.000000,10.000000,14.000000
1309573.135214,2.000000,-6.000000,-5.000000,-2.000000,0.000000,-3.000000,-3.000000,-2.000000
1309573.137016,0.000000,-2.000000,-2.000000,1.000000,13.000000,-6.000000,-10.000000,-7.000000
1309573.137031,-5.000000,1.000000,2.000000,-2.000000,-7.000000,1.000000,-1.000000,0.000000
1309573.141747,-2.000000,-7.000000,-3.000000,1.000000,-5.000000,-3.000000,4.000000,2.000000
1309573.141761,1.000000,-13.000000,-4.000000,3.000000,4.000000,-8.000000,-12.000000,-10.000000
1309573.157193,-6.000000,0.000000,-6.000000,-8.000000,-2.000000,-3.000000,-19.000000,-10.000000
1309573.157207,-2.000000,-1.000000,5.000000,-2.000000,-3.000000,8.000000,9.000000,3.000000
1309573.179316,0.000000,-6.000000,-7.000000,-2.000000,2.000000,-5.000000,-4.000000,-6.000000
1309573.179333,-2.000000,-1.000000,5.000000,-1.000000,5.000000,-1.000000,-6.000000,-30.000000
1309573.180370,-8.000000,7.000000,4.000000,-5.000000,-5.000000,6.000000,7.000000,3.000000
1309573.180380,0.000000,-1.000000,1.000000,6.000000,4.000000,-3.000000,-1.000000,6.000000
1309573.194135,-1.000000,-9.000000,-5.000000,5.000000,2.000000,-8.000000,-8.000000,-6.000000
1309573.194148,-3.000000,9.000000,3.000000,-5.000000,-3.000000,1.000000,1.000000,2.000000
1309573.216625,-2.000000,-7.000000,-7.000000,2.000000,-6.000000,-3.000000,1.000000,2.000000
1309573.216638,-1.000000,-6.000000,-4.000000,1.000000,5.000000,-8.000000,-9.000000,-10.000000
1309573.231751,1.000000,1.000000,7.000000,1.000000,-4.000000,2.000000,1.000000,2.000000
1309573.231766,-5.000000,3.000000,3.000000,-4.000000,-4.000000,-1.000000,2.000000,4.000000
1309573.239618,0.000000,-5.000000,-7.000000,3.000000,5.000000,-2.000000,-5.000000,-3.000000
1309573.239631,-2.000000,12.000000,5.000000,-4.000000,-3.000000,4.000000,1.000000,-1.000000
1309573.240370,-2.000000,8.000000,-1.000000,2.000000,-11.000000,5.000000,6.000000,3.000000
1309573.240388,3.000000,-5.000000,-3.000000,-3.000000,1.000000,-1.000000,-2.000000,-1.000000
1309573.241738,2.000000,-8.000000,1.000000,-3.000000,7.000000,-7.000000,-11.000000,-9.000000
1309573.241750,-7.000000,6.000000,1.000000,-5.000000,-10.000000,2.000000,6.000000,6.000000
1309573.254302,3.000000,-4.000000,-7.000000,-1.000000,-1.000000,1.000000,3.000000,-4.000000
1309573.254327,-1.000000,-4.000000,-4.000000,-1.000000,8.000000,-4.000000,-7.000000,-7.000000
1309573.255415,1.000000,6.000000,6.000000,-8.000000,-3.000000,2.000000,2.000000,2.000000
1309573.255427,4.000000,3.000000,2.000000,-5.000000,-6.000000,4.000000,5.000000,4.000000
1309573.261600,0.000000,-6.000000,-11.000000,-1.000000,-1.000000,-5.000000,-6.000000,-7.000000
1309573.261613,-1.000000,2.000000,7.000000,-1.000000,-1.000000,-1.000000,-4.000000,-2.000000
1309573.277359,-5.000000,1.000000,-1.000000,-8.000000,-7.000000,8.000000,8.000000,-6.000000
1309573.277371,2.000000,0.000000,-3.000000,-3.000000,2.000000,-2.000000,-14.000000,-6.000000
1309573.299105,2.000000,-3.000000,2.000000,4.000000,0.000000,-7.000000,-10.000000,-6.000000
1309573.299120,-8.000000,0.000000,10.000000,-3.000000,-3.000000,5.000000,5.000000,10.000000
1309573.300347,-2.000000,-7.000000,-9.000000,1.000000,2.000000,0.000000,0.000000,0.000000
1309573.300359,2.000000,-12.000000,-7.000000,2.000000,11.000000,-7.000000,-8.000000,-7.000000
1309573.306461,-5.000000,2.000000,4.000000,0.000000,-3.000000,2.000000,0.000000,-2.000000
1309573.306474,-3.000000,2.000000,1.000000,-6.000000,-6.000000,3.000000,5.000000,8.000000
1309573.336757,3.000000,-12.000000,-10.000000,4.000000,4.000000,-5.000000,-6.000000,-7.000000
1309573.336770,0.000000,3.000000,10.000000,0.000000,-2.000000,3.000000,-3.000000,-3.000000
1309573.351668,0.000000,8.000000,7.000000,-6.000000,-9.000000,6.000000,8.000000,5.000000
1309573.351682,-2.000000,-5.000000,-6.000000,1.000000,2.000000,-4.000000,-3.000000,-3.000000
