# participant_id: P9
# gesture: baseline
# trial_number: 1
# stream_name: Myo_EMG
# stream_type: emg
# timestamp: 20260420_155055
# samples: 5592
# duration_sec: 30.448
# nominal_sample_rate: 200.0
# effective_sample_rate: 183.63
#
timestamp,emg_1,emg_2,emg_3,emg_4,emg_5,emg_6,emg_7,emg_8
1304947.684108,-8.000000,7.000000,2.000000,-4.000000,-1.000000,1.000000,-2.000000,1.000000
1304947.685112,8.000000,5.000000,-4.000000,2.000000,2.000000,0.000000,-1.000000,-2.000000
1304947.685128,0.000000,3.000000,-5.000000,5.000000,1.000000,-4.000000,-1.000000,-4.000000
1304947.696650,-14.000000,-4.000000,-2.000000,-2.000000,0.000000,0.000000,1.000000,3.000000
1304947.696664,-13.000000,12.000000,1.000000,2.000000,1.000000,1.000000,0.000000,-4.000000
1304947.697229,-16.000000,-13.000000,-9.000000,-1.000000,0.000000,1.000000,-1.000000,-3.000000
1304947.697237,-6.000000,6.000000,1.000000,1.000000,0.000000,-2.000000,-3.000000,-3.000000
1304947.719109,-2.000000,4.000000,0.000000,-6.000000,-4.000000,-3.000000,0.000000,-2.000000
1304947.719119,4.000000,-6.000000,4.000000,0.000000,1.000000,0.000000,1.000000,0.000000
1304947.719659,12.000000,-2.000000,-1.000000,1.000000,-1.000000,-5.000000,-1.000000,0.000000
1304947.719667,10.000000,-6.000000,-6.000000,-2.000000,-1.000000,-1.000000,-3.000000,-1.000000
1304947.726830,6.000000,21.000000,16.000000,4.000000,0.000000,-3.000000,0.000000,-1.000000
1304947.726840,6.000000,-4.000000,-8.000000,-3.000000,-3.000000,-1.000000,0.000000,0.000000
1304947.741841,3.000000,16.000000,10.000000,-1.000000,0.000000,-1.000000,1.000000,5.000000
1304947.741870,-6.000000,12.000000,6.000000,-2.000000,-1.000000,-2.000000,-4.000000,-5.000000
1304947.779771,-1.000000,-5.000000,-3.000000,-5.000000,4.000000,1.000000,-2.000000,-4.000000
1304947.779783,-2.000000,-3.000000,-1.000000,-1.000000,-3.000000,-1.000000,-4.000000,-2.000000
1304947.780262,-5.000000,-17.000000,-9.000000,3.000000,5.000000,-3.000000,-1.000000,1.000000
1304947.780270,-1.000000,17.000000,12.000000,-13.000000,-9.000000,5.000000,2.000000,1.000000
1304947.781854,14.000000,15.000000,20.000000,-8.000000,-5.000000,1.000000,1.000000,5.000000
1304947.781864,10.000000,-15.000000,0.000000,14.000000,4.000000,-2.000000,2.000000,1.000000
1304947.801561,6.000000,0.000000,-2.000000,-7.000000,-7.000000,1.000000,0.000000,0.000000
1304947.801592,4.000000,-6.000000,-11.000000,1.000000,0.000000,-1.000000,-3.000000,-3.000000
1304947.802753,5.000000,-4.000000,1.000000,9.000000,3.000000,-1.000000,0.000000,1.000000
1304947.802765,1.000000,0.000000,5.000000,-3.000000,-3.000000,1.000000,-1.000000,-1.000000
1304947.803281,-11.000000,-7.000000,-9.000000,-2.000000,1.000000,0.000000,-4.000000,-2.000000
1304947.803289,-11.000000,26.000000,22.000000,7.000000,-3.000000,2.000000,-4.000000,-1.000000
1304947.816864,-23.000000,-19.000000,-8.000000,-6.000000,-5.000000,-2.000000,0.000000,-1.000000
1304947.816881,-7.000000,10.000000,-1.000000,-2.000000,2.000000,0.000000,-2.000000,0.000000
1304947.817486,-14.000000,-93.000000,-12.000000,0.000000,-1.000000,-2.000000,2.000000,-5.000000
1304947.817496,-4.000000,12.000000,5.000000,-7.000000,-7.000000,1.000000,1.000000,1.000000
1304947.839019,1.000000,-4.000000,-1.000000,0.000000,6.000000,-6.000000,-3.000000,-1.000000
1304947.839034,4.000000,-5.000000,-3.000000,1.000000,1.000000,1.000000,2.000000,-2.000000
1304947.839559,2.000000,-7.000000,-7.000000,0.000000,-3.000000,3.000000,1.000000,-1.000000
1304947.839568,5.000000,-2.000000,3.000000,1.000000,-1.000000,0.000000,-1.000000,-2.000000
1304947.846538,3.000000,15.000000,7.000000,0.000000,0.000000,0.000000,1.000000,-4.000000
1304947.846548,4.000000,3.000000,-7.000000,-8.000000,-11.000000,-4.000000,-1.000000,-4.000000
1304947.861882,11.000000,-40.000000,-11.000000,-1.000000,0.000000,1.000000,2.000000,0.000000
1304947.861893,3.000000,30.000000,2.000000,-3.000000,-5.000000,-2.000000,-3.000000,-4.000000
1304947.884109,1.000000,-1.000000,-1.000000,2.000000,3.000000,1.000000,0.000000,-1.000000
1304947.884138,2.000000,-4.000000,-1.000000,5.000000,-1.000000,-3.000000,-1.000000,-4.000000
1304947.899063,4.000000,-1.000000,1.000000,-11.000000,-5.000000,-5.000000,-1.000000,-1.000000
1304947.899073,0.000000,-2.000000,7.000000,-2.000000,0.000000,-3.000000,-1.000000,0.000000
1304947.900160,-1.000000,-9.000000,-8.000000,1.000000,-2.000000,-2.000000,-3.000000,-1.000000
1304947.900168,-11.000000,15.000000,9.000000,5.000000,1.000000,3.000000,0.000000,-4.000000
1304947.901095,0.000000,-1.000000,1.000000,0.000000,5.000000,0.000000,2.000000,5.000000
1304947.901108,3.000000,-7.000000,-10.000000,-4.000000,-3.000000,-4.000000,-3.000000,0.000000
1304947.914400,-5.000000,2.000000,-2.000000,1.000000,4.000000,0.000000,3.000000,0.000000
1304947.914410,-7.000000,-10.000000,-3.000000,10.000000,2.000000,-3.000000,-4.000000,-6.000000
1304947.922100,0.000000,2.000000,-3.000000,-9.000000,-6.000000,1.000000,2.000000,-2.000000
1304947.922113,4.000000,0.000000,-3.000000,-8.000000,-12.000000,1.000000,-2.000000,1.000000
1304947.928963,10.000000,2.000000,-5.000000,-1.000000,4.000000,-2.000000,-1.000000,-3.000000
1304947.928983,3.000000,3.000000,-1.000000,-1.000000,2.000000,-4.000000,-3.000000,0.000000
1304947.936759,-6.000000,-4.000000,1.000000,0.000000,-1.000000,-1.000000,1.000000,-2.000000
1304947.936777,-5.000000,-11.000000,-3.000000,-3.000000,-2.000000,-3.000000,-2.000000,2.000000
1304947.974263,-5.000000,-4.000000,7.000000,-3.000000,1.000000,0.000000,-3.000000,-2.000000
1304947.974273,-10.000000,-25.000000,-12.000000,-3.000000,-2.000000,-3.000000,0.000000,-1.000000
1304947.981790,-9.000000,-16.000000,-8.000000,-11.000000,-4.000000,1.000000,-3.000000,-1.000000
1304947.981799,-7.000000,16.000000,2.000000,-6.000000,-4.000000,1.000000,-1.000000,1.000000
1304948.019346,-7.000000,-10.000000,-3.000000,1.000000,-1.000000,-1.000000,-1.000000,-1.000000
1304948.019364,-2.000000,0.000000,-6.000000,-1.000000,1.000000,-1.000000,-1.000000,-1.000000
1304948.026666,-7.000000,-3.000000,-1.000000,-5.000000,0.000000,-3.000000,1.000000,-1.000000
1304948.026677,-9.000000,-13.000000,-8.000000,0.000000,-2.000000,-2.000000,0.000000,-5.000000
1304948.041852,-8.000000,-27.000000,-4.000000,-7.000000,-6.000000,0.000000,0.000000,-6.000000
1304948.041863,23.000000,10.000000,1.000000,0.000000,-3.000000,-5.000000,-2.000000,-1.000000
1304948.056481,0.000000,-7.000000,-6.000000,0.000000,-1.000000,-1.000000,-1.000000,0.000000
1304948.056497,11.000000,-4.000000,-4.000000,2.000000,4.000000,1.000000,-1.000000,-4.000000
1304948.057853,-3.000000,5.000000,-3.000000,-5.000000,2.000000,0.000000,-1.000000,2.000000
1304948.057927,9.000000,0.000000,-4.000000,2.000000,2.000000,-2.000000,-1.000000,-1.000000
1304948.058583,1.000000,0.000000,0.000000,-1.000000,-2.000000,-2.000000,-2.000000,1.000000
1304948.058591,-9.000000,0.000000,4.000000,7.000000,2.000000,-4.000000,0.000000,-3.000000
1304948.059792,-6.000000,11.000000,3.000000,-4.000000,-4.000000,0.000000,1.000000,1.000000
1304948.059799,-13.000000,-13.000000,-5.000000,-4.000000,-1.000000,-3.000000,-1.000000,-3.000000
1304948.060454,-5.000000,7.000000,3.000000,2.000000,2.000000,-4.000000,-2.000000,1.000000
1304948.060476,-9.000000,-90.000000,-14.000000,-1.000000,-5.000000,-4.000000,0.000000,0.000000
1304948.094397,4.000000,0.000000,-5.000000,3.000000,5.000000,3.000000,0.000000,-1.000000
1304948.094409,2.000000,-4.000000,3.000000,-3.000000,-2.000000,1.000000,-1.000000,2.000000
1304948.101897,-1.000000,-4.000000,-7.000000,-5.000000,-3.000000,-3.000000,-3.000000,1.000000
1304948.101908,-4.000000,-4.000000,3.000000,-9.000000,-3.000000,0.000000,-3.000000,1.000000
1304948.124106,2.000000,6.000000,1.000000,-2.000000,-1.000000,-3.000000,-1.000000,-1.000000
1304948.124135,3.000000,-8.000000,-1.000000,2.000000,-2.000000,-3.000000,0.000000,2.000000
1304948.139502,-2.000000,-14.000000,-2.000000,1.000000,3.000000,-3.000000,1.000000,-1.000000
1304948.139516,8.000000,5.000000,1.000000,-1.000000,-8.000000,4.000000,-1.000000,-1.000000
1304948.154744,-10.000000,-23.000000,-5.000000,1.000000,-4.000000,0.000000,0.000000,4.000000
1304948.154763,0.000000,10.000000,-5.000000,1.000000,2.000000,-1.000000,-1.000000,4.000000
1304948.155159,-6.000000,10.000000,4.000000,3.000000,-1.000000,0.000000,-3.000000,-1.000000
1304948.155173,-1.000000,-13.000000,-5.000000,-1.000000,-4.000000,-3.000000,-1.000000,0.000000
1304948.156466,3.000000,-4.000000,-1.000000,-1.000000,-1.000000,-2.000000,0.000000,1.000000
1304948.156476,-2.000000,24.000000,6.000000,1.000000,-3.000000,1.000000,2.000000,-3.000000
1304948.157446,2.000000,-1.000000,-3.000000,1.000000,-1.000000,-2.000000,-5.000000,-2.000000
1304948.157465,-3.000000,0.000000,-5.000000,1.000000,0.000000,-3.000000,-1.000000,-2.000000
1304948.161508,-1.000000,0.000000,1.000000,-3.000000,3.000000,4.000000,0.000000,-2.000000
1304948.161546,-1.000000,-5.000000,-2.000000,5.000000,1.000000,-6.000000,1.000000,-1.000000
1304948.191967,-1.000000,4.000000,3.000000,-3.000000,-2.000000,-2.000000,-2.000000,1.000000
1304948.191980,-1.000000,8.000000,3.000000,-16.000000,-6.000000,2.000000,2.000000,0.000000
1304948.199262,-4.000000,-10.000000,-1.000000,2.000000,2.000000,0.000000,0.000000,0.000000
1304948.199274,5.000000,-2.000000,0.000000,2.000000,3.000000,-5.000000,0.000000,0.000000
1304948.214117,-2.000000,-2.000000,-3.000000,-1.000000,1.000000,-1.000000,-3.000000,-4.000000
1304948.214127,-7.000000,1.000000,-2.000000,-4.000000,0.000000,2.000000,1.000000,3.000000
1304948.229506,-26.000000,0.000000,3.000000,5.000000,4.000000,-1.000000,-5.000000,-3.000000
1304948.229519,-17.000000,-5.000000,0.000000,-12.000000,-8.000000,1.000000,1.000000,0.000000
1304948.251914,-11.000000,5.000000,8.000000,2.000000,-1.000000,2.000000,-1.000000,-1.000000
1304948.251933,-2.000000,-36.000000,-9.000000,1.000000,-3.000000,-1.000000,0.000000,0.000000
1304948.259346,15.000000,33.000000,10.000000,3.000000,0.000000,2.000000,1.000000,-1.000000
1304948.259362,1.000000,-51.000000,-12.000000,0.000000,1.000000,2.000000,-1.000000,-4.000000
1304948.274631,18.000000,17.000000,7.000000,-2.000000,-1.000000,-4.000000,3.000000,-2.000000
1304948.274641,8.000000,42.000000,31.000000,8.000000,4.000000,1.000000,1.000000,0.000000
1304948.275241,5.000000,-15.000000,-5.000000,-6.000000,1.000000,-1.000000,2.000000,4.000000
1304948.275251,6.000000,-8.000000,-2.000000,0.000000,2.000000,2.000000,0.000000,0.000000
1304948.276637,-3.000000,-7.000000,-8.000000,1.000000,-7.000000,-4.000000,-4.000000,-1.000000
1304948.276647,-3.000000,9.000000,1.000000,0.000000,-4.000000,-1.000000,2.000000,0.000000
1304948.277388,1.000000,6.000000,1.000000,1.000000,1.000000,5.000000,5.000000,5.000000
1304948.277398,-7.000000,-7.000000,-5.000000,3.000000,-2.000000,-2.000000,0.000000,-1.000000
1304948.296859,0.000000,0.000000,-1.000000,-7.000000,-3.000000,0.000000,-2.000000,3.000000
1304948.296871,-5.000000,-10.000000,-7.000000,7.000000,1.000000,-4.000000,-3.000000,-3.000000
1304948.297894,5.000000,15.000000,0.000000,-16.000000,-3.000000,-3.000000,3.000000,0.000000
1304948.297929,0.000000,-2.000000,3.000000,-1.000000,2.000000,1.000000,0.000000,1.000000
1304948.298653,0.000000,-5.000000,-3.000000,0.000000,-4.000000,-2.000000,-2.000000,-3.000000
1304948.298662,0.000000,0.000000,0.000000,0.000000,0.000000,-1.000000,-4.000000,-2.000000
1304948.311470,4.000000,-2.000000,-7.000000,-5.000000,2.000000,-1.000000,-1.000000,-1.000000
1304948.311480,2.000000,-3.000000,0.000000,0.000000,0.000000,-2.000000,2.000000,-1.000000
1304948.319338,4.000000,2.000000,-3.000000,-4.000000,-2.000000,0.000000,-1.000000,0.000000
1304948.319349,-5.000000,-7.000000,0.000000,6.000000,5.000000,-1.000000,0.000000,-1.000000
1304948.371877,2.000000,-22.000000,-7.000000,1.000000,-3.000000,-1.000000,-3.000000,2.000000
1304948.371889,-4.000000,9.000000,-1.000000,-1.000000,-1.000000,-1.000000,-4.000000,-4.000000
1304948.372445,-4.000000,-4.000000,-4.000000,1.000000,0.000000,-1.000000,2.000000,-3.000000
1304948.372460,-6.000000,55.000000,9.000000,0.000000,-3.000000,-1.000000,-2.000000,-3.000000
1304948.373278,11.000000,-1.000000,-6.000000,6.000000,-1.000000,-3.000000,-1.000000,-1.000000
1304948.373286,5.000000,-7.000000,-3.000000,-7.000000,-2.000000,4.000000,2.000000,1.000000
1304948.373922,-3.000000,-8.000000,-10.000000,-4.000000,-2.000000,-4.000000,-1.000000,-5.000000
1304948.373930,5.000000,-16.000000,-3.000000,4.000000,1.000000,-1.000000,-1.000000,1.000000
1304948.375883,3.000000,-7.000000,0.000000,-7.000000,-4.000000,-1.000000,1.000000,-3.000000
1304948.375894,-2.000000,-12.000000,-9.000000,-6.000000,-3.000000,-1.000000,-1.000000,-3.000000
1304948.379324,-3.000000,-1.000000,0.000000,0.000000,3.000000,2.000000,3.000000,-3.000000
1304948.379341,-5.000000,0.000000,-2.000000,4.000000,1.000000,-1.000000,-5.000000,-1.000000
1304948.394169,1.000000,-3.000000,-2.000000,-4.000000,0.000000,-2.000000,-3.000000,-1.000000
1304948.394180,-7.000000,-2.000000,5.000000,-2.000000,2.000000,0.000000,-1.000000,-6.000000
1304948.401434,-4.000000,-9.000000,-1.000000,2.000000,-2.000000,-1.000000,-2.000000,-2.000000
1304948.401443,-6.000000,3.000000,-2.000000,0.000000,6.000000,0.000000,-3.000000,-3.000000
1304948.416660,-7.000000,-2.000000,-3.000000,-2.000000,-9.000000,-5.000000,-3.000000,-1.000000
1304948.416672,-5.000000,2.000000,1.000000,2.000000,3.000000,2.000000,2.000000,-1.000000
1304948.417507,-4.000000,-4.000000,-2.000000,-2.000000,2.000000,3.000000,-1.000000,-2.000000
1304948.417521,3.000000,1.000000,1.000000,0.000000,-1.000000,1.000000,1.000000,-1.000000
1304948.431827,2.000000,0.000000,-1.000000,1.000000,3.000000,2.000000,0.000000,0.000000
1304948.431840,3.000000,1.000000,2.000000,9.000000,0.000000,-4.000000,-5.000000,-3.000000
1304948.439113,-2.000000,-8.000000,0.000000,5.000000,2.000000,-2.000000,0.000000,-2.000000
1304948.439123,7.000000,12.000000,2.000000,2.000000,3.000000,0.000000,0.000000,5.000000
1304948.469788,7.000000,4.000000,1.000000,-1.000000,-3.000000,-4.000000,-2.000000,0.000000
1304948.469810,6.000000,12.000000,4.000000,8.000000,3.000000,0.000000,0.000000,0.000000
1304948.477336,-7.000000,-15.000000,-5.000000,-13.000000,-10.000000,2.000000,-1.000000,-2.000000
1304948.477359,2.000000,-1.000000,1.000000,-1.000000,1.000000,0.000000,-2.000000,0.000000
1304948.492424,2.000000,19.000000,10.000000,-3.000000,-7.000000,-3.000000,3.000000,-1.000000
1304948.492446,-6.000000,-2.000000,-7.000000,-1.000000,-4.000000,-3.000000,-1.000000,1.000000
1304948.514999,1.000000,2.000000,-3.000000,2.000000,2.000000,0.000000,1.000000,-1.000000
1304948.515022,-7.000000,-3.000000,-3.000000,-3.000000,-3.000000,-1.000000,0.000000,2.000000
1304948.530029,-6.000000,-13.000000,1.000000,3.000000,-4.000000,1.000000,0.000000,0.000000
1304948.530051,-2.000000,8.000000,-1.000000,0.000000,0.000000,3.000000,-3.000000,0.000000
1304948.530382,0.000000,-1.000000,1.000000,2.000000,0.000000,0.000000,-3.000000,0.000000
1304948.530413,-6.000000,-100.000000,-6.000000,2.000000,-5.000000,-6.000000,2.000000,-2.000000
1304948.531603,7.000000,7.000000,2.000000,4.000000,0.000000,1.000000,-3.000000,-1.000000
1304948.531615,0.000000,-5.000000,-4.000000,1.000000,5.000000,0.000000,1.000000,0.000000
1304948.532283,0.000000,-16.000000,-1.000000,-6.000000,-1.000000,2.000000,0.000000,-2.000000
1304948.532296,2.000000,-3.000000,0.000000,-4.000000,-3.000000,-2.000000,-4.000000,-2.000000
1304948.533326,-4.000000,-7.000000,-3.000000,0.000000,3.000000,-4.000000,-4.000000,-2.000000
1304948.533337,-1.000000,-2.000000,-2.000000,-4.000000,0.000000,-1.000000,0.000000,-2.000000
1304948.551960,-2.000000,-1.000000,-1.000000,2.000000,-4.000000,-1.000000,0.000000,0.000000
1304948.551987,-1.000000,-1.000000,2.000000,1.000000,4.000000,-2.000000,-4.000000,1.000000
1304948.589207,-4.000000,2.000000,0.000000,-1.000000,1.000000,1.000000,0.000000,-1.000000
1304948.589218,-6.000000,4.000000,4.000000,4.000000,-4.000000,-2.000000,-3.000000,0.000000
1304948.596936,1.000000,11.000000,4.000000,4.000000,-5.000000,1.000000,1.000000,-3.000000
1304948.596949,2.000000,28.000000,6.000000,-6.000000,-1.000000,0.000000,-3.000000,-3.000000
1304948.612340,-3.000000,-9.000000,-10.000000,3.000000,2.000000,-3.000000,1.000000,1.000000
1304948.612352,-8.000000,-23.000000,-6.000000,0.000000,2.000000,-3.000000,-1.000000,-2.000000
1304948.612854,-1.000000,-5.000000,-5.000000,1.000000,5.000000,-1.000000,-7.000000,-1.000000
1304948.612864,-4.000000,-15.000000,-3.000000,-7.000000,0.000000,0.000000,2.000000,-1.000000
1304948.614030,-1.000000,-4.000000,0.000000,1.000000,-4.000000,2.000000,0.000000,-1.000000
1304948.614040,-3.000000,-1.000000,1.000000,-2.000000,0.000000,0.000000,-1.000000,1.000000
1304948.614960,2.000000,-2.000000,0.000000,3.000000,2.000000,-3.000000,-1.000000,-1.000000
1304948.614970,3.000000,1.000000,-3.000000,-3.000000,-3.000000,2.000000,-1.000000,1.000000
1304948.634337,-3.000000,-10.000000,-2.000000,4.000000,5.000000,0.000000,1.000000,-1.000000
1304948.634436,1.000000,-7.000000,-8.000000,-5.000000,-8.000000,-1.000000,-2.000000,0.000000
1304948.634633,10.000000,0.000000,0.000000,2.000000,0.000000,0.000000,2.000000,-1.000000
1304948.634659,6.000000,3.000000,-3.000000,-2.000000,3.000000,-2.000000,-4.000000,-4.000000
1304948.636041,-3.000000,-4.000000,-11.000000,3.000000,3.000000,0.000000,-5.000000,-1.000000
1304948.636096,1.000000,-3.000000,-3.000000,3.000000,1.000000,-2.000000,-5.000000,-2.000000
1304948.649328,-5.000000,9.000000,3.000000,1.000000,1.000000,-3.000000,0.000000,-3.000000
1304948.649341,-10.000000,-7.000000,-11.000000,-11.000000,-6.000000,2.000000,2.000000,2.000000
1304948.650492,0.000000,0.000000,1.000000,-1.000000,-2.000000,-2.000000,-4.000000,-1.000000
1304948.650503,-2.000000,0.000000,-3.000000,0.000000,-4.000000,-2.000000,0.000000,3.000000
1304948.672282,3.000000,0.000000,-1.000000,-1.000000,2.000000,-1.000000,-3.000000,1.000000
1304948.672327,-1.000000,-14.000000,0.000000,2.000000,3.000000,-4.000000,-3.000000,-3.000000
1304948.686645,3.000000,-101.000000,0.000000,-8.000000,-6.000000,-1.000000,5.000000,3.000000
1304948.686655,6.000000,37.000000,-1.000000,0.000000,4.000000,-1.000000,2.000000,-3.000000
1304948.709239,-2.000000,-29.000000,-8.000000,7.000000,3.000000,-1.000000,0.000000,1.000000
1304948.709249,2.000000,4.000000,-5.000000,-6.000000,-2.000000,0.000000,-3.000000,-5.000000
1304948.716783,-2.000000,-18.000000,-2.000000,3.000000,5.000000,-5.000000,-1.000000,-2.000000
1304948.716793,5.000000,5.000000,2.000000,-9.000000,-5.000000,3.000000,2.000000,1.000000
1304948.732050,-11.000000,-9.000000,-3.000000,4.000000,0.000000,0.000000,1.000000,-1.000000
1304948.732059,-8.000000,7.000000,1.000000,-9.000000,-10.000000,3.000000,-3.000000,0.000000
1304948.732761,-4.000000,-15.000000,-8.000000,-5.000000,1.000000,-3.000000,-2.000000,1.000000
1304948.732776,-5.000000,-1.000000,3.000000,-3.000000,-2.000000,2.000000,0.000000,0.000000
1304948.733976,-4.000000,-2.000000,0.000000,2.000000,1.000000,2.000000,-5.000000,0.000000
1304948.734003,-3.000000,1.000000,-1.000000,-3.000000,1.000000,-3.000000,1.000000,0.000000
1304948.734870,-1.000000,0.000000,-2.000000,-8.000000,-10.000000,-1.000000,4.000000,2.000000
1304948.734881,0.000000,12.000000,-3.000000,1.000000,4.000000,-3.000000,-1.000000,0.000000
1304948.746731,-5.000000,-18.000000,-4.000000,0.000000,-5.000000,-7.000000,-2.000000,-4.000000
1304948.746740,5.000000,9.000000,-1.000000,0.000000,1.000000,-2.000000,1.000000,1.000000
1304948.754459,-2.000000,-1.000000,-4.000000,-3.000000,-7.000000,1.000000,0.000000,1.000000
1304948.754468,0.000000,-5.000000,-3.000000,2.000000,-2.000000,-1.000000,-1.000000,2.000000
1304948.762340,2.000000,1.000000,6.000000,3.000000,3.000000,0.000000,-1.000000,2.000000
1304948.762348,1.000000,-8.000000,-5.000000,1.000000,3.000000,-6.000000,-1.000000,2.000000
1304948.769208,2.000000,-10.000000,-6.000000,-10.000000,-5.000000,2.000000,-1.000000,-1.000000
1304948.769222,3.000000,-4.000000,-7.000000,-2.000000,4.000000,-1.000000,-1.000000,0.000000
1304948.806614,6.000000,1.000000,12.000000,1.000000,-3.000000,0.000000,1.000000,4.000000
1304948.806624,-4.000000,43.000000,26.000000,3.000000,-2.000000,0.000000,-1.000000,-2.000000
1304948.814160,4.000000,-11.000000,-11.000000,-1.000000,-1.000000,2.000000,-6.000000,-3.000000
1304948.814187,7.000000,8.000000,2.000000,3.000000,6.000000,-1.000000,-3.000000,-1.000000
1304948.836787,2.000000,-77.000000,5.000000,6.000000,3.000000,0.000000,0.000000,-2.000000
1304948.836799,-3.000000,91.000000,3.000000,-1.000000,-8.000000,-2.000000,1.000000,-1.000000
1304948.851896,-1.000000,-10.000000,0.000000,-1.000000,-2.000000,-2.000000,1.000000,-2.000000
1304948.851909,1.000000,1.000000,0.000000,-2.000000,-4.000000,2.000000,-1.000000,1.000000
1304948.904257,-3.000000,-1.000000,0.000000,5.000000,0.000000,-4.000000,-1.000000,-3.000000
1304948.904267,-4.000000,-3.000000,-3.000000,-1.000000,6.000000,-3.000000,-1.000000,-4.000000
1304948.912255,-1.000000,2.000000,-6.000000,-3.000000,-6.000000,0.000000,4.000000,0.000000
1304948.912277,3.000000,3.000000,1.000000,11.000000,7.000000,-1.000000,0.000000,-2.000000
1304948.934298,-6.000000,-11.000000,-12.000000,-7.000000,-6.000000,0.000000,0.000000,-1.000000
1304948.934308,-3.000000,-19.000000,-3.000000,-7.000000,-6.000000,1.000000,1.000000,1.000000
1304948.941713,6.000000,14.000000,6.000000,-2.000000,-1.000000,-2.000000,-2.000000,-2.000000
1304948.941724,2.000000,-16.000000,-9.000000,6.000000,-1.000000,1.000000,0.000000,-5.000000
1304948.950007,-12.000000,2.000000,3.000000,5.000000,2.000000,-2.000000,1.000000,-2.000000
1304948.950024,-4.000000,6.000000,3.000000,-11.000000,-5.000000,-2.000000,2.000000,0.000000
1304948.951646,-1.000000,2.000000,-1.000000,3.000000,2.000000,-3.000000,-2.000000,1.000000
1304948.951742,-3.000000,46.000000,-4.000000,-3.000000,-9.000000,-5.000000,-2.000000,-2.000000
1304948.952586,-4.000000,-23.000000,-7.000000,-5.000000,-1.000000,-2.000000,-1.000000,-1.000000
1304948.952595,-2.000000,-19.000000,-4.000000,-5.000000,3.000000,0.000000,1.000000,-3.000000
1304948.972062,3.000000,16.000000,6.000000,-1.000000,-2.000000,-4.000000,2.000000,-1.000000
1304948.972071,-1.000000,-53.000000,-13.000000,-1.000000,-4.000000,-3.000000,0.000000,1.000000
1304948.972952,-6.000000,32.000000,6.000000,0.000000,-1.000000,-3.000000,-1.000000,-1.000000
1304948.972980,7.000000,14.000000,11.000000,7.000000,1.000000,1.000000,-1.000000,0.000000
1304948.987312,6.000000,4.000000,6.000000,6.000000,1.000000,0.000000,0.000000,3.000000
1304948.987320,-5.000000,-3.000000,-5.000000,-7.000000,0.000000,3.000000,0.000000,-3.000000
1304948.994291,3.000000,-4.000000,-2.000000,1.000000,1.000000,1.000000,0.000000,1.000000
1304948.994309,-6.000000,-6.000000,-3.000000,1.000000,-1.000000,0.000000,2.000000,1.000000
1304949.009388,-2.000000,18.000000,14.000000,1.000000,-2.000000,-2.000000,-1.000000,-1.000000
1304949.009405,-4.000000,0.000000,-5.000000,-1.000000,-1.000000,0.000000,-1.000000,-2.000000
1304949.009983,-6.000000,-6.000000,-7.000000,-2.000000,-1.000000,-2.000000,-3.000000,-1.000000
1304949.010001,13.000000,2.000000,-6.000000,-3.000000,0.000000,-3.000000,1.000000,-2.000000
1304949.031700,3.000000,-1.000000,-4.000000,-2.000000,2.000000,0.000000,-4.000000,1.000000
1304949.031710,12.000000,-2.000000,-5.000000,-3.000000,-7.000000,-4.000000,-2.000000,-2.000000
1304949.039862,10.000000,0.000000,-7.000000,3.000000,3.000000,-7.000000,0.000000,-2.000000
1304949.039898,1.000000,-7.000000,-10.000000,2.000000,-3.000000,2.000000,-3.000000,0.000000
1304949.054460,4.000000,4.000000,1.000000,-16.000000,-3.000000,1.000000,-1.000000,1.000000
1304949.054475,-1.000000,-2.000000,-11.000000,-4.000000,-5.000000,-2.000000,-1.000000,1.000000
1304949.069181,-6.000000,-5.000000,-10.000000,2.000000,-3.000000,-5.000000,-4.000000,-2.000000
1304949.069192,-3.000000,-3.000000,4.000000,4.000000,1.000000,-1.000000,2.000000,0.000000
1304949.084914,-4.000000,-2.000000,9.000000,-4.000000,2.000000,-1.000000,-1.000000,-3.000000
1304949.084948,-6.000000,38.000000,30.000000,4.000000,0.000000,0.000000,0.000000,-1.000000
1304949.085317,-6.000000,10.000000,9.000000,-1.000000,2.000000,-1.000000,-3.000000,-1.000000
1304949.085330,-4.000000,-44.000000,1.000000,-5.000000,-10.000000,-5.000000,-2.000000,-1.000000
1304949.087027,2.000000,4.000000,10.000000,1.000000,1.000000,-2.000000,0.000000,1.000000
1304949.087047,-3.000000,-7.000000,-1.000000,6.000000,0.000000,0.000000,-2.000000,-6.000000
1304949.091678,0.000000,-3.000000,-1.000000,-2.000000,-6.000000,-3.000000,-1.000000,-1.000000
1304949.091726,-8.000000,-19.000000,-5.000000,-2.000000,6.000000,-1.000000,0.000000,-3.000000
1304949.100366,-1.000000,11.000000,1.000000,0.000000,-3.000000,-5.000000,1.000000,0.000000
1304949.100379,-10.000000,-23.000000,-12.000000,1.000000,3.000000,0.000000,1.000000,-1.000000
1304949.114283,-6.000000,-7.000000,-16.000000,-1.000000,2.000000,-3.000000,-1.000000,-3.000000
1304949.114293,11.000000,-4.000000,-10.000000,7.000000,0.000000,-6.000000,-2.000000,0.000000
1304949.129756,-1.000000,15.000000,2.000000,-2.000000,1.000000,3.000000,-1.000000,-2.000000
1304949.129784,-4.000000,13.000000,4.000000,-5.000000,-5.000000,0.000000,1.000000,-2.000000
1304949.130584,-5.000000,-14.000000,5.000000,-8.000000,1.000000,4.000000,-2.000000,0.000000
1304949.130610,-2.000000,2.000000,1.000000,0.000000,5.000000,2.000000,-3.000000,2.000000
1304949.151580,-6.000000,-3.000000,-5.000000,-2.000000,-4.000000,-5.000000,-2.000000,1.000000
1304949.151591,0.000000,-5.000000,-5.000000,-4.000000,-8.000000,-4.000000,-1.000000,-5.000000
1304949.166810,-3.000000,2.000000,-10.000000,-16.000000,-9.000000,1.000000,1.000000,-1.000000
1304949.166840,-6.000000,0.000000,5.000000,-7.000000,-2.000000,-4.000000,-3.000000,-5.000000
1304949.189299,-1.000000,-6.000000,6.000000,2.000000,-3.000000,-1.000000,-4.000000,0.000000
1304949.189309,-6.000000,-3.000000,0.000000,4.000000,-3.000000,0.000000,1.000000,-5.000000
1304949.204457,5.000000,7.000000,0.000000,5.000000,2.000000,-5.000000,-3.000000,-1.000000
1304949.204478,3.000000,-3.000000,3.000000,-8.000000,-6.000000,6.000000,3.000000,2.000000
1304949.226827,-5.000000,6.000000,3.000000,2.000000,3.000000,0.000000,4.000000,3.000000
1304949.226837,-4.000000,0.000000,3.000000,1.000000,3.000000,6.000000,-2.000000,-1.000000
1304949.227197,-3.000000,0.000000,1.000000,-3.000000,-5.000000,-4.000000,-4.000000,-3.000000
1304949.227205,-1.000000,7.000000,0.000000,1.000000,-3.000000,1.000000,1.000000,1.000000
1304949.228815,-9.000000,-2.000000,2.000000,1.000000,-1.000000,-1.000000,-2.000000,-2.000000
1304949.228828,3.000000,-5.000000,-5.000000,-5.000000,0.000000,-1.000000,-1.000000,-3.000000
1304949.229309,1.000000,7.000000,-11.000000,-3.000000,-8.000000,-8.000000,-4.000000,-3.000000
1304949.229321,-1.000000,16.000000,10.000000,0.000000,3.000000,5.000000,0.000000,-1.000000
1304949.234807,-10.000000,-8.000000,-5.000000,-6.000000,-4.000000,1.000000,-1.000000,1.000000
1304949.234817,-1.000000,-9.000000,-13.000000,0.000000,-4.000000,-2.000000,-1.000000,-1.000000
1304949.249554,0.000000,2.000000,-12.000000,3.000000,2.000000,-1.000000,-3.000000,1.000000
1304949.249627,-4.000000,-13.000000,-10.000000,-12.000000,-4.000000,2.000000,1.000000,4.000000
1304949.250116,9.000000,53.000000,20.000000,-11.000000,-8.000000,-2.000000,-1.000000,-1.000000
1304949.250137,15.000000,34.000000,22.000000,1.000000,-3.000000,2.000000,-4.000000,1.000000
1304949.271922,-2.000000,-5.000000,-1.000000,0.000000,-3.000000,-3.000000,0.000000,2.000000
1304949.271956,-2.000000,-3.000000,2.000000,-2.000000,-5.000000,-5.000000,-1.000000,-3.000000
1304949.286992,-2.000000,-7.000000,1.000000,2.000000,-1.000000,-2.000000,-2.000000,-5.000000
1304949.287098,-2.000000,-3.000000,0.000000,1.000000,0.000000,0.000000,-1.000000,1.000000
1304949.288274,-4.000000,-2.000000,-5.000000,4.000000,5.000000,4.000000,-5.000000,-3.000000
1304949.288284,1.000000,1.000000,0.000000,-9.000000,-10.000000,-1.000000,3.000000,2.000000
1304949.302159,0.000000,-14.000000,-3.000000,4.000000,0.000000,-1.000000,0.000000,-3.000000
1304949.302176,3.000000,26.000000,10.000000,1.000000,-1.000000,-4.000000,2.000000,0.000000
1304949.317132,-10.000000,-17.000000,-4.000000,-2.000000,3.000000,0.000000,-1.000000,0.000000
1304949.317173,4.000000,0.000000,-1.000000,1.000000,4.000000,-1.000000,1.000000,1.000000
1304949.325083,-3.000000,-9.000000,-1.000000,-6.000000,-3.000000,3.000000,2.000000,0.000000
1304949.325100,3.000000,0.000000,-8.000000,1.000000,-2.000000,-3.000000,-2.000000,-1.000000
1304949.356451,0.000000,-8.000000,-5.000000,6.000000,3.000000,4.000000,-4.000000,-1.000000
1304949.356469,-3.000000,11.000000,11.000000,-2.000000,0.000000,1.000000,0.000000,2.000000
1304949.370892,-3.000000,-5.000000,-11.000000,0.000000,7.000000,0.000000,0.000000,-3.000000
1304949.370906,-1.000000,-10.000000,-7.000000,4.000000,1.000000,-4.000000,-3.000000,0.000000
1304949.371811,-7.000000,-4.000000,7.000000,6.000000,1.000000,-4.000000,-3.000000,0.000000
1304949.371826,-8.000000,-2.000000,-3.000000,-1.000000,-1.000000,-2.000000,1.000000,-5.000000
1304949.372378,1.000000,-14.000000,0.000000,-12.000000,-3.000000,-1.000000,-1.000000,2.000000
1304949.372391,-2.000000,6.000000,-8.000000,-4.000000,0.000000,-4.000000,-1.000000,0.000000
1304949.374380,1.000000,10.000000,15.000000,-2.000000,0.000000,-3.000000,-2.000000,0.000000
1304949.374392,-4.000000,1.000000,2.000000,-1.000000,6.000000,4.000000,1.000000,0.000000
1304949.376678,-1.000000,-24.000000,-8.000000,9.000000,-4.000000,2.000000,-2.000000,-2.000000
1304949.376695,6.000000,127.000000,11.000000,-4.000000,-4.000000,-6.000000,-7.000000,-2.000000
1304949.406879,11.000000,29.000000,12.000000,-3.000000,-4.000000,1.000000,0.000000,2.000000
1304949.406916,5.000000,0.000000,-4.000000,-3.000000,-3.000000,-5.000000,-1.000000,-2.000000
1304949.422067,-5.000000,-11.000000,-6.000000,3.000000,4.000000,5.000000,-1.000000,-1.000000
1304949.422128,-2.000000,-1.000000,-2.000000,-3.000000,-2.000000,0.000000,-4.000000,0.000000
1304949.436801,-1.000000,3.000000,-1.000000,6.000000,-1.000000,-3.000000,0.000000,-6.000000
1304949.436841,-2.000000,-13.000000,1.000000,0.000000,0.000000,-3.000000,-3.000000,-4.000000
1304949.437388,5.000000,-4.000000,-5.000000,1.000000,-1.000000,-5.000000,-3.000000,-2.000000
1304949.437398,-3.000000,14.000000,-5.000000,0.000000,3.000000,2.000000,0.000000,0.000000
1304949.444401,1.000000,-9.000000,-7.000000,0.000000,-2.000000,-3.000000,2.000000,1.000000
1304949.444429,6.000000,13.000000,8.000000,-9.000000,-7.000000,-1.000000,-3.000000,-2.000000
1304949.467205,2.000000,-1.000000,-3.000000,-4.000000,2.000000,3.000000,0.000000,0.000000
1304949.467236,0.000000,4.000000,-1.000000,2.000000,3.000000,-5.000000,1.000000,1.000000
1304949.481750,1.000000,-3.000000,-5.000000,-10.000000,-4.000000,-3.000000,-2.000000,-1.000000
1304949.481769,-2.000000,-2.000000,-10.000000,4.000000,-2.000000,0.000000,-4.000000,-4.000000
1304949.482359,-1.000000,2.000000,-8.000000,4.000000,2.000000,-3.000000,-7.000000,-1.000000
1304949.482387,4.000000,-1.000000,11.000000,-13.000000,-9.000000,5.000000,5.000000,4.000000
1304949.483586,-2.000000,14.000000,6.000000,4.000000,2.000000,0.000000,2.000000,-2.000000
1304949.483611,-2.000000,-11.000000,0.000000,-2.000000,-2.000000,-4.000000,2.000000,1.000000
1304949.484207,1.000000,23.000000,8.000000,3.000000,-3.000000,-2.000000,-1.000000,-1.000000
1304949.484223,-2.000000,15.000000,5.000000,2.000000,4.000000,-3.000000,-5.000000,-2.000000
1304949.504226,5.000000,63.000000,22.000000,3.000000,-1.000000,-1.000000,-1.000000,1.000000
1304949.504237,-1.000000,-13.000000,-7.000000,-2.000000,1.000000,6.000000,2.000000,-1.000000
1304949.534515,-1.000000,-5.000000,2.000000,0.000000,2.000000,5.000000,0.000000,-1.000000
1304949.534530,-8.000000,-13.000000,-2.000000,-5.000000,2.000000,0.000000,1.000000,-1.000000
1304949.549406,7.000000,0.000000,-3.000000,-5.000000,-4.000000,-1.000000,-2.000000,4.000000
1304949.549445,-7.000000,-2.000000,-3.000000,-8.000000,-5.000000,2.000000,-2.000000,0.000000
1304949.564875,-22.000000,2.000000,-2.000000,6.000000,4.000000,2.000000,1.000000,-1.000000
1304949.564888,-10.000000,-2.000000,0.000000,1.000000,3.000000,-2.000000,1.000000,2.000000
1304949.565616,-9.000000,-11.000000,-10.000000,2.000000,5.000000,-3.000000,-3.000000,-3.000000
1304949.565634,2.000000,15.000000,5.000000,-4.000000,-8.000000,2.000000,0.000000,1.000000
1304949.567405,1.000000,3.000000,2.000000,-7.000000,0.000000,3.000000,-3.000000,1.000000
1304949.567414,5.000000,1.000000,-5.000000,1.000000,4.000000,-1.000000,-1.000000,-1.000000
1304949.567521,-5.000000,-17.000000,-12.000000,4.000000,1.000000,-3.000000,-3.000000,-4.000000
1304949.567535,0.000000,-12.000000,-8.000000,1.000000,-2.000000,-1.000000,-3.000000,-1.000000
1304949.579482,-1.000000,1.000000,-3.000000,-5.000000,-5.000000,3.000000,0.000000,-3.000000
1304949.579503,-3.000000,0.000000,-5.000000,-2.000000,-1.000000,-7.000000,0.000000,-3.000000
1304949.586660,2.000000,1.000000,1.000000,1.000000,1.000000,2.000000,1.000000,2.000000
1304949.586671,0.000000,-7.000000,-6.000000,1.000000,3.000000,-1.000000,-2.000000,-1.000000
1304949.601628,-1.000000,15.000000,3.000000,-1.000000,1.000000,1.000000,-2.000000,-4.000000
1304949.601644,-1.000000,-18.000000,-10.000000,8.000000,3.000000,-7.000000,-2.000000,0.000000
1304949.603125,1.000000,16.000000,8.000000,-19.000000,-9.000000,4.000000,2.000000,0.000000
1304949.603146,0.000000,6.000000,2.000000,5.000000,0.000000,1.000000,2.000000,-2.000000
1304949.624250,3.000000,-2.000000,-2.000000,5.000000,5.000000,-1.000000,-1.000000,1.000000
1304949.624261,-9.000000,-12.000000,-7.000000,4.000000,3.000000,-1.000000,1.000000,-4.000000
1304949.646869,1.000000,-8.000000,-13.000000,-5.000000,-6.000000,-4.000000,3.000000,0.000000
1304949.646898,-4.000000,45.000000,-2.000000,0.000000,0.000000,-3.000000,-1.000000,-1.000000
1304949.661983,-4.000000,-3.000000,-1.000000,1.000000,5.000000,2.000000,0.000000,-2.000000
1304949.661999,7.000000,1.000000,-1.000000,-7.000000,-9.000000,6.000000,1.000000,3.000000
1304949.669790,-4.000000,0.000000,4.000000,-2.000000,4.000000,4.000000,0.000000,-1.000000
1304949.669807,-5.000000,-19.000000,-5.000000,-3.000000,-2.000000,-2.000000,-1.000000,-5.000000
1304949.670419,-1.000000,-6.000000,7.000000,1.000000,-1.000000,1.000000,4.000000,-2.000000
1304949.670447,1.000000,3.000000,1.000000,4.000000,-4.000000,-4.000000,1.000000,-3.000000
1304949.684190,6.000000,1.000000,6.000000,-1.000000,-2.000000,1.000000,-2.000000,4.000000
1304949.684229,2.000000,-1.000000,-3.000000,-1.000000,1.000000,-5.000000,-2.000000,-2.000000
1304949.684662,6.000000,0.000000,1.000000,-5.000000,-6.000000,-1.000000,-1.000000,0.000000
1304949.684673,0.000000,-7.000000,2.000000,-4.000000,-4.000000,-2.000000,-1.000000,0.000000
1304949.686052,9.000000,26.000000,13.000000,7.000000,1.000000,1.000000,1.000000,0.000000
1304949.686060,-1.000000,-3.000000,0.000000,-3.000000,-1.000000,0.000000,-2.000000,-2.000000
1304949.699542,0.000000,-9.000000,-4.000000,-3.000000,-3.000000,-5.000000,-2.000000,-1.000000
1304949.699564,1.000000,29.000000,10.000000,-3.000000,-1.000000,0.000000,-1.000000,2.000000
1304949.707028,-3.000000,2.000000,2.000000,-2.000000,0.000000,-5.000000,-2.000000,1.000000
1304949.707070,-4.000000,3.000000,2.000000,3.000000,0.000000,-4.000000,0.000000,0.000000
1304949.714457,-6.000000,-24.000000,-21.000000,-5.000000,-10.000000,-1.000000,-3.000000,-4.000000
1304949.714476,4.000000,24.000000,9.000000,-3.000000,-3.000000,1.000000,3.000000,-2.000000
1304949.723188,0.000000,-1.000000,0.000000,2.000000,2.000000,2.000000,-3.000000,-1.000000
1304949.723209,-4.000000,-3.000000,-4.000000,1.000000,-2.000000,-2.000000,-2.000000,0.000000
1304949.744426,4.000000,1.000000,-3.000000,0.000000,1.000000,-1.000000,-1.000000,3.000000
1304949.744436,-3.000000,-3.000000,0.000000,-2.000000,-4.000000,0.000000,-2.000000,0.000000
1304949.774333,-4.000000,-13.000000,-5.000000,-2.000000,-1.000000,1.000000,-1.000000,0.000000
1304949.774343,-3.000000,17.000000,9.000000,4.000000,-1.000000,1.000000,-2.000000,0.000000
1304949.781613,-6.000000,13.000000,-6.000000,-1.000000,-9.000000,-4.000000,-3.000000,0.000000
1304949.781621,-1.000000,-20.000000,-19.000000,-4.000000,-3.000000,-2.000000,-2.000000,-2.000000
1304949.804789,-10.000000,-3.000000,1.000000,2.000000,-1.000000,1.000000,0.000000,-2.000000
1304949.804803,0.000000,-11.000000,-8.000000,4.000000,2.000000,-1.000000,-4.000000,-6.000000
1304949.805431,4.000000,-3.000000,-3.000000,-4.000000,1.000000,1.000000,0.000000,-1.000000
1304949.805443,-4.000000,1.000000,-1.000000,-6.000000,3.000000,1.000000,1.000000,-2.000000
1304949.806601,-2.000000,-6.000000,7.000000,11.000000,2.000000,-1.000000,1.000000,0.000000
1304949.806629,-1.000000,-2.000000,4.000000,-3.000000,-2.000000,1.000000,0.000000,0.000000
1304949.807251,0.000000,0.000000,3.000000,0.000000,0.000000,-1.000000,-3.000000,-1.000000
1304949.807271,-9.000000,-19.000000,-7.000000,-7.000000,1.000000,0.000000,-2.000000,-3.000000
1304949.826564,-2.000000,-8.000000,-7.000000,4.000000,0.000000,2.000000,-3.000000,1.000000
1304949.826574,-1.000000,-1.000000,0.000000,9.000000,0.000000,-2.000000,-1.000000,1.000000
1304949.827892,7.000000,2.000000,-5.000000,-5.000000,-2.000000,-1.000000,-3.000000,0.000000
1304949.827900,1.000000,-2.000000,-3.000000,-6.000000,-4.000000,-1.000000,-3.000000,-4.000000
1304949.842010,7.000000,1.000000,1.000000,-11.000000,-7.000000,8.000000,2.000000,2.000000
1304949.842040,0.000000,-3.000000,-4.000000,2.000000,5.000000,1.000000,1.000000,1.000000
1304949.842993,-4.000000,-13.000000,-6.000000,2.000000,1.000000,-1.000000,-1.000000,-4.000000
1304949.843021,6.000000,13.000000,4.000000,-1.000000,-2.000000,-3.000000,-2.000000,-1.000000
1304949.856775,4.000000,1.000000,5.000000,-2.000000,2.000000,1.000000,0.000000,2.000000
1304949.856789,10.000000,4.000000,-4.000000,-1.000000,0.000000,-1.000000,-1.000000,-3.000000
1304949.871742,-14.000000,-24.000000,-10.000000,-1.000000,3.000000,-1.000000,0.000000,-2.000000
1304949.871752,-3.000000,-6.000000,-2.000000,-1.000000,1.000000,-2.000000,-1.000000,-2.000000
1304949.879376,-1.000000,-1.000000,-3.000000,1.000000,-4.000000,-4.000000,-4.000000,-2.000000
1304949.879387,-4.000000,-5.000000,2.000000,-2.000000,-2.000000,-2.000000,-2.000000,-4.000000
1304949.901983,-1.000000,2.000000,5.000000,1.000000,-1.000000,-2.000000,-2.000000,0.000000
1304949.902004,6.000000,-1.000000,-2.000000,3.000000,0.000000,-3.000000,1.000000,2.000000
1304949.916876,1.000000,-5.000000,-7.000000,-4.000000,-8.000000,0.000000,0.000000,-4.000000
1304949.916893,-2.000000,8.000000,-2.000000,1.000000,-2.000000,-7.000000,1.000000,1.000000
1304949.917856,2.000000,127.000000,9.000000,5.000000,0.000000,0.000000,-2.000000,-1.000000
1304949.917865,-4.000000,-3.000000,1.000000,1.000000,5.000000,0.000000,-3.000000,1.000000
1304949.918861,3.000000,-1.000000,-1.000000,1.000000,1.000000,0.000000,0.000000,0.000000
1304949.918888,-1.000000,-8.000000,7.000000,4.000000,-2.000000,1.000000,-2.000000,-1.000000
1304949.924984,1.000000,-8.000000,-3.000000,-3.000000,-2.000000,0.000000,1.000000,-3.000000
1304949.925004,7.000000,-13.000000,2.000000,-1.000000,4.000000,-1.000000,-3.000000,-1.000000
1304949.939340,0.000000,2.000000,-5.000000,-2.000000,1.000000,3.000000,2.000000,-3.000000
1304949.939357,-4.000000,-3.000000,-8.000000,1.000000,-3.000000,3.000000,-3.000000,-2.000000
1304949.961713,5.000000,-5.000000,-6.000000,0.000000,1.000000,3.000000,-1.000000,-2.000000
1304949.961742,-10.000000,-22.000000,-11.000000,5.000000,3.000000,4.000000,0.000000,-5.000000
1304949.962324,3.000000,25.000000,10.000000,-5.000000,-9.000000,-4.000000,3.000000,1.000000
1304949.962352,-7.000000,-15.000000,-16.000000,-3.000000,2.000000,0.000000,1.000000,0.000000
1304949.963724,7.000000,11.000000,-1.000000,4.000000,6.000000,2.000000,-2.000000,-1.000000
1304949.963752,-3.000000,-6.000000,1.000000,-4.000000,-6.000000,2.000000,4.000000,-1.000000
1304949.976816,-5.000000,-7.000000,1.000000,2.000000,1.000000,1.000000,-2.000000,-1.000000
1304949.976832,-14.000000,1.000000,0.000000,-4.000000,2.000000,0.000000,-6.000000,0.000000
1304949.991806,-8.000000,-5.000000,-3.000000,-1.000000,-4.000000,1.000000,-4.000000,-3.000000
1304949.991816,3.000000,3.000000,-3.000000,3.000000,3.000000,-2.000000,-2.000000,-1.000000
1304949.999429,-8.000000,-8.000000,-3.000000,-6.000000,-3.000000,-5.000000,0.000000,0.000000
1304949.999476,4.000000,-2.000000,0.000000,1.000000,4.000000,1.000000,-2.000000,0.000000
1304950.036838,-1.000000,-12.000000,-6.000000,4.000000,5.000000,1.000000,-4.000000,-1.000000
1304950.036887,2.000000,-52.000000,-4.000000,-16.000000,-11.000000,3.000000,-2.000000,3.000000
1304950.037189,12.000000,67.000000,11.000000,5.000000,6.000000,1.000000,-3.000000,3.000000
1304950.037206,10.000000,37.000000,11.000000,-9.000000,-2.000000,3.000000,0.000000,3.000000
1304950.038577,1.000000,-11.000000,-13.000000,-1.000000,-4.000000,-1.000000,1.000000,-3.000000
1304950.038594,2.000000,-11.000000,-7.000000,6.000000,-2.000000,-1.000000,-4.000000,-2.000000
1304950.039349,0.000000,-7.000000,-7.000000,-6.000000,-4.000000,0.000000,0.000000,-3.000000
1304950.039362,-6.000000,-2.000000,-1.000000,2.000000,1.000000,-3.000000,-2.000000,-4.000000
1304950.045222,6.000000,0.000000,0.000000,1.000000,-1.000000,0.000000,5.000000,6.000000
1304950.045267,-14.000000,15.000000,13.000000,-2.000000,7.000000,3.000000,-1.000000,1.000000
1304950.059197,-2.000000,-6.000000,-1.000000,-8.000000,-13.000000,-6.000000,1.000000,-2.000000
1304950.059230,-6.000000,4.000000,10.000000,1.000000,-5.000000,-4.000000,0.000000,-3.000000
1304950.082002,-9.000000,-13.000000,0.000000,-8.000000,-7.000000,-2.000000,0.000000,3.000000
1304950.082016,-4.000000,4.000000,-4.000000,11.000000,5.000000,-4.000000,-4.000000,-3.000000
1304950.096850,2.000000,2.000000,0.000000,-15.000000,-11.000000,6.000000,5.000000,-2.000000
1304950.096860,1.000000,-1.000000,-3.000000,1.000000,4.000000,-4.000000,-5.000000,-5.000000
1304950.111772,-7.000000,-6.000000,-6.000000,0.000000,1.000000,-1.000000,-1.000000,-2.000000
1304950.111784,7.000000,-11.000000,1.000000,-2.000000,0.000000,0.000000,-1.000000,1.000000
1304950.119294,5.000000,0.000000,1.000000,3.000000,5.000000,0.000000,-3.000000,-2.000000
1304950.119312,-2.000000,-3.000000,0.000000,-8.000000,-3.000000,3.000000,2.000000,2.000000
1304950.156825,1.000000,-3.000000,-3.000000,5.000000,2.000000,-3.000000,-5.000000,-4.000000
1304950.156836,4.000000,-9.000000,-6.000000,-7.000000,-6.000000,-2.000000,2.000000,4.000000
1304950.179144,-9.000000,-4.000000,2.000000,-1.000000,0.000000,1.000000,2.000000,-5.000000
1304950.179155,3.000000,0.000000,-4.000000,1.000000,1.000000,-5.000000,1.000000,-3.000000
1304950.194836,0.000000,-2.000000,-3.000000,-3.000000,-1.000000,-1.000000,-1.000000,0.000000
1304950.194849,-8.000000,10.000000,7.000000,2.000000,4.000000,-1.000000,-1.000000,-2.000000
1304950.195439,1.000000,-108.000000,-8.000000,1.000000,-4.000000,2.000000,1.000000,-2.000000
1304950.195448,5.000000,37.000000,9.000000,4.000000,-2.000000,0.000000,-3.000000,-2.000000
1304950.202404,-3.000000,11.000000,22.000000,7.000000,1.000000,-2.000000,1.000000,-4.000000
1304950.202418,1.000000,-5.000000,-4.000000,-1.000000,-3.000000,-10.000000,-1.000000,1.000000
1304950.203033,7.000000,-3.000000,-2.000000,-10.000000,-10.000000,0.000000,1.000000,0.000000
1304950.203042,0.000000,-7.000000,-4.000000,5.000000,6.000000,1.000000,-3.000000,-5.000000
1304950.216944,8.000000,38.000000,11.000000,-18.000000,-10.000000,5.000000,2.000000,-1.000000
1304950.216956,-7.000000,-28.000000,-14.000000,-2.000000,3.000000,-2.000000,-1.000000,0.000000
1304950.231684,7.000000,23.000000,-6.000000,1.000000,-1.000000,1.000000,0.000000,-1.000000
1304950.231699,9.000000,-16.000000,2.000000,-5.000000,-4.000000,-1.000000,-3.000000,-3.000000
1304950.239082,-11.000000,-14.000000,-6.000000,-3.000000,-5.000000,-3.000000,-1.000000,-5.000000
1304950.239091,0.000000,-12.000000,-6.000000,4.000000,2.000000,-4.000000,1.000000,-1.000000
1304950.261920,2.000000,1.000000,-2.000000,-9.000000,-2.000000,-2.000000,3.000000,-3.000000
1304950.261931,2.000000,-1.000000,2.000000,7.000000,2.000000,-1.000000,-6.000000,2.000000
1304950.269258,-5.000000,-3.000000,3.000000,-8.000000,-4.000000,3.000000,-3.000000,0.000000
1304950.269354,-4.000000,-11.000000,6.000000,2.000000,-4.000000,0.000000,-2.000000,-1.000000
1304950.270424,-6.000000,-1.000000,0.000000,-1.000000,0.000000,-1.000000,-2.000000,1.000000
1304950.270435,-3.000000,1.000000,-4.000000,0.000000,-4.000000,-3.000000,0.000000,-2.000000
1304950.270845,1.000000,-16.000000,-2.000000,-1.000000,-2.000000,1.000000,1.000000,1.000000
1304950.270855,-5.000000,2.000000,-4.000000,-6.000000,0.000000,-1.000000,2.000000,-4.000000
1304950.276544,-7.000000,-7.000000,-7.000000,2.000000,2.000000,-1.000000,-1.000000,-3.000000
1304950.276598,-4.000000,-42.000000,0.000000,-11.000000,-3.000000,0.000000,0.000000,0.000000
1304950.299317,-1.000000,127.000000,17.000000,-4.000000,3.000000,0.000000,-4.000000,-7.000000
1304950.299327,-6.000000,-28.000000,-6.000000,-1.000000,-4.000000,-4.000000,-2.000000,-1.000000
1304950.314185,-2.000000,-1.000000,-5.000000,-1.000000,4.000000,-6.000000,0.000000,0.000000
1304950.314198,-2.000000,5.000000,10.000000,-2.000000,-1.000000,-1.000000,0.000000,-4.000000
1304950.315517,5.000000,19.000000,5.000000,1.000000,-1.000000,-4.000000,-4.000000,-2.000000
1304950.315531,-17.000000,-25.000000,-11.000000,-3.000000,1.000000,0.000000,1.000000,0.000000
1304950.316394,-4.000000,-4.000000,-4.000000,4.000000,-2.000000,-2.000000,-4.000000,-4.000000
1304950.316416,-1.000000,2.000000,-5.000000,0.000000,-6.000000,-3.000000,0.000000,1.000000
1304950.336617,0.000000,-6.000000,-5.000000,6.000000,3.000000,-3.000000,-1.000000,-2.000000
1304950.336647,6.000000,1.000000,0.000000,1.000000,0.000000,0.000000,0.000000,-1.000000
1304950.359240,-7.000000,-1.000000,0.000000,-7.000000,-4.000000,3.000000,0.000000,0.000000
1304950.359252,9.000000,-4.000000,-6.000000,-2.000000,6.000000,-1.000000,-3.000000,1.000000
1304950.389225,-4.000000,-4.000000,-3.000000,-6.000000,-4.000000,-5.000000,1.000000,0.000000
1304950.389235,-6.000000,-8.000000,0.000000,4.000000,-1.000000,-4.000000,2.000000,-1.000000
1304950.396904,-3.000000,8.000000,1.000000,-1.000000,-3.000000,-1.000000,-1.000000,-1.000000
1304950.396916,0.000000,-6.000000,1.000000,2.000000,3.000000,1.000000,-3.000000,0.000000
1304950.397764,-1.000000,3.000000,-4.000000,1.000000,-4.000000,-3.000000,0.000000,-2.000000
1304950.397773,13.000000,1.000000,-1.000000,0.000000,-2.000000,1.000000,0.000000,0.000000
1304950.398636,3.000000,4.000000,3.000000,-9.000000,0.000000,0.000000,0.000000,0.000000
1304950.398648,2.000000,-4.000000,-5.000000,-3.000000,2.000000,-2.000000,-1.000000,-4.000000
1304950.412240,-15.000000,-59.000000,-7.000000,0.000000,0.000000,-3.000000,-2.000000,-1.000000
1304950.412258,-4.000000,0.000000,1.000000,-1.000000,0.000000,1.000000,-2.000000,3.000000
1304950.413811,1.000000,-16.000000,0.000000,-3.000000,-1.000000,-2.000000,-1.000000,-2.000000
1304950.413828,1.000000,-16.000000,-13.000000,1.000000,1.000000,-3.000000,0.000000,-5.000000
1304950.419327,3.000000,49.000000,13.000000,8.000000,0.000000,0.000000,1.000000,-2.000000
1304950.419346,5.000000,31.000000,8.000000,-7.000000,-6.000000,3.000000,2.000000,0.000000
1304950.426505,-4.000000,-13.000000,-5.000000,1.000000,9.000000,0.000000,-3.000000,-3.000000
1304950.426515,-2.000000,-2.000000,-4.000000,4.000000,9.000000,-3.000000,0.000000,2.000000
1304950.434208,2.000000,-8.000000,0.000000,-11.000000,-1.000000,0.000000,1.000000,4.000000
1304950.434219,-10.000000,-1.000000,0.000000,6.000000,-5.000000,-4.000000,-2.000000,-5.000000
1304950.479501,-6.000000,0.000000,-3.000000,-10.000000,-6.000000,0.000000,1.000000,-3.000000
1304950.479513,4.000000,1.000000,-1.000000,-1.000000,5.000000,-4.000000,-2.000000,2.000000
1304950.501807,-4.000000,4.000000,2.000000,1.000000,1.000000,-3.000000,-1.000000,-1.000000
1304950.501871,-7.000000,-10.000000,-5.000000,4.000000,-1.000000,0.000000,-4.000000,-1.000000
1304950.524004,0.000000,-9.000000,1.000000,-6.000000,0.000000,1.000000,2.000000,-3.000000
1304950.524033,0.000000,1.000000,5.000000,1.000000,1.000000,0.000000,0.000000,-3.000000
1304950.531883,2.000000,-3.000000,-3.000000,4.000000,0.000000,2.000000,-2.000000,-5.000000
1304950.531893,0.000000,-2.000000,-6.000000,-2.000000,2.000000,-1.000000,-2.000000,-3.000000
1304950.532957,2.000000,25.000000,6.000000,-5.000000,-3.000000,-2.000000,0.000000,-1.000000
1304950.532966,1.000000,-8.000000,-5.000000,6.000000,3.000000,0.000000,-5.000000,-2.000000
1304950.533451,-9.000000,-33.000000,-3.000000,5.000000,2.000000,-1.000000,-2.000000,-3.000000
1304950.533459,-7.000000,-16.000000,-13.000000,-4.000000,2.000000,-1.000000,-1.000000,1.000000
1304950.534203,7.000000,-2.000000,-2.000000,4.000000,-3.000000,0.000000,0.000000,-1.000000
1304950.534211,-4.000000,-78.000000,-7.000000,-2.000000,-2.000000,-3.000000,-5.000000,0.000000
1304950.539389,6.000000,0.000000,-4.000000,-7.000000,-3.000000,-2.000000,3.000000,3.000000
1304950.539401,9.000000,-14.000000,-4.000000,1.000000,0.000000,-5.000000,-2.000000,-3.000000
1304950.546670,2.000000,1.000000,0.000000,3.000000,2.000000,0.000000,-6.000000,-1.000000
1304950.546681,-9.000000,-41.000000,-7.000000,-5.000000,3.000000,-1.000000,0.000000,0.000000
1304950.554113,0.000000,9.000000,-4.000000,-7.000000,-2.000000,-1.000000,0.000000,2.000000
1304950.554123,2.000000,-5.000000,0.000000,5.000000,3.000000,3.000000,-3.000000,-1.000000
1304950.576864,-1.000000,1.000000,2.000000,3.000000,-1.000000,0.000000,-1.000000,-3.000000
1304950.576875,0.000000,-12.000000,-4.000000,7.000000,6.000000,1.000000,-5.000000,-1.000000
1304950.584309,2.000000,-1.000000,-3.000000,-1.000000,2.000000,-1.000000,1.000000,-4.000000
1304950.584319,-7.000000,-6.000000,0.000000,-7.000000,-7.000000,1.000000,-1.000000,-2.000000
1304950.599669,-9.000000,-44.000000,-4.000000,4.000000,2.000000,-5.000000,-2.000000,-1.000000
1304950.599680,-2.000000,34.000000,3.000000,-3.000000,-3.000000,-1.000000,-4.000000,3.000000
1304950.606742,-4.000000,0.000000,-7.000000,-7.000000,-4.000000,0.000000,-3.000000,-1.000000
1304950.606790,-3.000000,-5.000000,-6.000000,2.000000,0.000000,-3.000000,-3.000000,2.000000
1304950.629537,-1.000000,-5.000000,-4.000000,-1.000000,-3.000000,-1.000000,3.000000,3.000000
1304950.629548,-3.000000,10.000000,-2.000000,-3.000000,1.000000,3.000000,0.000000,-1.000000
1304950.636837,0.000000,-14.000000,-1.000000,0.000000,-2.000000,1.000000,-1.000000,2.000000
1304950.636849,-3.000000,8.000000,11.000000,2.000000,0.000000,-6.000000,-2.000000,-2.000000
1304950.659068,5.000000,-17.000000,-1.000000,-6.000000,1.000000,2.000000,-5.000000,-6.000000
1304950.659097,5.000000,16.000000,6.000000,1.000000,-1.000000,-2.000000,0.000000,0.000000
1304950.666894,-10.000000,-20.000000,-2.000000,-2.000000,-5.000000,-3.000000,-4.000000,-1.000000
1304950.666906,11.000000,8.000000,2.000000,-4.000000,-4.000000,-3.000000,-3.000000,2.000000
1304950.674850,1.000000,4.000000,4.000000,5.000000,6.000000,-2.000000,-1.000000,-3.000000
1304950.674864,-9.000000,47.000000,-16.000000,0.000000,1.000000,-3.000000,-2.000000,-1.000000
1304950.675439,-2.000000,-1.000000,1.000000,2.000000,4.000000,3.000000,0.000000,-1.000000
1304950.675448,-7.000000,-15.000000,-2.000000,-1.000000,0.000000,-3.000000,-5.000000,-5.000000
1304950.696494,5.000000,4.000000,-7.000000,2.000000,2.000000,-1.000000,-1.000000,-4.000000
1304950.696503,-6.000000,19.000000,6.000000,-8.000000,-5.000000,-2.000000,-2.000000,-1.000000
1304950.711873,0.000000,-25.000000,-12.000000,3.000000,5.000000,-2.000000,-1.000000,3.000000
1304950.711885,2.000000,15.000000,-1.000000,-3.000000,1.000000,-2.000000,1.000000,1.000000
1304950.741758,-1.000000,-6.000000,-5.000000,1.000000,9.000000,1.000000,0.000000,-2.000000
1304950.741801,0.000000,13.000000,6.000000,5.000000,-5.000000,0.000000,0.000000,1.000000
1304950.749212,-5.000000,-10.000000,0.000000,-7.000000,-2.000000,4.000000,0.000000,-1.000000
1304950.749227,-3.000000,-7.000000,3.000000,1.000000,-3.000000,-2.000000,-2.000000,-2.000000
1304950.779302,-6.000000,11.000000,-1.000000,-3.000000,-4.000000,-1.000000,-2.000000,1.000000
1304950.779318,-7.000000,-11.000000,-2.000000,-7.000000,-2.000000,1.000000,-2.000000,-1.000000
1304950.779661,-6.000000,2.000000,-6.000000,-12.000000,-4.000000,6.000000,1.000000,-2.000000
1304950.779683,-6.000000,8.000000,-3.000000,-2.000000,-6.000000,-2.000000,-1.000000,0.000000
1304950.780147,4.000000,3.000000,-3.000000,3.000000,-1.000000,-3.000000,-1.000000,4.000000
1304950.780168,0.000000,-5.000000,-3.000000,1.000000,1.000000,-3.000000,0.000000,-3.000000
1304950.781027,0.000000,-11.000000,-6.000000,-12.000000,-6.000000,3.000000,1.000000,-3.000000
1304950.781050,4.000000,19.000000,3.000000,3.000000,2.000000,-3.000000,-4.000000,-1.000000
1304950.794201,8.000000,7.000000,7.000000,1.000000,-1.000000,-1.000000,2.000000,0.000000
1304950.794230,1.000000,-4.000000,-8.000000,-5.000000,-5.000000,-5.000000,2.000000,-4.000000
1304950.831735,-12.000000,-8.000000,-6.000000,3.000000,0.000000,-3.000000,0.000000,0.000000
1304950.831752,4.000000,0.000000,-4.000000,-10.000000,0.000000,1.000000,-3.000000,-7.000000
1304950.839225,1.000000,-16.000000,-10.000000,-2.000000,2.000000,-1.000000,0.000000,-2.000000
1304950.839236,10.000000,49.000000,34.000000,-1.000000,-5.000000,5.000000,0.000000,1.000000
1304950.854438,-9.000000,-25.000000,-17.000000,-1.000000,2.000000,0.000000,0.000000,2.000000
1304950.854452,-8.000000,66.000000,-5.000000,-4.000000,-9.000000,-5.000000,-3.000000,-4.000000
1304950.855342,7.000000,-2.000000,-1.000000,1.000000,-3.000000,-2.000000,-2.000000,0.000000
1304950.855352,-11.000000,-7.000000,-2.000000,-1.000000,1.000000,-1.000000,-1.000000,-4.000000
1304950.855819,5.000000,-5.000000,-3.000000,2.000000,6.000000,-4.000000,-1.000000,1.000000
1304950.855828,2.000000,-18.000000,6.000000,-2.000000,-5.000000,-1.000000,0.000000,-3.000000
1304950.856534,-7.000000,-1.000000,1.000000,2.000000,0.000000,2.000000,0.000000,-1.000000
1304950.856543,-2.000000,-4.000000,1.000000,-8.000000,-2.000000,-4.000000,-4.000000,0.000000
1304950.857126,3.000000,-1.000000,-1.000000,6.000000,3.000000,-5.000000,-3.000000,-4.000000
1304950.857136,0.000000,-2.000000,2.000000,-8.000000,-7.000000,3.000000,4.000000,-1.000000
1304950.858061,0.000000,10.000000,7.000000,0.000000,2.000000,0.000000,4.000000,-2.000000
1304950.858071,-8.000000,-10.000000,-18.000000,2.000000,6.000000,-2.000000,-3.000000,-6.000000
1304950.869907,0.000000,-3.000000,-4.000000,-1.000000,-1.000000,-3.000000,0.000000,-2.000000
1304950.869918,3.000000,5.000000,-5.000000,1.000000,3.000000,0.000000,-4.000000,-3.000000
1304950.876636,-12.000000,-27.000000,-5.000000,-10.000000,-7.000000,-3.000000,-1.000000,-4.000000
1304950.876664,-3.000000,9.000000,-2.000000,-1.000000,1.000000,-3.000000,0.000000,-2.000000
1304950.884878,-5.000000,0.000000,0.000000,0.000000,1.000000,0.000000,-2.000000,0.000000
1304950.884900,-1.000000,-6.000000,-3.000000,3.000000,-2.000000,1.000000,-4.000000,0.000000
1304950.914195,2.000000,-1.000000,1.000000,-2.000000,-1.000000,0.000000,1.000000,0.000000
1304950.914206,-9.000000,2.000000,-1.000000,-3.000000,-2.000000,0.000000,-3.000000,0.000000
1304950.944557,2.000000,13.000000,8.000000,6.000000,0.000000,0.000000,0.000000,-1.000000
1304950.944570,6.000000,45.000000,19.000000,0.000000,1.000000,-2.000000,-2.000000,-1.000000
1304950.951795,1.000000,-5.000000,-12.000000,-1.000000,2.000000,-1.000000,-3.000000,-2.000000
1304950.951807,10.000000,17.000000,12.000000,3.000000,-2.000000,0.000000,0.000000,-2.000000
1304950.974304,-5.000000,98.000000,0.000000,0.000000,5.000000,0.000000,-4.000000,-6.000000
1304950.974316,0.000000,15.000000,17.000000,6.000000,0.000000,0.000000,3.000000,3.000000
1304950.974755,1.000000,-37.000000,-12.000000,-7.000000,-2.000000,-2.000000,1.000000,-2.000000
1304950.974772,4.000000,63.000000,12.000000,2.000000,0.000000,3.000000,-2.000000,1.000000
1304950.975799,1.000000,-5.000000,-3.000000,-3.000000,-2.000000,-5.000000,0.000000,-3.000000
1304950.975812,-1.000000,-2.000000,1.000000,-1.000000,1.000000,-3.000000,0.000000,-4.000000
1304950.977427,-4.000000,-2.000000,-2.000000,1.000000,2.000000,-3.000000,-2.000000,0.000000
1304950.977447,-2.000000,-10.000000,-2.000000,-1.000000,-6.000000,3.000000,0.000000,-1.000000
1304950.989092,2.000000,-8.000000,-2.000000,-14.000000,-10.000000,-1.000000,-1.000000,1.000000
1304950.989120,-3.000000,13.000000,0.000000,0.000000,6.000000,2.000000,-1.000000,-1.000000
1304950.996874,4.000000,0.000000,-8.000000,0.000000,0.000000,-3.000000,3.000000,10.000000
1304950.996885,-5.000000,-1.000000,-4.000000,-3.000000,-2.000000,-1.000000,-4.000000,-4.000000
1304951.012283,2.000000,-1.000000,-1.000000,0.000000,-1.000000,-1.000000,1.000000,-1.000000
1304951.012293,-7.000000,-2.000000,-1.000000,8.000000,3.000000,-3.000000,-3.000000,0.000000
1304951.026580,0.000000,2.000000,7.000000,-10.000000,-6.000000,1.000000,1.000000,2.000000
1304951.026591,3.000000,2.000000,3.000000,10.000000,5.000000,-3.000000,-2.000000,3.000000
1304951.028093,-5.000000,23.000000,9.000000,0.000000,-1.000000,-5.000000,0.000000,2.000000
1304951.028111,11.000000,-10.000000,-5.000000,0.000000,1.000000,-2.000000,-1.000000,0.000000
1304951.034139,-16.000000,-25.000000,-11.000000,4.000000,3.000000,2.000000,2.000000,-5.000000
1304951.034148,5.000000,7.000000,1.000000,4.000000,2.000000,2.000000,-1.000000,-1.000000
1304951.056775,-4.000000,-2.000000,-5.000000,-12.000000,-10.000000,2.000000,-1.000000,1.000000
1304951.056788,5.000000,-64.000000,1.000000,-4.000000,-6.000000,-6.000000,0.000000,-3.000000
1304951.071729,0.000000,-13.000000,-5.000000,2.000000,3.000000,3.000000,-1.000000,0.000000
1304951.071765,3.000000,9.000000,-4.000000,-3.000000,-1.000000,-1.000000,0.000000,0.000000
1304951.073056,0.000000,-13.000000,-6.000000,-5.000000,1.000000,-2.000000,2.000000,1.000000
1304951.073065,0.000000,-6.000000,0.000000,3.000000,1.000000,-2.000000,-2.000000,-1.000000
1304951.087618,3.000000,-3.000000,-2.000000,2.000000,1.000000,-2.000000,-1.000000,0.000000
1304951.087632,-5.000000,-8.000000,0.000000,-8.000000,-5.000000,-3.000000,-1.000000,-2.000000
1304951.088750,1.000000,2.000000,0.000000,-1.000000,0.000000,2.000000,1.000000,0.000000
1304951.088759,-2.000000,-6.000000,-6.000000,7.000000,2.000000,-4.000000,-4.000000,-2.000000
1304951.094578,-4.000000,10.000000,6.000000,-5.000000,-2.000000,1.000000,0.000000,3.000000
1304951.094592,-3.000000,-3.000000,-4.000000,3.000000,2.000000,1.000000,-1.000000,0.000000
1304951.109200,-6.000000,-1.000000,3.000000,-1.000000,-2.000000,0.000000,2.000000,3.000000
1304951.109222,2.000000,1.000000,4.000000,0.000000,3.000000,0.000000,-2.000000,-2.000000
1304951.116617,-5.000000,3.000000,-6.000000,-3.000000,0.000000,-4.000000,-4.000000,-1.000000
1304951.116637,-6.000000,-30.000000,0.000000,6.000000,1.000000,1.000000,-2.000000,-2.000000
1304951.131897,3.000000,5.000000,-5.000000,0.000000,1.000000,1.000000,-1.000000,-2.000000
1304951.131909,-5.000000,-9.000000,-6.000000,4.000000,-1.000000,1.000000,-2.000000,-2.000000
1304951.154311,-3.000000,-4.000000,-13.000000,-9.000000,-4.000000,2.000000,0.000000,-1.000000
1304951.154321,-4.000000,-11.000000,-9.000000,6.000000,2.000000,-4.000000,1.000000,-3.000000
1304951.191880,-3.000000,-26.000000,-15.000000,4.000000,3.000000,0.000000,0.000000,-1.000000
1304951.191891,1.000000,8.000000,-3.000000,5.000000,5.000000,2.000000,1.000000,-1.000000
1304951.199723,2.000000,0.000000,4.000000,-12.000000,-13.000000,0.000000,1.000000,1.000000
1304951.199824,-4.000000,-14.000000,-4.000000,2.000000,1.000000,-2.000000,-1.000000,-3.000000
1304951.206619,-3.000000,9.000000,1.000000,-5.000000,0.000000,0.000000,-3.000000,0.000000
1304951.206642,-4.000000,-3.000000,7.000000,1.000000,0.000000,-1.000000,0.000000,-3.000000
1304951.206979,-4.000000,5.000000,6.000000,0.000000,-1.000000,-5.000000,-1.000000,-2.000000
1304951.207002,-1.000000,-1.000000,10.000000,0.000000,0.000000,-4.000000,-2.000000,0.000000
1304951.208346,-7.000000,-63.000000,4.000000,1.000000,-6.000000,-5.000000,-3.000000,3.000000
1304951.208363,1.000000,92.000000,10.000000,-7.000000,-1.000000,1.000000,-1.000000,1.000000
1304951.209316,-5.000000,-2.000000,-2.000000,-10.000000,-3.000000,0.000000,-1.000000,2.000000
1304951.209325,-6.000000,-5.000000,1.000000,-1.000000,-1.000000,2.000000,1.000000,3.000000
1304951.214057,-1.000000,-7.000000,-4.000000,6.000000,5.000000,-5.000000,-2.000000,0.000000
1304951.214065,2.000000,-6.000000,7.000000,-5.000000,-11.000000,1.000000,1.000000,-4.000000
1304951.229516,9.000000,-15.000000,-6.000000,-6.000000,-2.000000,3.000000,-2.000000,0.000000
1304951.229527,2.000000,3.000000,0.000000,2.000000,3.000000,3.000000,-4.000000,-3.000000
1304951.244314,7.000000,-2.000000,-4.000000,3.000000,-4.000000,-5.000000,-1.000000,-6.000000
1304951.244324,-6.000000,-38.000000,-5.000000,-3.000000,-2.000000,0.000000,2.000000,0.000000
1304951.252565,14.000000,57.000000,13.000000,-3.000000,-9.000000,-1.000000,-3.000000,0.000000
1304951.252575,5.000000,-1.000000,-1.000000,1.000000,-2.000000,1.000000,-3.000000,1.000000
1304951.258940,-1.000000,-3.000000,-5.000000,-1.000000,-4.000000,0.000000,-3.000000,-2.000000
1304951.258959,3.000000,-6.000000,-1.000000,1.000000,-1.000000,0.000000,-4.000000,1.000000
1304951.266515,-3.000000,-8.000000,-6.000000,2.000000,-1.000000,2.000000,-2.000000,-1.000000
1304951.266524,1.000000,2.000000,-2.000000,5.000000,1.000000,-2.000000,-1.000000,-1.000000
1304951.289275,1.000000,-8.000000,-11.000000,-1.000000,-4.000000,-2.000000,-1.000000,-3.000000
1304951.289286,3.000000,1.000000,-6.000000,-3.000000,1.000000,-1.000000,-2.000000,-1.000000
1304951.349453,-2.000000,-18.000000,1.000000,0.000000,0.000000,-3.000000,0.000000,-4.000000
1304951.349538,-7.000000,-4.000000,-4.000000,1.000000,2.000000,1.000000,-1.000000,1.000000
1304951.349845,-1.000000,1.000000,0.000000,-1.000000,-1.000000,1.000000,1.000000,-5.000000
1304951.349864,-3.000000,-14.000000,-2.000000,-1.000000,1.000000,-2.000000,-3.000000,-3.000000
1304951.350808,-5.000000,-67.000000,-10.000000,2.000000,-2.000000,-2.000000,-2.000000,0.000000
1304951.350836,1.000000,114.000000,13.000000,-5.000000,-5.000000,-3.000000,0.000000,-1.000000
1304951.351446,-3.000000,9.000000,2.000000,5.000000,6.000000,1.000000,-1.000000,-2.000000
1304951.351454,5.000000,-3.000000,-7.000000,-6.000000,-13.000000,-7.000000,-1.000000,3.000000
1304951.353007,-8.000000,-20.000000,-3.000000,5.000000,3.000000,3.000000,2.000000,1.000000
1304951.353025,-6.000000,-14.000000,-2.000000,-5.000000,3.000000,-1.000000,-2.000000,-2.000000
1304951.364659,-8.000000,-23.000000,-19.000000,-4.000000,-3.000000,0.000000,-3.000000,-4.000000
1304951.364673,-2.000000,-3.000000,4.000000,3.000000,3.000000,-1.000000,2.000000,3.000000
1304951.379866,-4.000000,2.000000,-5.000000,-1.000000,-1.000000,-1.000000,0.000000,-1.000000
1304951.379880,-4.000000,10.000000,9.000000,2.000000,-1.000000,3.000000,-3.000000,-1.000000
1304951.386949,-5.000000,0.000000,5.000000,-3.000000,2.000000,2.000000,-2.000000,-2.000000
1304951.386972,-3.000000,-2.000000,6.000000,0.000000,-3.000000,-2.000000,0.000000,-2.000000
1304951.424391,1.000000,0.000000,4.000000,3.000000,-4.000000,0.000000,2.000000,2.000000
1304951.424402,1.000000,7.000000,7.000000,-12.000000,-7.000000,2.000000,0.000000,2.000000
1304951.432014,4.000000,-9.000000,5.000000,0.000000,0.000000,-2.000000,-1.000000,1.000000
1304951.432024,-2.000000,7.000000,-1.000000,4.000000,1.000000,-2.000000,-2.000000,-4.000000
1304951.469340,-2.000000,17.000000,8.000000,1.000000,-2.000000,-6.000000,1.000000,-1.000000
1304951.469353,1.000000,-4.000000,-3.000000,-12.000000,-6.000000,-4.000000,1.000000,-1.000000
1304951.469964,-2.000000,-7.000000,1.000000,5.000000,-1.000000,1.000000,-2.000000,-3.000000
1304951.469973,-5.000000,3.000000,0.000000,-5.000000,0.000000,6.000000,-1.000000,4.000000
1304951.470822,2.000000,-14.000000,-5.000000,-5.000000,2.000000,0.000000,0.000000,3.000000
1304951.470830,3.000000,-3.000000,-7.000000,4.000000,-3.000000,0.000000,-2.000000,0.000000
1304951.471527,-10.000000,-9.000000,-7.000000,5.000000,3.000000,-4.000000,0.000000,-3.000000
1304951.471535,8.000000,113.000000,1.000000,-14.000000,-4.000000,3.000000,-1.000000,-3.000000
1304951.472110,-3.000000,-4.000000,-3.000000,0.000000,5.000000,2.000000,0.000000,0.000000
1304951.472118,-2.000000,-8.000000,-6.000000,1.000000,-2.000000,-3.000000,-2.000000,-3.000000
1304951.472911,-8.000000,19.000000,-4.000000,0.000000,1.000000,-1.000000,-1.000000,-4.000000
1304951.472919,-3.000000,-4.000000,-16.000000,-1.000000,-5.000000,2.000000,1.000000,-1.000000
1304951.484459,0.000000,2.000000,0.000000,-5.000000,1.000000,2.000000,2.000000,-4.000000
1304951.484476,-2.000000,-2.000000,9.000000,3.000000,4.000000,-2.000000,-1.000000,-1.000000
1304951.491792,8.000000,-7.000000,13.000000,-3.000000,-4.000000,-3.000000,0.000000,0.000000
1304951.491809,0.000000,2.000000,15.000000,-6.000000,-3.000000,0.000000,0.000000,-3.000000
1304951.506985,20.000000,24.000000,24.000000,-5.000000,-7.000000,2.000000,0.000000,5.000000
1304951.506999,-5.000000,-49.000000,-4.000000,3.000000,-1.000000,-4.000000,2.000000,-1.000000
1304951.536893,1.000000,18.000000,7.000000,2.000000,0.000000,-1.000000,0.000000,0.000000
1304951.536911,-5.000000,-5.000000,-3.000000,1.000000,1.000000,0.000000,-5.000000,-3.000000
1304951.543980,-2.000000,-25.000000,-3.000000,4.000000,-1.000000,1.000000,-1.000000,-1.000000
1304951.543990,-3.000000,1.000000,2.000000,2.000000,5.000000,1.000000,-3.000000,2.000000
1304951.582344,0.000000,0.000000,2.000000,-19.000000,-8.000000,-1.000000,-1.000000,2.000000
1304951.582357,-4.000000,6.000000,-4.000000,-1.000000,2.000000,-2.000000,-2.000000,1.000000
1304951.583076,-5.000000,-6.000000,-2.000000,3.000000,-1.000000,0.000000,0.000000,1.000000
1304951.583135,-6.000000,-8.000000,-9.000000,-2.000000,0.000000,-6.000000,-2.000000,-1.000000
1304951.584148,-9.000000,3.000000,-3.000000,1.000000,-1.000000,-3.000000,-3.000000,-3.000000
1304951.584168,-9.000000,-2.000000,-3.000000,-4.000000,-3.000000,1.000000,-3.000000,-2.000000
1304951.584730,-3.000000,-5.000000,1.000000,2.000000,1.000000,-5.000000,-1.000000,-2.000000
1304951.584738,2.000000,-2.000000,-6.000000,-4.000000,-9.000000,-7.000000,-1.000000,-1.000000
1304951.585520,-5.000000,-13.000000,-5.000000,4.000000,0.000000,4.000000,1.000000,-3.000000
1304951.585529,-5.000000,-41.000000,-11.000000,4.000000,-1.000000,1.000000,3.000000,-3.000000
1304951.604378,-2.000000,-5.000000,-5.000000,0.000000,-1.000000,-1.000000,-1.000000,1.000000
1304951.604391,-10.000000,-32.000000,-7.000000,-1.000000,0.000000,-1.000000,-1.000000,0.000000
1304951.604771,-16.000000,-20.000000,-30.000000,-5.000000,0.000000,-4.000000,0.000000,-1.000000
1304951.604780,7.000000,36.000000,25.000000,5.000000,1.000000,1.000000,-1.000000,-4.000000
1304951.611900,-1.000000,-4.000000,0.000000,-1.000000,-3.000000,0.000000,0.000000,2.000000
1304951.611915,5.000000,-10.000000,1.000000,3.000000,1.000000,0.000000,-2.000000,1.000000
1304951.619121,0.000000,1.000000,-3.000000,-5.000000,-5.000000,-2.000000,-4.000000,-2.000000
1304951.619132,-3.000000,-6.000000,0.000000,3.000000,0.000000,2.000000,-2.000000,-5.000000
1304951.641829,-1.000000,2.000000,-2.000000,-2.000000,1.000000,-1.000000,-4.000000,1.000000
1304951.641843,-6.000000,-11.000000,-11.000000,-1.000000,1.000000,-2.000000,0.000000,0.000000
1304951.649180,-4.000000,-12.000000,-8.000000,4.000000,-1.000000,0.000000,-3.000000,-4.000000
1304951.649209,-10.000000,5.000000,-1.000000,2.000000,2.000000,0.000000,-4.000000,5.000000
1304951.664432,-5.000000,-12.000000,-7.000000,-6.000000,-6.000000,-4.000000,0.000000,-1.000000
1304951.664464,-8.000000,3.000000,0.000000,-3.000000,-2.000000,0.000000,-2.000000,-2.000000
1304951.687131,3.000000,3.000000,0.000000,5.000000,0.000000,0.000000,3.000000,2.000000
1304951.687150,3.000000,2.000000,-4.000000,1.000000,-6.000000,-4.000000,2.000000,-1.000000
1304951.702094,13.000000,3.000000,-8.000000,-1.000000,5.000000,-5.000000,-2.000000,0.000000
1304951.702103,-6.000000,-11.000000,-5.000000,-2.000000,-4.000000,1.000000,0.000000,0.000000
1304951.703416,1.000000,-2.000000,1.000000,-17.000000,-8.000000,-1.000000,-1.000000,-1.000000
1304951.703425,4.000000,-1.000000,8.000000,-1.000000,0.000000,2.000000,-1.000000,-2.000000
1304951.704125,5.000000,6.000000,10.000000,5.000000,-4.000000,1.000000,-2.000000,0.000000
1304951.704133,4.000000,15.000000,13.000000,7.000000,4.000000,-1.000000,-1.000000,-2.000000
1304951.705616,-5.000000,-13.000000,-3.000000,-17.000000,-5.000000,-3.000000,1.000000,-4.000000
1304951.705625,2.000000,-2.000000,1.000000,4.000000,0.000000,-2.000000,1.000000,0.000000
1304951.709157,2.000000,11.000000,2.000000,7.000000,2.000000,0.000000,-1.000000,-2.000000
1304951.709167,2.000000,12.000000,-8.000000,-3.000000,1.000000,0.000000,0.000000,0.000000
1304951.724938,8.000000,107.000000,9.000000,-1.000000,-5.000000,-1.000000,-3.000000,-6.000000
1304951.724948,-7.000000,-4.000000,2.000000,2.000000,2.000000,-1.000000,-2.000000,-3.000000
1304951.731937,-9.000000,-8.000000,-3.000000,-1.000000,2.000000,-2.000000,-2.000000,1.000000
1304951.731958,-3.000000,-18.000000,-3.000000,-4.000000,-7.000000,-2.000000,-1.000000,1.000000
1304951.746884,-8.000000,1.000000,7.000000,-2.000000,-3.000000,0.000000,-5.000000,-4.000000
1304951.746895,0.000000,-23.000000,-24.000000,0.000000,2.000000,2.000000,-1.000000,2.000000
1304951.761731,-9.000000,-71.000000,-19.000000,-1.000000,1.000000,3.000000,-3.000000,-2.000000
1304951.761742,1.000000,53.000000,-3.000000,2.000000,-6.000000,0.000000,3.000000,-1.000000
1304951.776660,-1.000000,-5.000000,-7.000000,-1.000000,2.000000,0.000000,-2.000000,-2.000000
1304951.776670,3.000000,0.000000,-4.000000,-1.000000,1.000000,-3.000000,-2.000000,2.000000
1304951.784239,2.000000,-4.000000,-3.000000,-1.000000,3.000000,3.000000,0.000000,-3.000000
1304951.784251,-4.000000,-14.000000,-4.000000,2.000000,-5.000000,-6.000000,-4.000000,-3.000000
1304951.785556,1.000000,14.000000,10.000000,-1.000000,-5.000000,0.000000,1.000000,0.000000
1304951.785567,9.000000,9.000000,8.000000,-9.000000,-2.000000,-1.000000,-1.000000,1.000000
1304951.791727,0.000000,1.000000,2.000000,3.000000,2.000000,0.000000,-2.000000,1.000000
1304951.791739,-1.000000,-26.000000,-1.000000,-1.000000,5.000000,-3.000000,1.000000,-3.000000
1304951.799917,-3.000000,2.000000,11.000000,-4.000000,-2.000000,-2.000000,1.000000,1.000000
1304951.799928,-2.000000,-14.000000,3.000000,0.000000,1.000000,0.000000,-3.000000,-1.000000
1304951.806901,-4.000000,-11.000000,-9.000000,-1.000000,-5.000000,-5.000000,-5.000000,-3.000000
1304951.806918,1.000000,11.000000,1.000000,0.000000,-2.000000,-2.000000,1.000000,-2.000000
1304951.822249,-1.000000,2.000000,-1.000000,-7.000000,-3.000000,2.000000,0.000000,1.000000
1304951.822258,-11.000000,-4.000000,1.000000,-3.000000,-3.000000,-3.000000,1.000000,-2.000000
1304951.829401,-9.000000,21.000000,12.000000,-3.000000,-3.000000,-2.000000,-1.000000,1.000000
1304951.829411,-12.000000,-54.000000,-16.000000,-2.000000,-4.000000,-4.000000,0.000000,-3.000000
1304951.844964,-5.000000,-11.000000,-7.000000,1.000000,-2.000000,2.000000,-1.000000,-2.000000
1304951.844973,-4.000000,-10.000000,-8.000000,-2.000000,0.000000,-1.000000,-1.000000,-2.000000
1304951.859150,4.000000,-12.000000,-5.000000,-5.000000,-2.000000,3.000000,-3.000000,-1.000000
1304951.859161,-1.000000,-4.000000,-4.000000,-5.000000,-5.000000,0.000000,-2.000000,2.000000
1304951.904274,6.000000,-5.000000,4.000000,2.000000,2.000000,1.000000,0.000000,2.000000
1304951.904295,2.000000,-1.000000,-9.000000,3.000000,6.000000,-5.000000,-2.000000,1.000000
1304951.919201,1.000000,4.000000,3.000000,-7.000000,-1.000000,1.000000,-1.000000,-1.000000
1304951.919211,0.000000,-4.000000,-7.000000,-2.000000,1.000000,1.000000,0.000000,0.000000
1304951.964185,6.000000,-6.000000,0.000000,0.000000,-1.000000,-3.000000,-2.000000,1.000000
1304951.964197,8.000000,42.000000,13.000000,2.000000,2.000000,3.000000,0.000000,-2.000000
1304951.964865,3.000000,-1.000000,0.000000,2.000000,-2.000000,-5.000000,-3.000000,-4.000000
1304951.964873,3.000000,-3.000000,-4.000000,-11.000000,-6.000000,1.000000,0.000000,-3.000000
1304951.965796,4.000000,-2.000000,0.000000,1.000000,3.000000,-1.000000,0.000000,2.000000
1304951.965925,2.000000,-10.000000,-2.000000,1.000000,-1.000000,-2.000000,-3.000000,-1.000000
1304951.968224,-2.000000,-2.000000,-4.000000,-4.000000,-3.000000,0.000000,-1.000000,-1.000000
1304951.968234,0.000000,5.000000,-1.000000,-1.000000,3.000000,-1.000000,-3.000000,-2.000000
1304951.979548,-8.000000,-16.000000,-8.000000,-3.000000,-4.000000,0.000000,0.000000,-4.000000
1304951.979559,-11.000000,6.000000,-4.000000,-4.000000,-3.000000,0.000000,0.000000,3.000000
1304952.002043,-11.000000,-10.000000,-3.000000,4.000000,3.000000,-4.000000,1.000000,-2.000000
1304952.002060,-4.000000,-43.000000,-5.000000,-8.000000,-2.000000,2.000000,1.000000,2.000000
1304952.009660,2.000000,40.000000,10.000000,1.000000,3.000000,0.000000,0.000000,6.000000
1304952.009677,-6.000000,-1.000000,-2.000000,0.000000,0.000000,2.000000,-3.000000,0.000000
1304952.039157,-4.000000,-19.000000,-6.000000,1.000000,0.000000,-1.000000,-3.000000,-4.000000
1304952.039170,1.000000,8.000000,2.000000,-5.000000,0.000000,2.000000,0.000000,1.000000
1304952.046565,-6.000000,-20.000000,-4.000000,5.000000,5.000000,2.000000,-1.000000,-2.000000
1304952.046574,-1.000000,-7.000000,3.000000,-10.000000,-3.000000,2.000000,6.000000,3.000000
1304952.061873,10.000000,11.000000,-2.000000,3.000000,4.000000,0.000000,3.000000,1.000000
1304952.061884,9.000000,-3.000000,-3.000000,1.000000,-2.000000,-2.000000,0.000000,-1.000000
1304952.076875,5.000000,-2.000000,3.000000,-3.000000,1.000000,-3.000000,0.000000,-4.000000
1304952.076887,13.000000,8.000000,7.000000,0.000000,-1.000000,0.000000,2.000000,4.000000
1304952.091594,-11.000000,-3.000000,4.000000,3.000000,-2.000000,-2.000000,-1.000000,-1.000000
1304952.091604,-8.000000,-5.000000,1.000000,4.000000,-2.000000,0.000000,-1.000000,-3.000000
1304952.121853,2.000000,-10.000000,3.000000,-3.000000,2.000000,0.000000,-2.000000,-3.000000
1304952.121864,1.000000,2.000000,5.000000,-2.000000,2.000000,-3.000000,-1.000000,-1.000000
1304952.136736,-3.000000,-1.000000,1.000000,3.000000,-4.000000,1.000000,-2.000000,-2.000000
1304952.136749,-6.000000,3.000000,-5.000000,7.000000,3.000000,1.000000,-1.000000,-3.000000
1304952.159426,3.000000,-3.000000,-3.000000,9.000000,4.000000,-5.000000,0.000000,-4.000000
1304952.159438,0.000000,2.000000,-4.000000,-2.000000,0.000000,-1.000000,1.000000,-4.000000
1304952.160205,3.000000,4.000000,5.000000,-4.000000,0.000000,-4.000000,0.000000,-1.000000
1304952.160213,0.000000,4.000000,-2.000000,-1.000000,1.000000,-5.000000,-2.000000,-2.000000
1304952.162405,-4.000000,16.000000,3.000000,3.000000,-1.000000,-3.000000,-3.000000,1.000000
1304952.162416,-6.000000,4.000000,-4.000000,-3.000000,-6.000000,-1.000000,-1.000000,-1.000000
1304952.182042,6.000000,-2.000000,-1.000000,0.000000,-2.000000,-6.000000,1.000000,-3.000000
1304952.182067,2.000000,2.000000,9.000000,-13.000000,-7.000000,-1.000000,-1.000000,-2.000000
1304952.197023,-8.000000,-11.000000,5.000000,9.000000,3.000000,-1.000000,-3.000000,-3.000000
1304952.197037,-5.000000,0.000000,1.000000,-2.000000,1.000000,-1.000000,1.000000,-1.000000
1304952.197904,-1.000000,6.000000,2.000000,1.000000,-2.000000,2.000000,-3.000000,-4.000000
1304952.197921,-4.000000,-5.000000,1.000000,5.000000,-1.000000,0.000000,1.000000,0.000000
1304952.199256,4.000000,-15.000000,-10.000000,1.000000,0.000000,-1.000000,-1.000000,-3.000000
1304952.199284,-6.000000,12.000000,4.000000,-2.000000,-1.000000,-1.000000,-3.000000,2.000000
1304952.219582,-1.000000,-1.000000,-2.000000,-5.000000,0.000000,-1.000000,0.000000,2.000000
1304952.219597,-3.000000,-3.000000,-10.000000,-1.000000,4.000000,1.000000,-1.000000,0.000000
1304952.241670,3.000000,21.000000,2.000000,2.000000,-1.000000,-5.000000,1.000000,1.000000
1304952.241681,1.000000,-10.000000,-11.000000,1.000000,-2.000000,0.000000,0.000000,-1.000000
1304952.256878,-5.000000,2.000000,-1.000000,-1.000000,-1.000000,4.000000,2.000000,4.000000
1304952.256889,-6.000000,-4.000000,-6.000000,-4.000000,-1.000000,-1.000000,-3.000000,-4.000000
1304952.264790,2.000000,-3.000000,1.000000,3.000000,1.000000,-5.000000,1.000000,-3.000000
1304952.264798,-1.000000,-27.000000,-6.000000,6.000000,0.000000,-3.000000,-5.000000,-4.000000
1304952.265224,-5.000000,0.000000,2.000000,-1.000000,1.000000,0.000000,-1.000000,-3.000000
1304952.265243,-1.000000,4.000000,0.000000,2.000000,0.000000,-4.000000,-1.000000,-1.000000
1304952.266826,-2.000000,-4.000000,-5.000000,-7.000000,2.000000,-2.000000,1.000000,0.000000
1304952.266836,-1.000000,-1.000000,-7.000000,-3.000000,-1.000000,1.000000,-2.000000,-2.000000
1304952.271760,-6.000000,-23.000000,-7.000000,7.000000,-1.000000,-7.000000,-1.000000,-2.000000
1304952.271772,1.000000,2.000000,-1.000000,-9.000000,-2.000000,5.000000,-1.000000,3.000000
1304952.279792,-3.000000,3.000000,1.000000,0.000000,1.000000,-1.000000,-3.000000,0.000000
1304952.279802,0.000000,-1.000000,2.000000,5.000000,-2.000000,-4.000000,-2.000000,-4.000000
1304952.294385,2.000000,1.000000,3.000000,-2.000000,0.000000,1.000000,-3.000000,-1.000000
1304952.294396,-1.000000,2.000000,2.000000,-1.000000,1.000000,0.000000,1.000000,-2.000000
1304952.302539,-4.000000,-15.000000,-6.000000,0.000000,0.000000,-3.000000,0.000000,1.000000
1304952.302551,-2.000000,-3.000000,-1.000000,3.000000,0.000000,0.000000,2.000000,-3.000000
1304952.309317,-9.000000,-11.000000,-13.000000,-5.000000,-2.000000,0.000000,-3.000000,-5.000000
1304952.309328,3.000000,4.000000,0.000000,-7.000000,-3.000000,-1.000000,-1.000000,2.000000
1304952.324015,-1.000000,-5.000000,8.000000,-3.000000,-5.000000,0.000000,1.000000,-1.000000
1304952.324025,-8.000000,-1.000000,10.000000,5.000000,0.000000,-1.000000,1.000000,1.000000
1304952.339157,-4.000000,4.000000,-8.000000,-1.000000,2.000000,-2.000000,-4.000000,-1.000000
1304952.339186,15.000000,51.000000,18.000000,5.000000,1.000000,0.000000,2.000000,2.000000
1304952.361973,-1.000000,4.000000,0.000000,-1.000000,3.000000,5.000000,0.000000,-1.000000
1304952.361986,0.000000,-3.000000,-5.000000,-3.000000,-7.000000,-1.000000,3.000000,1.000000
1304952.369644,-7.000000,6.000000,1.000000,2.000000,2.000000,-1.000000,2.000000,-3.000000
1304952.369656,7.000000,-20.000000,-15.000000,0.000000,2.000000,3.000000,0.000000,0.000000
1304952.400205,0.000000,0.000000,1.000000,3.000000,5.000000,-3.000000,-2.000000,-2.000000
1304952.400627,-6.000000,1.000000,-1.000000,1.000000,-2.000000,0.000000,2.000000,-2.000000
1304952.401027,-3.000000,-2.000000,0.000000,-3.000000,-2.000000,0.000000,-1.000000,0.000000
1304952.401065,-7.000000,-2.000000,1.000000,4.000000,-1.000000,-5.000000,-1.000000,-1.000000
1304952.402095,1.000000,-3.000000,-3.000000,-6.000000,-4.000000,-2.000000,0.000000,2.000000
1304952.402117,-6.000000,-83.000000,-14.000000,-7.000000,-1.000000,-4.000000,-4.000000,-3.000000
1304952.403370,4.000000,63.000000,22.000000,8.000000,4.000000,2.000000,0.000000,1.000000
1304952.403394,-3.000000,-12.000000,-1.000000,5.000000,-2.000000,-1.000000,-1.000000,2.000000
1304952.404245,-3.000000,-27.000000,-12.000000,-3.000000,1.000000,-1.000000,0.000000,-2.000000
1304952.404268,-1.000000,-5.000000,-1.000000,-1.000000,1.000000,-5.000000,-3.000000,-1.000000
1304952.415009,-1.000000,26.000000,5.000000,-3.000000,1.000000,-2.000000,-2.000000,-2.000000
1304952.415034,1.000000,-3.000000,-2.000000,0.000000,-1.000000,0.000000,-1.000000,1.000000
1304952.423344,1.000000,-11.000000,-3.000000,-10.000000,-4.000000,-2.000000,0.000000,-1.000000
1304952.423367,-3.000000,1.000000,0.000000,0.000000,1.000000,0.000000,-4.000000,0.000000
1304952.436887,6.000000,30.000000,10.000000,3.000000,1.000000,-4.000000,-3.000000,-3.000000
1304952.436916,-3.000000,-7.000000,-3.000000,-2.000000,0.000000,1.000000,-1.000000,-3.000000
1304952.444368,13.000000,-8.000000,-4.000000,2.000000,0.000000,-1.000000,2.000000,3.000000
1304952.444382,1.000000,7.000000,-6.000000,0.000000,3.000000,4.000000,-2.000000,-2.000000
1304952.459535,0.000000,7.000000,0.000000,-1.000000,-2.000000,-1.000000,-2.000000,-2.000000
1304952.459557,-6.000000,-17.000000,-4.000000,1.000000,0.000000,-3.000000,2.000000,-1.000000
1304952.481972,-4.000000,0.000000,-4.000000,9.000000,5.000000,-3.000000,-4.000000,-3.000000
1304952.481987,4.000000,15.000000,6.000000,-3.000000,-5.000000,-1.000000,2.000000,-3.000000
1304952.496909,-12.000000,-45.000000,-19.000000,-1.000000,-1.000000,-5.000000,1.000000,-3.000000
1304952.496939,6.000000,23.000000,4.000000,2.000000,2.000000,3.000000,-3.000000,-4.000000
1304952.519136,0.000000,16.000000,4.000000,3.000000,-1.000000,-3.000000,-1.000000,1.000000
1304952.519153,0.000000,-2.000000,5.000000,5.000000,3.000000,-1.000000,-3.000000,0.000000
1304952.519682,7.000000,-1.000000,0.000000,-11.000000,-8.000000,1.000000,1.000000,-3.000000
1304952.519727,-3.000000,-15.000000,-4.000000,-3.000000,-1.000000,-1.000000,-4.000000,2.000000
1304952.520895,-5.000000,-1.000000,-1.000000,-6.000000,-1.000000,-1.000000,-2.000000,-1.000000
1304952.520926,-3.000000,4.000000,-1.000000,0.000000,2.000000,-4.000000,1.000000,-2.000000
1304952.521447,-4.000000,-20.000000,-11.000000,-2.000000,2.000000,-1.000000,1.000000,2.000000
1304952.521465,-1.000000,-1.000000,1.000000,6.000000,2.000000,0.000000,0.000000,-2.000000
1304952.523052,-4.000000,-15.000000,-19.000000,-2.000000,-9.000000,2.000000,-1.000000,-2.000000
1304952.523061,-1.000000,8.000000,-1.000000,0.000000,3.000000,0.000000,0.000000,3.000000
1304952.534133,0.000000,52.000000,-2.000000,-1.000000,-6.000000,-5.000000,1.000000,-1.000000
1304952.534162,2.000000,3.000000,12.000000,0.000000,3.000000,-1.000000,-3.000000,-3.000000
1304952.557404,1.000000,3.000000,-5.000000,-1.000000,2.000000,0.000000,-2.000000,-1.000000
1304952.557413,-6.000000,-21.000000,-4.000000,3.000000,1.000000,1.000000,0.000000,-1.000000
1304952.557958,-5.000000,-2.000000,0.000000,-2.000000,-2.000000,2.000000,-1.000000,-2.000000
1304952.557966,1.000000,7.000000,1.000000,-5.000000,-3.000000,1.000000,1.000000,1.000000
1304952.564489,-4.000000,5.000000,6.000000,0.000000,0.000000,-4.000000,-1.000000,-3.000000
1304952.564499,-3.000000,3.000000,-1.000000,-2.000000,-6.000000,4.000000,1.000000,-1.000000
1304952.594528,-6.000000,-6.000000,-4.000000,13.000000,1.000000,-4.000000,-3.000000,-1.000000
1304952.594539,5.000000,32.000000,13.000000,-8.000000,-6.000000,-1.000000,1.000000,0.000000
1304952.631697,-11.000000,-25.000000,-9.000000,-2.000000,-1.000000,0.000000,0.000000,-2.000000
1304952.631708,12.000000,20.000000,8.000000,4.000000,3.000000,-1.000000,0.000000,-2.000000
1304952.639212,1.000000,1.000000,-1.000000,-6.000000,0.000000,3.000000,-1.000000,-2.000000
1304952.639221,6.000000,-3.000000,-2.000000,5.000000,0.000000,2.000000,-4.000000,-2.000000
1304952.654277,-1.000000,3.000000,0.000000,0.000000,3.000000,0.000000,0.000000,-1.000000
1304952.654287,-4.000000,-13.000000,5.000000,1.000000,-2.000000,0.000000,-2.000000,0.000000
1304952.676543,-4.000000,-2.000000,-7.000000,-3.000000,-5.000000,-3.000000,1.000000,-3.000000
1304952.676556,-7.000000,-13.000000,-9.000000,-3.000000,-1.000000,-1.000000,-1.000000,1.000000
1304952.677561,-11.000000,-2.000000,-11.000000,-4.000000,2.000000,1.000000,0.000000,0.000000
1304952.677569,-10.000000,25.000000,8.000000,5.000000,-7.000000,1.000000,-2.000000,-2.000000
1304952.678174,-13.000000,-20.000000,-3.000000,4.000000,2.000000,1.000000,1.000000,0.000000
1304952.678201,-4.000000,-5.000000,-2.000000,2.000000,0.000000,-4.000000,0.000000,-1.000000
1304952.679573,8.000000,0.000000,5.000000,0.000000,5.000000,-1.000000,0.000000,0.000000
1304952.679581,10.000000,6.000000,1.000000,-2.000000,-8.000000,-1.000000,-1.000000,-1.000000
1304952.680720,1.000000,-1.000000,3.000000,-4.000000,1.000000,-1.000000,2.000000,2.000000
1304952.680729,-4.000000,7.000000,6.000000,4.000000,-1.000000,-1.000000,0.000000,0.000000
1304952.691929,12.000000,127.000000,2.000000,-6.000000,-1.000000,-3.000000,0.000000,0.000000
1304952.691939,11.000000,-11.000000,-7.000000,2.000000,1.000000,0.000000,-2.000000,0.000000
1304952.699633,5.000000,-1.000000,3.000000,5.000000,1.000000,3.000000,-3.000000,-5.000000
1304952.699653,4.000000,-3.000000,-2.000000,-1.000000,0.000000,1.000000,-1.000000,-2.000000
1304952.751820,1.000000,-2.000000,1.000000,-3.000000,-4.000000,-1.000000,-3.000000,-2.000000
1304952.751845,-3.000000,-10.000000,-9.000000,0.000000,0.000000,-1.000000,-2.000000,-3.000000
1304952.758944,10.000000,39.000000,10.000000,1.000000,5.000000,2.000000,0.000000,3.000000
1304952.758959,0.000000,-2.000000,7.000000,1.000000,-2.000000,-2.000000,1.000000,-3.000000
1304952.760183,-2.000000,-8.000000,-4.000000,-2.000000,1.000000,-2.000000,-3.000000,1.000000
1304952.760196,5.000000,-2.000000,5.000000,11.000000,3.000000,-5.000000,-3.000000,0.000000
1304952.760955,9.000000,1.000000,-3.000000,-20.000000,-9.000000,2.000000,6.000000,5.000000
1304952.760969,11.000000,34.000000,10.000000,2.000000,-2.000000,-2.000000,-2.000000,-1.000000
1304952.763189,0.000000,-14.000000,3.000000,1.000000,-6.000000,-3.000000,2.000000,1.000000
1304952.763201,-9.000000,11.000000,-3.000000,3.000000,4.000000,1.000000,-4.000000,-1.000000
1304952.774587,-4.000000,1.000000,2.000000,-6.000000,-8.000000,-7.000000,-1.000000,-4.000000
1304952.774600,-7.000000,-12.000000,-8.000000,3.000000,3.000000,-1.000000,-3.000000,-5.000000
1304952.797503,6.000000,0.000000,-6.000000,0.000000,-1.000000,0.000000,3.000000,-1.000000
1304952.797521,2.000000,-9.000000,1.000000,-5.000000,-5.000000,1.000000,-2.000000,-4.000000
1304952.798009,0.000000,36.000000,2.000000,5.000000,0.000000,-3.000000,-3.000000,-3.000000
1304952.798020,-3.000000,-22.000000,-7.000000,-5.000000,-5.000000,0.000000,-2.000000,-3.000000
1304952.811845,-4.000000,6.000000,1.000000,3.000000,-3.000000,1.000000,0.000000,-3.000000
1304952.811856,0.000000,-3.000000,3.000000,3.000000,1.000000,-3.000000,-3.000000,-1.000000
1304952.819821,2.000000,-9.000000,0.000000,-1.000000,2.000000,2.000000,0.000000,-3.000000
1304952.819873,2.000000,9.000000,-1.000000,2.000000,-3.000000,-2.000000,-2.000000,0.000000
1304952.841769,2.000000,-3.000000,-3.000000,2.000000,-2.000000,-4.000000,-3.000000,-1.000000
1304952.841779,-3.000000,2.000000,-1.000000,-3.000000,4.000000,0.000000,0.000000,-1.000000
1304952.856784,-4.000000,-18.000000,-13.000000,-5.000000,-5.000000,-5.000000,1.000000,-3.000000
1304952.856795,6.000000,7.000000,2.000000,-1.000000,-1.000000,-5.000000,0.000000,2.000000
1304952.871839,-2.000000,0.000000,-4.000000,2.000000,0.000000,-1.000000,-1.000000,-1.000000
1304952.871851,-7.000000,-31.000000,-10.000000,-2.000000,3.000000,-2.000000,2.000000,-1.000000
1304952.872250,-8.000000,-10.000000,-3.000000,-4.000000,-6.000000,0.000000,0.000000,-1.000000
1304952.872259,-8.000000,21.000000,-2.000000,0.000000,-3.000000,-1.000000,-3.000000,-3.000000
1304952.873412,-1.000000,11.000000,-4.000000,-3.000000,2.000000,1.000000,-3.000000,-3.000000
1304952.873421,5.000000,-7.000000,-7.000000,0.000000,-4.000000,-3.000000,3.000000,-1.000000
1304952.874225,-7.000000,-1.000000,-2.000000,8.000000,2.000000,-5.000000,-6.000000,-6.000000
1304952.874233,-2.000000,24.000000,16.000000,-4.000000,-3.000000,-1.000000,0.000000,4.000000
1304952.879880,-4.000000,1.000000,-2.000000,3.000000,2.000000,3.000000,-1.000000,1.000000
1304952.879891,-4.000000,5.000000,-3.000000,0.000000,2.000000,3.000000,1.000000,-3.000000
1304952.894315,-10.000000,0.000000,1.000000,-3.000000,-7.000000,-4.000000,-2.000000,0.000000
1304952.894331,15.000000,-3.000000,3.000000,0.000000,-3.000000,-3.000000,-3.000000,-3.000000
1304952.909558,0.000000,-18.000000,-12.000000,-4.000000,0.000000,0.000000,-3.000000,-1.000000
1304952.909570,8.000000,1.000000,1.000000,-2.000000,-4.000000,-1.000000,1.000000,1.000000
1304952.910353,8.000000,-1.000000,-4.000000,-2.000000,0.000000,1.000000,-1.000000,-4.000000
1304952.910362,2.000000,5.000000,0.000000,-2.000000,2.000000,-3.000000,0.000000,-1.000000
1304952.924533,1.000000,106.000000,6.000000,-1.000000,-5.000000,-6.000000,0.000000,1.000000
1304952.924544,-8.000000,-3.000000,-3.000000,-1.000000,6.000000,-3.000000,-1.000000,-2.000000
1304952.932062,2.000000,-3.000000,2.000000,-3.000000,0.000000,-1.000000,-2.000000,-1.000000
1304952.932073,-5.000000,-8.000000,-4.000000,2.000000,0.000000,-3.000000,-1.000000,-4.000000
1304952.969545,-2.000000,-8.000000,-2.000000,-11.000000,-6.000000,4.000000,0.000000,-1.000000
1304952.969556,-1.000000,-4.000000,3.000000,1.000000,1.000000,0.000000,0.000000,0.000000
1304952.976934,-3.000000,1.000000,-1.000000,1.000000,-3.000000,-1.000000,-4.000000,-5.000000
1304952.976945,6.000000,-10.000000,-6.000000,2.000000,1.000000,0.000000,-3.000000,-5.000000
1304952.992286,-9.000000,-25.000000,-8.000000,2.000000,1.000000,0.000000,-3.000000,-2.000000
1304952.992305,-6.000000,7.000000,2.000000,-1.000000,-4.000000,1.000000,0.000000,-4.000000
1304952.992796,-8.000000,-7.000000,-1.000000,-4.000000,-5.000000,-6.000000,0.000000,2.000000
1304952.992823,-1.000000,5.000000,5.000000,-4.000000,2.000000,-3.000000,1.000000,4.000000
1304952.993986,-2.000000,-14.000000,-2.000000,2.000000,1.000000,0.000000,1.000000,0.000000
1304952.994035,-5.000000,-3.000000,-9.000000,1.000000,2.000000,-1.000000,1.000000,-3.000000
1304952.994921,-5.000000,-1.000000,-6.000000,-7.000000,-11.000000,-5.000000,-2.000000,-7.000000
1304952.994949,-1.000000,0.000000,2.000000,1.000000,1.000000,-2.000000,-2.000000,-1.000000
1304953.014602,-2.000000,-3.000000,-9.000000,-2.000000,-1.000000,1.000000,-1.000000,-1.000000
1304953.014611,1.000000,-13.000000,-13.000000,-1.000000,0.000000,2.000000,2.000000,4.000000
1304953.015371,5.000000,-6.000000,-2.000000,-3.000000,-2.000000,-2.000000,-2.000000,5.000000
1304953.015378,7.000000,3.000000,1.000000,5.000000,4.000000,-3.000000,0.000000,5.000000
1304953.036530,-3.000000,-7.000000,-4.000000,-8.000000,-4.000000,1.000000,4.000000,6.000000
1304953.036545,-1.000000,2.000000,-1.000000,0.000000,-3.000000,1.000000,-2.000000,-2.000000
1304953.037141,-1.000000,-55.000000,11.000000,0.000000,2.000000,3.000000,-4.000000,-1.000000
1304953.037150,5.000000,88.000000,11.000000,3.000000,2.000000,-3.000000,-3.000000,-4.000000
1304953.051596,-4.000000,-19.000000,-9.000000,-3.000000,-3.000000,-3.000000,1.000000,-3.000000
1304953.051625,-4.000000,-25.000000,-18.000000,-3.000000,-2.000000,2.000000,-1.000000,1.000000
1304953.074318,9.000000,12.000000,8.000000,2.000000,1.000000,-1.000000,-1.000000,-1.000000
1304953.074332,0.000000,-58.000000,0.000000,6.000000,3.000000,-2.000000,2.000000,0.000000
1304953.096807,5.000000,11.000000,2.000000,-2.000000,-1.000000,2.000000,-5.000000,4.000000
1304953.096821,-5.000000,-3.000000,0.000000,-3.000000,0.000000,1.000000,0.000000,4.000000
1304953.097147,-2.000000,-6.000000,-1.000000,-1.000000,-1.000000,-1.000000,0.000000,-1.000000
1304953.097155,-2.000000,-4.000000,0.000000,-4.000000,3.000000,-4.000000,-4.000000,-1.000000
1304953.098554,0.000000,-4.000000,-6.000000,-3.000000,1.000000,-1.000000,0.000000,0.000000
1304953.098602,2.000000,0.000000,-1.000000,0.000000,-2.000000,-1.000000,0.000000,-4.000000
1304953.099194,-1.000000,-1.000000,4.000000,-3.000000,0.000000,-2.000000,-3.000000,-1.000000
1304953.099204,-2.000000,-5.000000,-1.000000,-2.000000,-1.000000,3.000000,1.000000,-3.000000
1304953.111557,-4.000000,2.000000,1.000000,-4.000000,-3.000000,1.000000,1.000000,-4.000000
1304953.111567,0.000000,1.000000,-2.000000,1.000000,1.000000,1.000000,0.000000,-3.000000
1304953.112259,-1.000000,14.000000,3.000000,-1.000000,-1.000000,2.000000,-3.000000,-1.000000
1304953.112272,-5.000000,-9.000000,-4.000000,5.000000,-1.000000,-4.000000,1.000000,-1.000000
1304953.134023,2.000000,0.000000,0.000000,-12.000000,-7.000000,0.000000,0.000000,2.000000
1304953.134034,-2.000000,-16.000000,-8.000000,-3.000000,0.000000,-1.000000,2.000000,-4.000000
1304953.134800,-7.000000,-4.000000,2.000000,2.000000,2.000000,-1.000000,-1.000000,-5.000000
1304953.134817,8.000000,-10.000000,-3.000000,6.000000,4.000000,3.000000,-3.000000,-2.000000
1304953.149584,-4.000000,0.000000,-4.000000,-3.000000,-6.000000,-6.000000,-3.000000,-2.000000
1304953.149593,-4.000000,0.000000,-3.000000,-2.000000,1.000000,-3.000000,1.000000,-1.000000
1304953.150318,-7.000000,-22.000000,-6.000000,4.000000,2.000000,-4.000000,-2.000000,-5.000000
1304953.150326,-1.000000,3.000000,0.000000,-8.000000,-8.000000,5.000000,-1.000000,2.000000
1304953.171881,1.000000,-61.000000,-1.000000,3.000000,0.000000,-1.000000,-1.000000,1.000000
1304953.171937,5.000000,12.000000,7.000000,-1.000000,5.000000,0.000000,4.000000,1.000000
1304953.186656,2.000000,0.000000,2.000000,-3.000000,-1.000000,-3.000000,0.000000,-1.000000
1304953.186686,4.000000,-12.000000,-4.000000,0.000000,-2.000000,-1.000000,-1.000000,-5.000000
1304953.209179,-2.000000,-6.000000,-3.000000,4.000000,5.000000,0.000000,-2.000000,-6.000000
1304953.209209,-2.000000,1.000000,-10.000000,-2.000000,-5.000000,-1.000000,-3.000000,1.000000
1304953.209755,3.000000,-1.000000,-3.000000,1.000000,3.000000,-4.000000,0.000000,6.000000
1304953.209769,3.000000,-1.000000,6.000000,-3.000000,-5.000000,-1.000000,-1.000000,2.000000
1304953.211336,-4.000000,-3.000000,2.000000,0.000000,2.000000,-1.000000,-1.000000,2.000000
1304953.211346,0.000000,-7.000000,-1.000000,-4.000000,-6.000000,-1.000000,-1.000000,2.000000
1304953.231696,-5.000000,-3.000000,-2.000000,0.000000,1.000000,-2.000000,-1.000000,-3.000000
1304953.231725,1.000000,-13.000000,-1.000000,5.000000,2.000000,1.000000,-2.000000,2.000000
1304953.254530,-7.000000,-7.000000,-2.000000,0.000000,2.000000,-3.000000,-5.000000,2.000000
1304953.254543,-4.000000,3.000000,0.000000,0.000000,0.000000,1.000000,0.000000,-1.000000
1304953.269246,1.000000,-10.000000,-5.000000,-2.000000,-3.000000,1.000000,-1.000000,-5.000000
1304953.269261,2.000000,-7.000000,-7.000000,-1.000000,-9.000000,-7.000000,-6.000000,-4.000000
1304953.291872,-17.000000,-12.000000,-4.000000,2.000000,-4.000000,1.000000,-1.000000,-3.000000
1304953.291883,3.000000,-8.000000,0.000000,-5.000000,-2.000000,1.000000,-3.000000,-1.000000
1304953.306763,-5.000000,1.000000,-4.000000,1.000000,-2.000000,-1.000000,-6.000000,-3.000000
1304953.306774,-2.000000,-2.000000,-2.000000,-4.000000,-4.000000,3.000000,-1.000000,-2.000000
1304953.321531,9.000000,10.000000,9.000000,5.000000,0.000000,-4.000000,0.000000,-1.000000
1304953.321561,9.000000,39.000000,22.000000,-9.000000,-9.000000,-1.000000,3.000000,0.000000
1304953.322020,-1.000000,4.000000,-1.000000,-2.000000,6.000000,1.000000,0.000000,0.000000
1304953.322048,7.000000,127.000000,9.000000,6.000000,3.000000,-3.000000,0.000000,-1.000000
1304953.322650,-5.000000,-5.000000,-3.000000,-5.000000,1.000000,2.000000,1.000000,-1.000000
1304953.322709,-5.000000,-23.000000,2.000000,-4.000000,-9.000000,0.000000,2.000000,-1.000000
1304953.329182,-5.000000,-5.000000,-5.000000,-3.000000,-4.000000,-4.000000,-1.000000,-1.000000
1304953.329209,2.000000,-4.000000,-10.000000,0.000000,-1.000000,-2.000000,1.000000,-2.000000
1304953.329580,-5.000000,1.000000,0.000000,1.000000,-4.000000,-3.000000,0.000000,-4.000000
1304953.329606,1.000000,-3.000000,-6.000000,8.000000,-3.000000,-2.000000,-4.000000,-2.000000
1304953.336958,-4.000000,-1.000000,2.000000,1.000000,-1.000000,-2.000000,-2.000000,-2.000000
1304953.336971,7.000000,4.000000,-1.000000,2.000000,-2.000000,0.000000,5.000000,-1.000000
1304953.367440,-1.000000,-3.000000,1.000000,2.000000,-3.000000,0.000000,-3.000000,-3.000000
1304953.367464,-2.000000,2.000000,-4.000000,-8.000000,-6.000000,-4.000000,0.000000,-1.000000
1304953.368277,-6.000000,-1.000000,0.000000,-7.000000,-7.000000,-5.000000,-3.000000,1.000000
1304953.368541,1.000000,-5.000000,1.000000,5.000000,7.000000,0.000000,-3.000000,-2.000000
1304953.369948,-2.000000,-3.000000,-5.000000,-10.000000,-8.000000,3.000000,0.000000,3.000000
1304953.369969,-2.000000,-1.000000,0.000000,-5.000000,-1.000000,6.000000,0.000000,-4.000000
1304953.374879,-5.000000,3.000000,-2.000000,5.000000,5.000000,0.000000,-3.000000,-5.000000
1304953.374918,7.000000,0.000000,-3.000000,5.000000,4.000000,0.000000,0.000000,-1.000000
1304953.390873,-1.000000,10.000000,-5.000000,-7.000000,-2.000000,-5.000000,-1.000000,-1.000000
1304953.390897,-6.000000,0.000000,0.000000,0.000000,-4.000000,-2.000000,-3.000000,-2.000000
1304953.397409,-10.000000,5.000000,-3.000000,1.000000,-4.000000,1.000000,-3.000000,-4.000000
1304953.397431,7.000000,-1.000000,-1.000000,0.000000,1.000000,2.000000,0.000000,-1.000000
1304953.413732,-2.000000,-11.000000,-8.000000,-3.000000,-3.000000,-1.000000,-3.000000,-2.000000
1304953.413756,-5.000000,27.000000,18.000000,2.000000,4.000000,-1.000000,-4.000000,1.000000
1304953.413981,4.000000,-11.000000,-5.000000,0.000000,1.000000,5.000000,-1.000000,0.000000
1304953.414023,0.000000,-4.000000,-3.000000,-8.000000,-3.000000,0.000000,0.000000,-1.000000
1304953.435149,-6.000000,-8.000000,4.000000,2.000000,0.000000,0.000000,1.000000,-4.000000
1304953.435174,-5.000000,2.000000,0.000000,1.000000,-1.000000,-4.000000,3.000000,-2.000000
1304953.450251,-1.000000,8.000000,2.000000,1.000000,5.000000,0.000000,-1.000000,1.000000
1304953.450295,-4.000000,-1.000000,4.000000,2.000000,2.000000,-4.000000,1.000000,0.000000
1304953.465391,3.000000,3.000000,-5.000000,5.000000,5.000000,-3.000000,-3.000000,-1.000000
1304953.465615,-2.000000,-9.000000,-4.000000,-3.000000,0.000000,0.000000,1.000000,-1.000000
1304953.466090,3.000000,2.000000,0.000000,3.000000,-1.000000,0.000000,-1.000000,0.000000
1304953.466138,-2.000000,3.000000,2.000000,4.000000,-3.000000,-1.000000,-4.000000,1.000000
1304953.467737,0.000000,-70.000000,-5.000000,-8.000000,1.000000,1.000000,1.000000,2.000000
1304953.467785,12.000000,99.000000,12.000000,0.000000,1.000000,1.000000,0.000000,-2.000000
1304953.472468,-4.000000,0.000000,-4.000000,0.000000,5.000000,-1.000000,-3.000000,-3.000000
1304953.472491,-4.000000,14.000000,12.000000,-1.000000,1.000000,-4.000000,-1.000000,4.000000
1304953.487920,-5.000000,-20.000000,-8.000000,-5.000000,-2.000000,-1.000000,-2.000000,-1.000000
1304953.487963,-9.000000,5.000000,0.000000,1.000000,-6.000000,-5.000000,2.000000,0.000000
1304953.510163,-4.000000,-9.000000,-3.000000,3.000000,1.000000,-1.000000,0.000000,-1.000000
1304953.510175,-4.000000,23.000000,1.000000,-5.000000,-3.000000,-2.000000,-3.000000,-5.000000
1304953.510816,7.000000,-11.000000,-9.000000,-18.000000,-7.000000,4.000000,3.000000,3.000000
1304953.510829,0.000000,-8.000000,-1.000000,3.000000,0.000000,-1.000000,1.000000,-3.000000
1304953.524857,2.000000,3.000000,-1.000000,-1.000000,1.000000,-4.000000,1.000000,0.000000
1304953.524875,-13.000000,-11.000000,-9.000000,2.000000,3.000000,-2.000000,-2.000000,-2.000000
1304953.525613,9.000000,39.000000,16.000000,-1.000000,-7.000000,-2.000000,0.000000,0.000000
1304953.525626,-8.000000,0.000000,-6.000000,0.000000,1.000000,0.000000,0.000000,-1.000000
1304953.531627,-8.000000,-1.000000,-5.000000,4.000000,5.000000,-3.000000,-2.000000,-3.000000
1304953.531639,2.000000,-2.000000,6.000000,-2.000000,-2.000000,-1.000000,-1.000000,-1.000000
1304953.569428,-1.000000,-10.000000,-11.000000,-2.000000,-4.000000,-1.000000,0.000000,1.000000
1304953.569439,-1.000000,-3.000000,-4.000000,4.000000,-1.000000,0.000000,1.000000,0.000000
1304953.584436,-6.000000,2.000000,-1.000000,2.000000,-4.000000,0.000000,-1.000000,0.000000
1304953.584448,-4.000000,-2.000000,1.000000,4.000000,1.000000,-1.000000,-1.000000,1.000000
1304953.592099,6.000000,0.000000,-1.000000,6.000000,-2.000000,0.000000,1.000000,2.000000
1304953.592108,0.000000,4.000000,-3.000000,-4.000000,-11.000000,-3.000000,3.000000,-1.000000
1304953.592772,-3.000000,-7.000000,3.000000,3.000000,-1.000000,-2.000000,1.000000,-4.000000
1304953.592779,-4.000000,-13.000000,-10.000000,-5.000000,-4.000000,-5.000000,-4.000000,-2.000000
1304953.594032,7.000000,-6.000000,-5.000000,7.000000,3.000000,0.000000,-3.000000,0.000000
1304953.594040,6.000000,6.000000,-1.000000,-14.000000,-7.000000,0.000000,-1.000000,0.000000
1304953.595077,1.000000,-1.000000,0.000000,-3.000000,-7.000000,0.000000,-1.000000,0.000000
1304953.595094,-6.000000,-109.000000,-14.000000,-2.000000,0.000000,-2.000000,-2.000000,-6.000000
1304953.606683,10.000000,41.000000,15.000000,9.000000,6.000000,-1.000000,-3.000000,2.000000
1304953.606701,-11.000000,-24.000000,-2.000000,-8.000000,-1.000000,6.000000,5.000000,2.000000
1304953.629506,2.000000,-4.000000,-4.000000,-1.000000,-1.000000,4.000000,4.000000,0.000000
1304953.629518,-10.000000,-15.000000,-1.000000,0.000000,-4.000000,-2.000000,0.000000,-2.000000
1304953.630608,2.000000,-2.000000,3.000000,2.000000,0.000000,-3.000000,-1.000000,-3.000000
1304953.630618,-2.000000,-12.000000,-3.000000,-4.000000,0.000000,0.000000,0.000000,2.000000
1304953.644397,-2.000000,-6.000000,-9.000000,-8.000000,0.000000,-2.000000,-4.000000,0.000000
1304953.644411,7.000000,-22.000000,3.000000,5.000000,-6.000000,-1.000000,1.000000,-3.000000
1304953.645484,-2.000000,-8.000000,-7.000000,-2.000000,2.000000,1.000000,0.000000,-2.000000
1304953.645499,-2.000000,-1.000000,-6.000000,-3.000000,3.000000,-4.000000,1.000000,-2.000000
1304953.651776,-3.000000,0.000000,1.000000,-2.000000,3.000000,0.000000,-1.000000,-5.000000
1304953.651825,2.000000,-4.000000,-8.000000,-5.000000,-3.000000,-2.000000,-2.000000,-1.000000
1304953.674442,-1.000000,-6.000000,-7.000000,1.000000,1.000000,1.000000,-1.000000,-2.000000
1304953.674453,3.000000,-7.000000,-4.000000,-9.000000,-6.000000,1.000000,-2.000000,1.000000
1304953.689287,0.000000,6.000000,4.000000,-1.000000,0.000000,0.000000,2.000000,1.000000
1304953.689298,-1.000000,0.000000,2.000000,1.000000,2.000000,0.000000,-3.000000,-6.000000
1304953.704609,-7.000000,-10.000000,-3.000000,2.000000,1.000000,-2.000000,3.000000,-4.000000
1304953.704618,0.000000,16.000000,5.000000,3.000000,1.000000,-2.000000,2.000000,0.000000
1304953.705129,-4.000000,-7.000000,-1.000000,-1.000000,-1.000000,0.000000,0.000000,-2.000000
1304953.705138,-8.000000,0.000000,3.000000,3.000000,2.000000,-1.000000,-2.000000,-2.000000
1304953.706614,-3.000000,16.000000,6.000000,-3.000000,-3.000000,-5.000000,0.000000,-1.000000
1304953.706622,-4.000000,-3.000000,4.000000,-1.000000,-5.000000,2.000000,-6.000000,-1.000000
1304953.711929,4.000000,3.000000,1.000000,-1.000000,-2.000000,-3.000000,-1.000000,-2.000000
1304953.711939,-3.000000,17.000000,-2.000000,-4.000000,-2.000000,3.000000,-3.000000,-2.000000
1304953.727705,-7.000000,-8.000000,2.000000,6.000000,1.000000,-1.000000,-4.000000,-2.000000
1304953.727717,1.000000,2.000000,-2.000000,-5.000000,-4.000000,-1.000000,3.000000,-2.000000
1304953.741754,9.000000,1.000000,-3.000000,0.000000,2.000000,0.000000,-1.000000,-1.000000
1304953.741772,-4.000000,-45.000000,-11.000000,-1.000000,-12.000000,-5.000000,0.000000,-2.000000
1304953.742929,7.000000,-10.000000,-2.000000,2.000000,2.000000,-3.000000,4.000000,0.000000
1304953.742977,-6.000000,9.000000,9.000000,0.000000,0.000000,1.000000,0.000000,1.000000
1304953.756608,-7.000000,-5.000000,-8.000000,5.000000,6.000000,-1.000000,-5.000000,-4.000000
1304953.756618,1.000000,0.000000,-2.000000,-18.000000,-15.000000,-1.000000,5.000000,3.000000
1304953.765014,1.000000,-6.000000,-2.000000,0.000000,5.000000,-2.000000,-3.000000,-1.000000
1304953.765024,-1.000000,-4.000000,-2.000000,3.000000,-2.000000,-4.000000,-1.000000,-2.000000
1304953.786843,-3.000000,16.000000,8.000000,1.000000,2.000000,-1.000000,-1.000000,1.000000
1304953.786872,2.000000,14.000000,-3.000000,-8.000000,-4.000000,-1.000000,2.000000,2.000000
1304953.824161,-3.000000,-3.000000,-2.000000,0.000000,1.000000,-2.000000,-1.000000,-1.000000
1304953.824172,-1.000000,-5.000000,-3.000000,4.000000,0.000000,-1.000000,1.000000,-4.000000
1304953.824637,-5.000000,2.000000,-4.000000,-1.000000,-3.000000,-2.000000,-3.000000,-3.000000
1304953.824664,-2.000000,4.000000,1.000000,8.000000,-1.000000,1.000000,-1.000000,0.000000
1304953.825989,0.000000,-5.000000,0.000000,-7.000000,-6.000000,0.000000,1.000000,1.000000
1304953.825998,2.000000,12.000000,7.000000,-12.000000,-4.000000,5.000000,0.000000,-1.000000
1304953.826577,-1.000000,-4.000000,5.000000,3.000000,6.000000,-4.000000,-1.000000,1.000000
1304953.826604,-2.000000,-22.000000,-12.000000,-3.000000,2.000000,-2.000000,0.000000,0.000000
1304953.828380,10.000000,39.000000,3.000000,1.000000,0.000000,0.000000,1.000000,-2.000000
1304953.828409,-3.000000,-13.000000,-1.000000,0.000000,-1.000000,-1.000000,-3.000000,1.000000
1304953.846928,2.000000,-15.000000,-10.000000,2.000000,1.000000,0.000000,-3.000000,-1.000000
1304953.847022,5.000000,-5.000000,-2.000000,-6.000000,-3.000000,-1.000000,-3.000000,-3.000000
1304953.848010,-3.000000,14.000000,2.000000,1.000000,-2.000000,0.000000,1.000000,-3.000000
1304953.848020,5.000000,-12.000000,4.000000,-11.000000,-4.000000,1.000000,0.000000,-1.000000
1304953.861765,2.000000,-8.000000,-4.000000,-1.000000,1.000000,0.000000,2.000000,0.000000
1304953.861794,-2.000000,2.000000,-3.000000,2.000000,0.000000,-4.000000,0.000000,0.000000
1304953.869794,-4.000000,0.000000,-4.000000,3.000000,1.000000,-1.000000,-2.000000,-5.000000
1304953.869803,2.000000,91.000000,10.000000,0.000000,-6.000000,-2.000000,-5.000000,-7.000000
1304953.877179,-3.000000,0.000000,-4.000000,-4.000000,0.000000,-3.000000,1.000000,-4.000000
1304953.877197,-8.000000,-8.000000,-4.000000,3.000000,2.000000,-4.000000,-3.000000,-2.000000
1304953.884502,-4.000000,-10.000000,-9.000000,1.000000,0.000000,-1.000000,-3.000000,0.000000
1304953.884531,2.000000,-2.000000,-1.000000,-2.000000,-5.000000,1.000000,1.000000,0.000000
1304953.907163,-5.000000,-3.000000,-3.000000,1.000000,10.000000,1.000000,-2.000000,0.000000
1304953.907172,-6.000000,1.000000,4.000000,-1.000000,-7.000000,-5.000000,-2.000000,-1.000000
1304953.929289,-5.000000,-1.000000,1.000000,-2.000000,1.000000,-2.000000,-4.000000,-3.000000
1304953.929306,-3.000000,1.000000,-1.000000,-2.000000,0.000000,1.000000,-1.000000,-3.000000
1304953.944407,0.000000,-7.000000,-6.000000,0.000000,-2.000000,1.000000,-1.000000,0.000000
1304953.944417,0.000000,6.000000,1.000000,-4.000000,1.000000,0.000000,1.000000,2.000000
1304953.982018,-14.000000,-2.000000,0.000000,-4.000000,1.000000,-2.000000,0.000000,1.000000
1304953.982041,-2.000000,-25.000000,-3.000000,-3.000000,4.000000,-7.000000,1.000000,-1.000000
1304953.989033,9.000000,9.000000,2.000000,3.000000,3.000000,-4.000000,-1.000000,0.000000
1304953.989061,5.000000,-7.000000,-7.000000,-5.000000,-1.000000,3.000000,-1.000000,5.000000
1304953.997090,8.000000,15.000000,5.000000,-6.000000,-7.000000,2.000000,4.000000,-1.000000
1304953.997106,-1.000000,-3.000000,-1.000000,3.000000,-3.000000,-1.000000,-2.000000,-3.000000
1304954.004364,-15.000000,-24.000000,3.000000,0.000000,-2.000000,1.000000,0.000000,-1.000000
1304954.004375,1.000000,-6.000000,-6.000000,3.000000,-1.000000,1.000000,2.000000,-3.000000
1304954.019470,-6.000000,-5.000000,-6.000000,-1.000000,2.000000,-1.000000,-1.000000,-1.000000
1304954.019504,-5.000000,-17.000000,-5.000000,0.000000,2.000000,0.000000,-1.000000,0.000000
1304954.026520,-1.000000,3.000000,5.000000,1.000000,-1.000000,-3.000000,5.000000,2.000000
1304954.026537,-5.000000,-5.000000,-5.000000,2.000000,3.000000,-3.000000,3.000000,0.000000
1304954.034174,-4.000000,-4.000000,0.000000,-11.000000,-4.000000,-1.000000,2.000000,1.000000
1304954.034194,3.000000,-3.000000,-1.000000,-2.000000,-1.000000,-3.000000,-2.000000,-2.000000
1304954.064507,1.000000,-8.000000,-2.000000,1.000000,0.000000,1.000000,-4.000000,0.000000
1304954.064519,2.000000,14.000000,8.000000,1.000000,6.000000,0.000000,-3.000000,-1.000000
1304954.079073,-3.000000,13.000000,3.000000,2.000000,0.000000,0.000000,1.000000,-2.000000
1304954.079087,-1.000000,-3.000000,7.000000,-5.000000,-7.000000,-3.000000,0.000000,1.000000
1304954.080174,3.000000,-2.000000,-4.000000,3.000000,1.000000,4.000000,0.000000,4.000000
1304954.080183,-1.000000,-1.000000,0.000000,-5.000000,-7.000000,-5.000000,-2.000000,1.000000
1304954.080791,-1.000000,1.000000,-1.000000,-1.000000,-4.000000,-3.000000,1.000000,0.000000
1304954.080818,-6.000000,10.000000,2.000000,-1.000000,-1.000000,-3.000000,-3.000000,0.000000
1304954.082160,-3.000000,24.000000,11.000000,3.000000,0.000000,4.000000,-3.000000,0.000000
1304954.082169,-1.000000,0.000000,-3.000000,-3.000000,-4.000000,0.000000,1.000000,4.000000
1304954.086516,-11.000000,-10.000000,-3.000000,-5.000000,-6.000000,0.000000,-1.000000,4.000000
1304954.086524,2.000000,3.000000,-3.000000,3.000000,0.000000,-3.000000,-5.000000,0.000000
1304954.101942,-8.000000,9.000000,8.000000,-1.000000,1.000000,-3.000000,-3.000000,-1.000000
1304954.101954,-1.000000,-9.000000,2.000000,2.000000,1.000000,3.000000,-2.000000,1.000000
1304954.103005,0.000000,1.000000,2.000000,-5.000000,-3.000000,3.000000,-4.000000,2.000000
1304954.103014,3.000000,-1.000000,-4.000000,0.000000,-2.000000,0.000000,0.000000,-2.000000
1304954.116511,-2.000000,-4.000000,-6.000000,-3.000000,2.000000,-3.000000,-4.000000,-4.000000
1304954.116522,2.000000,-1.000000,-1.000000,8.000000,5.000000,-7.000000,1.000000,-2.000000
1304954.139463,5.000000,5.000000,1.000000,-33.000000,-10.000000,6.000000,6.000000,3.000000
1304954.139474,-4.000000,3.000000,-2.000000,-1.000000,-5.000000,-2.000000,-2.000000,0.000000
1304954.146743,-1.000000,-15.000000,-1.000000,4.000000,-3.000000,-4.000000,0.000000,-1.000000
1304954.146753,10.000000,26.000000,7.000000,6.000000,1.000000,2.000000,1.000000,2.000000
1304954.161745,3.000000,3.000000,-1.000000,1.000000,1.000000,1.000000,-4.000000,-3.000000
1304954.161756,3.000000,-109.000000,-9.000000,-11.000000,-5.000000,-1.000000,-1.000000,-3.000000
1304954.169291,7.000000,47.000000,10.000000,3.000000,1.000000,5.000000,-1.000000,-2.000000
1304954.169301,2.000000,-12.000000,-12.000000,-2.000000,1.000000,-3.000000,1.000000,-4.000000
1304954.184866,3.000000,-17.000000,-3.000000,-4.000000,-2.000000,0.000000,1.000000,0.000000
1304954.184877,2.000000,-21.000000,-4.000000,-1.000000,-4.000000,-1.000000,0.000000,-3.000000
1304954.185343,2.000000,2.000000,1.000000,0.000000,-3.000000,-7.000000,1.000000,-1.000000
1304954.185357,-1.000000,-9.000000,-3.000000,-2.000000,-2.000000,-1.000000,-1.000000,-5.000000
1304954.187231,-7.000000,-12.000000,-4.000000,-6.000000,-4.000000,0.000000,1.000000,0.000000
1304954.187244,10.000000,0.000000,-2.000000,1.000000,4.000000,-4.000000,-3.000000,-2.000000
1304954.199168,-1.000000,-15.000000,-2.000000,-2.000000,1.000000,3.000000,-2.000000,0.000000
1304954.199180,9.000000,1.000000,0.000000,-5.000000,-6.000000,-1.000000,0.000000,3.000000
1304954.206833,-4.000000,0.000000,-3.000000,-11.000000,-5.000000,-3.000000,1.000000,-5.000000
1304954.206880,3.000000,-3.000000,-4.000000,-5.000000,-5.000000,-4.000000,2.000000,1.000000
1304954.214350,-12.000000,-4.000000,1.000000,3.000000,-4.000000,-3.000000,1.000000,-1.000000
1304954.214407,-1.000000,-6.000000,-4.000000,-2.000000,-3.000000,0.000000,2.000000,0.000000
1304954.229311,2.000000,13.000000,2.000000,2.000000,1.000000,1.000000,1.000000,-2.000000
1304954.229322,-6.000000,-6.000000,-5.000000,5.000000,4.000000,-1.000000,-3.000000,-1.000000
1304954.236769,-1.000000,0.000000,3.000000,-3.000000,0.000000,0.000000,-3.000000,0.000000
1304954.236780,1.000000,-6.000000,0.000000,5.000000,4.000000,1.000000,0.000000,0.000000
1304954.251717,4.000000,0.000000,-6.000000,-5.000000,-5.000000,0.000000,-3.000000,-1.000000
1304954.251727,6.000000,-6.000000,5.000000,3.000000,-3.000000,1.000000,-1.000000,1.000000
1304954.259228,-3.000000,-2.000000,1.000000,-3.000000,-3.000000,1.000000,-2.000000,2.000000
1304954.259239,-3.000000,-1.000000,2.000000,2.000000,4.000000,0.000000,-3.000000,-3.000000
1304954.274428,1.000000,28.000000,4.000000,1.000000,-4.000000,-3.000000,1.000000,-1.000000
1304954.274439,-7.000000,-96.000000,-19.000000,-1.000000,2.000000,3.000000,-3.000000,1.000000
1304954.281891,5.000000,5.000000,-3.000000,8.000000,5.000000,-3.000000,-3.000000,-3.000000
1304954.281902,4.000000,-3.000000,-3.000000,-18.000000,-8.000000,7.000000,2.000000,-3.000000
1304954.304588,-5.000000,-6.000000,0.000000,1.000000,-4.000000,-2.000000,-3.000000,0.000000
1304954.304598,4.000000,-1.000000,-2.000000,-3.000000,-3.000000,-4.000000,1.000000,3.000000
1304954.305116,-1.000000,-3.000000,-6.000000,0.000000,2.000000,-3.000000,0.000000,-5.000000
1304954.305128,-5.000000,-7.000000,2.000000,5.000000,1.000000,-5.000000,-3.000000,-3.000000
1304954.306858,-7.000000,5.000000,4.000000,-1.000000,-2.000000,3.000000,-2.000000,2.000000
1304954.306868,-9.000000,-9.000000,-7.000000,2.000000,0.000000,-5.000000,-3.000000,-1.000000
1304954.319066,-7.000000,-14.000000,-7.000000,-1.000000,1.000000,-4.000000,-3.000000,-1.000000
1304954.319075,-11.000000,-3.000000,5.000000,3.000000,-2.000000,-2.000000,0.000000,0.000000
1304954.341895,-12.000000,-12.000000,-5.000000,-4.000000,-3.000000,-1.000000,-1.000000,-3.000000
1304954.341913,6.000000,1.000000,-12.000000,-3.000000,5.000000,0.000000,-4.000000,-1.000000
1304954.342317,-1.000000,7.000000,-7.000000,0.000000,-10.000000,-2.000000,-2.000000,-1.000000
1304954.342327,6.000000,2.000000,-8.000000,-6.000000,-2.000000,-3.000000,0.000000,0.000000
1304954.349371,0.000000,-7.000000,7.000000,2.000000,0.000000,1.000000,-1.000000,-3.000000
1304954.349386,1.000000,0.000000,4.000000,0.000000,-4.000000,0.000000,-1.000000,0.000000
1304954.356904,1.000000,-4.000000,2.000000,3.000000,-2.000000,0.000000,-1.000000,-3.000000
1304954.356920,0.000000,-2.000000,-8.000000,3.000000,-1.000000,-1.000000,-1.000000,-3.000000
1304954.364039,3.000000,0.000000,8.000000,-2.000000,-4.000000,2.000000,1.000000,0.000000
1304954.364049,-3.000000,-27.000000,-18.000000,-4.000000,0.000000,0.000000,1.000000,2.000000
1304954.379344,-4.000000,2.000000,-3.000000,-2.000000,-4.000000,2.000000,0.000000,2.000000
1304954.379354,2.000000,-3.000000,-1.000000,5.000000,1.000000,-3.000000,-1.000000,-3.000000
1304954.402121,-2.000000,0.000000,-1.000000,2.000000,4.000000,-3.000000,-4.000000,-5.000000
1304954.402131,-2.000000,-94.000000,-8.000000,-2.000000,0.000000,-1.000000,0.000000,0.000000
1304954.402724,3.000000,82.000000,16.000000,2.000000,1.000000,1.000000,0.000000,1.000000
1304954.402751,-3.000000,-1.000000,-4.000000,-1.000000,3.000000,-3.000000,-1.000000,-2.000000
1304954.416769,-3.000000,0.000000,-7.000000,-2.000000,2.000000,2.000000,2.000000,0.000000
1304954.416798,-6.000000,11.000000,1.000000,-2.000000,1.000000,-1.000000,-3.000000,-2.000000
1304954.417277,-3.000000,-9.000000,-3.000000,-3.000000,-3.000000,-1.000000,-3.000000,-4.000000
1304954.417285,1.000000,-4.000000,-3.000000,2.000000,0.000000,-2.000000,-4.000000,-3.000000
1304954.424563,-2.000000,-2.000000,-1.000000,3.000000,4.000000,4.000000,-1.000000,-1.000000
1304954.424573,4.000000,0.000000,0.000000,-3.000000,-7.000000,-6.000000,-1.000000,-3.000000
1304954.439108,0.000000,-1.000000,-1.000000,-8.000000,-3.000000,-3.000000,3.000000,-1.000000
1304954.439133,-2.000000,0.000000,-2.000000,2.000000,4.000000,-3.000000,2.000000,-1.000000
1304954.446731,-2.000000,-6.000000,-3.000000,-6.000000,-5.000000,-1.000000,1.000000,-1.000000
1304954.446759,-3.000000,-3.000000,-3.000000,5.000000,0.000000,1.000000,0.000000,-1.000000
1304954.461998,-4.000000,-9.000000,-4.000000,-4.000000,-2.000000,-2.000000,-4.000000,-2.000000
1304954.462011,1.000000,16.000000,2.000000,-4.000000,0.000000,0.000000,-3.000000,-1.000000
1304954.477264,2.000000,-8.000000,-5.000000,-2.000000,-1.000000,-3.000000,-1.000000,2.000000
1304954.477276,-3.000000,8.000000,5.000000,-3.000000,2.000000,-2.000000,-1.000000,0.000000
1304954.477757,-11.000000,7.000000,1.000000,3.000000,-4.000000,-3.000000,-1.000000,-1.000000
1304954.477849,0.000000,-3.000000,-4.000000,0.000000,2.000000,-2.000000,1.000000,-1.000000
1304954.484472,2.000000,2.000000,0.000000,-6.000000,-1.000000,-2.000000,0.000000,2.000000
1304954.484482,-6.000000,9.000000,7.000000,1.000000,-4.000000,-2.000000,-3.000000,-2.000000
1304954.499286,9.000000,-4.000000,0.000000,0.000000,-5.000000,-1.000000,-3.000000,-1.000000
1304954.499296,-6.000000,-30.000000,-13.000000,-4.000000,6.000000,6.000000,1.000000,0.000000
1304954.529555,1.000000,19.000000,15.000000,5.000000,2.000000,-4.000000,-2.000000,1.000000
1304954.529565,-3.000000,-11.000000,-4.000000,0.000000,3.000000,-2.000000,-4.000000,-1.000000
1304954.536760,-2.000000,-1.000000,-9.000000,2.000000,2.000000,1.000000,1.000000,-1.000000
1304954.536785,-3.000000,11.000000,4.000000,4.000000,3.000000,2.000000,-4.000000,-2.000000
1304954.551748,-2.000000,109.000000,3.000000,0.000000,-2.000000,0.000000,0.000000,3.000000
1304954.551777,-6.000000,-9.000000,0.000000,-8.000000,-5.000000,-2.000000,-1.000000,-3.000000
1304954.559541,-3.000000,-9.000000,1.000000,2.000000,2.000000,-1.000000,0.000000,-2.000000
1304954.559553,-4.000000,-6.000000,-9.000000,-2.000000,-5.000000,-1.000000,-1.000000,-1.000000
1304954.581635,-8.000000,-14.000000,-4.000000,1.000000,-1.000000,5.000000,1.000000,0.000000
1304954.581645,-2.000000,-6.000000,-6.000000,2.000000,4.000000,-4.000000,-4.000000,-4.000000
1304954.589089,2.000000,-6.000000,-3.000000,-5.000000,2.000000,0.000000,0.000000,1.000000
1304954.589149,-4.000000,34.000000,18.000000,3.000000,-4.000000,-2.000000,0.000000,-5.000000
1304954.604355,5.000000,0.000000,-4.000000,1.000000,-2.000000,-2.000000,-3.000000,-2.000000
1304954.604366,2.000000,2.000000,-3.000000,-3.000000,3.000000,0.000000,-2.000000,-2.000000
1304954.611907,0.000000,-1.000000,4.000000,-10.000000,-6.000000,0.000000,-3.000000,-1.000000
1304954.611920,-3.000000,3.000000,0.000000,0.000000,0.000000,2.000000,-1.000000,1.000000
1304954.619727,-4.000000,-2.000000,0.000000,5.000000,2.000000,-2.000000,-2.000000,0.000000
1304954.619740,-4.000000,-13.000000,-6.000000,-10.000000,-10.000000,2.000000,-1.000000,-2.000000
1304954.620364,-5.000000,19.000000,7.000000,-1.000000,0.000000,1.000000,-1.000000,1.000000
1304954.620375,-4.000000,-9.000000,1.000000,-14.000000,-10.000000,-1.000000,-2.000000,-1.000000
1304954.620982,4.000000,-2.000000,-7.000000,0.000000,0.000000,0.000000,0.000000,-2.000000
1304954.621004,-1.000000,-1.000000,-4.000000,0.000000,-2.000000,-1.000000,-4.000000,-2.000000
1304954.621584,5.000000,-1.000000,2.000000,8.000000,1.000000,0.000000,-4.000000,-2.000000
1304954.621594,-3.000000,7.000000,3.000000,-12.000000,-7.000000,-1.000000,0.000000,-1.000000
1304954.634291,-2.000000,0.000000,-1.000000,-1.000000,5.000000,1.000000,-3.000000,0.000000
1304954.634305,-7.000000,-10.000000,-11.000000,2.000000,-4.000000,-4.000000,0.000000,1.000000
1304954.634786,7.000000,11.000000,3.000000,-8.000000,-7.000000,5.000000,1.000000,2.000000
1304954.634795,-4.000000,-23.000000,-12.000000,-2.000000,-2.000000,-6.000000,0.000000,0.000000
1304954.657081,-4.000000,-1.000000,-7.000000,7.000000,4.000000,-1.000000,-1.000000,-3.000000
1304954.657093,1.000000,14.000000,4.000000,-2.000000,1.000000,-1.000000,-1.000000,-3.000000
1304954.657501,-8.000000,-21.000000,-7.000000,-1.000000,1.000000,-3.000000,-3.000000,-4.000000
1304954.657515,0.000000,-32.000000,-8.000000,-9.000000,0.000000,1.000000,2.000000,-2.000000
1304954.679118,4.000000,43.000000,22.000000,5.000000,0.000000,5.000000,2.000000,0.000000
1304954.679165,-5.000000,-5.000000,-1.000000,-2.000000,0.000000,1.000000,2.000000,2.000000
1304954.679521,0.000000,-4.000000,-8.000000,6.000000,-1.000000,-1.000000,-2.000000,1.000000
1304954.679529,7.000000,-7.000000,2.000000,-4.000000,-2.000000,-2.000000,3.000000,2.000000
1304954.694600,-2.000000,6.000000,3.000000,2.000000,-5.000000,2.000000,1.000000,-3.000000
1304954.694610,1.000000,-2.000000,-3.000000,0.000000,-3.000000,4.000000,-2.000000,-1.000000
1304954.709418,0.000000,0.000000,2.000000,-2.000000,-2.000000,-2.000000,-1.000000,-3.000000
1304954.709428,2.000000,2.000000,6.000000,2.000000,0.000000,-5.000000,2.000000,-1.000000
1304954.716747,1.000000,6.000000,4.000000,1.000000,0.000000,-1.000000,-3.000000,1.000000
1304954.716782,-5.000000,-23.000000,-10.000000,-1.000000,-1.000000,-1.000000,0.000000,0.000000
1304954.754562,-4.000000,-4.000000,-1.000000,1.000000,3.000000,0.000000,1.000000,-3.000000
1304954.754580,3.000000,-5.000000,-6.000000,3.000000,-3.000000,-1.000000,-2.000000,-3.000000
1304954.762710,-1.000000,3.000000,5.000000,-8.000000,1.000000,4.000000,2.000000,1.000000
