# participant_id: P9
# gesture: baseline
# trial_number: 2
# stream_name: Myo_EMG
# stream_type: emg
# timestamp: 20260420_155452
# samples: 5540
# duration_sec: 30.256
# nominal_sample_rate: 200.0
# effective_sample_rate: 183.07
#
timestamp,emg_1,emg_2,emg_3,emg_4,emg_5,emg_6,emg_7,emg_8
1305184.382197,5.000000,18.000000,-10.000000,27.000000,8.000000,-1.000000,-3.000000,2.000000
1305184.382209,-8.000000,-21.000000,-7.000000,4.000000,0.000000,-4.000000,-2.000000,-3.000000
1305184.389901,0.000000,5.000000,3.000000,0.000000,-4.000000,-3.000000,-2.000000,-1.000000
1305184.389917,-3.000000,5.000000,3.000000,-2.000000,-2.000000,-4.000000,3.000000,2.000000
1305184.411997,-3.000000,-16.000000,-7.000000,-4.000000,-3.000000,-1.000000,-1.000000,1.000000
1305184.412007,-1.000000,-5.000000,2.000000,0.000000,-8.000000,-4.000000,-6.000000,0.000000
1305184.441966,0.000000,-1.000000,-10.000000,-11.000000,-13.000000,0.000000,0.000000,-2.000000
1305184.441976,-4.000000,-3.000000,6.000000,19.000000,16.000000,-6.000000,2.000000,-3.000000
1305184.450494,-5.000000,3.000000,3.000000,3.000000,-1.000000,-1.000000,-1.000000,-6.000000
1305184.450582,-2.000000,-2.000000,-18.000000,-10.000000,3.000000,-4.000000,-1.000000,-1.000000
1305184.450776,1.000000,1.000000,5.000000,1.000000,-9.000000,-5.000000,0.000000,-2.000000
1305184.450790,1.000000,-3.000000,4.000000,1.000000,1.000000,1.000000,-3.000000,1.000000
1305184.452334,0.000000,-4.000000,2.000000,5.000000,9.000000,1.000000,-2.000000,1.000000
1305184.452348,1.000000,-3.000000,-1.000000,38.000000,0.000000,-1.000000,1.000000,-3.000000
1305184.453934,0.000000,-10.000000,-8.000000,4.000000,-2.000000,-2.000000,0.000000,-3.000000
1305184.453974,-5.000000,-2.000000,-12.000000,-1.000000,-5.000000,-3.000000,1.000000,-2.000000
1305184.464623,0.000000,5.000000,29.000000,21.000000,-1.000000,-2.000000,-4.000000,0.000000
1305184.464637,-5.000000,-16.000000,-15.000000,-6.000000,-2.000000,-3.000000,1.000000,-2.000000
1305184.472189,-1.000000,-1.000000,1.000000,0.000000,3.000000,2.000000,3.000000,0.000000
1305184.472199,2.000000,-8.000000,-13.000000,0.000000,0.000000,-4.000000,2.000000,-1.000000
1305184.509760,-6.000000,-3.000000,-2.000000,-3.000000,1.000000,0.000000,-4.000000,0.000000
1305184.509783,-1.000000,-5.000000,-2.000000,1.000000,0.000000,-2.000000,-3.000000,0.000000
1305184.532307,-2.000000,-7.000000,-1.000000,-6.000000,3.000000,3.000000,-1.000000,-1.000000
1305184.532319,1.000000,-2.000000,0.000000,-20.000000,-9.000000,-4.000000,1.000000,-3.000000
1305184.546986,0.000000,0.000000,9.000000,14.000000,8.000000,-4.000000,-4.000000,-4.000000
1305184.547002,0.000000,4.000000,-19.000000,-33.000000,-12.000000,-5.000000,-2.000000,-3.000000
1305184.548119,1.000000,1.000000,23.000000,29.000000,5.000000,5.000000,1.000000,1.000000
1305184.548129,-2.000000,1.000000,-1.000000,3.000000,3.000000,-1.000000,-2.000000,-3.000000
1305184.548786,2.000000,2.000000,-4.000000,-11.000000,-12.000000,0.000000,3.000000,1.000000
1305184.548795,-2.000000,-2.000000,-5.000000,-10.000000,-4.000000,-3.000000,-2.000000,-1.000000
1305184.554971,3.000000,-3.000000,2.000000,27.000000,12.000000,1.000000,0.000000,-2.000000
1305184.554987,2.000000,1.000000,-5.000000,-1.000000,-2.000000,-1.000000,-1.000000,0.000000
1305184.562345,-1.000000,1.000000,-2.000000,2.000000,0.000000,-2.000000,-1.000000,-4.000000
1305184.562355,3.000000,-7.000000,-4.000000,1.000000,-1.000000,-1.000000,1.000000,0.000000
1305184.570179,-2.000000,-3.000000,0.000000,23.000000,-1.000000,0.000000,-1.000000,-2.000000
1305184.570197,-2.000000,-3.000000,2.000000,10.000000,13.000000,1.000000,2.000000,0.000000
1305184.584463,1.000000,-8.000000,-5.000000,-14.000000,-6.000000,-3.000000,2.000000,1.000000
1305184.584474,1.000000,18.000000,9.000000,3.000000,-7.000000,2.000000,0.000000,1.000000
1305184.592376,-2.000000,6.000000,-8.000000,-18.000000,-3.000000,-2.000000,0.000000,-3.000000
1305184.592389,-4.000000,-6.000000,0.000000,11.000000,12.000000,2.000000,-2.000000,1.000000
1305184.607142,0.000000,6.000000,12.000000,21.000000,6.000000,3.000000,0.000000,-2.000000
1305184.607153,-3.000000,-3.000000,-2.000000,-5.000000,-5.000000,-2.000000,-3.000000,0.000000
1305184.644979,-4.000000,2.000000,2.000000,8.000000,8.000000,-3.000000,4.000000,-1.000000
1305184.645042,0.000000,-2.000000,0.000000,-7.000000,-4.000000,-1.000000,1.000000,-3.000000
1305184.659562,-2.000000,-4.000000,-9.000000,-56.000000,-27.000000,-8.000000,-6.000000,-5.000000
1305184.659578,3.000000,-5.000000,0.000000,2.000000,-7.000000,1.000000,-1.000000,0.000000
1305184.660548,-3.000000,-2.000000,11.000000,2.000000,2.000000,2.000000,-1.000000,1.000000
1305184.660560,-1.000000,2.000000,-15.000000,-10.000000,-2.000000,-5.000000,0.000000,-4.000000
1305184.661168,2.000000,2.000000,8.000000,8.000000,4.000000,-4.000000,0.000000,0.000000
1305184.661195,-5.000000,-2.000000,-5.000000,-11.000000,-3.000000,-2.000000,-1.000000,-2.000000
1305184.662536,2.000000,2.000000,2.000000,6.000000,-4.000000,1.000000,-3.000000,2.000000
1305184.662544,-3.000000,-7.000000,-2.000000,-12.000000,-1.000000,1.000000,-5.000000,-3.000000
1305184.663355,-1.000000,-3.000000,-11.000000,-8.000000,-3.000000,3.000000,-4.000000,1.000000
1305184.663364,-3.000000,0.000000,9.000000,-3.000000,-5.000000,-1.000000,0.000000,1.000000
1305184.674832,2.000000,6.000000,8.000000,9.000000,5.000000,0.000000,1.000000,0.000000
1305184.674845,-3.000000,-6.000000,-6.000000,-2.000000,1.000000,-6.000000,-4.000000,-3.000000
1305184.682396,2.000000,-3.000000,0.000000,1.000000,-6.000000,0.000000,0.000000,-1.000000
1305184.682409,-3.000000,-4.000000,-7.000000,-5.000000,-1.000000,0.000000,-3.000000,-3.000000
1305184.704581,-1.000000,1.000000,0.000000,4.000000,2.000000,-5.000000,-3.000000,-1.000000
1305184.704593,0.000000,-2.000000,-4.000000,-4.000000,-7.000000,-2.000000,3.000000,-4.000000
1305184.704940,-6.000000,3.000000,8.000000,4.000000,6.000000,-6.000000,-1.000000,-2.000000
1305184.704948,-3.000000,1.000000,0.000000,-7.000000,-9.000000,2.000000,0.000000,2.000000
1305184.711926,-4.000000,-3.000000,-3.000000,-17.000000,-10.000000,-2.000000,-3.000000,-2.000000
1305184.711954,-1.000000,2.000000,1.000000,17.000000,13.000000,4.000000,-3.000000,-3.000000
1305184.719808,0.000000,-1.000000,-5.000000,-1.000000,-2.000000,1.000000,0.000000,1.000000
1305184.719819,0.000000,-1.000000,-1.000000,7.000000,1.000000,-3.000000,-1.000000,-2.000000
1305184.734700,-3.000000,0.000000,-2.000000,20.000000,0.000000,1.000000,-1.000000,-2.000000
1305184.734711,5.000000,-5.000000,1.000000,12.000000,3.000000,2.000000,0.000000,0.000000
1305184.742067,4.000000,14.000000,-6.000000,-6.000000,-7.000000,-1.000000,-3.000000,0.000000
1305184.742077,-5.000000,-8.000000,4.000000,-20.000000,-7.000000,-7.000000,-4.000000,-5.000000
1305184.764824,-3.000000,4.000000,1.000000,-10.000000,-2.000000,0.000000,-1.000000,-3.000000
1305184.764835,-4.000000,0.000000,2.000000,0.000000,-3.000000,-3.000000,2.000000,0.000000
1305184.786903,-7.000000,-12.000000,-9.000000,3.000000,3.000000,-5.000000,-3.000000,0.000000
1305184.786930,-1.000000,-4.000000,-3.000000,-2.000000,-5.000000,-2.000000,-2.000000,0.000000
1305184.788137,1.000000,-3.000000,-4.000000,2.000000,1.000000,4.000000,-2.000000,-4.000000
1305184.788149,0.000000,-1.000000,-4.000000,-3.000000,1.000000,1.000000,-2.000000,0.000000
1305184.788811,-3.000000,4.000000,-2.000000,4.000000,6.000000,-2.000000,-1.000000,-4.000000
1305184.788827,-2.000000,-3.000000,-1.000000,-7.000000,-6.000000,1.000000,1.000000,-1.000000
1305184.801884,0.000000,1.000000,1.000000,0.000000,3.000000,-1.000000,4.000000,-3.000000
1305184.801899,-2.000000,-5.000000,3.000000,0.000000,2.000000,-4.000000,-2.000000,1.000000
1305184.802557,-1.000000,-1.000000,0.000000,-1.000000,2.000000,1.000000,0.000000,-2.000000
1305184.802566,2.000000,0.000000,-1.000000,0.000000,-3.000000,-7.000000,-1.000000,-1.000000
1305184.809827,0.000000,1.000000,-1.000000,-1.000000,1.000000,-3.000000,0.000000,-1.000000
1305184.809838,-1.000000,3.000000,-2.000000,0.000000,-4.000000,-3.000000,0.000000,-1.000000
1305184.824984,-1.000000,0.000000,0.000000,-6.000000,-6.000000,2.000000,2.000000,-4.000000
1305184.825016,-2.000000,-3.000000,-4.000000,-20.000000,-7.000000,0.000000,-3.000000,1.000000
1305184.832325,-3.000000,0.000000,1.000000,24.000000,14.000000,4.000000,-3.000000,-1.000000
1305184.832341,0.000000,1.000000,-4.000000,6.000000,15.000000,-3.000000,-4.000000,-2.000000
1305184.839559,3.000000,1.000000,-2.000000,-6.000000,-23.000000,4.000000,3.000000,0.000000
1305184.839568,-1.000000,-1.000000,15.000000,0.000000,2.000000,-3.000000,-5.000000,-2.000000
1305184.862249,-2.000000,4.000000,-21.000000,-8.000000,-5.000000,-4.000000,-2.000000,1.000000
1305184.862259,-3.000000,-2.000000,0.000000,2.000000,-1.000000,-1.000000,0.000000,-1.000000
1305184.869826,-2.000000,-3.000000,0.000000,1.000000,2.000000,-1.000000,-1.000000,1.000000
1305184.869836,-1.000000,1.000000,-1.000000,1.000000,5.000000,0.000000,2.000000,-2.000000
1305184.885225,-1.000000,-5.000000,3.000000,-1.000000,-7.000000,-1.000000,-2.000000,-2.000000
1305184.885244,-1.000000,4.000000,2.000000,0.000000,-2.000000,-3.000000,0.000000,-1.000000
1305184.885593,0.000000,2.000000,-5.000000,-2.000000,2.000000,-2.000000,-3.000000,2.000000
1305184.885602,-5.000000,-11.000000,3.000000,-1.000000,0.000000,-6.000000,-3.000000,0.000000
1305184.899419,2.000000,-1.000000,-5.000000,2.000000,2.000000,1.000000,-1.000000,-1.000000
1305184.899448,2.000000,5.000000,-2.000000,-3.000000,-2.000000,0.000000,0.000000,-2.000000
1305184.900133,1.000000,-1.000000,13.000000,10.000000,-2.000000,1.000000,-2.000000,-1.000000
1305184.900141,0.000000,4.000000,3.000000,3.000000,11.000000,2.000000,3.000000,3.000000
1305184.914859,1.000000,1.000000,-1.000000,1.000000,0.000000,-2.000000,2.000000,0.000000
1305184.914870,2.000000,-3.000000,-4.000000,2.000000,-1.000000,1.000000,2.000000,-1.000000
1305184.922308,-2.000000,-3.000000,-5.000000,-1.000000,-7.000000,-6.000000,-3.000000,1.000000
1305184.922320,0.000000,1.000000,-2.000000,-19.000000,-11.000000,-3.000000,0.000000,2.000000
1305184.937734,-1.000000,-2.000000,2.000000,1.000000,5.000000,-5.000000,-2.000000,2.000000
1305184.937779,4.000000,0.000000,6.000000,-15.000000,-16.000000,-1.000000,1.000000,2.000000
1305184.944412,-2.000000,1.000000,-1.000000,-1.000000,-5.000000,-4.000000,-1.000000,-1.000000
1305184.944442,-2.000000,-4.000000,0.000000,8.000000,-1.000000,-3.000000,-1.000000,-3.000000
1305184.959819,4.000000,5.000000,-1.000000,3.000000,5.000000,2.000000,1.000000,-1.000000
1305184.959830,-1.000000,0.000000,1.000000,14.000000,3.000000,-1.000000,-2.000000,-3.000000
1305184.967121,-1.000000,0.000000,-3.000000,-23.000000,-11.000000,3.000000,1.000000,-2.000000
1305184.967133,-3.000000,-2.000000,0.000000,-8.000000,-10.000000,2.000000,-1.000000,2.000000
1305184.989581,0.000000,5.000000,3.000000,12.000000,11.000000,0.000000,0.000000,1.000000
1305184.989610,-5.000000,-12.000000,-5.000000,-2.000000,-2.000000,-4.000000,-1.000000,0.000000
1305184.997288,-2.000000,-4.000000,-4.000000,-3.000000,1.000000,-4.000000,1.000000,-3.000000
1305184.997299,3.000000,-1.000000,4.000000,0.000000,2.000000,1.000000,-4.000000,0.000000
1305185.019582,-1.000000,-18.000000,-14.000000,-7.000000,-8.000000,-5.000000,-5.000000,-3.000000
1305185.019593,-8.000000,34.000000,14.000000,1.000000,0.000000,-1.000000,-1.000000,2.000000
1305185.027267,2.000000,3.000000,0.000000,-1.000000,0.000000,1.000000,-1.000000,-1.000000
1305185.027314,0.000000,-1.000000,2.000000,5.000000,5.000000,0.000000,1.000000,2.000000
1305185.042366,-1.000000,-2.000000,0.000000,-1.000000,0.000000,-4.000000,0.000000,-1.000000
1305185.042378,2.000000,-3.000000,1.000000,-2.000000,-2.000000,-2.000000,1.000000,-1.000000
1305185.064516,2.000000,3.000000,-2.000000,1.000000,0.000000,1.000000,-1.000000,-2.000000
1305185.064535,0.000000,0.000000,-1.000000,-3.000000,-1.000000,2.000000,-3.000000,-1.000000
1305185.065782,-1.000000,0.000000,1.000000,-4.000000,-3.000000,3.000000,-1.000000,-4.000000
1305185.065790,-4.000000,-2.000000,-6.000000,2.000000,3.000000,-3.000000,-2.000000,1.000000
1305185.066256,-2.000000,4.000000,4.000000,0.000000,-4.000000,1.000000,1.000000,0.000000
1305185.066265,-3.000000,-2.000000,2.000000,-1.000000,-3.000000,-2.000000,0.000000,0.000000
1305185.068556,-1.000000,-4.000000,-1.000000,-6.000000,2.000000,-1.000000,-6.000000,0.000000
1305185.068565,0.000000,0.000000,-4.000000,1.000000,4.000000,-3.000000,-2.000000,-2.000000
1305185.079692,4.000000,-3.000000,-2.000000,1.000000,0.000000,-3.000000,0.000000,-1.000000
1305185.079709,-1.000000,-2.000000,-1.000000,-25.000000,-14.000000,-2.000000,1.000000,-4.000000
1305185.087014,0.000000,2.000000,2.000000,100.000000,25.000000,1.000000,1.000000,0.000000
1305185.087041,3.000000,0.000000,8.000000,-27.000000,3.000000,5.000000,5.000000,4.000000
1305185.102342,0.000000,-1.000000,0.000000,-4.000000,-3.000000,0.000000,-2.000000,0.000000
1305185.102353,-1.000000,-5.000000,-3.000000,5.000000,-2.000000,3.000000,2.000000,-3.000000
1305185.124461,-1.000000,-1.000000,0.000000,4.000000,2.000000,-5.000000,1.000000,-2.000000
1305185.124471,-5.000000,2.000000,1.000000,1.000000,-3.000000,-3.000000,-3.000000,-3.000000
1305185.124877,-1.000000,-2.000000,-6.000000,5.000000,4.000000,0.000000,-2.000000,-4.000000
1305185.124900,4.000000,2.000000,4.000000,-4.000000,-6.000000,5.000000,0.000000,1.000000
1305185.126167,1.000000,-10.000000,-3.000000,-3.000000,-2.000000,-4.000000,1.000000,0.000000
1305185.126175,2.000000,-2.000000,0.000000,-1.000000,2.000000,1.000000,-1.000000,1.000000
1305185.126855,-1.000000,-1.000000,0.000000,2.000000,4.000000,-1.000000,1.000000,0.000000
1305185.126874,-2.000000,11.000000,7.000000,-5.000000,-3.000000,-1.000000,3.000000,1.000000
1305185.139719,-5.000000,1.000000,-7.000000,-5.000000,-3.000000,0.000000,-2.000000,0.000000
1305185.139732,-1.000000,-8.000000,7.000000,2.000000,0.000000,-2.000000,-5.000000,0.000000
1305185.140468,-2.000000,-4.000000,-1.000000,-6.000000,-5.000000,-3.000000,-2.000000,1.000000
1305185.140476,2.000000,-1.000000,0.000000,1.000000,-1.000000,-1.000000,-5.000000,-3.000000
1305185.154694,-2.000000,0.000000,-1.000000,0.000000,1.000000,0.000000,0.000000,-1.000000
1305185.154705,-1.000000,-1.000000,-4.000000,1.000000,4.000000,-2.000000,0.000000,-2.000000
1305185.161937,-3.000000,-3.000000,1.000000,0.000000,-1.000000,-1.000000,1.000000,-1.000000
1305185.161947,-1.000000,-1.000000,-5.000000,-2.000000,1.000000,-1.000000,2.000000,-1.000000
1305185.177124,-2.000000,-4.000000,-1.000000,-4.000000,-7.000000,-4.000000,-1.000000,2.000000
1305185.177153,-1.000000,4.000000,0.000000,1.000000,4.000000,-6.000000,-3.000000,-3.000000
1305185.184690,-1.000000,-6.000000,4.000000,-6.000000,-8.000000,0.000000,-1.000000,-2.000000
1305185.184707,1.000000,-3.000000,0.000000,18.000000,5.000000,-1.000000,-2.000000,-1.000000
1305185.192322,-2.000000,0.000000,-4.000000,-2.000000,2.000000,-3.000000,-1.000000,-2.000000
1305185.192333,0.000000,-2.000000,-3.000000,-2.000000,-9.000000,-1.000000,-1.000000,-1.000000
1305185.199687,-4.000000,0.000000,-5.000000,2.000000,-4.000000,-3.000000,-3.000000,2.000000
1305185.199698,-4.000000,-2.000000,-1.000000,-6.000000,-1.000000,-1.000000,-4.000000,-1.000000
1305185.237076,-3.000000,-2.000000,-2.000000,3.000000,1.000000,-3.000000,-3.000000,-1.000000
1305185.237106,1.000000,-6.000000,5.000000,9.000000,-8.000000,0.000000,0.000000,-2.000000
1305185.244918,-2.000000,5.000000,1.000000,-3.000000,1.000000,3.000000,0.000000,0.000000
1305185.244964,2.000000,2.000000,1.000000,0.000000,5.000000,2.000000,6.000000,-1.000000
1305185.245971,-1.000000,-4.000000,-1.000000,-38.000000,-22.000000,-3.000000,-1.000000,-1.000000
1305185.246001,-2.000000,0.000000,-2.000000,-3.000000,1.000000,-1.000000,1.000000,-3.000000
1305185.246488,1.000000,-4.000000,-2.000000,0.000000,-6.000000,1.000000,3.000000,-1.000000
1305185.246505,1.000000,-1.000000,-2.000000,2.000000,-2.000000,-5.000000,-2.000000,0.000000
1305185.259887,0.000000,3.000000,-3.000000,0.000000,0.000000,-4.000000,-1.000000,-2.000000
1305185.259901,-1.000000,-1.000000,-5.000000,5.000000,3.000000,0.000000,0.000000,-1.000000
1305185.260447,-1.000000,0.000000,-3.000000,-22.000000,-19.000000,-2.000000,1.000000,0.000000
1305185.260457,2.000000,-1.000000,1.000000,1.000000,1.000000,0.000000,0.000000,-2.000000
1305185.282257,1.000000,13.000000,-1.000000,5.000000,-3.000000,-1.000000,-3.000000,-3.000000
1305185.282269,-3.000000,-18.000000,1.000000,-9.000000,-6.000000,1.000000,0.000000,0.000000
1305185.282787,0.000000,0.000000,-1.000000,-2.000000,-5.000000,1.000000,-1.000000,1.000000
1305185.282799,1.000000,-3.000000,5.000000,-2.000000,3.000000,-2.000000,-1.000000,2.000000
1305185.297280,0.000000,1.000000,5.000000,0.000000,3.000000,0.000000,-3.000000,0.000000
1305185.297308,0.000000,-5.000000,-3.000000,-3.000000,-1.000000,-2.000000,2.000000,2.000000
1305185.304511,-5.000000,10.000000,-1.000000,2.000000,2.000000,0.000000,-2.000000,-1.000000
1305185.304521,-2.000000,-9.000000,0.000000,20.000000,0.000000,-1.000000,-1.000000,2.000000
1305185.342209,0.000000,4.000000,-2.000000,-6.000000,-4.000000,-1.000000,0.000000,-3.000000
1305185.342245,-1.000000,-1.000000,-5.000000,-4.000000,-1.000000,2.000000,0.000000,-3.000000
1305185.357076,-1.000000,-5.000000,1.000000,-4.000000,-6.000000,-2.000000,-1.000000,1.000000
1305185.357086,-3.000000,-4.000000,0.000000,3.000000,5.000000,-4.000000,-2.000000,-1.000000
1305185.358079,-1.000000,-3.000000,3.000000,-6.000000,-10.000000,-1.000000,-2.000000,0.000000
1305185.358087,-2.000000,-1.000000,-3.000000,-10.000000,0.000000,2.000000,0.000000,-1.000000
1305185.358751,-3.000000,2.000000,0.000000,-7.000000,-11.000000,-4.000000,-1.000000,-2.000000
1305185.358773,2.000000,3.000000,-1.000000,0.000000,0.000000,-3.000000,1.000000,-1.000000
1305185.360244,0.000000,-7.000000,-7.000000,-10.000000,1.000000,-4.000000,-2.000000,-2.000000
1305185.360253,0.000000,-1.000000,-5.000000,-26.000000,-4.000000,-4.000000,-3.000000,-2.000000
1305185.364316,-2.000000,-4.000000,-3.000000,-6.000000,-1.000000,0.000000,1.000000,-2.000000
1305185.364325,-3.000000,3.000000,0.000000,-4.000000,-6.000000,2.000000,0.000000,-1.000000
1305185.379669,1.000000,-2.000000,0.000000,0.000000,2.000000,-2.000000,-1.000000,-4.000000
1305185.379682,0.000000,-1.000000,-5.000000,-15.000000,-7.000000,0.000000,-3.000000,0.000000
1305185.380285,3.000000,-1.000000,2.000000,12.000000,6.000000,-2.000000,-2.000000,-2.000000
1305185.380294,-2.000000,-2.000000,-5.000000,-3.000000,-4.000000,-1.000000,0.000000,-2.000000
1305185.402627,1.000000,-1.000000,2.000000,-2.000000,-2.000000,-4.000000,-4.000000,0.000000
1305185.402642,-3.000000,-5.000000,-7.000000,-5.000000,-2.000000,-2.000000,-1.000000,0.000000
1305185.403055,2.000000,13.000000,-1.000000,15.000000,6.000000,1.000000,-4.000000,0.000000
1305185.403081,-1.000000,-9.000000,5.000000,-4.000000,-7.000000,1.000000,0.000000,1.000000
1305185.409487,-2.000000,-5.000000,1.000000,-2.000000,3.000000,-4.000000,0.000000,-1.000000
1305185.409515,-1.000000,0.000000,0.000000,1.000000,-1.000000,1.000000,1.000000,-2.000000
1305185.432143,0.000000,-1.000000,-1.000000,0.000000,-1.000000,-1.000000,-3.000000,0.000000
1305185.432156,-2.000000,1.000000,-1.000000,1.000000,-1.000000,-1.000000,0.000000,0.000000
1305185.454562,0.000000,0.000000,1.000000,-4.000000,0.000000,3.000000,1.000000,-1.000000
1305185.454571,-1.000000,-3.000000,-3.000000,-17.000000,-4.000000,-2.000000,0.000000,-1.000000
1305185.462246,0.000000,1.000000,1.000000,18.000000,6.000000,3.000000,-1.000000,5.000000
1305185.462256,0.000000,0.000000,5.000000,-2.000000,-3.000000,-1.000000,-3.000000,-5.000000
1305185.477190,-2.000000,1.000000,-3.000000,3.000000,6.000000,-3.000000,1.000000,2.000000
1305185.477203,-2.000000,2.000000,-1.000000,-4.000000,-6.000000,2.000000,3.000000,1.000000
1305185.499414,1.000000,-1.000000,-3.000000,-7.000000,-3.000000,-3.000000,1.000000,2.000000
1305185.499428,-2.000000,-1.000000,-2.000000,-7.000000,5.000000,2.000000,0.000000,2.000000
1305185.500411,-2.000000,2.000000,-4.000000,-22.000000,-12.000000,-5.000000,-4.000000,-1.000000
1305185.500419,2.000000,0.000000,-6.000000,-3.000000,-4.000000,-2.000000,0.000000,1.000000
1305185.501056,1.000000,1.000000,0.000000,6.000000,-1.000000,-4.000000,0.000000,1.000000
1305185.501064,0.000000,2.000000,-1.000000,2.000000,-3.000000,1.000000,-1.000000,-4.000000
1305185.502677,-5.000000,-6.000000,-1.000000,-1.000000,-4.000000,-2.000000,0.000000,-1.000000
1305185.502684,-2.000000,-3.000000,-6.000000,12.000000,6.000000,2.000000,1.000000,0.000000
1305185.514808,-3.000000,4.000000,-2.000000,-9.000000,5.000000,3.000000,-2.000000,-2.000000
1305185.514822,0.000000,3.000000,-1.000000,-2.000000,0.000000,-1.000000,-2.000000,-3.000000
1305185.515970,-2.000000,-2.000000,0.000000,0.000000,0.000000,1.000000,-4.000000,-1.000000
1305185.515979,-2.000000,-2.000000,1.000000,0.000000,-1.000000,1.000000,-5.000000,-1.000000
1305185.522342,3.000000,-2.000000,1.000000,-2.000000,-3.000000,1.000000,1.000000,0.000000
1305185.522367,0.000000,-7.000000,0.000000,-1.000000,0.000000,3.000000,1.000000,-1.000000
1305185.537153,-2.000000,-3.000000,-5.000000,-1.000000,-3.000000,-1.000000,-3.000000,-2.000000
1305185.537163,-5.000000,-3.000000,-3.000000,2.000000,5.000000,-2.000000,-4.000000,-1.000000
1305185.544687,-1.000000,0.000000,3.000000,4.000000,-2.000000,0.000000,-3.000000,-3.000000
1305185.544716,-3.000000,0.000000,-2.000000,-2.000000,1.000000,-3.000000,0.000000,-1.000000
1305185.574791,-1.000000,-4.000000,-2.000000,-6.000000,0.000000,1.000000,0.000000,-2.000000
1305185.574814,-1.000000,0.000000,1.000000,21.000000,11.000000,-4.000000,1.000000,-1.000000
1305185.582238,-1.000000,1.000000,-5.000000,-3.000000,-3.000000,-1.000000,-3.000000,-3.000000
1305185.582255,0.000000,3.000000,-3.000000,-3.000000,-3.000000,-1.000000,1.000000,1.000000
1305185.604749,0.000000,-1.000000,-1.000000,-1.000000,-2.000000,1.000000,0.000000,1.000000
1305185.604760,0.000000,-2.000000,2.000000,1.000000,-2.000000,-1.000000,-1.000000,-2.000000
1305185.619720,-1.000000,-8.000000,5.000000,1.000000,-1.000000,0.000000,-3.000000,-1.000000
1305185.619730,1.000000,3.000000,2.000000,-6.000000,-5.000000,0.000000,0.000000,0.000000
1305185.657259,2.000000,-3.000000,-2.000000,1.000000,-1.000000,-3.000000,2.000000,0.000000
1305185.657271,0.000000,-2.000000,-3.000000,18.000000,2.000000,1.000000,-2.000000,-3.000000
1305185.657819,-1.000000,-2.000000,-2.000000,-6.000000,-4.000000,-1.000000,-1.000000,1.000000
1305185.657828,-1.000000,1.000000,0.000000,4.000000,2.000000,-1.000000,0.000000,2.000000
1305185.659269,-2.000000,1.000000,0.000000,-6.000000,-2.000000,1.000000,-1.000000,-2.000000
1305185.659281,-1.000000,-8.000000,-5.000000,-1.000000,-5.000000,-3.000000,1.000000,-3.000000
1305185.672004,0.000000,-4.000000,-3.000000,3.000000,0.000000,-1.000000,-1.000000,-1.000000
1305185.672014,-4.000000,0.000000,-3.000000,4.000000,1.000000,-1.000000,-1.000000,0.000000
1305185.679615,-2.000000,1.000000,-6.000000,3.000000,5.000000,2.000000,0.000000,-1.000000
1305185.679625,-3.000000,0.000000,-1.000000,-11.000000,-12.000000,0.000000,-4.000000,-1.000000
1305185.694743,-4.000000,1.000000,2.000000,-1.000000,0.000000,-1.000000,-3.000000,0.000000
1305185.694752,1.000000,-2.000000,-1.000000,3.000000,2.000000,-4.000000,-1.000000,-4.000000
1305185.702329,1.000000,-1.000000,-8.000000,-7.000000,-4.000000,-2.000000,-2.000000,0.000000
1305185.702340,-2.000000,-2.000000,-1.000000,0.000000,4.000000,-3.000000,-3.000000,-1.000000
1305185.731968,-1.000000,-12.000000,2.000000,-3.000000,-3.000000,-4.000000,3.000000,1.000000
1305185.731998,0.000000,-5.000000,4.000000,0.000000,-2.000000,4.000000,-1.000000,-5.000000
1305185.732694,2.000000,0.000000,-4.000000,2.000000,3.000000,1.000000,-1.000000,-2.000000
1305185.732713,-1.000000,-4.000000,-2.000000,-1.000000,3.000000,-4.000000,1.000000,-4.000000
1305185.733712,-2.000000,1.000000,1.000000,1.000000,0.000000,-3.000000,-2.000000,1.000000
1305185.733721,-3.000000,0.000000,-1.000000,-4.000000,-4.000000,-1.000000,-3.000000,0.000000
1305185.734296,-1.000000,-1.000000,-3.000000,-1.000000,-4.000000,2.000000,2.000000,-3.000000
1305185.734305,-3.000000,-3.000000,-2.000000,2.000000,-4.000000,-4.000000,0.000000,0.000000
1305185.735168,-1.000000,-1.000000,-4.000000,-6.000000,5.000000,-6.000000,-1.000000,-2.000000
1305185.735195,-3.000000,1.000000,4.000000,-3.000000,-10.000000,0.000000,2.000000,1.000000
1305185.747895,2.000000,-3.000000,3.000000,23.000000,12.000000,3.000000,2.000000,0.000000
1305185.747906,-3.000000,-3.000000,-4.000000,-4.000000,4.000000,-4.000000,-4.000000,-1.000000
1305185.754916,0.000000,1.000000,-4.000000,-8.000000,-9.000000,-1.000000,0.000000,-3.000000
1305185.754929,1.000000,-2.000000,1.000000,2.000000,0.000000,1.000000,0.000000,-1.000000
1305185.769569,0.000000,4.000000,-3.000000,-4.000000,2.000000,-1.000000,-1.000000,0.000000
1305185.769579,-3.000000,-5.000000,-2.000000,7.000000,3.000000,2.000000,-1.000000,-4.000000
1305185.776933,-3.000000,2.000000,0.000000,16.000000,2.000000,-4.000000,0.000000,1.000000
1305185.776943,-4.000000,0.000000,3.000000,5.000000,1.000000,-3.000000,3.000000,-2.000000
1305185.799714,0.000000,-4.000000,-3.000000,-10.000000,3.000000,2.000000,-3.000000,-2.000000
1305185.799726,2.000000,0.000000,1.000000,-6.000000,-14.000000,1.000000,4.000000,1.000000
1305185.814995,2.000000,3.000000,1.000000,4.000000,0.000000,-2.000000,-3.000000,-4.000000
1305185.815013,1.000000,13.000000,-2.000000,1.000000,-1.000000,-3.000000,1.000000,-3.000000
1305185.837254,-4.000000,-10.000000,1.000000,-7.000000,2.000000,-6.000000,-4.000000,-3.000000
1305185.837266,-4.000000,3.000000,2.000000,1.000000,2.000000,-1.000000,0.000000,-1.000000
1305185.837899,0.000000,-2.000000,-1.000000,-1.000000,-4.000000,-4.000000,0.000000,0.000000
1305185.837907,-2.000000,0.000000,3.000000,-3.000000,-2.000000,-4.000000,-3.000000,0.000000
1305185.838652,-1.000000,-4.000000,-5.000000,-4.000000,5.000000,-4.000000,-3.000000,-1.000000
1305185.838660,-1.000000,0.000000,-2.000000,-5.000000,-7.000000,2.000000,3.000000,0.000000
1305185.839766,0.000000,-3.000000,-2.000000,-2.000000,-5.000000,3.000000,-1.000000,-2.000000
1305185.839777,-2.000000,-3.000000,-1.000000,-7.000000,-1.000000,-1.000000,-3.000000,-3.000000
1305185.852454,-2.000000,0.000000,1.000000,3.000000,0.000000,-1.000000,-3.000000,0.000000
1305185.852464,2.000000,0.000000,2.000000,1.000000,0.000000,0.000000,0.000000,-1.000000
1305185.853398,-1.000000,0.000000,-1.000000,0.000000,0.000000,-4.000000,-1.000000,-2.000000
1305185.853407,-3.000000,-1.000000,-2.000000,1.000000,0.000000,2.000000,-2.000000,1.000000
1305185.868214,-6.000000,0.000000,0.000000,-1.000000,0.000000,-4.000000,1.000000,-4.000000
1305185.868232,0.000000,-2.000000,0.000000,2.000000,2.000000,-4.000000,-4.000000,-2.000000
1305185.874572,-2.000000,0.000000,-6.000000,-2.000000,0.000000,-4.000000,-1.000000,1.000000
1305185.874582,-3.000000,-2.000000,-1.000000,3.000000,0.000000,1.000000,1.000000,0.000000
1305185.912124,0.000000,-2.000000,-1.000000,5.000000,3.000000,-4.000000,-4.000000,-1.000000
1305185.912134,-3.000000,0.000000,-1.000000,-14.000000,-9.000000,4.000000,0.000000,0.000000
1305185.919598,0.000000,0.000000,1.000000,-3.000000,-2.000000,-1.000000,-1.000000,-1.000000
1305185.919608,-1.000000,-8.000000,-6.000000,-4.000000,0.000000,-3.000000,-1.000000,0.000000
1305185.957059,1.000000,-5.000000,-1.000000,2.000000,-1.000000,-1.000000,-2.000000,-4.000000
1305185.957073,-1.000000,-3.000000,-7.000000,-5.000000,0.000000,-1.000000,-2.000000,-3.000000
1305185.957455,-4.000000,4.000000,6.000000,8.000000,4.000000,-2.000000,1.000000,-1.000000
1305185.957463,0.000000,2.000000,0.000000,-7.000000,-3.000000,0.000000,0.000000,0.000000
1305185.958729,-1.000000,-2.000000,-1.000000,1.000000,5.000000,-3.000000,-2.000000,-2.000000
1305185.958739,3.000000,1.000000,-4.000000,-7.000000,-10.000000,1.000000,1.000000,0.000000
1305185.959357,1.000000,-3.000000,1.000000,-2.000000,1.000000,0.000000,2.000000,0.000000
1305185.959375,-1.000000,-1.000000,-1.000000,2.000000,0.000000,-3.000000,-4.000000,-2.000000
1305185.960893,1.000000,1.000000,-2.000000,-3.000000,2.000000,2.000000,-1.000000,0.000000
1305185.960902,-3.000000,0.000000,-1.000000,-4.000000,-5.000000,5.000000,1.000000,-2.000000
1305185.972313,1.000000,0.000000,-3.000000,1.000000,-3.000000,-3.000000,-1.000000,-1.000000
1305185.972328,1.000000,1.000000,-3.000000,-3.000000,-1.000000,-1.000000,-1.000000,-2.000000
1305185.972956,-3.000000,-2.000000,-4.000000,6.000000,1.000000,-3.000000,-3.000000,-2.000000
1305185.972966,-1.000000,-2.000000,0.000000,-4.000000,-11.000000,-3.000000,-1.000000,3.000000
1305185.994930,-1.000000,-1.000000,0.000000,-1.000000,2.000000,-1.000000,-1.000000,-3.000000
1305185.995034,-2.000000,-1.000000,0.000000,4.000000,3.000000,0.000000,-1.000000,-3.000000
1305186.009374,0.000000,-4.000000,-1.000000,-1.000000,-1.000000,1.000000,0.000000,0.000000
1305186.009388,0.000000,2.000000,-3.000000,-22.000000,-6.000000,-4.000000,0.000000,-1.000000
1305186.010738,2.000000,1.000000,1.000000,33.000000,16.000000,3.000000,-2.000000,0.000000
1305186.010747,1.000000,0.000000,-1.000000,-1.000000,-12.000000,-3.000000,-1.000000,3.000000
1305186.016962,2.000000,-2.000000,0.000000,-10.000000,3.000000,1.000000,-3.000000,-4.000000
1305186.016990,-1.000000,3.000000,2.000000,-5.000000,-5.000000,0.000000,-4.000000,-3.000000
1305186.032438,0.000000,2.000000,1.000000,3.000000,2.000000,-3.000000,-1.000000,-1.000000
1305186.032448,-2.000000,-5.000000,-2.000000,1.000000,-1.000000,-3.000000,-3.000000,0.000000
1305186.054574,1.000000,-1.000000,-2.000000,3.000000,4.000000,-4.000000,-1.000000,-1.000000
1305186.054603,-1.000000,-2.000000,2.000000,-3.000000,-8.000000,-1.000000,3.000000,-4.000000
1305186.092091,0.000000,0.000000,3.000000,-4.000000,-9.000000,1.000000,2.000000,0.000000
1305186.092101,-3.000000,5.000000,-2.000000,-1.000000,1.000000,-2.000000,-2.000000,2.000000
1305186.092632,0.000000,-3.000000,-4.000000,-1.000000,2.000000,0.000000,0.000000,-3.000000
1305186.092653,0.000000,1.000000,4.000000,-5.000000,-3.000000,0.000000,0.000000,-3.000000
1305186.094526,-3.000000,-3.000000,-7.000000,-4.000000,-2.000000,-4.000000,-3.000000,-1.000000
1305186.094537,1.000000,0.000000,-1.000000,-1.000000,-2.000000,0.000000,-4.000000,2.000000
1305186.094928,-7.000000,-10.000000,-4.000000,0.000000,1.000000,-1.000000,-2.000000,-4.000000
1305186.094935,2.000000,4.000000,2.000000,1.000000,-2.000000,-2.000000,-1.000000,0.000000
1305186.096776,-1.000000,0.000000,2.000000,6.000000,1.000000,3.000000,-3.000000,1.000000
1305186.096796,0.000000,1.000000,0.000000,0.000000,-1.000000,-3.000000,1.000000,1.000000
1305186.115137,0.000000,1.000000,-2.000000,-1.000000,-3.000000,-1.000000,1.000000,-2.000000
1305186.115147,4.000000,5.000000,-1.000000,0.000000,-5.000000,-3.000000,-1.000000,2.000000
1305186.115947,3.000000,-14.000000,-2.000000,-13.000000,0.000000,-1.000000,-4.000000,1.000000
1305186.115955,-3.000000,0.000000,2.000000,0.000000,4.000000,-2.000000,0.000000,-1.000000
1305186.130190,1.000000,2.000000,-1.000000,-14.000000,-18.000000,2.000000,1.000000,0.000000
1305186.130200,1.000000,-2.000000,0.000000,-14.000000,-5.000000,2.000000,-1.000000,0.000000
1305186.137066,0.000000,-3.000000,-1.000000,27.000000,13.000000,5.000000,2.000000,0.000000
1305186.137084,-2.000000,-2.000000,-5.000000,-3.000000,0.000000,-3.000000,-3.000000,0.000000
1305186.152056,0.000000,0.000000,0.000000,-3.000000,-1.000000,-2.000000,0.000000,1.000000
1305186.152066,0.000000,1.000000,-1.000000,-2.000000,0.000000,-2.000000,-1.000000,-1.000000
1305186.167329,-4.000000,-4.000000,-2.000000,53.000000,8.000000,-3.000000,1.000000,-6.000000
1305186.167340,3.000000,10.000000,9.000000,7.000000,12.000000,2.000000,2.000000,2.000000
1305186.189739,1.000000,-1.000000,-6.000000,-4.000000,4.000000,-6.000000,-2.000000,-2.000000
1305186.189758,1.000000,-1.000000,-1.000000,0.000000,-7.000000,2.000000,0.000000,-2.000000
1305186.196866,-1.000000,-2.000000,-3.000000,6.000000,0.000000,0.000000,2.000000,0.000000
1305186.196881,1.000000,1.000000,3.000000,6.000000,1.000000,1.000000,-2.000000,-4.000000
1305186.198049,-3.000000,-3.000000,0.000000,0.000000,-1.000000,2.000000,-3.000000,1.000000
1305186.198058,0.000000,0.000000,-1.000000,-1.000000,-2.000000,4.000000,-3.000000,-2.000000
1305186.198890,-5.000000,-3.000000,-1.000000,-2.000000,1.000000,-1.000000,-1.000000,-3.000000
1305186.198899,0.000000,0.000000,-3.000000,-7.000000,-1.000000,-5.000000,0.000000,0.000000
1305186.212664,0.000000,-1.000000,-2.000000,-9.000000,1.000000,-2.000000,1.000000,0.000000
1305186.212675,-5.000000,-11.000000,-2.000000,-5.000000,1.000000,-3.000000,1.000000,0.000000
1305186.213351,-1.000000,-5.000000,1.000000,-5.000000,-8.000000,-2.000000,-1.000000,1.000000
1305186.213359,2.000000,2.000000,0.000000,-4.000000,-1.000000,-2.000000,0.000000,-1.000000
1305186.235164,-3.000000,2.000000,0.000000,-8.000000,-6.000000,0.000000,2.000000,-1.000000
1305186.235181,1.000000,-1.000000,0.000000,2.000000,-1.000000,-2.000000,-4.000000,1.000000
1305186.236017,-1.000000,0.000000,0.000000,-5.000000,-4.000000,0.000000,2.000000,1.000000
1305186.236027,0.000000,2.000000,-1.000000,2.000000,0.000000,-4.000000,-3.000000,0.000000
1305186.250008,1.000000,0.000000,0.000000,4.000000,5.000000,-1.000000,-4.000000,-6.000000
1305186.250065,0.000000,-1.000000,-1.000000,2.000000,3.000000,-2.000000,-4.000000,-4.000000
1305186.257331,2.000000,-6.000000,0.000000,-20.000000,-30.000000,2.000000,1.000000,0.000000
1305186.257348,0.000000,1.000000,-2.000000,2.000000,-1.000000,-2.000000,-3.000000,-1.000000
1305186.287130,-1.000000,-4.000000,3.000000,0.000000,3.000000,-5.000000,0.000000,-1.000000
1305186.287141,-2.000000,-4.000000,-4.000000,-19.000000,-3.000000,-3.000000,-1.000000,1.000000
1305186.294962,0.000000,0.000000,4.000000,25.000000,14.000000,3.000000,0.000000,0.000000
1305186.294999,-4.000000,-4.000000,1.000000,0.000000,-1.000000,-4.000000,1.000000,-1.000000
1305186.309827,-3.000000,-4.000000,-3.000000,-7.000000,-3.000000,0.000000,2.000000,0.000000
1305186.309840,2.000000,-1.000000,-3.000000,8.000000,1.000000,-2.000000,-4.000000,-2.000000
1305186.317177,-1.000000,2.000000,1.000000,-6.000000,-4.000000,2.000000,-2.000000,1.000000
1305186.317191,-2.000000,-3.000000,-2.000000,-2.000000,-2.000000,-2.000000,-1.000000,1.000000
1305186.339590,-4.000000,2.000000,0.000000,1.000000,0.000000,-3.000000,-2.000000,1.000000
1305186.339601,-6.000000,2.000000,0.000000,2.000000,-2.000000,-3.000000,-2.000000,0.000000
1305186.347208,-1.000000,-1.000000,-1.000000,14.000000,-4.000000,2.000000,0.000000,-3.000000
1305186.347238,-3.000000,-3.000000,-4.000000,-65.000000,-18.000000,-2.000000,1.000000,1.000000
1305186.348075,1.000000,0.000000,-2.000000,-4.000000,-1.000000,-2.000000,1.000000,-1.000000
1305186.348084,0.000000,1.000000,-3.000000,3.000000,1.000000,-2.000000,-2.000000,1.000000
1305186.348881,-4.000000,0.000000,0.000000,7.000000,5.000000,-1.000000,-2.000000,-3.000000
1305186.348909,-3.000000,1.000000,-1.000000,-3.000000,-12.000000,-1.000000,0.000000,2.000000
1305186.350295,3.000000,-1.000000,2.000000,-15.000000,-11.000000,3.000000,3.000000,1.000000
1305186.350303,0.000000,-4.000000,-3.000000,6.000000,7.000000,-4.000000,-3.000000,-1.000000
1305186.354492,1.000000,-1.000000,-2.000000,-4.000000,-9.000000,2.000000,0.000000,1.000000
1305186.354501,-5.000000,0.000000,-3.000000,-1.000000,-1.000000,0.000000,0.000000,0.000000
1305186.392150,1.000000,-2.000000,0.000000,-16.000000,-8.000000,-3.000000,-3.000000,1.000000
1305186.392164,1.000000,1.000000,0.000000,17.000000,10.000000,0.000000,-2.000000,-1.000000
1305186.407316,-2.000000,-3.000000,-5.000000,-5.000000,-1.000000,2.000000,-1.000000,1.000000
1305186.407327,0.000000,-3.000000,-2.000000,0.000000,-1.000000,-2.000000,-4.000000,0.000000
1305186.429544,-1.000000,0.000000,-1.000000,-9.000000,-6.000000,-2.000000,-3.000000,0.000000
1305186.429554,-2.000000,0.000000,0.000000,-5.000000,-3.000000,-1.000000,-1.000000,-2.000000
1305186.452303,0.000000,3.000000,-1.000000,3.000000,0.000000,-1.000000,-2.000000,-2.000000
1305186.452315,0.000000,-6.000000,-1.000000,2.000000,1.000000,2.000000,-1.000000,-2.000000
1305186.453106,-1.000000,-2.000000,0.000000,3.000000,-2.000000,1.000000,1.000000,-4.000000
1305186.453115,0.000000,-2.000000,-3.000000,-2.000000,-1.000000,0.000000,-1.000000,-3.000000
1305186.453710,2.000000,11.000000,-1.000000,-1.000000,-1.000000,4.000000,-1.000000,3.000000
1305186.453718,-2.000000,-4.000000,3.000000,-3.000000,2.000000,1.000000,-3.000000,-1.000000
1305186.455058,-2.000000,0.000000,-1.000000,5.000000,3.000000,1.000000,-1.000000,-5.000000
1305186.455067,0.000000,2.000000,1.000000,-4.000000,-8.000000,3.000000,0.000000,1.000000
1305186.467738,-3.000000,2.000000,-1.000000,12.000000,2.000000,-2.000000,2.000000,-4.000000
1305186.467749,-2.000000,-3.000000,-1.000000,-7.000000,1.000000,3.000000,0.000000,-1.000000
1305186.474645,-2.000000,-1.000000,-3.000000,-4.000000,2.000000,-2.000000,-3.000000,-1.000000
1305186.474663,-5.000000,-4.000000,3.000000,3.000000,2.000000,-2.000000,0.000000,-3.000000
1305186.504702,5.000000,6.000000,4.000000,0.000000,0.000000,-6.000000,0.000000,-1.000000
1305186.504714,1.000000,1.000000,-1.000000,0.000000,1.000000,-1.000000,-2.000000,0.000000
1305186.512056,-2.000000,-1.000000,-3.000000,2.000000,-2.000000,-5.000000,0.000000,-1.000000
1305186.512066,1.000000,1.000000,4.000000,-10.000000,-14.000000,3.000000,-1.000000,1.000000
1305186.534870,0.000000,-2.000000,-4.000000,-1.000000,1.000000,2.000000,0.000000,-3.000000
1305186.534883,0.000000,-8.000000,-3.000000,0.000000,4.000000,-3.000000,0.000000,-3.000000
1305186.549693,-1.000000,1.000000,7.000000,-1.000000,-1.000000,1.000000,1.000000,0.000000
1305186.549705,0.000000,-1.000000,-7.000000,-3.000000,2.000000,-3.000000,-2.000000,2.000000
1305186.565457,-3.000000,-3.000000,-2.000000,2.000000,1.000000,-1.000000,-1.000000,0.000000
1305186.565475,-5.000000,2.000000,-5.000000,1.000000,3.000000,0.000000,-1.000000,-1.000000
1305186.565894,0.000000,2.000000,-9.000000,-23.000000,-5.000000,-3.000000,-1.000000,-4.000000
1305186.565907,0.000000,4.000000,8.000000,14.000000,2.000000,3.000000,1.000000,0.000000
1305186.567023,-3.000000,-3.000000,-2.000000,-4.000000,0.000000,-3.000000,-3.000000,-1.000000
1305186.567052,0.000000,-6.000000,-3.000000,1.000000,0.000000,-1.000000,-2.000000,-3.000000
1305186.567848,1.000000,-4.000000,1.000000,-6.000000,-2.000000,-1.000000,3.000000,-2.000000
1305186.567879,-1.000000,2.000000,1.000000,-5.000000,-11.000000,0.000000,2.000000,0.000000
1305186.586914,-4.000000,1.000000,-2.000000,0.000000,1.000000,-6.000000,0.000000,-1.000000
1305186.586945,1.000000,-3.000000,0.000000,-1.000000,-2.000000,0.000000,2.000000,-4.000000
1305186.610246,-1.000000,-3.000000,0.000000,23.000000,-3.000000,1.000000,-2.000000,-1.000000
1305186.610265,0.000000,-2.000000,0.000000,-28.000000,-12.000000,0.000000,0.000000,0.000000
1305186.624896,-3.000000,-3.000000,-5.000000,-6.000000,-7.000000,-3.000000,-1.000000,-1.000000
1305186.624909,0.000000,-3.000000,-3.000000,-14.000000,-7.000000,-3.000000,-5.000000,2.000000
1305186.647763,2.000000,-3.000000,4.000000,25.000000,14.000000,3.000000,4.000000,1.000000
1305186.647776,-1.000000,-4.000000,-1.000000,-2.000000,-1.000000,2.000000,-2.000000,-3.000000
1305186.654673,-4.000000,-2.000000,-1.000000,-3.000000,-4.000000,-1.000000,1.000000,-2.000000
1305186.654683,1.000000,-1.000000,0.000000,-4.000000,-1.000000,0.000000,0.000000,1.000000
1305186.684750,0.000000,-1.000000,-4.000000,0.000000,-4.000000,-1.000000,0.000000,1.000000
1305186.684761,1.000000,2.000000,-1.000000,1.000000,-1.000000,-3.000000,0.000000,-2.000000
1305186.685243,0.000000,-3.000000,-2.000000,1.000000,0.000000,-1.000000,-3.000000,0.000000
1305186.685251,1.000000,-2.000000,4.000000,-3.000000,2.000000,-2.000000,3.000000,1.000000
1305186.686175,0.000000,-3.000000,0.000000,-6.000000,-6.000000,2.000000,0.000000,0.000000
1305186.686183,0.000000,2.000000,1.000000,0.000000,2.000000,-3.000000,-3.000000,-1.000000
1305186.699374,1.000000,0.000000,-4.000000,-2.000000,-3.000000,0.000000,-3.000000,0.000000
1305186.699384,0.000000,2.000000,2.000000,-3.000000,-4.000000,-1.000000,2.000000,-3.000000
1305186.707463,-1.000000,-2.000000,-2.000000,1.000000,-3.000000,-3.000000,0.000000,-2.000000
1305186.707477,-4.000000,0.000000,1.000000,2.000000,-1.000000,-5.000000,2.000000,-1.000000
1305186.708970,-1.000000,-1.000000,-5.000000,-9.000000,-3.000000,-6.000000,0.000000,-1.000000
1305186.708985,1.000000,1.000000,-1.000000,6.000000,3.000000,0.000000,1.000000,-2.000000
1305186.729839,-1.000000,1.000000,-2.000000,0.000000,0.000000,-1.000000,0.000000,0.000000
1305186.729851,3.000000,-2.000000,-4.000000,19.000000,-1.000000,-3.000000,-3.000000,1.000000
1305186.744957,-2.000000,-4.000000,0.000000,1.000000,-1.000000,0.000000,1.000000,-1.000000
1305186.744972,1.000000,-3.000000,-2.000000,-6.000000,-5.000000,-2.000000,-2.000000,1.000000
1305186.752136,-1.000000,-4.000000,-2.000000,0.000000,2.000000,-6.000000,-3.000000,-1.000000
1305186.752146,2.000000,-1.000000,-3.000000,-16.000000,-11.000000,0.000000,2.000000,1.000000
1305186.774842,-1.000000,3.000000,0.000000,-4.000000,-2.000000,-2.000000,0.000000,-2.000000
1305186.774853,-1.000000,-4.000000,1.000000,3.000000,5.000000,0.000000,0.000000,-1.000000
1305186.789520,1.000000,0.000000,-4.000000,3.000000,4.000000,-6.000000,-6.000000,-3.000000
1305186.789540,0.000000,-2.000000,-2.000000,5.000000,0.000000,0.000000,-4.000000,-2.000000
1305186.790552,-2.000000,1.000000,4.000000,-2.000000,-1.000000,0.000000,-3.000000,-2.000000
1305186.790573,-2.000000,2.000000,0.000000,1.000000,-2.000000,1.000000,-3.000000,-2.000000
1305186.791097,-1.000000,-3.000000,-4.000000,1.000000,0.000000,-6.000000,1.000000,-2.000000
1305186.791106,1.000000,-1.000000,-2.000000,-3.000000,-1.000000,-8.000000,-1.000000,-1.000000
1305186.792998,-1.000000,2.000000,-4.000000,4.000000,5.000000,-2.000000,-5.000000,-2.000000
1305186.793010,-1.000000,3.000000,-2.000000,-7.000000,-12.000000,5.000000,1.000000,-1.000000
1305186.804426,3.000000,-2.000000,-2.000000,-3.000000,-6.000000,1.000000,0.000000,1.000000
1305186.804440,-3.000000,-6.000000,-1.000000,0.000000,2.000000,-3.000000,-3.000000,-3.000000
1305186.805631,-1.000000,2.000000,-1.000000,-8.000000,-2.000000,0.000000,1.000000,-1.000000
1305186.805639,-2.000000,0.000000,-2.000000,-3.000000,1.000000,-3.000000,-4.000000,-1.000000
1305186.827151,-1.000000,-4.000000,-2.000000,-1.000000,2.000000,-2.000000,-3.000000,0.000000
1305186.827161,0.000000,-3.000000,-1.000000,-1.000000,3.000000,-1.000000,0.000000,-1.000000
1305186.828690,-1.000000,-1.000000,-1.000000,2.000000,0.000000,1.000000,0.000000,-2.000000
1305186.828703,5.000000,12.000000,-2.000000,-3.000000,-3.000000,2.000000,0.000000,-1.000000
1305186.842484,-4.000000,-8.000000,5.000000,8.000000,2.000000,-1.000000,1.000000,-1.000000
1305186.842496,-3.000000,-1.000000,0.000000,1.000000,1.000000,-2.000000,0.000000,-1.000000
1305186.864621,-2.000000,0.000000,-2.000000,-4.000000,2.000000,-5.000000,3.000000,-1.000000
1305186.864631,1.000000,1.000000,-1.000000,3.000000,3.000000,1.000000,1.000000,-1.000000
1305186.887377,0.000000,1.000000,4.000000,-1.000000,5.000000,-2.000000,-3.000000,-1.000000
1305186.887389,0.000000,0.000000,1.000000,-11.000000,-12.000000,2.000000,-2.000000,0.000000
1305186.909625,1.000000,0.000000,-6.000000,-4.000000,-6.000000,1.000000,0.000000,0.000000
1305186.909678,-1.000000,-2.000000,-2.000000,-8.000000,1.000000,-1.000000,-2.000000,-4.000000
1305186.932372,-1.000000,-4.000000,4.000000,0.000000,-6.000000,-4.000000,-1.000000,-3.000000
1305186.932383,0.000000,2.000000,2.000000,2.000000,2.000000,1.000000,0.000000,-3.000000
1305186.962027,1.000000,0.000000,-5.000000,-3.000000,1.000000,1.000000,-1.000000,0.000000
1305186.962036,-3.000000,-3.000000,-4.000000,-1.000000,-2.000000,0.000000,-2.000000,0.000000
1305186.969834,-2.000000,-6.000000,-3.000000,-4.000000,-2.000000,-3.000000,-4.000000,-2.000000
1305186.969847,1.000000,-1.000000,0.000000,-8.000000,0.000000,0.000000,-3.000000,-1.000000
1305187.007011,-1.000000,-1.000000,0.000000,4.000000,1.000000,1.000000,-2.000000,1.000000
1305187.007040,-2.000000,-2.000000,-1.000000,-5.000000,0.000000,3.000000,0.000000,-4.000000
1305187.029939,-2.000000,-1.000000,-5.000000,-5.000000,-2.000000,2.000000,2.000000,-1.000000
1305187.029950,-1.000000,-3.000000,-5.000000,1.000000,1.000000,-2.000000,-2.000000,-2.000000
1305187.032971,-1.000000,0.000000,1.000000,24.000000,-2.000000,0.000000,4.000000,-2.000000
1305187.032981,1.000000,-8.000000,1.000000,-1.000000,1.000000,2.000000,2.000000,2.000000
1305187.044586,-2.000000,2.000000,-2.000000,-6.000000,1.000000,1.000000,0.000000,-1.000000
1305187.044614,-4.000000,0.000000,-1.000000,16.000000,3.000000,-1.000000,-1.000000,-4.000000
1305187.045899,-2.000000,0.000000,-2.000000,8.000000,-1.000000,-1.000000,-1.000000,-6.000000
1305187.045914,0.000000,-2.000000,-5.000000,-3.000000,-10.000000,-1.000000,-2.000000,0.000000
1305187.059809,2.000000,0.000000,0.000000,-2.000000,-5.000000,0.000000,-3.000000,-1.000000
1305187.059819,1.000000,-2.000000,1.000000,14.000000,5.000000,0.000000,-1.000000,0.000000
1305187.067809,-3.000000,-1.000000,-3.000000,-4.000000,-2.000000,0.000000,3.000000,-2.000000
1305187.067818,-1.000000,1.000000,-1.000000,-24.000000,-7.000000,-4.000000,-5.000000,-3.000000
1305187.082263,-7.000000,1.000000,0.000000,-4.000000,0.000000,0.000000,1.000000,3.000000
1305187.082273,-1.000000,5.000000,-3.000000,0.000000,0.000000,1.000000,0.000000,0.000000
1305187.096991,5.000000,-1.000000,-4.000000,-3.000000,-5.000000,1.000000,1.000000,0.000000
1305187.097025,-3.000000,-9.000000,-1.000000,3.000000,1.000000,-2.000000,-1.000000,-1.000000
1305187.104721,0.000000,0.000000,-3.000000,1.000000,2.000000,-3.000000,-2.000000,-2.000000
1305187.104730,1.000000,-4.000000,0.000000,1.000000,-2.000000,-3.000000,0.000000,-2.000000
1305187.157271,2.000000,2.000000,0.000000,-2.000000,-4.000000,1.000000,1.000000,0.000000
1305187.157285,2.000000,1.000000,4.000000,-1.000000,-1.000000,-1.000000,-5.000000,-1.000000
1305187.164808,-2.000000,1.000000,-1.000000,1.000000,-2.000000,0.000000,-4.000000,-1.000000
1305187.164821,-4.000000,-11.000000,-4.000000,1.000000,2.000000,1.000000,-1.000000,-3.000000
1305187.165733,-2.000000,-3.000000,3.000000,-7.000000,-6.000000,-1.000000,1.000000,-3.000000
1305187.165743,-4.000000,-3.000000,0.000000,0.000000,0.000000,-5.000000,0.000000,2.000000
1305187.166419,0.000000,3.000000,0.000000,-9.000000,-10.000000,3.000000,4.000000,2.000000
1305187.166430,0.000000,-4.000000,-3.000000,2.000000,0.000000,3.000000,0.000000,-2.000000
1305187.167616,-1.000000,0.000000,-2.000000,-1.000000,-4.000000,-2.000000,-2.000000,-3.000000
1305187.167627,-1.000000,5.000000,-1.000000,-1.000000,-1.000000,-2.000000,0.000000,-3.000000
1305187.179827,0.000000,-3.000000,-2.000000,0.000000,0.000000,-1.000000,1.000000,-1.000000
1305187.179846,-1.000000,0.000000,2.000000,-1.000000,3.000000,0.000000,0.000000,-1.000000
1305187.187635,-1.000000,-4.000000,-3.000000,-1.000000,1.000000,-3.000000,-1.000000,-1.000000
1305187.187652,3.000000,-2.000000,-3.000000,7.000000,-1.000000,1.000000,2.000000,-1.000000
1305187.202366,-3.000000,-2.000000,-2.000000,-11.000000,-2.000000,-3.000000,-3.000000,-2.000000
1305187.202379,-2.000000,-2.000000,1.000000,22.000000,7.000000,-1.000000,-2.000000,2.000000
1305187.224881,2.000000,-2.000000,2.000000,-4.000000,-1.000000,0.000000,2.000000,0.000000
1305187.224895,0.000000,-3.000000,-4.000000,3.000000,-2.000000,0.000000,0.000000,-2.000000
1305187.239938,-1.000000,1.000000,0.000000,-4.000000,-2.000000,-2.000000,-1.000000,1.000000
1305187.239998,1.000000,-1.000000,1.000000,0.000000,2.000000,-2.000000,0.000000,2.000000
1305187.284792,-1.000000,1.000000,0.000000,-2.000000,-5.000000,-5.000000,2.000000,-1.000000
1305187.284802,-1.000000,-9.000000,0.000000,-1.000000,-9.000000,1.000000,4.000000,-2.000000
1305187.292243,0.000000,-6.000000,1.000000,0.000000,0.000000,0.000000,-3.000000,-2.000000
1305187.292254,-2.000000,1.000000,-2.000000,1.000000,4.000000,-4.000000,0.000000,-4.000000
1305187.322102,1.000000,2.000000,-4.000000,-4.000000,-5.000000,0.000000,3.000000,-3.000000
1305187.322115,0.000000,0.000000,-2.000000,0.000000,-1.000000,-4.000000,-1.000000,-1.000000
1305187.337374,0.000000,-2.000000,1.000000,-2.000000,-1.000000,0.000000,0.000000,1.000000
1305187.337387,-1.000000,-2.000000,4.000000,26.000000,3.000000,3.000000,-1.000000,-1.000000
1305187.352447,0.000000,-8.000000,0.000000,-6.000000,1.000000,1.000000,-2.000000,-1.000000
1305187.352461,0.000000,2.000000,-3.000000,-1.000000,0.000000,-5.000000,-1.000000,0.000000
1305187.367033,0.000000,-3.000000,-1.000000,1.000000,2.000000,1.000000,0.000000,-1.000000
1305187.367059,0.000000,-1.000000,-2.000000,-5.000000,-1.000000,0.000000,-2.000000,0.000000
1305187.383285,-1.000000,-5.000000,-5.000000,-7.000000,-6.000000,1.000000,-1.000000,-1.000000
1305187.383295,-1.000000,2.000000,-5.000000,-7.000000,-5.000000,-2.000000,-1.000000,1.000000
1305187.383772,-1.000000,-1.000000,-1.000000,-7.000000,-6.000000,-2.000000,0.000000,-1.000000
1305187.383782,-2.000000,-3.000000,0.000000,-14.000000,-2.000000,-2.000000,-3.000000,-1.000000
1305187.385141,2.000000,1.000000,1.000000,-1.000000,-3.000000,-4.000000,1.000000,1.000000
1305187.385151,-1.000000,-1.000000,0.000000,1.000000,-1.000000,-2.000000,-5.000000,-1.000000
1305187.397317,1.000000,0.000000,1.000000,-2.000000,-3.000000,-3.000000,-4.000000,0.000000
1305187.397332,-1.000000,0.000000,5.000000,12.000000,5.000000,-1.000000,-5.000000,4.000000
1305187.397877,-2.000000,-4.000000,3.000000,14.000000,2.000000,0.000000,-1.000000,-2.000000
1305187.397888,1.000000,-3.000000,2.000000,-7.000000,3.000000,2.000000,-3.000000,0.000000
1305187.412238,-2.000000,-7.000000,-4.000000,3.000000,6.000000,-1.000000,1.000000,-3.000000
1305187.412249,1.000000,-3.000000,-1.000000,-11.000000,-12.000000,1.000000,5.000000,1.000000
1305187.419936,-1.000000,1.000000,-4.000000,-4.000000,-9.000000,-2.000000,0.000000,0.000000
1305187.419956,-1.000000,2.000000,-3.000000,-27.000000,-5.000000,-4.000000,-2.000000,0.000000
1305187.457167,-2.000000,2.000000,-2.000000,1.000000,1.000000,1.000000,-2.000000,3.000000
1305187.457177,-3.000000,-2.000000,0.000000,4.000000,-2.000000,0.000000,-1.000000,0.000000
1305187.464676,1.000000,1.000000,1.000000,11.000000,4.000000,-1.000000,-2.000000,-3.000000
1305187.464687,0.000000,1.000000,1.000000,0.000000,5.000000,4.000000,0.000000,0.000000
1305187.480008,3.000000,4.000000,-2.000000,-10.000000,-6.000000,-1.000000,1.000000,0.000000
1305187.480018,-1.000000,-8.000000,0.000000,8.000000,-1.000000,-1.000000,-1.000000,-1.000000
1305187.487328,2.000000,8.000000,8.000000,2.000000,-1.000000,2.000000,0.000000,2.000000
1305187.487339,1.000000,3.000000,0.000000,0.000000,1.000000,1.000000,0.000000,0.000000
1305187.502542,-4.000000,-10.000000,-5.000000,0.000000,5.000000,-4.000000,2.000000,0.000000
1305187.502556,-4.000000,0.000000,0.000000,-5.000000,-7.000000,1.000000,-2.000000,3.000000
1305187.503120,1.000000,-4.000000,-2.000000,-4.000000,-3.000000,-3.000000,0.000000,-2.000000
1305187.503130,-4.000000,3.000000,1.000000,-1.000000,0.000000,0.000000,0.000000,0.000000
1305187.504427,-3.000000,0.000000,-1.000000,0.000000,1.000000,3.000000,-2.000000,1.000000
1305187.504454,-3.000000,-1.000000,2.000000,-3.000000,-5.000000,-3.000000,-1.000000,3.000000
1305187.505117,0.000000,-1.000000,1.000000,1.000000,1.000000,-1.000000,-1.000000,3.000000
1305187.505125,-5.000000,0.000000,-2.000000,-20.000000,-6.000000,-5.000000,-1.000000,0.000000
1305187.516897,-2.000000,-4.000000,4.000000,30.000000,20.000000,0.000000,0.000000,-1.000000
1305187.516907,2.000000,5.000000,4.000000,-8.000000,-21.000000,4.000000,1.000000,1.000000
1305187.517618,1.000000,-3.000000,-4.000000,-5.000000,-3.000000,-3.000000,-3.000000,-5.000000
1305187.517646,1.000000,-2.000000,-7.000000,-2.000000,2.000000,4.000000,2.000000,-1.000000
1305187.539853,1.000000,-1.000000,0.000000,1.000000,5.000000,-3.000000,-2.000000,1.000000
1305187.539864,0.000000,1.000000,3.000000,-4.000000,2.000000,1.000000,4.000000,0.000000
1305187.561992,2.000000,0.000000,0.000000,3.000000,0.000000,-1.000000,-1.000000,0.000000
1305187.562005,-3.000000,0.000000,-3.000000,-2.000000,0.000000,1.000000,-3.000000,1.000000
1305187.584848,1.000000,-7.000000,0.000000,10.000000,9.000000,2.000000,2.000000,-1.000000
1305187.584858,3.000000,0.000000,-4.000000,-2.000000,3.000000,-3.000000,-3.000000,-4.000000
1305187.599787,0.000000,-5.000000,-1.000000,20.000000,9.000000,-3.000000,0.000000,-2.000000
1305187.599799,-2.000000,-1.000000,1.000000,-9.000000,1.000000,4.000000,0.000000,-1.000000
1305187.622316,0.000000,-7.000000,-1.000000,-1.000000,-1.000000,1.000000,0.000000,0.000000
1305187.622327,2.000000,0.000000,-1.000000,0.000000,-1.000000,1.000000,-1.000000,1.000000
1305187.637086,-3.000000,-7.000000,-4.000000,-1.000000,1.000000,-5.000000,1.000000,-1.000000
1305187.637098,-3.000000,-1.000000,0.000000,2.000000,-1.000000,1.000000,0.000000,-5.000000
1305187.638159,1.000000,5.000000,-1.000000,-3.000000,1.000000,1.000000,0.000000,-1.000000
1305187.638181,1.000000,6.000000,3.000000,-2.000000,0.000000,1.000000,-4.000000,-1.000000
1305187.638764,0.000000,-3.000000,0.000000,0.000000,-1.000000,-3.000000,-3.000000,-2.000000
1305187.638772,-2.000000,0.000000,0.000000,-3.000000,-4.000000,-1.000000,-4.000000,-2.000000
1305187.639477,-2.000000,-4.000000,0.000000,1.000000,4.000000,-4.000000,-4.000000,-3.000000
1305187.639489,-4.000000,0.000000,0.000000,-2.000000,-4.000000,-2.000000,-1.000000,0.000000
1305187.640893,-1.000000,1.000000,-4.000000,-3.000000,-1.000000,0.000000,0.000000,-1.000000
1305187.640902,-2.000000,-2.000000,-3.000000,2.000000,5.000000,-3.000000,0.000000,-1.000000
1305187.659493,-3.000000,-5.000000,-1.000000,-22.000000,-12.000000,-1.000000,3.000000,2.000000
1305187.659506,3.000000,3.000000,3.000000,24.000000,10.000000,3.000000,1.000000,2.000000
1305187.660119,-1.000000,-2.000000,0.000000,-3.000000,-2.000000,-1.000000,-4.000000,-1.000000
1305187.660127,-1.000000,-1.000000,-3.000000,0.000000,-2.000000,-1.000000,2.000000,0.000000
1305187.682115,0.000000,2.000000,3.000000,-2.000000,-3.000000,-3.000000,0.000000,-3.000000
1305187.682126,-2.000000,-5.000000,-3.000000,-3.000000,-4.000000,-2.000000,-1.000000,1.000000
1305187.712313,1.000000,-2.000000,0.000000,0.000000,0.000000,1.000000,-1.000000,2.000000
1305187.712324,-1.000000,8.000000,-4.000000,1.000000,4.000000,-3.000000,-4.000000,-2.000000
1305187.734703,2.000000,-9.000000,4.000000,-6.000000,-14.000000,3.000000,3.000000,2.000000
1305187.734715,-3.000000,-2.000000,-7.000000,7.000000,-5.000000,-6.000000,0.000000,-1.000000
1305187.742159,5.000000,1.000000,6.000000,6.000000,20.000000,2.000000,1.000000,4.000000
1305187.742169,-1.000000,-1.000000,-2.000000,0.000000,1.000000,-3.000000,0.000000,0.000000
1305187.758339,2.000000,-2.000000,0.000000,3.000000,5.000000,-3.000000,-1.000000,-3.000000
1305187.758348,-1.000000,3.000000,1.000000,5.000000,2.000000,-2.000000,-4.000000,-3.000000
1305187.759000,-2.000000,0.000000,1.000000,-1.000000,-2.000000,-1.000000,0.000000,-2.000000
1305187.759010,-4.000000,-4.000000,-2.000000,6.000000,1.000000,1.000000,-6.000000,0.000000
1305187.760144,-1.000000,3.000000,-3.000000,2.000000,-2.000000,1.000000,0.000000,-1.000000
1305187.760152,1.000000,-2.000000,1.000000,-1.000000,-4.000000,1.000000,0.000000,-2.000000
1305187.760824,-1.000000,-4.000000,2.000000,-3.000000,2.000000,-1.000000,-1.000000,-1.000000
1305187.760832,1.000000,2.000000,-8.000000,-1.000000,3.000000,-1.000000,0.000000,-1.000000
1305187.761595,-3.000000,-1.000000,-1.000000,-1.000000,-3.000000,-3.000000,-3.000000,-2.000000
1305187.761603,-4.000000,-3.000000,0.000000,3.000000,6.000000,-5.000000,-3.000000,-3.000000
1305187.780523,1.000000,-4.000000,-4.000000,-8.000000,-8.000000,2.000000,1.000000,2.000000
1305187.780540,-1.000000,-2.000000,-3.000000,-1.000000,2.000000,0.000000,0.000000,0.000000
1305187.781101,0.000000,0.000000,-4.000000,0.000000,0.000000,-1.000000,-2.000000,0.000000
1305187.781110,-1.000000,3.000000,-3.000000,3.000000,2.000000,-2.000000,-1.000000,0.000000
1305187.802323,2.000000,-1.000000,-2.000000,2.000000,-1.000000,1.000000,1.000000,0.000000
1305187.802337,-1.000000,1.000000,1.000000,2.000000,-1.000000,3.000000,2.000000,-1.000000
1305187.817391,-1.000000,-2.000000,0.000000,7.000000,3.000000,-1.000000,-2.000000,0.000000
1305187.817404,3.000000,3.000000,3.000000,-8.000000,-5.000000,0.000000,3.000000,0.000000
1305187.855220,-5.000000,1.000000,-1.000000,-9.000000,-14.000000,2.000000,1.000000,-1.000000
1305187.855232,-5.000000,-3.000000,1.000000,-3.000000,-3.000000,-7.000000,-3.000000,-1.000000
1305187.855684,0.000000,-2.000000,1.000000,-11.000000,-3.000000,-4.000000,-1.000000,-3.000000
1305187.855697,1.000000,-10.000000,1.000000,27.000000,8.000000,0.000000,-1.000000,0.000000
1305187.856915,-3.000000,0.000000,-4.000000,6.000000,5.000000,-2.000000,-2.000000,-3.000000
1305187.856925,2.000000,1.000000,-3.000000,-8.000000,-6.000000,2.000000,0.000000,-3.000000
1305187.857620,-3.000000,0.000000,-5.000000,-2.000000,0.000000,3.000000,0.000000,-1.000000
1305187.857630,-2.000000,-1.000000,-4.000000,3.000000,2.000000,0.000000,-1.000000,-1.000000
1305187.862311,3.000000,6.000000,1.000000,-1.000000,-1.000000,1.000000,-2.000000,-1.000000
1305187.862325,0.000000,-2.000000,-1.000000,1.000000,2.000000,-2.000000,-3.000000,1.000000
1305187.876890,1.000000,1.000000,0.000000,12.000000,5.000000,0.000000,-4.000000,1.000000
1305187.876901,-2.000000,2.000000,1.000000,-7.000000,3.000000,-1.000000,2.000000,-1.000000
1305187.877624,0.000000,-1.000000,-1.000000,-1.000000,2.000000,-2.000000,-3.000000,0.000000
1305187.877637,-1.000000,-5.000000,-2.000000,-2.000000,-3.000000,1.000000,-2.000000,1.000000
1305187.899739,-4.000000,-3.000000,-2.000000,-3.000000,-3.000000,-5.000000,0.000000,-1.000000
1305187.899751,1.000000,2.000000,-1.000000,7.000000,4.000000,-2.000000,0.000000,-1.000000
1305187.900390,2.000000,-7.000000,2.000000,-8.000000,-10.000000,2.000000,-2.000000,-2.000000
1305187.900399,-1.000000,-2.000000,1.000000,4.000000,2.000000,-3.000000,0.000000,-1.000000
1305187.921943,0.000000,-1.000000,-3.000000,0.000000,-1.000000,0.000000,-1.000000,-2.000000
1305187.921953,-1.000000,-6.000000,-3.000000,1.000000,0.000000,-1.000000,0.000000,-4.000000
1305187.929668,-1.000000,2.000000,-4.000000,-3.000000,-1.000000,2.000000,1.000000,-1.000000
1305187.929678,-3.000000,-1.000000,1.000000,3.000000,3.000000,1.000000,-1.000000,1.000000
1305187.952082,-1.000000,-2.000000,1.000000,1.000000,0.000000,-3.000000,-3.000000,-4.000000
1305187.952092,-2.000000,0.000000,5.000000,-3.000000,-7.000000,2.000000,0.000000,0.000000
1305187.959674,0.000000,1.000000,-4.000000,0.000000,2.000000,-2.000000,-4.000000,-3.000000
1305187.959684,-2.000000,-1.000000,1.000000,-1.000000,2.000000,0.000000,-1.000000,-1.000000
1305187.989784,-3.000000,-3.000000,3.000000,-4.000000,0.000000,-2.000000,-2.000000,-1.000000
1305187.989797,-1.000000,-2.000000,-3.000000,-10.000000,-6.000000,0.000000,1.000000,-1.000000
1305187.997310,0.000000,-3.000000,3.000000,2.000000,0.000000,0.000000,-2.000000,0.000000
1305187.997323,-4.000000,2.000000,-6.000000,1.000000,2.000000,-3.000000,0.000000,-2.000000
1305187.998249,-1.000000,-1.000000,1.000000,1.000000,0.000000,-4.000000,-4.000000,-3.000000
1305187.998259,-1.000000,1.000000,0.000000,-8.000000,-5.000000,-1.000000,1.000000,0.000000
1305187.998737,-4.000000,-1.000000,-6.000000,-3.000000,-1.000000,-4.000000,0.000000,-3.000000
1305187.998747,1.000000,-2.000000,-5.000000,6.000000,7.000000,1.000000,-4.000000,-3.000000
1305188.000068,0.000000,1.000000,-1.000000,0.000000,-1.000000,-4.000000,-1.000000,1.000000
1305188.000077,0.000000,12.000000,-2.000000,-3.000000,-5.000000,-1.000000,-3.000000,-3.000000
1305188.000894,-1.000000,-10.000000,-1.000000,0.000000,1.000000,-1.000000,-2.000000,-4.000000
1305188.000904,-3.000000,1.000000,-2.000000,-4.000000,-3.000000,-3.000000,0.000000,-2.000000
1305188.012799,-3.000000,-4.000000,-2.000000,-2.000000,-3.000000,-6.000000,0.000000,-1.000000
1305188.012820,-3.000000,0.000000,-1.000000,-5.000000,0.000000,1.000000,0.000000,1.000000
1305188.019618,-2.000000,5.000000,0.000000,-4.000000,-2.000000,-2.000000,-4.000000,1.000000
1305188.019628,1.000000,-3.000000,-2.000000,1.000000,4.000000,-2.000000,0.000000,0.000000
1305188.049835,3.000000,0.000000,4.000000,-4.000000,-10.000000,0.000000,-2.000000,-1.000000
1305188.049847,-2.000000,-1.000000,-3.000000,0.000000,1.000000,-1.000000,-2.000000,-1.000000
1305188.057197,-2.000000,-11.000000,-10.000000,-5.000000,0.000000,-2.000000,3.000000,-1.000000
1305188.057282,0.000000,-1.000000,-4.000000,16.000000,16.000000,-3.000000,0.000000,-3.000000
1305188.079403,1.000000,5.000000,2.000000,-3.000000,-22.000000,4.000000,2.000000,3.000000
1305188.079432,-2.000000,2.000000,-1.000000,-3.000000,2.000000,0.000000,-3.000000,-1.000000
1305188.079879,1.000000,-1.000000,1.000000,0.000000,0.000000,-2.000000,2.000000,-4.000000
1305188.079887,-2.000000,-1.000000,-2.000000,-11.000000,3.000000,-4.000000,-2.000000,-3.000000
1305188.081490,-3.000000,-6.000000,-3.000000,4.000000,3.000000,-4.000000,-2.000000,-2.000000
1305188.081500,0.000000,-1.000000,-1.000000,-6.000000,0.000000,-3.000000,-2.000000,-4.000000
1305188.094655,-3.000000,3.000000,2.000000,-3.000000,-3.000000,-1.000000,0.000000,-2.000000
1305188.094667,0.000000,-3.000000,2.000000,3.000000,-4.000000,-5.000000,-3.000000,-1.000000
1305188.095908,-1.000000,-6.000000,-6.000000,0.000000,0.000000,0.000000,1.000000,0.000000
1305188.095917,0.000000,-1.000000,0.000000,6.000000,3.000000,5.000000,-1.000000,-2.000000
1305188.109509,-1.000000,-1.000000,-1.000000,1.000000,-4.000000,1.000000,-4.000000,0.000000
1305188.109565,2.000000,-1.000000,-2.000000,-1.000000,-4.000000,-3.000000,-3.000000,-3.000000
1305188.111104,2.000000,-6.000000,-2.000000,-1.000000,-4.000000,-1.000000,0.000000,0.000000
1305188.111118,0.000000,-4.000000,-1.000000,-2.000000,5.000000,0.000000,0.000000,0.000000
1305188.116976,4.000000,-1.000000,1.000000,1.000000,-2.000000,2.000000,4.000000,1.000000
1305188.116996,-4.000000,0.000000,-1.000000,-9.000000,-5.000000,0.000000,0.000000,-2.000000
1305188.132144,-1.000000,-1.000000,2.000000,10.000000,6.000000,-1.000000,-2.000000,1.000000
1305188.132153,-2.000000,-5.000000,-6.000000,2.000000,2.000000,-1.000000,-2.000000,0.000000
1305188.139596,-1.000000,1.000000,-3.000000,-5.000000,-7.000000,-1.000000,-1.000000,0.000000
1305188.139605,1.000000,0.000000,0.000000,3.000000,0.000000,2.000000,-1.000000,-2.000000
1305188.177107,-5.000000,0.000000,1.000000,0.000000,-3.000000,-2.000000,-1.000000,0.000000
1305188.177136,-3.000000,2.000000,2.000000,-3.000000,-2.000000,-3.000000,-4.000000,0.000000
1305188.184816,1.000000,-4.000000,0.000000,1.000000,-1.000000,0.000000,1.000000,1.000000
1305188.184827,0.000000,1.000000,-4.000000,-3.000000,-3.000000,2.000000,-1.000000,-5.000000
1305188.199811,-4.000000,-9.000000,-5.000000,1.000000,0.000000,1.000000,3.000000,-2.000000
1305188.199835,1.000000,-1.000000,0.000000,0.000000,-1.000000,-3.000000,-1.000000,-2.000000
1305188.214712,2.000000,3.000000,4.000000,-7.000000,-12.000000,-3.000000,-1.000000,0.000000
1305188.214733,1.000000,2.000000,2.000000,1.000000,-3.000000,0.000000,-3.000000,-3.000000
1305188.237124,0.000000,1.000000,-6.000000,2.000000,4.000000,-4.000000,-3.000000,-1.000000
1305188.237153,-4.000000,2.000000,0.000000,-4.000000,-4.000000,-2.000000,2.000000,-3.000000
1305188.252295,-3.000000,-3.000000,-1.000000,-2.000000,4.000000,-2.000000,-2.000000,0.000000
1305188.252328,1.000000,1.000000,-2.000000,-6.000000,-8.000000,-1.000000,1.000000,-1.000000
1305188.253448,1.000000,-1.000000,1.000000,-3.000000,-2.000000,-1.000000,1.000000,-1.000000
1305188.253475,-3.000000,-2.000000,-1.000000,1.000000,-4.000000,-2.000000,-2.000000,-3.000000
1305188.253941,1.000000,-2.000000,-3.000000,6.000000,4.000000,-1.000000,-3.000000,1.000000
1305188.253958,-2.000000,-1.000000,0.000000,5.000000,-1.000000,2.000000,1.000000,-3.000000
1305188.254498,-2.000000,-4.000000,3.000000,0.000000,1.000000,-3.000000,1.000000,-5.000000
1305188.254509,0.000000,-6.000000,-9.000000,-3.000000,0.000000,-2.000000,-3.000000,0.000000
1305188.255950,0.000000,-2.000000,-3.000000,1.000000,3.000000,-3.000000,-1.000000,-1.000000
1305188.255958,-3.000000,3.000000,1.000000,1.000000,1.000000,0.000000,-4.000000,-1.000000
1305188.267078,0.000000,3.000000,1.000000,0.000000,-5.000000,0.000000,-1.000000,-2.000000
1305188.267088,-1.000000,2.000000,0.000000,-6.000000,-1.000000,-3.000000,-3.000000,-1.000000
1305188.289694,-3.000000,-4.000000,-5.000000,-9.000000,-3.000000,0.000000,1.000000,-2.000000
1305188.289711,-5.000000,-6.000000,0.000000,5.000000,0.000000,-6.000000,-1.000000,-5.000000
1305188.297226,-4.000000,-3.000000,-1.000000,-5.000000,-3.000000,-2.000000,0.000000,2.000000
1305188.297253,-1.000000,-2.000000,-4.000000,-10.000000,-4.000000,-1.000000,1.000000,-1.000000
1305188.349902,3.000000,5.000000,2.000000,2.000000,2.000000,-1.000000,0.000000,1.000000
1305188.349913,4.000000,2.000000,-1.000000,-2.000000,-2.000000,0.000000,3.000000,-2.000000
1305188.350644,-2.000000,2.000000,3.000000,-5.000000,-11.000000,-4.000000,1.000000,-1.000000
1305188.350685,-4.000000,2.000000,-1.000000,-5.000000,-8.000000,2.000000,-3.000000,-1.000000
1305188.351803,-1.000000,2.000000,1.000000,3.000000,-1.000000,0.000000,-2.000000,-2.000000
1305188.351834,-1.000000,-2.000000,3.000000,8.000000,4.000000,-3.000000,0.000000,-2.000000
1305188.352520,-2.000000,-13.000000,-6.000000,-1.000000,0.000000,-2.000000,2.000000,-1.000000
1305188.352528,1.000000,-1.000000,-1.000000,-3.000000,1.000000,-1.000000,1.000000,0.000000
1305188.372251,1.000000,1.000000,-2.000000,8.000000,3.000000,2.000000,3.000000,0.000000
1305188.372263,-3.000000,-1.000000,1.000000,-8.000000,0.000000,0.000000,0.000000,1.000000
1305188.373378,-7.000000,-5.000000,-5.000000,4.000000,6.000000,-5.000000,-1.000000,-1.000000
1305188.373386,5.000000,12.000000,7.000000,-1.000000,-5.000000,0.000000,2.000000,1.000000
1305188.387195,-1.000000,2.000000,1.000000,-7.000000,-9.000000,2.000000,0.000000,0.000000
1305188.387205,0.000000,-4.000000,-1.000000,-4.000000,1.000000,3.000000,-1.000000,0.000000
1305188.410106,3.000000,-2.000000,-1.000000,1.000000,0.000000,-1.000000,-5.000000,0.000000
1305188.410117,0.000000,-2.000000,-1.000000,2.000000,2.000000,-5.000000,-4.000000,-3.000000
1305188.432197,-2.000000,-1.000000,-5.000000,-2.000000,-3.000000,2.000000,1.000000,2.000000
1305188.432225,-4.000000,-3.000000,-5.000000,2.000000,-2.000000,-1.000000,-3.000000,1.000000
1305188.455190,-2.000000,1.000000,0.000000,7.000000,1.000000,-3.000000,0.000000,1.000000
1305188.455199,-3.000000,-3.000000,0.000000,2.000000,2.000000,0.000000,0.000000,-2.000000
1305188.455722,1.000000,1.000000,2.000000,6.000000,-2.000000,-4.000000,2.000000,0.000000
1305188.455733,-2.000000,-2.000000,-2.000000,-1.000000,-1.000000,-1.000000,-1.000000,-2.000000
1305188.456989,-2.000000,3.000000,-2.000000,2.000000,2.000000,-2.000000,1.000000,-3.000000
1305188.456999,1.000000,-5.000000,-3.000000,-2.000000,1.000000,-2.000000,2.000000,2.000000
1305188.457533,-4.000000,-3.000000,-1.000000,-1.000000,1.000000,-4.000000,-1.000000,0.000000
1305188.457541,-1.000000,-2.000000,-2.000000,-3.000000,-3.000000,1.000000,-4.000000,-2.000000
1305188.458818,0.000000,-6.000000,-1.000000,-2.000000,-1.000000,0.000000,-1.000000,0.000000
1305188.458833,-2.000000,-6.000000,-9.000000,-1.000000,0.000000,1.000000,-1.000000,-2.000000
1305188.469416,3.000000,0.000000,2.000000,-2.000000,-2.000000,-1.000000,-1.000000,-2.000000
1305188.469426,1.000000,-1.000000,-1.000000,-7.000000,-8.000000,3.000000,1.000000,-1.000000
1305188.471543,-1.000000,3.000000,-1.000000,-5.000000,-3.000000,-3.000000,1.000000,0.000000
1305188.471574,2.000000,-1.000000,-5.000000,4.000000,3.000000,-7.000000,-1.000000,-3.000000
1305188.485168,2.000000,-1.000000,2.000000,5.000000,1.000000,-2.000000,-1.000000,1.000000
1305188.485183,-3.000000,-1.000000,0.000000,-4.000000,2.000000,3.000000,-3.000000,-1.000000
1305188.492836,-1.000000,-7.000000,0.000000,1.000000,0.000000,-3.000000,-3.000000,-5.000000
1305188.492852,1.000000,4.000000,1.000000,1.000000,-5.000000,-1.000000,-1.000000,-1.000000
1305188.507345,-2.000000,1.000000,2.000000,2.000000,3.000000,-3.000000,3.000000,-1.000000
1305188.507355,0.000000,-1.000000,5.000000,-3.000000,-11.000000,0.000000,2.000000,2.000000
1305188.522835,0.000000,1.000000,-4.000000,-4.000000,-1.000000,-1.000000,2.000000,-2.000000
1305188.522852,-2.000000,-2.000000,1.000000,-1.000000,1.000000,-3.000000,1.000000,0.000000
1305188.529606,-2.000000,-1.000000,-2.000000,-1.000000,1.000000,-2.000000,-1.000000,-4.000000
1305188.529636,-1.000000,-4.000000,-3.000000,3.000000,-5.000000,-4.000000,-1.000000,-1.000000
1305188.552729,-1.000000,-3.000000,-1.000000,-8.000000,-3.000000,-3.000000,1.000000,-1.000000
1305188.552739,-1.000000,2.000000,-1.000000,-2.000000,-2.000000,0.000000,-2.000000,-1.000000
1305188.553241,-2.000000,-1.000000,-1.000000,-3.000000,-4.000000,1.000000,-2.000000,0.000000
1305188.553249,0.000000,2.000000,0.000000,-6.000000,0.000000,1.000000,2.000000,1.000000
1305188.554950,-1.000000,-3.000000,-2.000000,16.000000,4.000000,-7.000000,-4.000000,-3.000000
1305188.554961,0.000000,-3.000000,-1.000000,4.000000,2.000000,1.000000,-2.000000,-1.000000
1305188.567252,-1.000000,2.000000,-2.000000,-4.000000,2.000000,5.000000,-2.000000,-1.000000
1305188.567265,-2.000000,-1.000000,-3.000000,-5.000000,-11.000000,0.000000,-1.000000,-4.000000
1305188.574763,2.000000,-2.000000,1.000000,5.000000,5.000000,2.000000,-2.000000,-1.000000
1305188.574777,0.000000,1.000000,-3.000000,-2.000000,1.000000,0.000000,0.000000,0.000000
1305188.589800,-2.000000,-1.000000,1.000000,3.000000,-1.000000,-1.000000,0.000000,-2.000000
1305188.589850,-1.000000,-2.000000,1.000000,-8.000000,-8.000000,1.000000,1.000000,-2.000000
1305188.612389,3.000000,-5.000000,7.000000,-7.000000,-6.000000,2.000000,-2.000000,-1.000000
1305188.612401,-4.000000,0.000000,1.000000,4.000000,-3.000000,2.000000,-2.000000,1.000000
1305188.627155,2.000000,0.000000,-5.000000,-3.000000,0.000000,-3.000000,-1.000000,-3.000000
1305188.627168,0.000000,2.000000,0.000000,2.000000,0.000000,-1.000000,-3.000000,-1.000000
1305188.641981,-1.000000,13.000000,-5.000000,5.000000,-3.000000,-2.000000,-3.000000,-1.000000
1305188.641992,-3.000000,-10.000000,5.000000,-2.000000,-1.000000,-1.000000,-1.000000,1.000000
1305188.649748,1.000000,0.000000,1.000000,0.000000,0.000000,1.000000,0.000000,0.000000
1305188.649757,-3.000000,1.000000,-3.000000,1.000000,-5.000000,-1.000000,1.000000,-2.000000
1305188.672617,-2.000000,-3.000000,-1.000000,0.000000,0.000000,0.000000,-2.000000,1.000000
1305188.672628,1.000000,-5.000000,2.000000,-4.000000,-5.000000,3.000000,1.000000,-3.000000
1305188.673196,2.000000,0.000000,4.000000,3.000000,-1.000000,2.000000,0.000000,-1.000000
1305188.673209,1.000000,6.000000,0.000000,-1.000000,0.000000,-1.000000,-1.000000,1.000000
1305188.674738,0.000000,-3.000000,5.000000,-2.000000,2.000000,-3.000000,0.000000,1.000000
1305188.674789,-1.000000,0.000000,-5.000000,-3.000000,-2.000000,-3.000000,-1.000000,-1.000000
1305188.675263,-2.000000,-1.000000,-4.000000,-1.000000,0.000000,0.000000,0.000000,1.000000
1305188.675272,0.000000,-7.000000,-6.000000,3.000000,7.000000,-3.000000,-1.000000,-2.000000
1305188.686945,1.000000,4.000000,0.000000,2.000000,-1.000000,0.000000,-2.000000,-3.000000
1305188.686974,-6.000000,-1.000000,3.000000,0.000000,0.000000,-4.000000,0.000000,0.000000
1305188.694568,-2.000000,-1.000000,1.000000,-2.000000,2.000000,-1.000000,2.000000,1.000000
1305188.694596,-4.000000,-1.000000,-4.000000,1.000000,-1.000000,-5.000000,-1.000000,1.000000
1305188.709882,-1.000000,1.000000,-1.000000,7.000000,-3.000000,0.000000,2.000000,0.000000
1305188.709895,-1.000000,2.000000,1.000000,-17.000000,-4.000000,-1.000000,-2.000000,-2.000000
1305188.732398,1.000000,2.000000,-3.000000,9.000000,8.000000,2.000000,1.000000,-1.000000
1305188.732410,-4.000000,-1.000000,-5.000000,-5.000000,-2.000000,1.000000,0.000000,0.000000
1305188.747100,0.000000,0.000000,-1.000000,2.000000,-1.000000,-1.000000,-2.000000,-4.000000
1305188.747117,2.000000,0.000000,-3.000000,-9.000000,-5.000000,-2.000000,-3.000000,0.000000
1305188.762152,2.000000,-3.000000,3.000000,1.000000,3.000000,-1.000000,0.000000,0.000000
1305188.762166,0.000000,-1.000000,-1.000000,-4.000000,-4.000000,-1.000000,1.000000,-2.000000
1305188.769864,-2.000000,-1.000000,0.000000,-2.000000,-5.000000,-2.000000,0.000000,0.000000
1305188.769875,0.000000,1.000000,0.000000,-1.000000,2.000000,-1.000000,-4.000000,-4.000000
1305188.793052,0.000000,-5.000000,1.000000,-2.000000,-1.000000,-3.000000,-2.000000,0.000000
1305188.793205,0.000000,1.000000,0.000000,0.000000,0.000000,-1.000000,-2.000000,0.000000
1305188.793476,0.000000,-6.000000,-4.000000,1.000000,0.000000,1.000000,-1.000000,-1.000000
1305188.793497,0.000000,-5.000000,0.000000,-5.000000,-3.000000,0.000000,-2.000000,-2.000000
1305188.793909,-2.000000,3.000000,-5.000000,2.000000,3.000000,0.000000,-2.000000,-1.000000
1305188.793922,-1.000000,3.000000,-3.000000,-1.000000,-7.000000,3.000000,1.000000,-1.000000
1305188.794537,1.000000,1.000000,-3.000000,-1.000000,-2.000000,-2.000000,1.000000,-1.000000
1305188.794551,-3.000000,-3.000000,4.000000,3.000000,5.000000,0.000000,-2.000000,-2.000000
1305188.829832,0.000000,-1.000000,1.000000,10.000000,-1.000000,-7.000000,-1.000000,-1.000000
1305188.829842,0.000000,2.000000,-2.000000,-7.000000,-1.000000,-4.000000,-2.000000,1.000000
1305188.844586,-2.000000,2.000000,6.000000,1.000000,-2.000000,1.000000,-2.000000,-4.000000
1305188.844622,-4.000000,-4.000000,-3.000000,-5.000000,2.000000,-2.000000,0.000000,-2.000000
1305188.845528,-6.000000,-4.000000,3.000000,3.000000,0.000000,0.000000,0.000000,0.000000
1305188.845536,2.000000,-2.000000,2.000000,8.000000,0.000000,0.000000,0.000000,0.000000
1305188.846136,-2.000000,0.000000,-1.000000,1.000000,2.000000,-4.000000,-3.000000,0.000000
1305188.846146,-1.000000,1.000000,-5.000000,-5.000000,-1.000000,3.000000,-1.000000,-2.000000
1305188.847840,1.000000,1.000000,-1.000000,0.000000,0.000000,1.000000,1.000000,-2.000000
1305188.847848,-1.000000,-3.000000,-3.000000,-1.000000,-2.000000,-1.000000,2.000000,-1.000000
1305188.851820,2.000000,0.000000,3.000000,2.000000,3.000000,-3.000000,-3.000000,-3.000000
1305188.851829,-1.000000,0.000000,2.000000,-5.000000,-13.000000,0.000000,1.000000,1.000000
1305188.874899,0.000000,2.000000,3.000000,3.000000,1.000000,2.000000,-2.000000,-3.000000
1305188.874909,-2.000000,0.000000,-3.000000,1.000000,0.000000,1.000000,-1.000000,-1.000000
1305188.904777,-1.000000,-3.000000,-2.000000,-1.000000,0.000000,-1.000000,-3.000000,0.000000
1305188.904790,-3.000000,-1.000000,-3.000000,0.000000,1.000000,-2.000000,2.000000,-1.000000
1305188.905703,1.000000,0.000000,-3.000000,-11.000000,-15.000000,1.000000,3.000000,-2.000000
1305188.905716,-4.000000,-1.000000,-1.000000,4.000000,6.000000,-3.000000,-3.000000,-4.000000
1305188.906211,1.000000,3.000000,-4.000000,-7.000000,-10.000000,-2.000000,0.000000,-1.000000
1305188.906221,-4.000000,-1.000000,-1.000000,0.000000,4.000000,-2.000000,-3.000000,0.000000
1305188.908086,-5.000000,6.000000,-3.000000,-4.000000,0.000000,-3.000000,-2.000000,0.000000
1305188.908098,-5.000000,-9.000000,3.000000,0.000000,-2.000000,-3.000000,-5.000000,1.000000
1305188.912397,0.000000,2.000000,-5.000000,-2.000000,1.000000,2.000000,-2.000000,2.000000
1305188.912410,-1.000000,-5.000000,-3.000000,0.000000,-1.000000,-3.000000,1.000000,1.000000
1305188.949529,-3.000000,0.000000,-1.000000,-1.000000,2.000000,1.000000,0.000000,-5.000000
1305188.949541,-1.000000,0.000000,-6.000000,3.000000,4.000000,-1.000000,0.000000,-1.000000
1305188.949977,-3.000000,-4.000000,-4.000000,-10.000000,-8.000000,3.000000,0.000000,-1.000000
1305188.949987,-3.000000,0.000000,-2.000000,-4.000000,-2.000000,-2.000000,-1.000000,-2.000000
1305188.951221,-1.000000,-1.000000,1.000000,2.000000,-1.000000,-1.000000,0.000000,-3.000000
1305188.951232,3.000000,4.000000,1.000000,-4.000000,-3.000000,2.000000,-1.000000,0.000000
1305188.952120,0.000000,-5.000000,1.000000,2.000000,-4.000000,4.000000,-3.000000,0.000000
1305188.952130,-2.000000,-2.000000,2.000000,3.000000,2.000000,-6.000000,-2.000000,0.000000
1305188.965440,-1.000000,1.000000,-2.000000,0.000000,-4.000000,-7.000000,-3.000000,0.000000
1305188.965451,-2.000000,-2.000000,-2.000000,9.000000,4.000000,-2.000000,-3.000000,0.000000
1305188.972206,-1.000000,-2.000000,-4.000000,-10.000000,-4.000000,-1.000000,-1.000000,0.000000
1305188.972231,-2.000000,-4.000000,-5.000000,-1.000000,-1.000000,1.000000,0.000000,-1.000000
1305189.002324,0.000000,-2.000000,1.000000,-8.000000,-8.000000,-2.000000,-1.000000,-1.000000
1305189.002335,1.000000,-5.000000,-1.000000,-2.000000,-1.000000,0.000000,-2.000000,0.000000
1305189.009847,-1.000000,3.000000,-3.000000,3.000000,2.000000,1.000000,-1.000000,-3.000000
1305189.009859,0.000000,3.000000,-4.000000,-4.000000,-6.000000,0.000000,1.000000,2.000000
1305189.032050,-3.000000,-2.000000,-3.000000,0.000000,4.000000,-3.000000,-2.000000,0.000000
1305189.032067,-5.000000,-3.000000,-2.000000,4.000000,5.000000,-3.000000,-2.000000,-3.000000
1305189.039627,-1.000000,10.000000,-1.000000,0.000000,-5.000000,-1.000000,-1.000000,-2.000000
1305189.039636,-2.000000,-8.000000,7.000000,-2.000000,-4.000000,2.000000,-3.000000,-1.000000
1305189.047713,-1.000000,-3.000000,0.000000,2.000000,3.000000,0.000000,-3.000000,1.000000
1305189.047725,0.000000,-1.000000,3.000000,-2.000000,-1.000000,-3.000000,-2.000000,-1.000000
1305189.048187,-1.000000,2.000000,-5.000000,2.000000,0.000000,4.000000,0.000000,0.000000
1305189.048199,-1.000000,-1.000000,-3.000000,-4.000000,4.000000,-1.000000,0.000000,0.000000
1305189.050059,-2.000000,-3.000000,0.000000,-12.000000,-9.000000,2.000000,-1.000000,-3.000000
1305189.050071,1.000000,-2.000000,1.000000,-4.000000,-5.000000,0.000000,-1.000000,-6.000000
1305189.062022,1.000000,-3.000000,-1.000000,-4.000000,-1.000000,0.000000,1.000000,-2.000000
1305189.062033,0.000000,1.000000,0.000000,2.000000,1.000000,-2.000000,-2.000000,2.000000
1305189.063494,-1.000000,-1.000000,0.000000,-3.000000,-5.000000,2.000000,-1.000000,0.000000
1305189.063508,2.000000,-6.000000,2.000000,0.000000,1.000000,3.000000,1.000000,-3.000000
1305189.069620,1.000000,0.000000,1.000000,-2.000000,-4.000000,-1.000000,-1.000000,0.000000
1305189.069630,2.000000,1.000000,-2.000000,0.000000,-1.000000,4.000000,0.000000,0.000000
1305189.122134,-1.000000,2.000000,-3.000000,3.000000,1.000000,-1.000000,1.000000,1.000000
1305189.122144,-1.000000,0.000000,0.000000,-1.000000,1.000000,-5.000000,0.000000,-3.000000
1305189.129580,-4.000000,-1.000000,2.000000,2.000000,-4.000000,1.000000,-4.000000,0.000000
1305189.129589,-3.000000,2.000000,0.000000,-4.000000,-3.000000,-3.000000,1.000000,0.000000
1305189.144843,-1.000000,-2.000000,2.000000,19.000000,3.000000,-1.000000,0.000000,0.000000
1305189.144854,-2.000000,-5.000000,1.000000,-2.000000,2.000000,-1.000000,-3.000000,-2.000000
1305189.166978,4.000000,0.000000,-4.000000,-5.000000,-4.000000,-5.000000,-2.000000,0.000000
1305189.166996,-3.000000,-1.000000,-4.000000,3.000000,6.000000,-7.000000,0.000000,-4.000000
1305189.168118,1.000000,0.000000,2.000000,-9.000000,-14.000000,6.000000,6.000000,0.000000
1305189.168127,0.000000,-3.000000,-4.000000,-2.000000,1.000000,-5.000000,-3.000000,0.000000
1305189.169443,3.000000,0.000000,2.000000,-4.000000,-7.000000,3.000000,1.000000,1.000000
1305189.169452,-2.000000,0.000000,-3.000000,0.000000,1.000000,-1.000000,1.000000,-2.000000
1305189.170059,2.000000,-6.000000,0.000000,0.000000,-6.000000,0.000000,1.000000,-1.000000
1305189.170067,-3.000000,-2.000000,4.000000,-3.000000,1.000000,2.000000,-3.000000,-1.000000
1305189.182282,-1.000000,1.000000,-1.000000,0.000000,0.000000,-5.000000,-7.000000,-1.000000
1305189.182296,0.000000,-5.000000,0.000000,-2.000000,1.000000,-1.000000,-1.000000,0.000000
1305189.183378,1.000000,-1.000000,3.000000,0.000000,-1.000000,-2.000000,-1.000000,-2.000000
1305189.183388,-1.000000,-2.000000,-2.000000,0.000000,3.000000,-2.000000,0.000000,-2.000000
1305189.189801,0.000000,1.000000,0.000000,-4.000000,-6.000000,-4.000000,3.000000,-2.000000
1305189.189813,0.000000,-4.000000,-3.000000,3.000000,0.000000,-3.000000,1.000000,0.000000
1305189.228641,-2.000000,-3.000000,2.000000,6.000000,3.000000,0.000000,-4.000000,-2.000000
1305189.228652,1.000000,-3.000000,1.000000,-1.000000,-1.000000,-2.000000,0.000000,1.000000
1305189.242265,1.000000,-2.000000,-3.000000,-2.000000,0.000000,-3.000000,-1.000000,2.000000
1305189.242294,-3.000000,-1.000000,0.000000,-1.000000,1.000000,0.000000,-1.000000,-1.000000
1305189.264777,-1.000000,-3.000000,-2.000000,-2.000000,-3.000000,2.000000,3.000000,1.000000
1305189.264788,-6.000000,2.000000,-1.000000,7.000000,1.000000,-1.000000,-1.000000,0.000000
1305189.287251,-5.000000,-6.000000,3.000000,-1.000000,5.000000,-6.000000,-2.000000,-3.000000
1305189.287263,-4.000000,-3.000000,-3.000000,-6.000000,-7.000000,3.000000,1.000000,2.000000
1305189.288203,2.000000,1.000000,-1.000000,-2.000000,0.000000,1.000000,-4.000000,-2.000000
1305189.288216,0.000000,-1.000000,-3.000000,-1.000000,0.000000,-1.000000,-4.000000,-2.000000
1305189.288848,-1.000000,-2.000000,-2.000000,-7.000000,-9.000000,-1.000000,1.000000,-2.000000
1305189.288856,-1.000000,1.000000,-1.000000,-3.000000,-4.000000,-2.000000,1.000000,-1.000000
1305189.290205,-1.000000,1.000000,2.000000,1.000000,1.000000,-1.000000,3.000000,-2.000000
1305189.290215,-2.000000,-5.000000,-1.000000,-8.000000,-6.000000,0.000000,-3.000000,-3.000000
1305189.301869,0.000000,0.000000,0.000000,1.000000,-1.000000,0.000000,0.000000,-1.000000
1305189.301889,-2.000000,0.000000,3.000000,1.000000,-2.000000,0.000000,-2.000000,0.000000
1305189.303313,-3.000000,-1.000000,0.000000,0.000000,-1.000000,-4.000000,-4.000000,-2.000000
1305189.303329,-1.000000,-1.000000,2.000000,-1.000000,0.000000,0.000000,-1.000000,-4.000000
1305189.324730,-2.000000,0.000000,-3.000000,-4.000000,-2.000000,0.000000,-1.000000,-1.000000
1305189.324740,-4.000000,-9.000000,-3.000000,9.000000,-1.000000,-2.000000,-2.000000,-1.000000
1305189.347145,0.000000,-6.000000,-2.000000,-4.000000,-2.000000,0.000000,0.000000,-4.000000
1305189.347163,1.000000,0.000000,-1.000000,6.000000,4.000000,0.000000,-1.000000,-2.000000
1305189.354599,2.000000,0.000000,-2.000000,-1.000000,-3.000000,-5.000000,-4.000000,-1.000000
1305189.354628,3.000000,9.000000,-3.000000,4.000000,7.000000,-5.000000,-3.000000,0.000000
1305189.384641,-1.000000,-5.000000,3.000000,-9.000000,-17.000000,7.000000,1.000000,-1.000000
1305189.384651,-5.000000,-1.000000,1.000000,-8.000000,-11.000000,1.000000,-2.000000,1.000000
1305189.399507,-1.000000,-2.000000,-1.000000,-1.000000,4.000000,1.000000,0.000000,-5.000000
1305189.399523,2.000000,3.000000,4.000000,2.000000,-3.000000,-1.000000,-4.000000,-3.000000
1305189.400608,-3.000000,5.000000,-4.000000,5.000000,0.000000,-1.000000,-4.000000,-1.000000
1305189.400625,-1.000000,-3.000000,-5.000000,-5.000000,-3.000000,-2.000000,2.000000,0.000000
1305189.401147,1.000000,3.000000,0.000000,-16.000000,-6.000000,1.000000,-3.000000,-3.000000
1305189.401156,0.000000,-3.000000,-3.000000,0.000000,3.000000,-3.000000,-2.000000,-5.000000
1305189.402582,1.000000,1.000000,0.000000,0.000000,-1.000000,0.000000,-2.000000,1.000000
1305189.402594,1.000000,2.000000,-3.000000,-2.000000,-1.000000,-1.000000,3.000000,-2.000000
1305189.407038,-3.000000,-5.000000,-2.000000,-1.000000,0.000000,1.000000,-3.000000,0.000000
1305189.407067,3.000000,6.000000,2.000000,8.000000,-2.000000,1.000000,-1.000000,-2.000000
1305189.414830,-3.000000,3.000000,-3.000000,-6.000000,-3.000000,2.000000,0.000000,-5.000000
1305189.414841,-3.000000,3.000000,0.000000,5.000000,2.000000,-4.000000,0.000000,2.000000
1305189.422881,-2.000000,-2.000000,-1.000000,0.000000,1.000000,0.000000,-2.000000,-2.000000
1305189.422890,-3.000000,1.000000,-4.000000,5.000000,8.000000,-5.000000,-2.000000,-3.000000
1305189.437130,2.000000,-10.000000,3.000000,-10.000000,-18.000000,3.000000,0.000000,0.000000
1305189.437146,-2.000000,-1.000000,-1.000000,-1.000000,-1.000000,-3.000000,-2.000000,-4.000000
1305189.459868,-1.000000,3.000000,-1.000000,1.000000,2.000000,-4.000000,-3.000000,0.000000
1305189.459880,1.000000,-2.000000,1.000000,-6.000000,-9.000000,-1.000000,-1.000000,2.000000
1305189.467339,2.000000,0.000000,0.000000,4.000000,2.000000,3.000000,-1.000000,0.000000
1305189.467350,2.000000,-1.000000,0.000000,-3.000000,0.000000,-1.000000,-1.000000,1.000000
1305189.482165,1.000000,-5.000000,1.000000,1.000000,4.000000,-2.000000,-2.000000,-2.000000
1305189.482185,1.000000,0.000000,-3.000000,-2.000000,-2.000000,0.000000,5.000000,-3.000000
1305189.504729,-3.000000,-4.000000,2.000000,1.000000,-6.000000,-2.000000,1.000000,2.000000
1305189.504740,-2.000000,3.000000,1.000000,-3.000000,0.000000,0.000000,-1.000000,-2.000000
1305189.527157,0.000000,2.000000,2.000000,-2.000000,2.000000,-2.000000,0.000000,0.000000
1305189.527168,-1.000000,-1.000000,-5.000000,1.000000,1.000000,2.000000,1.000000,-1.000000
1305189.541839,-1.000000,-3.000000,-4.000000,2.000000,-4.000000,-3.000000,-2.000000,-3.000000
1305189.541850,0.000000,0.000000,-7.000000,-4.000000,-1.000000,-4.000000,1.000000,-1.000000
1305189.543077,1.000000,2.000000,1.000000,0.000000,0.000000,-5.000000,1.000000,-1.000000
1305189.543091,-1.000000,-1.000000,-2.000000,-2.000000,-8.000000,2.000000,-2.000000,0.000000
1305189.543707,-1.000000,-5.000000,0.000000,4.000000,5.000000,-3.000000,0.000000,-1.000000
1305189.543733,-1.000000,-2.000000,-1.000000,-4.000000,0.000000,0.000000,0.000000,-1.000000
1305189.545044,-3.000000,-1.000000,1.000000,0.000000,0.000000,-2.000000,-1.000000,-2.000000
1305189.545072,-2.000000,-1.000000,1.000000,2.000000,0.000000,3.000000,3.000000,-2.000000
1305189.557145,-3.000000,-1.000000,-3.000000,-3.000000,-1.000000,-1.000000,-2.000000,-1.000000
1305189.557155,-4.000000,-2.000000,-5.000000,-3.000000,0.000000,0.000000,1.000000,-1.000000
1305189.580092,-3.000000,2.000000,2.000000,-2.000000,4.000000,-4.000000,-1.000000,-4.000000
1305189.580122,1.000000,2.000000,0.000000,3.000000,5.000000,1.000000,-1.000000,0.000000
1305189.586990,-3.000000,0.000000,4.000000,-2.000000,1.000000,1.000000,2.000000,-2.000000
1305189.587019,-1.000000,-1.000000,1.000000,0.000000,-2.000000,-2.000000,-2.000000,-1.000000
1305189.617236,1.000000,-1.000000,-4.000000,-4.000000,2.000000,-1.000000,2.000000,-3.000000
1305189.617266,1.000000,1.000000,-2.000000,-2.000000,-1.000000,1.000000,2.000000,0.000000
1305189.617691,-1.000000,2.000000,-1.000000,5.000000,2.000000,-3.000000,-2.000000,1.000000
1305189.617708,-3.000000,-4.000000,-6.000000,-3.000000,0.000000,-1.000000,1.000000,2.000000
1305189.618792,-2.000000,-4.000000,-3.000000,-4.000000,1.000000,-2.000000,-2.000000,2.000000
1305189.618802,4.000000,-1.000000,4.000000,-4.000000,-13.000000,1.000000,-1.000000,2.000000
1305189.619730,0.000000,-3.000000,-1.000000,1.000000,3.000000,-1.000000,-1.000000,-3.000000
1305189.619740,0.000000,-4.000000,-2.000000,-5.000000,-3.000000,-1.000000,-3.000000,-2.000000
1305189.626774,0.000000,-3.000000,-2.000000,4.000000,4.000000,-4.000000,2.000000,-1.000000
1305189.626787,-2.000000,-3.000000,0.000000,-7.000000,-8.000000,1.000000,-5.000000,-5.000000
1305189.639441,1.000000,0.000000,-3.000000,-3.000000,-4.000000,-1.000000,-4.000000,2.000000
1305189.639457,-2.000000,-4.000000,-1.000000,-3.000000,3.000000,0.000000,-3.000000,1.000000
1305189.654764,-4.000000,-3.000000,-2.000000,0.000000,1.000000,-4.000000,1.000000,-2.000000
1305189.654777,-3.000000,-11.000000,-4.000000,-1.000000,-2.000000,-1.000000,-1.000000,-1.000000
1305189.662302,-2.000000,0.000000,1.000000,-1.000000,2.000000,-1.000000,2.000000,0.000000
1305189.662315,-1.000000,-3.000000,0.000000,-1.000000,4.000000,-4.000000,-3.000000,0.000000
1305189.663446,-2.000000,1.000000,-1.000000,1.000000,3.000000,0.000000,-3.000000,1.000000
1305189.663466,2.000000,0.000000,2.000000,1.000000,0.000000,-2.000000,-3.000000,1.000000
1305189.677166,0.000000,2.000000,-3.000000,3.000000,-3.000000,-2.000000,-4.000000,2.000000
1305189.677187,-4.000000,2.000000,-3.000000,-5.000000,-1.000000,0.000000,-4.000000,0.000000
1305189.699822,0.000000,-4.000000,-6.000000,3.000000,1.000000,-3.000000,-2.000000,0.000000
1305189.699832,0.000000,-2.000000,2.000000,-3.000000,-8.000000,2.000000,-3.000000,0.000000
1305189.707208,-1.000000,-7.000000,-1.000000,2.000000,2.000000,1.000000,2.000000,0.000000
1305189.707219,0.000000,2.000000,-1.000000,-5.000000,-2.000000,1.000000,1.000000,-2.000000
1305189.737019,-2.000000,-4.000000,0.000000,-1.000000,-5.000000,3.000000,0.000000,-3.000000
1305189.737048,-1.000000,6.000000,1.000000,0.000000,2.000000,-1.000000,1.000000,-1.000000
1305189.744733,1.000000,-7.000000,-4.000000,-1.000000,-2.000000,-3.000000,2.000000,-3.000000
1305189.744745,2.000000,9.000000,-3.000000,-3.000000,0.000000,1.000000,0.000000,0.000000
1305189.745663,-3.000000,-9.000000,5.000000,-2.000000,0.000000,2.000000,-1.000000,-1.000000
1305189.745674,0.000000,0.000000,-1.000000,0.000000,-1.000000,-4.000000,0.000000,-2.000000
1305189.746197,2.000000,1.000000,-3.000000,0.000000,1.000000,1.000000,-2.000000,-2.000000
1305189.746205,-3.000000,-2.000000,-5.000000,0.000000,2.000000,-4.000000,-1.000000,0.000000
1305189.748172,0.000000,0.000000,-2.000000,0.000000,2.000000,-1.000000,-1.000000,-2.000000
1305189.748183,0.000000,0.000000,-1.000000,5.000000,4.000000,-4.000000,-1.000000,-2.000000
1305189.752321,-1.000000,0.000000,-5.000000,-6.000000,-5.000000,1.000000,1.000000,-1.000000
1305189.752332,-2.000000,-4.000000,0.000000,-1.000000,0.000000,1.000000,-3.000000,0.000000
1305189.774585,0.000000,-1.000000,1.000000,-1.000000,-2.000000,-1.000000,-3.000000,0.000000
1305189.774601,-2.000000,-3.000000,-1.000000,-4.000000,-1.000000,2.000000,-2.000000,0.000000
1305189.775216,1.000000,-3.000000,-5.000000,-5.000000,-1.000000,-2.000000,1.000000,0.000000
1305189.775224,2.000000,-1.000000,-2.000000,-8.000000,-11.000000,-4.000000,1.000000,-3.000000
1305189.790361,-1.000000,-4.000000,-1.000000,2.000000,2.000000,0.000000,-5.000000,-2.000000
1305189.790370,1.000000,-4.000000,-1.000000,-5.000000,-7.000000,2.000000,-1.000000,1.000000
1305189.797319,0.000000,2.000000,3.000000,-4.000000,-1.000000,-2.000000,-1.000000,-1.000000
1305189.797329,3.000000,0.000000,-8.000000,3.000000,4.000000,-3.000000,-2.000000,0.000000
1305189.819876,-2.000000,-10.000000,-3.000000,2.000000,0.000000,-5.000000,-2.000000,0.000000
1305189.819892,-4.000000,-1.000000,-3.000000,0.000000,3.000000,-5.000000,-1.000000,0.000000
1305189.842298,-2.000000,0.000000,1.000000,7.000000,0.000000,-1.000000,-2.000000,-6.000000
1305189.842310,-1.000000,2.000000,2.000000,-6.000000,-1.000000,1.000000,-1.000000,-2.000000
1305189.857816,-1.000000,2.000000,-1.000000,-2.000000,-1.000000,-2.000000,-1.000000,-2.000000
1305189.857884,0.000000,9.000000,-3.000000,0.000000,1.000000,-1.000000,-3.000000,0.000000
1305189.858040,-3.000000,-7.000000,0.000000,1.000000,1.000000,-3.000000,0.000000,-3.000000
1305189.858048,1.000000,-1.000000,-5.000000,0.000000,-4.000000,-2.000000,2.000000,0.000000
1305189.859419,-3.000000,3.000000,0.000000,-1.000000,-3.000000,0.000000,0.000000,0.000000
1305189.859427,-3.000000,1.000000,2.000000,3.000000,-1.000000,-4.000000,-1.000000,-1.000000
1305189.860289,-1.000000,2.000000,-2.000000,6.000000,-2.000000,-2.000000,-1.000000,-1.000000
1305189.860298,-4.000000,3.000000,0.000000,-3.000000,3.000000,-1.000000,-2.000000,0.000000
1305189.865254,0.000000,0.000000,-3.000000,7.000000,1.000000,3.000000,-2.000000,2.000000
1305189.865263,-2.000000,0.000000,-3.000000,-4.000000,3.000000,0.000000,-2.000000,-2.000000
1305189.879799,1.000000,-3.000000,-1.000000,-1.000000,1.000000,2.000000,-3.000000,-3.000000
1305189.879810,1.000000,1.000000,-3.000000,-1.000000,0.000000,-1.000000,-2.000000,0.000000
1305189.902402,-1.000000,-5.000000,0.000000,5.000000,3.000000,2.000000,0.000000,-1.000000
1305189.902418,0.000000,0.000000,-3.000000,-2.000000,-4.000000,0.000000,0.000000,-1.000000
1305189.917125,0.000000,-3.000000,-1.000000,-1.000000,-3.000000,1.000000,2.000000,-1.000000
1305189.917154,-2.000000,-3.000000,-5.000000,-2.000000,2.000000,-1.000000,0.000000,-2.000000
1305189.947198,0.000000,-4.000000,-1.000000,1.000000,0.000000,-3.000000,0.000000,3.000000
1305189.947210,0.000000,-2.000000,-1.000000,-3.000000,-3.000000,-4.000000,0.000000,-3.000000
1305189.977277,0.000000,-2.000000,-3.000000,3.000000,1.000000,-4.000000,-2.000000,-3.000000
1305189.977289,-2.000000,-1.000000,2.000000,-1.000000,1.000000,1.000000,-2.000000,-2.000000
1305189.978166,1.000000,-4.000000,3.000000,1.000000,-1.000000,1.000000,-3.000000,-1.000000
1305189.978174,0.000000,0.000000,2.000000,-5.000000,-6.000000,1.000000,0.000000,0.000000
1305189.979866,1.000000,2.000000,-4.000000,-1.000000,-2.000000,2.000000,-5.000000,-1.000000
1305189.979877,-2.000000,-10.000000,-1.000000,-4.000000,-4.000000,0.000000,-1.000000,1.000000
1305189.980755,2.000000,-2.000000,-1.000000,-1.000000,-2.000000,0.000000,-2.000000,0.000000
1305189.980763,-2.000000,2.000000,-2.000000,-4.000000,3.000000,-1.000000,2.000000,0.000000
1305189.981451,-1.000000,-1.000000,-3.000000,-7.000000,-1.000000,-2.000000,-6.000000,-2.000000
1305189.981459,-4.000000,-1.000000,2.000000,4.000000,2.000000,-3.000000,0.000000,1.000000
1305190.000192,-1.000000,-1.000000,-2.000000,0.000000,0.000000,-1.000000,2.000000,-2.000000
1305190.000209,-1.000000,-5.000000,0.000000,3.000000,1.000000,1.000000,0.000000,-2.000000
1305190.014774,-1.000000,0.000000,2.000000,-1.000000,0.000000,-4.000000,-3.000000,-2.000000
1305190.014789,1.000000,-3.000000,0.000000,-2.000000,-3.000000,3.000000,-1.000000,0.000000
1305190.015718,1.000000,0.000000,-3.000000,-2.000000,-6.000000,0.000000,-3.000000,-1.000000
1305190.015728,-1.000000,1.000000,-3.000000,-3.000000,-5.000000,0.000000,1.000000,-2.000000
1305190.016447,-4.000000,0.000000,0.000000,3.000000,6.000000,0.000000,-2.000000,-1.000000
1305190.016456,-2.000000,-3.000000,3.000000,-5.000000,-7.000000,1.000000,-1.000000,0.000000
1305190.022968,0.000000,-4.000000,1.000000,-1.000000,-3.000000,-4.000000,-3.000000,2.000000
1305190.022984,2.000000,-2.000000,-3.000000,0.000000,0.000000,-3.000000,0.000000,2.000000
1305190.037170,0.000000,2.000000,0.000000,3.000000,6.000000,0.000000,0.000000,-5.000000
1305190.037182,2.000000,12.000000,-2.000000,9.000000,-20.000000,4.000000,0.000000,-1.000000
1305190.074699,-1.000000,-17.000000,2.000000,-1.000000,1.000000,-4.000000,-1.000000,-1.000000
1305190.074712,1.000000,4.000000,1.000000,-6.000000,-6.000000,-3.000000,-3.000000,-1.000000
1305190.075163,-1.000000,-1.000000,-7.000000,0.000000,2.000000,-3.000000,-5.000000,0.000000
1305190.075180,-2.000000,-1.000000,-6.000000,-5.000000,-1.000000,-2.000000,-1.000000,0.000000
1305190.076183,0.000000,0.000000,3.000000,-1.000000,0.000000,-3.000000,0.000000,-3.000000
1305190.076191,1.000000,2.000000,-3.000000,0.000000,1.000000,-5.000000,-1.000000,-3.000000
1305190.077495,2.000000,2.000000,-1.000000,-5.000000,-9.000000,4.000000,2.000000,2.000000
1305190.077506,0.000000,1.000000,0.000000,-3.000000,-2.000000,3.000000,-2.000000,0.000000
1305190.097042,-2.000000,-2.000000,-1.000000,2.000000,0.000000,-1.000000,-1.000000,-2.000000
1305190.097062,-2.000000,-5.000000,-7.000000,-3.000000,4.000000,0.000000,-2.000000,-3.000000
1305190.119839,-3.000000,-3.000000,-1.000000,-1.000000,-8.000000,-2.000000,-3.000000,-2.000000
1305190.119851,4.000000,-1.000000,-3.000000,-2.000000,-2.000000,-1.000000,-2.000000,1.000000
1305190.142854,-3.000000,-5.000000,-2.000000,6.000000,5.000000,2.000000,-3.000000,-2.000000
1305190.142905,-1.000000,0.000000,3.000000,-4.000000,-7.000000,-5.000000,-2.000000,-3.000000
1305190.143746,-4.000000,-3.000000,1.000000,-9.000000,0.000000,0.000000,1.000000,1.000000
1305190.144230,0.000000,-1.000000,2.000000,1.000000,2.000000,-1.000000,-2.000000,1.000000
1305190.144940,1.000000,-1.000000,-2.000000,0.000000,0.000000,1.000000,-2.000000,-4.000000
1305190.145217,-1.000000,0.000000,-2.000000,2.000000,0.000000,-4.000000,-2.000000,0.000000
1305190.145831,0.000000,-1.000000,-1.000000,-1.000000,-2.000000,-1.000000,-1.000000,0.000000
1305190.145869,0.000000,-7.000000,2.000000,-1.000000,-2.000000,-2.000000,2.000000,0.000000
1305190.157603,-2.000000,-8.000000,6.000000,5.000000,3.000000,-5.000000,1.000000,-3.000000
1305190.157643,0.000000,0.000000,1.000000,-2.000000,-9.000000,3.000000,0.000000,-1.000000
1305190.179884,-1.000000,1.000000,1.000000,0.000000,-3.000000,-1.000000,2.000000,0.000000
1305190.179896,-4.000000,-1.000000,4.000000,-4.000000,1.000000,-1.000000,-1.000000,-3.000000
1305190.187132,-6.000000,-3.000000,-2.000000,-3.000000,-2.000000,2.000000,-1.000000,-2.000000
1305190.187152,3.000000,0.000000,-3.000000,-1.000000,-3.000000,-5.000000,0.000000,-1.000000
1305190.217320,2.000000,2.000000,1.000000,1.000000,1.000000,0.000000,1.000000,2.000000
1305190.217334,-1.000000,0.000000,2.000000,-2.000000,1.000000,0.000000,3.000000,0.000000
1305190.217741,-2.000000,-3.000000,-3.000000,0.000000,-7.000000,-4.000000,-3.000000,-1.000000
1305190.217751,0.000000,-3.000000,1.000000,3.000000,2.000000,-2.000000,-1.000000,-3.000000
1305190.232173,-7.000000,-4.000000,-1.000000,-3.000000,-3.000000,3.000000,1.000000,2.000000
1305190.232196,-2.000000,-2.000000,0.000000,4.000000,3.000000,0.000000,-2.000000,-3.000000
1305190.232649,-2.000000,-2.000000,-2.000000,-3.000000,1.000000,-1.000000,-5.000000,-2.000000
1305190.232670,1.000000,-6.000000,-6.000000,0.000000,1.000000,2.000000,0.000000,-2.000000
1305190.233706,0.000000,6.000000,4.000000,-2.000000,2.000000,-2.000000,-4.000000,2.000000
1305190.233718,-1.000000,-2.000000,1.000000,10.000000,4.000000,-1.000000,-2.000000,1.000000
1305190.234646,2.000000,-2.000000,-1.000000,-8.000000,-2.000000,-3.000000,-2.000000,-1.000000
1305190.234666,-2.000000,-2.000000,0.000000,0.000000,-4.000000,-1.000000,0.000000,-2.000000
1305190.254554,-4.000000,-4.000000,0.000000,0.000000,-1.000000,-2.000000,1.000000,-1.000000
1305190.254567,2.000000,1.000000,-2.000000,-4.000000,-2.000000,-3.000000,-1.000000,-2.000000
1305190.255295,1.000000,-7.000000,1.000000,-1.000000,-4.000000,-1.000000,-3.000000,-1.000000
1305190.255303,-1.000000,0.000000,-3.000000,4.000000,3.000000,1.000000,-1.000000,-3.000000
1305190.277686,0.000000,4.000000,3.000000,7.000000,3.000000,-2.000000,-1.000000,2.000000
1305190.277700,1.000000,1.000000,-3.000000,-5.000000,-3.000000,3.000000,-1.000000,-1.000000
1305190.291985,-2.000000,2.000000,1.000000,1.000000,-3.000000,1.000000,1.000000,1.000000
1305190.291996,0.000000,3.000000,-1.000000,-11.000000,-10.000000,1.000000,-1.000000,0.000000
1305190.314952,0.000000,-4.000000,-2.000000,2.000000,4.000000,-5.000000,2.000000,-2.000000
1305190.314966,-1.000000,-1.000000,-5.000000,1.000000,0.000000,-1.000000,0.000000,2.000000
1305190.329422,1.000000,-1.000000,-5.000000,1.000000,6.000000,-2.000000,1.000000,-2.000000
1305190.329433,-3.000000,-1.000000,1.000000,1.000000,-3.000000,0.000000,2.000000,1.000000
1305190.337441,-4.000000,-2.000000,-2.000000,1.000000,-2.000000,1.000000,-1.000000,-2.000000
1305190.337451,-3.000000,-2.000000,3.000000,-7.000000,-3.000000,-3.000000,0.000000,1.000000
1305190.337982,-2.000000,-2.000000,1.000000,-3.000000,-1.000000,-3.000000,-2.000000,1.000000
1305190.337990,-1.000000,0.000000,2.000000,1.000000,-5.000000,0.000000,1.000000,0.000000
1305190.339745,-2.000000,-3.000000,-4.000000,-3.000000,0.000000,1.000000,-1.000000,-2.000000
1305190.339755,-3.000000,-2.000000,-1.000000,-2.000000,2.000000,0.000000,-3.000000,-2.000000
1305190.352316,-1.000000,-3.000000,-3.000000,0.000000,0.000000,-3.000000,-1.000000,-2.000000
1305190.352330,-3.000000,-3.000000,1.000000,-3.000000,0.000000,-4.000000,-1.000000,-1.000000
1305190.353440,-1.000000,-4.000000,-1.000000,0.000000,-4.000000,0.000000,-1.000000,-3.000000
1305190.353450,0.000000,3.000000,-4.000000,-4.000000,3.000000,2.000000,-2.000000,0.000000
1305190.359815,-1.000000,-5.000000,-2.000000,6.000000,9.000000,-2.000000,-4.000000,0.000000
1305190.359830,0.000000,1.000000,2.000000,-3.000000,-11.000000,1.000000,-1.000000,0.000000
1305190.374491,0.000000,2.000000,-3.000000,0.000000,1.000000,-7.000000,-4.000000,-1.000000
1305190.374520,-2.000000,-6.000000,2.000000,-6.000000,-4.000000,2.000000,0.000000,-2.000000
1305190.375147,-3.000000,-3.000000,0.000000,4.000000,1.000000,-1.000000,1.000000,0.000000
1305190.375174,1.000000,1.000000,-1.000000,0.000000,2.000000,-1.000000,0.000000,-1.000000
1305190.412153,-2.000000,-2.000000,-7.000000,1.000000,2.000000,-3.000000,-5.000000,-4.000000
1305190.412169,0.000000,-2.000000,2.000000,3.000000,-3.000000,-3.000000,-4.000000,-1.000000
1305190.419625,-2.000000,-1.000000,-3.000000,-5.000000,-7.000000,-2.000000,0.000000,-1.000000
1305190.419643,-3.000000,-11.000000,-1.000000,5.000000,6.000000,-3.000000,-1.000000,0.000000
1305190.449919,1.000000,5.000000,3.000000,3.000000,1.000000,0.000000,2.000000,-1.000000
1305190.449932,2.000000,2.000000,1.000000,-3.000000,-1.000000,-2.000000,-1.000000,-4.000000
1305190.457322,-3.000000,0.000000,3.000000,2.000000,0.000000,-1.000000,-1.000000,-3.000000
1305190.457334,-3.000000,-2.000000,-3.000000,2.000000,-1.000000,4.000000,-1.000000,-1.000000
1305190.458255,-1.000000,0.000000,2.000000,-5.000000,-1.000000,-3.000000,-1.000000,-1.000000
1305190.458270,-3.000000,-4.000000,-3.000000,-7.000000,-9.000000,-2.000000,-2.000000,-3.000000
1305190.458876,-1.000000,4.000000,-3.000000,-5.000000,2.000000,-4.000000,0.000000,1.000000
1305190.458887,3.000000,0.000000,2.000000,-2.000000,-3.000000,-1.000000,-1.000000,-4.000000
1305190.460425,2.000000,-2.000000,2.000000,-2.000000,2.000000,-2.000000,-1.000000,0.000000
1305190.460435,-2.000000,1.000000,-3.000000,-3.000000,0.000000,-2.000000,0.000000,-1.000000
1305190.471925,-1.000000,-3.000000,5.000000,7.000000,5.000000,-3.000000,-1.000000,-2.000000
1305190.471935,5.000000,-1.000000,-5.000000,-6.000000,-7.000000,-1.000000,-2.000000,-1.000000
1305190.494796,-2.000000,0.000000,2.000000,3.000000,9.000000,-2.000000,-1.000000,0.000000
1305190.494809,2.000000,0.000000,-4.000000,-5.000000,-4.000000,0.000000,-1.000000,-2.000000
1305190.509827,-1.000000,1.000000,-6.000000,-3.000000,-3.000000,-1.000000,0.000000,-1.000000
1305190.509844,-6.000000,-7.000000,-1.000000,-1.000000,-1.000000,-2.000000,-3.000000,-4.000000
1305190.517032,0.000000,2.000000,-1.000000,-12.000000,-3.000000,2.000000,-1.000000,1.000000
1305190.517042,-3.000000,-3.000000,-2.000000,2.000000,3.000000,-1.000000,0.000000,0.000000
1305190.539837,1.000000,0.000000,-3.000000,-1.000000,2.000000,-3.000000,-1.000000,1.000000
1305190.539849,1.000000,-1.000000,3.000000,2.000000,-3.000000,0.000000,0.000000,0.000000
1305190.554501,-1.000000,-3.000000,0.000000,6.000000,0.000000,1.000000,0.000000,0.000000
1305190.554514,-1.000000,1.000000,0.000000,-2.000000,4.000000,0.000000,-1.000000,1.000000
1305190.555791,-1.000000,-2.000000,-3.000000,5.000000,1.000000,0.000000,-3.000000,-1.000000
1305190.555814,2.000000,-1.000000,5.000000,0.000000,-6.000000,3.000000,1.000000,1.000000
1305190.557226,-2.000000,-2.000000,-7.000000,0.000000,0.000000,-3.000000,0.000000,-2.000000
1305190.557259,-1.000000,0.000000,-2.000000,-2.000000,-1.000000,1.000000,-3.000000,-3.000000
1305190.559478,-6.000000,0.000000,-2.000000,-2.000000,-4.000000,0.000000,1.000000,-3.000000
1305190.559520,-3.000000,-1.000000,0.000000,0.000000,0.000000,0.000000,1.000000,-5.000000
1305190.559785,0.000000,3.000000,-1.000000,0.000000,-1.000000,-3.000000,-2.000000,-3.000000
1305190.559820,-2.000000,-1.000000,-3.000000,1.000000,-1.000000,0.000000,3.000000,1.000000
1305190.571605,-5.000000,-5.000000,-1.000000,-3.000000,0.000000,0.000000,-1.000000,-3.000000
1305190.571647,-1.000000,-3.000000,-2.000000,4.000000,3.000000,-1.000000,-1.000000,-1.000000
1305190.578111,-2.000000,-1.000000,3.000000,-4.000000,0.000000,-5.000000,-3.000000,1.000000
1305190.578134,1.000000,-3.000000,1.000000,-1.000000,-1.000000,2.000000,-2.000000,-1.000000
1305190.592077,-3.000000,-3.000000,1.000000,4.000000,4.000000,-4.000000,-4.000000,-1.000000
1305190.592106,1.000000,2.000000,-2.000000,-3.000000,-17.000000,3.000000,4.000000,3.000000
1305190.607179,2.000000,0.000000,-2.000000,2.000000,4.000000,-3.000000,-4.000000,0.000000
1305190.607203,3.000000,11.000000,-5.000000,-1.000000,-3.000000,-1.000000,1.000000,1.000000
1305190.615446,-2.000000,-5.000000,7.000000,-4.000000,-3.000000,1.000000,-3.000000,3.000000
1305190.615465,0.000000,-3.000000,0.000000,-1.000000,1.000000,-1.000000,-1.000000,1.000000
1305190.616137,-1.000000,1.000000,-3.000000,0.000000,4.000000,0.000000,0.000000,-1.000000
1305190.616157,-4.000000,2.000000,0.000000,-2.000000,3.000000,1.000000,0.000000,-4.000000
1305190.629757,-5.000000,6.000000,-1.000000,1.000000,2.000000,-2.000000,-4.000000,-3.000000
1305190.629775,-5.000000,-9.000000,-8.000000,-7.000000,-5.000000,-3.000000,0.000000,-3.000000
1305190.637028,-1.000000,3.000000,-2.000000,1.000000,1.000000,0.000000,-3.000000,-1.000000
1305190.637038,-1.000000,0.000000,-1.000000,-1.000000,0.000000,-3.000000,-4.000000,1.000000
1305190.674839,3.000000,-2.000000,-3.000000,9.000000,5.000000,-6.000000,-6.000000,-2.000000
1305190.674938,0.000000,-1.000000,3.000000,-3.000000,-6.000000,1.000000,2.000000,-2.000000
1305190.675308,2.000000,0.000000,1.000000,-6.000000,-14.000000,-3.000000,2.000000,-2.000000
1305190.675317,-1.000000,-1.000000,-2.000000,2.000000,1.000000,-5.000000,-2.000000,0.000000
1305190.677348,-1.000000,-2.000000,-4.000000,1.000000,1.000000,-3.000000,1.000000,1.000000
1305190.677375,-1.000000,-1.000000,2.000000,0.000000,-2.000000,4.000000,-2.000000,-5.000000
1305190.678286,0.000000,2.000000,1.000000,-3.000000,0.000000,-3.000000,-3.000000,-1.000000
1305190.678322,-2.000000,-2.000000,-3.000000,2.000000,5.000000,-1.000000,-3.000000,0.000000
1305190.690177,0.000000,-3.000000,-1.000000,-7.000000,-5.000000,1.000000,-2.000000,1.000000
1305190.690186,1.000000,-2.000000,3.000000,0.000000,-5.000000,1.000000,-3.000000,-2.000000
1305190.697316,0.000000,-9.000000,0.000000,-1.000000,2.000000,2.000000,-3.000000,0.000000
1305190.697326,1.000000,0.000000,-2.000000,2.000000,3.000000,-3.000000,-2.000000,0.000000
1305190.712770,-2.000000,-9.000000,-8.000000,3.000000,1.000000,-5.000000,1.000000,-1.000000
1305190.712787,-1.000000,-4.000000,-1.000000,-4.000000,-10.000000,-2.000000,2.000000,1.000000
1305190.727337,-1.000000,2.000000,-1.000000,-3.000000,-3.000000,-4.000000,3.000000,0.000000
1305190.727349,-2.000000,1.000000,-5.000000,-2.000000,0.000000,-4.000000,-2.000000,0.000000
1305190.742047,0.000000,3.000000,-1.000000,2.000000,1.000000,0.000000,-2.000000,-3.000000
1305190.742058,-1.000000,0.000000,-2.000000,0.000000,1.000000,1.000000,-1.000000,-2.000000
1305190.772354,1.000000,-1.000000,-1.000000,-3.000000,0.000000,-2.000000,-2.000000,1.000000
1305190.772365,0.000000,-3.000000,2.000000,0.000000,3.000000,0.000000,-1.000000,-4.000000
1305190.794914,1.000000,0.000000,-3.000000,0.000000,1.000000,-1.000000,-4.000000,-4.000000
1305190.794927,1.000000,-3.000000,-2.000000,-11.000000,-17.000000,1.000000,0.000000,2.000000
1305190.809602,0.000000,-2.000000,-1.000000,3.000000,2.000000,-3.000000,-2.000000,1.000000
1305190.809612,0.000000,-3.000000,0.000000,0.000000,-3.000000,-2.000000,-2.000000,-2.000000
1305190.810484,2.000000,2.000000,0.000000,2.000000,-1.000000,-4.000000,0.000000,-1.000000
1305190.810493,1.000000,-1.000000,-2.000000,-1.000000,0.000000,1.000000,-3.000000,-4.000000
1305190.811386,-2.000000,-4.000000,-1.000000,1.000000,-1.000000,0.000000,-1.000000,0.000000
1305190.811401,-1.000000,-1.000000,-2.000000,-2.000000,-2.000000,-2.000000,0.000000,0.000000
1305190.812174,-2.000000,4.000000,1.000000,-9.000000,-11.000000,2.000000,-1.000000,-1.000000
1305190.812190,1.000000,2.000000,-1.000000,0.000000,1.000000,1.000000,-2.000000,-1.000000
1305190.813610,0.000000,7.000000,-3.000000,-1.000000,-1.000000,-1.000000,1.000000,-2.000000
1305190.813626,-3.000000,-8.000000,5.000000,2.000000,-2.000000,-1.000000,-1.000000,-2.000000
1305190.816786,-3.000000,-2.000000,1.000000,2.000000,1.000000,-7.000000,-1.000000,-1.000000
1305190.816814,-2.000000,0.000000,-2.000000,1.000000,-1.000000,1.000000,-1.000000,-3.000000
1305190.847241,1.000000,-2.000000,0.000000,3.000000,2.000000,0.000000,-4.000000,-5.000000
1305190.847257,0.000000,-1.000000,1.000000,2.000000,5.000000,1.000000,-2.000000,-2.000000
1305190.847601,-1.000000,2.000000,-3.000000,0.000000,4.000000,-5.000000,1.000000,-2.000000
1305190.847610,-1.000000,2.000000,-3.000000,7.000000,-5.000000,0.000000,1.000000,0.000000
1305190.848991,-2.000000,1.000000,-2.000000,-4.000000,2.000000,2.000000,1.000000,2.000000
1305190.849000,-5.000000,-2.000000,-3.000000,-1.000000,1.000000,0.000000,-1.000000,-1.000000
1305190.854518,-1.000000,1.000000,-1.000000,-2.000000,-3.000000,1.000000,2.000000,1.000000
1305190.854538,2.000000,2.000000,-4.000000,-3.000000,-2.000000,-2.000000,-4.000000,2.000000
1305190.892042,0.000000,-1.000000,0.000000,-3.000000,-2.000000,2.000000,-2.000000,1.000000
1305190.892053,0.000000,-4.000000,1.000000,-1.000000,1.000000,-4.000000,0.000000,-2.000000
1305190.899832,1.000000,-3.000000,-3.000000,3.000000,3.000000,-4.000000,-1.000000,-1.000000
1305190.899843,-1.000000,0.000000,4.000000,-1.000000,-6.000000,4.000000,0.000000,-2.000000
1305190.914808,-1.000000,0.000000,-3.000000,2.000000,0.000000,1.000000,-5.000000,0.000000
1305190.914821,4.000000,1.000000,0.000000,-3.000000,-4.000000,1.000000,-2.000000,1.000000
1305190.915225,0.000000,-1.000000,-5.000000,0.000000,-2.000000,1.000000,-3.000000,-1.000000
1305190.915235,2.000000,0.000000,0.000000,0.000000,0.000000,2.000000,-1.000000,-3.000000
1305190.916248,1.000000,-3.000000,-3.000000,-4.000000,-1.000000,-1.000000,1.000000,-1.000000
1305190.916257,-2.000000,4.000000,2.000000,-3.000000,0.000000,-3.000000,2.000000,-3.000000
1305190.917068,1.000000,8.000000,-3.000000,-5.000000,0.000000,0.000000,1.000000,-3.000000
1305190.917077,-1.000000,-10.000000,6.000000,-1.000000,2.000000,0.000000,-1.000000,-4.000000
1305190.930449,-3.000000,-2.000000,0.000000,2.000000,-1.000000,-1.000000,1.000000,-1.000000
1305190.930461,-4.000000,-1.000000,0.000000,-5.000000,-9.000000,-3.000000,0.000000,-1.000000
1305190.951880,-1.000000,-1.000000,1.000000,1.000000,-1.000000,-3.000000,-2.000000,0.000000
1305190.951901,-1.000000,-3.000000,-1.000000,1.000000,4.000000,-2.000000,-1.000000,0.000000
1305190.953220,1.000000,-4.000000,-6.000000,2.000000,2.000000,-1.000000,0.000000,1.000000
1305190.953249,2.000000,-2.000000,2.000000,-1.000000,0.000000,-3.000000,0.000000,1.000000
1305190.967224,-3.000000,0.000000,1.000000,-3.000000,-2.000000,-2.000000,-2.000000,-2.000000
1305190.967236,-2.000000,-3.000000,1.000000,1.000000,-6.000000,0.000000,-4.000000,2.000000
1305190.968349,-4.000000,-4.000000,-3.000000,2.000000,4.000000,3.000000,0.000000,-3.000000
1305190.968358,-1.000000,1.000000,-3.000000,-7.000000,-3.000000,-1.000000,0.000000,-2.000000
1305190.974829,-1.000000,-11.000000,-3.000000,0.000000,0.000000,-2.000000,0.000000,-2.000000
1305190.974840,0.000000,0.000000,1.000000,-1.000000,-3.000000,-4.000000,-3.000000,0.000000
1305191.012439,1.000000,2.000000,-3.000000,2.000000,-3.000000,1.000000,1.000000,1.000000
1305191.012452,-1.000000,-2.000000,0.000000,1.000000,1.000000,-1.000000,0.000000,-3.000000
1305191.019892,2.000000,10.000000,-5.000000,-6.000000,-7.000000,3.000000,0.000000,-2.000000
1305191.019904,-1.000000,-11.000000,5.000000,2.000000,0.000000,-3.000000,0.000000,0.000000
1305191.050425,-1.000000,-2.000000,1.000000,0.000000,0.000000,0.000000,0.000000,2.000000
1305191.050449,-2.000000,0.000000,-2.000000,1.000000,-3.000000,1.000000,-4.000000,-2.000000
1305191.050942,2.000000,-3.000000,1.000000,-22.000000,-16.000000,3.000000,3.000000,0.000000
1305191.050967,-5.000000,-1.000000,-1.000000,-5.000000,2.000000,-2.000000,3.000000,-1.000000
1305191.052401,-4.000000,-2.000000,1.000000,0.000000,0.000000,-1.000000,0.000000,-2.000000
1305191.052425,1.000000,-3.000000,-2.000000,1.000000,3.000000,2.000000,0.000000,0.000000
1305191.053678,-3.000000,0.000000,-3.000000,0.000000,0.000000,0.000000,-3.000000,0.000000
1305191.054112,-5.000000,-11.000000,-10.000000,0.000000,4.000000,2.000000,-2.000000,-2.000000
1305191.054851,-2.000000,1.000000,0.000000,1.000000,-2.000000,-1.000000,-4.000000,-2.000000
1305191.054869,0.000000,-1.000000,1.000000,-3.000000,-5.000000,-2.000000,0.000000,-2.000000
1305191.065336,2.000000,6.000000,5.000000,2.000000,4.000000,-3.000000,-2.000000,0.000000
1305191.065364,1.000000,1.000000,1.000000,1.000000,-1.000000,-2.000000,1.000000,-1.000000
1305191.066298,3.000000,-2.000000,-1.000000,1.000000,2.000000,1.000000,-2.000000,-7.000000
1305191.066311,0.000000,-3.000000,-3.000000,-6.000000,-9.000000,-3.000000,1.000000,1.000000
1305191.087325,3.000000,-1.000000,3.000000,0.000000,-1.000000,0.000000,2.000000,2.000000
1305191.087353,-1.000000,2.000000,-2.000000,-1.000000,4.000000,-1.000000,-1.000000,-2.000000
1305191.088434,0.000000,-1.000000,0.000000,-1.000000,-1.000000,3.000000,-2.000000,3.000000
1305191.088449,-2.000000,2.000000,1.000000,-1.000000,-3.000000,5.000000,-5.000000,-3.000000
1305191.124738,-2.000000,-1.000000,0.000000,8.000000,6.000000,-2.000000,0.000000,-1.000000
1305191.124749,-1.000000,-3.000000,-3.000000,-3.000000,-3.000000,0.000000,-4.000000,1.000000
1305191.147267,-2.000000,-4.000000,-2.000000,2.000000,2.000000,3.000000,2.000000,-1.000000
1305191.147323,4.000000,0.000000,-5.000000,1.000000,4.000000,0.000000,0.000000,1.000000
1305191.169714,0.000000,-1.000000,0.000000,-9.000000,-5.000000,-4.000000,-3.000000,1.000000
1305191.169760,-1.000000,-1.000000,-1.000000,6.000000,3.000000,-5.000000,-5.000000,-2.000000
1305191.170744,-3.000000,1.000000,-3.000000,-7.000000,-10.000000,2.000000,-1.000000,3.000000
1305191.170761,4.000000,0.000000,2.000000,2.000000,2.000000,-7.000000,3.000000,-2.000000
1305191.171601,-1.000000,-3.000000,-5.000000,1.000000,0.000000,0.000000,0.000000,-4.000000
1305191.171617,-1.000000,2.000000,-1.000000,-3.000000,-3.000000,-3.000000,2.000000,-4.000000
1305191.173525,-2.000000,-3.000000,1.000000,-5.000000,0.000000,0.000000,-4.000000,0.000000
1305191.173536,0.000000,1.000000,0.000000,-4.000000,-5.000000,-4.000000,2.000000,1.000000
1305191.177377,-1.000000,-4.000000,-4.000000,-2.000000,-5.000000,1.000000,-2.000000,1.000000
1305191.177388,-2.000000,0.000000,1.000000,1.000000,-1.000000,3.000000,-3.000000,-1.000000
1305191.185288,-1.000000,-3.000000,-1.000000,-1.000000,0.000000,-3.000000,-1.000000,-2.000000
1305191.185298,2.000000,-4.000000,-1.000000,-1.000000,1.000000,-2.000000,0.000000,1.000000
1305191.207197,-2.000000,0.000000,-1.000000,-2.000000,0.000000,2.000000,4.000000,-1.000000
1305191.207208,-4.000000,2.000000,-2.000000,3.000000,-1.000000,0.000000,2.000000,-2.000000
1305191.244842,-1.000000,1.000000,-1.000000,0.000000,-3.000000,-4.000000,-1.000000,-3.000000
1305191.244879,0.000000,-1.000000,-2.000000,0.000000,-2.000000,-1.000000,-3.000000,0.000000
1305191.252455,0.000000,-1.000000,0.000000,2.000000,-2.000000,2.000000,-4.000000,1.000000
1305191.252475,-5.000000,-1.000000,-2.000000,-6.000000,-1.000000,-1.000000,0.000000,0.000000
1305191.282307,-3.000000,-2.000000,-1.000000,6.000000,7.000000,-6.000000,-4.000000,-1.000000
1305191.282319,1.000000,-1.000000,-5.000000,-4.000000,-5.000000,1.000000,-1.000000,0.000000
1305191.289735,1.000000,0.000000,1.000000,0.000000,2.000000,-4.000000,-4.000000,-2.000000
1305191.289746,1.000000,8.000000,-3.000000,-2.000000,0.000000,-4.000000,-4.000000,-1.000000
1305191.290548,-4.000000,-9.000000,4.000000,-4.000000,0.000000,-4.000000,0.000000,1.000000
1305191.290556,-1.000000,0.000000,0.000000,3.000000,5.000000,-5.000000,-3.000000,-4.000000
1305191.291159,-1.000000,-4.000000,-7.000000,-9.000000,-14.000000,2.000000,0.000000,-3.000000
1305191.291167,-1.000000,-2.000000,2.000000,-1.000000,7.000000,-3.000000,-5.000000,1.000000
1305191.291814,-1.000000,-6.000000,-1.000000,-3.000000,0.000000,-3.000000,-1.000000,2.000000
1305191.291822,-3.000000,-4.000000,-2.000000,3.000000,1.000000,0.000000,1.000000,-1.000000
1305191.293024,-1.000000,-3.000000,3.000000,0.000000,0.000000,-3.000000,0.000000,1.000000
1305191.293035,-3.000000,4.000000,-1.000000,-3.000000,-4.000000,0.000000,-2.000000,1.000000
1305191.297390,0.000000,0.000000,0.000000,2.000000,5.000000,-1.000000,-2.000000,-1.000000
1305191.297405,-2.000000,-5.000000,0.000000,1.000000,0.000000,-2.000000,-2.000000,-1.000000
1305191.326942,-2.000000,-2.000000,-1.000000,-5.000000,-3.000000,1.000000,0.000000,-3.000000
1305191.326955,1.000000,-7.000000,-2.000000,0.000000,1.000000,-1.000000,-2.000000,-4.000000
1305191.327387,-1.000000,3.000000,0.000000,-1.000000,-1.000000,-2.000000,0.000000,-1.000000
1305191.327413,-1.000000,2.000000,-1.000000,10.000000,4.000000,-3.000000,-1.000000,-4.000000
1305191.328870,1.000000,4.000000,0.000000,-11.000000,-9.000000,3.000000,1.000000,1.000000
1305191.328878,1.000000,-1.000000,-3.000000,-2.000000,0.000000,-4.000000,-2.000000,-3.000000
1305191.342335,-2.000000,0.000000,0.000000,1.000000,0.000000,0.000000,-3.000000,0.000000
1305191.342346,-3.000000,-10.000000,1.000000,-2.000000,-3.000000,-3.000000,-3.000000,0.000000
1305191.364615,-1.000000,-3.000000,-1.000000,-6.000000,-8.000000,2.000000,0.000000,1.000000
1305191.364645,-4.000000,2.000000,-3.000000,1.000000,4.000000,-3.000000,-2.000000,-1.000000
1305191.372110,-3.000000,3.000000,4.000000,0.000000,0.000000,-1.000000,-3.000000,-2.000000
1305191.372139,1.000000,2.000000,-2.000000,-3.000000,-3.000000,-4.000000,0.000000,-2.000000
1305191.387353,1.000000,-1.000000,-4.000000,-5.000000,-1.000000,0.000000,0.000000,1.000000
1305191.387364,-2.000000,1.000000,1.000000,-1.000000,1.000000,1.000000,0.000000,-1.000000
1305191.394886,-3.000000,-1.000000,-3.000000,-1.000000,-5.000000,-2.000000,2.000000,-3.000000
1305191.394898,-1.000000,-1.000000,-4.000000,-2.000000,-3.000000,0.000000,-1.000000,-3.000000
1305191.409630,0.000000,-2.000000,-6.000000,-1.000000,2.000000,-2.000000,-2.000000,2.000000
1305191.409648,-3.000000,0.000000,-2.000000,-3.000000,-7.000000,0.000000,-2.000000,0.000000
1305191.424839,-2.000000,-4.000000,1.000000,4.000000,-1.000000,-3.000000,-2.000000,1.000000
1305191.424852,-2.000000,1.000000,1.000000,-1.000000,1.000000,-1.000000,-1.000000,-2.000000
1305191.425701,-1.000000,1.000000,2.000000,1.000000,-3.000000,-3.000000,2.000000,-1.000000
1305191.425709,-1.000000,0.000000,0.000000,2.000000,4.000000,-1.000000,-3.000000,-2.000000
1305191.426329,0.000000,0.000000,-1.000000,0.000000,4.000000,0.000000,0.000000,-1.000000
1305191.426337,4.000000,-2.000000,3.000000,1.000000,-5.000000,-3.000000,1.000000,-2.000000
1305191.447129,-1.000000,-1.000000,-4.000000,-2.000000,-2.000000,0.000000,-1.000000,2.000000
1305191.447139,-2.000000,-4.000000,-4.000000,-1.000000,-1.000000,-1.000000,-3.000000,0.000000
1305191.454978,-1.000000,-3.000000,-3.000000,1.000000,1.000000,-1.000000,-1.000000,-1.000000
1305191.454994,-3.000000,-7.000000,-5.000000,4.000000,11.000000,-1.000000,0.000000,-1.000000
1305191.469904,-1.000000,-4.000000,-4.000000,-6.000000,-5.000000,3.000000,-3.000000,-2.000000
1305191.469916,2.000000,-1.000000,-2.000000,-2.000000,0.000000,0.000000,-1.000000,3.000000
1305191.484923,1.000000,11.000000,-2.000000,2.000000,-1.000000,-4.000000,-1.000000,1.000000
1305191.484936,-3.000000,-12.000000,6.000000,3.000000,3.000000,0.000000,2.000000,0.000000
1305191.507787,-2.000000,-2.000000,0.000000,-2.000000,-4.000000,-5.000000,-1.000000,-3.000000
1305191.507797,-1.000000,0.000000,0.000000,1.000000,-4.000000,-4.000000,-3.000000,-3.000000
1305191.508048,-3.000000,1.000000,-3.000000,0.000000,1.000000,-3.000000,0.000000,-2.000000
1305191.508056,0.000000,3.000000,2.000000,-1.000000,-2.000000,-3.000000,1.000000,-2.000000
1305191.509507,0.000000,4.000000,0.000000,1.000000,0.000000,1.000000,-2.000000,0.000000
1305191.509534,-3.000000,2.000000,0.000000,-2.000000,-3.000000,-1.000000,-4.000000,-3.000000
1305191.510741,2.000000,-1.000000,1.000000,1.000000,-3.000000,-1.000000,-1.000000,1.000000
1305191.510750,-2.000000,-1.000000,0.000000,-3.000000,-5.000000,1.000000,-4.000000,-1.000000
