# participant_id: P3
# gesture: soft
# trial_number: 1
# stream_name: Myo_EMG
# stream_type: emg
# timestamp: 20260420_132812
# samples: 5684
# duration_sec: 33.008
# nominal_sample_rate: 200.0
# effective_sample_rate: 172.17
#
timestamp,emg_1,emg_2,emg_3,emg_4,emg_5,emg_6,emg_7,emg_8
1296381.933498,8.000000,-29.000000,0.000000,7.000000,-42.000000,-19.000000,-11.000000,-10.000000
1296381.933527,-14.000000,64.000000,-11.000000,54.000000,96.000000,19.000000,3.000000,-4.000000
1296381.948599,16.000000,-95.000000,-28.000000,-50.000000,-17.000000,-6.000000,-2.000000,16.000000
1296381.948628,-14.000000,79.000000,14.000000,-8.000000,-38.000000,-5.000000,2.000000,27.000000
1296381.956260,-3.000000,3.000000,3.000000,-11.000000,1.000000,7.000000,1.000000,-10.000000
1296381.956283,0.000000,38.000000,0.000000,-31.000000,-22.000000,0.000000,-1.000000,0.000000
1296381.970023,16.000000,20.000000,3.000000,7.000000,18.000000,9.000000,7.000000,8.000000
1296381.970033,7.000000,5.000000,-3.000000,15.000000,-7.000000,6.000000,6.000000,2.000000
1296381.977612,20.000000,37.000000,-9.000000,-42.000000,-35.000000,0.000000,7.000000,8.000000
1296381.977623,-4.000000,-40.000000,4.000000,57.000000,85.000000,21.000000,3.000000,7.000000
1296381.992703,-11.000000,24.000000,7.000000,23.000000,-18.000000,-7.000000,-7.000000,-1.000000
1296381.992716,41.000000,-5.000000,-3.000000,-19.000000,-10.000000,9.000000,9.000000,13.000000
1296382.000258,-10.000000,12.000000,-5.000000,79.000000,88.000000,3.000000,-13.000000,12.000000
1296382.000282,0.000000,-56.000000,10.000000,12.000000,-17.000000,-5.000000,-8.000000,-11.000000
1296382.022735,-13.000000,32.000000,-8.000000,-17.000000,-1.000000,-4.000000,-1.000000,-8.000000
1296382.022748,-4.000000,-36.000000,2.000000,-29.000000,11.000000,1.000000,2.000000,8.000000
1296382.023134,-5.000000,44.000000,5.000000,31.000000,-16.000000,4.000000,7.000000,0.000000
1296382.023141,71.000000,36.000000,-10.000000,17.000000,23.000000,-2.000000,4.000000,8.000000
1296382.024197,22.000000,29.000000,7.000000,-21.000000,-27.000000,6.000000,8.000000,7.000000
1296382.024207,-40.000000,-62.000000,-6.000000,65.000000,58.000000,10.000000,4.000000,-4.000000
1296382.025613,12.000000,21.000000,0.000000,-16.000000,-21.000000,-9.000000,-1.000000,-1.000000
1296382.025622,16.000000,32.000000,-13.000000,2.000000,-20.000000,12.000000,2.000000,4.000000
1296382.026351,-8.000000,-75.000000,19.000000,-30.000000,-4.000000,1.000000,-4.000000,-1.000000
1296382.026361,6.000000,-21.000000,-5.000000,35.000000,-1.000000,-4.000000,-3.000000,-4.000000
1296382.037659,-11.000000,16.000000,-8.000000,-28.000000,-34.000000,4.000000,1.000000,12.000000
1296382.037670,8.000000,22.000000,4.000000,2.000000,-14.000000,-2.000000,-4.000000,-11.000000
1296382.060162,20.000000,32.000000,-6.000000,15.000000,5.000000,1.000000,-4.000000,1.000000
1296382.060174,-36.000000,-86.000000,-2.000000,-9.000000,-13.000000,-12.000000,-6.000000,-13.000000
1296382.075337,-2.000000,22.000000,-4.000000,-41.000000,-5.000000,0.000000,-1.000000,0.000000
1296382.075350,-3.000000,-6.000000,-6.000000,17.000000,-4.000000,0.000000,5.000000,6.000000
1296382.105118,7.000000,20.000000,-3.000000,-5.000000,-16.000000,-5.000000,2.000000,11.000000
1296382.105148,17.000000,-6.000000,8.000000,20.000000,-27.000000,24.000000,10.000000,-10.000000
1296382.120628,-40.000000,-45.000000,11.000000,-10.000000,-8.000000,-17.000000,-16.000000,-4.000000
1296382.120641,8.000000,45.000000,-1.000000,-16.000000,-17.000000,1.000000,5.000000,3.000000
1296382.120749,8.000000,0.000000,1.000000,-13.000000,-4.000000,-4.000000,1.000000,5.000000
1296382.120754,-3.000000,0.000000,1.000000,59.000000,29.000000,10.000000,5.000000,5.000000
1296382.121734,1.000000,0.000000,-7.000000,-4.000000,-15.000000,0.000000,-1.000000,-7.000000
1296382.121744,-5.000000,19.000000,0.000000,-21.000000,-12.000000,0.000000,-4.000000,19.000000
1296382.122568,43.000000,13.000000,-3.000000,2.000000,58.000000,19.000000,10.000000,20.000000
1296382.122578,-26.000000,-34.000000,5.000000,-40.000000,-59.000000,-18.000000,-10.000000,-12.000000
1296382.127961,-7.000000,-27.000000,-6.000000,-17.000000,4.000000,-7.000000,-4.000000,-1.000000
1296382.127979,6.000000,38.000000,7.000000,-9.000000,-8.000000,2.000000,7.000000,20.000000
1296382.149902,12.000000,-39.000000,-2.000000,-61.000000,-9.000000,3.000000,5.000000,-9.000000
1296382.149917,-6.000000,16.000000,15.000000,-34.000000,-84.000000,-18.000000,-14.000000,-32.000000
1296382.150328,24.000000,-24.000000,10.000000,-29.000000,-24.000000,-11.000000,-2.000000,25.000000
1296382.150337,-36.000000,1.000000,1.000000,8.000000,24.000000,7.000000,4.000000,1.000000
1296382.157980,29.000000,28.000000,-10.000000,9.000000,-13.000000,-11.000000,-6.000000,5.000000
1296382.157992,-18.000000,4.000000,-4.000000,2.000000,-10.000000,3.000000,-1.000000,-4.000000
1296382.187592,-7.000000,-19.000000,1.000000,-44.000000,-14.000000,0.000000,4.000000,-2.000000
1296382.187602,12.000000,34.000000,8.000000,-17.000000,-12.000000,-4.000000,-3.000000,-36.000000
1296382.225175,9.000000,-5.000000,4.000000,42.000000,16.000000,-5.000000,-3.000000,21.000000
1296382.225187,-30.000000,-100.000000,-2.000000,20.000000,-3.000000,10.000000,3.000000,-5.000000
1296382.232890,-28.000000,24.000000,6.000000,16.000000,29.000000,-12.000000,-17.000000,-24.000000
1296382.232913,11.000000,24.000000,-7.000000,-22.000000,-28.000000,-5.000000,5.000000,2.000000
1296382.240597,4.000000,2.000000,-14.000000,4.000000,-5.000000,3.000000,6.000000,2.000000
1296382.240607,1.000000,5.000000,8.000000,-11.000000,-13.000000,0.000000,0.000000,3.000000
1296382.241113,10.000000,1.000000,-6.000000,13.000000,6.000000,-2.000000,-7.000000,2.000000
1296382.241141,-11.000000,9.000000,7.000000,-25.000000,3.000000,-3.000000,1.000000,-3.000000
1296382.242720,-8.000000,-26.000000,-9.000000,8.000000,0.000000,-5.000000,2.000000,1.000000
1296382.242729,-6.000000,20.000000,13.000000,2.000000,-37.000000,-5.000000,-3.000000,-6.000000
1296382.247650,8.000000,-9.000000,-2.000000,-33.000000,-20.000000,6.000000,15.000000,93.000000
1296382.247710,12.000000,-7.000000,6.000000,28.000000,25.000000,-2.000000,-18.000000,-71.000000
1296382.270136,-23.000000,-13.000000,13.000000,31.000000,31.000000,-15.000000,-21.000000,-13.000000
1296382.270148,-15.000000,-2.000000,2.000000,-24.000000,-20.000000,-4.000000,3.000000,1.000000
1296382.270518,16.000000,8.000000,-6.000000,54.000000,-13.000000,-1.000000,5.000000,10.000000
1296382.270533,7.000000,21.000000,1.000000,-39.000000,-19.000000,1.000000,3.000000,3.000000
1296382.277546,-3.000000,-8.000000,-2.000000,7.000000,0.000000,-8.000000,-1.000000,-1.000000
1296382.277556,-4.000000,-9.000000,6.000000,10.000000,-46.000000,-2.000000,3.000000,15.000000
1296382.284994,4.000000,-10.000000,-11.000000,-20.000000,81.000000,3.000000,-3.000000,-18.000000
1296382.285013,11.000000,20.000000,-8.000000,-19.000000,-35.000000,-11.000000,-1.000000,1.000000
1296382.307987,0.000000,30.000000,6.000000,-20.000000,4.000000,1.000000,4.000000,4.000000
1296382.308000,-6.000000,-37.000000,-8.000000,18.000000,8.000000,-1.000000,2.000000,0.000000
1296382.315887,-10.000000,6.000000,-8.000000,12.000000,19.000000,-7.000000,-8.000000,-5.000000
1296382.315937,5.000000,21.000000,-2.000000,-19.000000,-9.000000,2.000000,3.000000,-3.000000
1296382.338403,11.000000,-2.000000,2.000000,-18.000000,-41.000000,-3.000000,0.000000,-2.000000
1296382.338427,-17.000000,-32.000000,7.000000,-26.000000,1.000000,-7.000000,-1.000000,-2.000000
1296382.345664,-7.000000,-4.000000,3.000000,34.000000,6.000000,-7.000000,-7.000000,-12.000000
1296382.345686,0.000000,28.000000,-5.000000,-2.000000,-8.000000,-2.000000,-6.000000,1.000000
1296382.347382,2.000000,-81.000000,-11.000000,3.000000,-3.000000,0.000000,1.000000,-4.000000
1296382.347714,-15.000000,-4.000000,3.000000,20.000000,-10.000000,1.000000,0.000000,-1.000000
1296382.348308,-4.000000,-7.000000,-8.000000,-36.000000,-28.000000,-4.000000,0.000000,37.000000
1296382.348344,24.000000,42.000000,-3.000000,-3.000000,-22.000000,7.000000,8.000000,-57.000000
1296382.360931,13.000000,-58.000000,3.000000,127.000000,127.000000,1.000000,-13.000000,25.000000
1296382.360955,-24.000000,8.000000,4.000000,-18.000000,-27.000000,-17.000000,-16.000000,-30.000000
1296382.375864,3.000000,13.000000,-7.000000,-11.000000,-13.000000,0.000000,6.000000,8.000000
1296382.375898,-5.000000,-29.000000,-3.000000,-9.000000,-5.000000,0.000000,2.000000,8.000000
1296382.377177,-5.000000,-47.000000,1.000000,-9.000000,2.000000,2.000000,3.000000,1.000000
1296382.377199,0.000000,19.000000,-5.000000,1.000000,-3.000000,0.000000,-3.000000,1.000000
1296382.390722,-5.000000,22.000000,-4.000000,-43.000000,2.000000,-7.000000,0.000000,-3.000000
1296382.390750,7.000000,-9.000000,-1.000000,67.000000,60.000000,28.000000,-3.000000,2.000000
1296382.421210,-12.000000,6.000000,1.000000,38.000000,-9.000000,-8.000000,-2.000000,-7.000000
1296382.421259,4.000000,-7.000000,-3.000000,-36.000000,-19.000000,-6.000000,-1.000000,-1.000000
1296382.428513,-2.000000,16.000000,2.000000,64.000000,1.000000,-3.000000,-3.000000,-5.000000
1296382.428538,3.000000,13.000000,-4.000000,-5.000000,14.000000,2.000000,4.000000,-10.000000
1296382.466018,30.000000,28.000000,5.000000,17.000000,-20.000000,1.000000,4.000000,27.000000
1296382.466044,-32.000000,-46.000000,-17.000000,33.000000,57.000000,9.000000,-3.000000,-22.000000
1296382.473445,7.000000,26.000000,-3.000000,-11.000000,-20.000000,-8.000000,-14.000000,-12.000000
1296382.473469,-4.000000,16.000000,-9.000000,1.000000,-10.000000,0.000000,1.000000,-1.000000
1296382.503366,-7.000000,-3.000000,0.000000,15.000000,-3.000000,-2.000000,1.000000,33.000000
1296382.503409,-2.000000,-6.000000,2.000000,-31.000000,-10.000000,-2.000000,-1.000000,-36.000000
1296382.504656,25.000000,79.000000,4.000000,19.000000,-4.000000,4.000000,3.000000,15.000000
1296382.504699,20.000000,-67.000000,-17.000000,12.000000,3.000000,2.000000,-5.000000,4.000000
1296382.506381,-28.000000,18.000000,10.000000,3.000000,-32.000000,-6.000000,-3.000000,-3.000000
1296382.506551,13.000000,23.000000,0.000000,-18.000000,-13.000000,4.000000,3.000000,3.000000
1296382.506770,-9.000000,-14.000000,3.000000,16.000000,6.000000,-1.000000,0.000000,-2.000000
1296382.506810,5.000000,8.000000,-3.000000,8.000000,13.000000,-7.000000,-6.000000,-9.000000
1296382.507227,1.000000,10.000000,-11.000000,60.000000,54.000000,7.000000,-4.000000,-3.000000
1296382.507247,-2.000000,6.000000,-1.000000,-5.000000,3.000000,3.000000,3.000000,20.000000
1296382.510682,-3.000000,-113.000000,-1.000000,20.000000,-6.000000,-1.000000,-5.000000,20.000000
1296382.510708,-13.000000,22.000000,15.000000,30.000000,23.000000,-4.000000,-5.000000,-5.000000
1296382.518217,33.000000,59.000000,-11.000000,-55.000000,7.000000,2.000000,4.000000,11.000000
1296382.518238,-8.000000,-69.000000,-16.000000,34.000000,15.000000,5.000000,-1.000000,-13.000000
1296382.540837,-11.000000,19.000000,20.000000,-24.000000,-15.000000,-13.000000,-7.000000,-12.000000
1296382.540867,8.000000,13.000000,1.000000,-3.000000,-3.000000,0.000000,4.000000,13.000000
1296382.556374,5.000000,9.000000,0.000000,1.000000,8.000000,5.000000,2.000000,-1.000000
1296382.556423,5.000000,24.000000,-7.000000,8.000000,-9.000000,-4.000000,2.000000,48.000000
1296382.571197,-4.000000,-43.000000,1.000000,-12.000000,4.000000,-1.000000,-4.000000,-35.000000
1296382.571225,-3.000000,-2.000000,-1.000000,21.000000,17.000000,8.000000,2.000000,-14.000000
1296382.593658,-21.000000,-13.000000,-9.000000,-7.000000,27.000000,0.000000,-1.000000,0.000000
1296382.593686,5.000000,34.000000,-3.000000,-20.000000,-10.000000,-6.000000,0.000000,-7.000000
1296382.616229,-7.000000,-12.000000,-2.000000,-14.000000,-30.000000,-6.000000,-2.000000,11.000000
1296382.616258,1.000000,-26.000000,1.000000,-28.000000,-34.000000,-3.000000,-3.000000,2.000000
1296382.638446,-3.000000,16.000000,-1.000000,0.000000,-5.000000,-2.000000,-4.000000,-6.000000
1296382.638475,13.000000,31.000000,3.000000,-53.000000,-8.000000,0.000000,-1.000000,-3.000000
1296382.653877,-24.000000,-43.000000,-9.000000,-2.000000,-28.000000,-10.000000,-3.000000,-33.000000
1296382.653936,9.000000,32.000000,14.000000,-24.000000,-43.000000,-1.000000,0.000000,4.000000
1296382.668728,-4.000000,-26.000000,7.000000,8.000000,1.000000,1.000000,-1.000000,4.000000
1296382.668758,-2.000000,13.000000,-7.000000,11.000000,7.000000,1.000000,0.000000,-7.000000
1296382.699371,6.000000,16.000000,12.000000,53.000000,7.000000,-2.000000,0.000000,-4.000000
1296382.699433,-5.000000,-10.000000,-14.000000,-8.000000,-14.000000,-3.000000,1.000000,-5.000000
1296382.706290,-30.000000,-69.000000,-19.000000,-21.000000,-13.000000,0.000000,0.000000,-14.000000
1296382.706320,-23.000000,37.000000,2.000000,12.000000,14.000000,3.000000,-5.000000,-9.000000
1296382.752219,-8.000000,5.000000,5.000000,-22.000000,-23.000000,-11.000000,-6.000000,-8.000000
1296382.752554,-1.000000,26.000000,-5.000000,42.000000,60.000000,15.000000,5.000000,3.000000
1296382.754402,3.000000,14.000000,-10.000000,0.000000,17.000000,0.000000,0.000000,-15.000000
1296382.754431,12.000000,-24.000000,-9.000000,33.000000,-6.000000,0.000000,5.000000,11.000000
1296382.755806,-9.000000,-7.000000,1.000000,1.000000,3.000000,-10.000000,-13.000000,-14.000000
1296382.755833,3.000000,-2.000000,-4.000000,-17.000000,6.000000,-2.000000,1.000000,3.000000
1296382.773648,-1.000000,-12.000000,2.000000,11.000000,12.000000,2.000000,3.000000,1.000000
1296382.773677,-5.000000,13.000000,-1.000000,-14.000000,5.000000,0.000000,1.000000,3.000000
1296382.781146,-16.000000,-31.000000,2.000000,-6.000000,-3.000000,-1.000000,-3.000000,3.000000
1296382.781316,17.000000,24.000000,-8.000000,9.000000,0.000000,9.000000,3.000000,12.000000
1296382.788498,13.000000,25.000000,6.000000,-6.000000,3.000000,1.000000,-3.000000,1.000000
1296382.788526,-11.000000,2.000000,-19.000000,18.000000,76.000000,4.000000,5.000000,-22.000000
1296382.803752,-1.000000,-29.000000,-2.000000,-11.000000,-9.000000,-1.000000,7.000000,16.000000
1296382.803782,14.000000,10.000000,4.000000,2.000000,40.000000,6.000000,1.000000,12.000000
1296382.818823,5.000000,12.000000,-4.000000,4.000000,-53.000000,-5.000000,1.000000,3.000000
1296382.818853,-20.000000,-39.000000,7.000000,11.000000,-28.000000,3.000000,1.000000,0.000000
1296382.833489,-11.000000,17.000000,-1.000000,-2.000000,-7.000000,-4.000000,1.000000,-8.000000
1296382.833516,10.000000,17.000000,2.000000,-16.000000,19.000000,1.000000,0.000000,39.000000
1296382.841511,2.000000,-9.000000,9.000000,-98.000000,-22.000000,-13.000000,-5.000000,-3.000000
1296382.841542,6.000000,-11.000000,3.000000,-26.000000,43.000000,8.000000,-5.000000,-26.000000
1296382.855778,-20.000000,-20.000000,-6.000000,-43.000000,-24.000000,-16.000000,-6.000000,-3.000000
1296382.855808,3.000000,-6.000000,-1.000000,-2.000000,-24.000000,-2.000000,2.000000,3.000000
1296382.856973,0.000000,8.000000,2.000000,5.000000,10.000000,3.000000,0.000000,1.000000
1296382.857213,11.000000,27.000000,-8.000000,19.000000,-4.000000,6.000000,6.000000,7.000000
1296382.858437,-11.000000,-17.000000,-3.000000,-4.000000,24.000000,-8.000000,-6.000000,0.000000
1296382.858480,-8.000000,-17.000000,-4.000000,-9.000000,6.000000,2.000000,0.000000,-27.000000
1296382.859079,-4.000000,9.000000,1.000000,3.000000,-6.000000,-1.000000,-3.000000,48.000000
1296382.859457,9.000000,48.000000,1.000000,-27.000000,-2.000000,-7.000000,-6.000000,-23.000000
1296382.860637,3.000000,-40.000000,-1.000000,-28.000000,6.000000,-1.000000,-8.000000,-2.000000
1296382.860658,-18.000000,23.000000,6.000000,-2.000000,-16.000000,-8.000000,-4.000000,-12.000000
1296382.893818,6.000000,17.000000,1.000000,-32.000000,-8.000000,2.000000,1.000000,0.000000
1296382.893866,7.000000,8.000000,-8.000000,24.000000,2.000000,2.000000,4.000000,15.000000
1296382.908934,-2.000000,-9.000000,13.000000,8.000000,25.000000,5.000000,1.000000,-18.000000
1296382.908967,-7.000000,-1.000000,2.000000,8.000000,-21.000000,-11.000000,-8.000000,-5.000000
1296382.915974,-2.000000,-12.000000,3.000000,39.000000,87.000000,15.000000,11.000000,-24.000000
1296382.916002,7.000000,-49.000000,1.000000,-12.000000,-48.000000,-9.000000,-3.000000,2.000000
1296382.946080,-2.000000,9.000000,-2.000000,-1.000000,-1.000000,-7.000000,-4.000000,-12.000000
1296382.946106,-13.000000,15.000000,4.000000,5.000000,-11.000000,-3.000000,0.000000,1.000000
1296382.953315,0.000000,-2.000000,0.000000,4.000000,7.000000,7.000000,3.000000,2.000000
1296382.953344,7.000000,12.000000,-6.000000,-9.000000,14.000000,5.000000,5.000000,-6.000000
1296382.986398,-2.000000,-10.000000,-10.000000,-8.000000,2.000000,-8.000000,-6.000000,-5.000000
1296382.986764,-10.000000,3.000000,-7.000000,12.000000,-18.000000,-4.000000,1.000000,44.000000
1296382.987095,-6.000000,17.000000,4.000000,1.000000,-17.000000,-2.000000,1.000000,61.000000
1296382.987156,8.000000,1.000000,8.000000,-57.000000,-8.000000,0.000000,-1.000000,-41.000000
1296382.987519,4.000000,45.000000,-8.000000,3.000000,-16.000000,-4.000000,-3.000000,-5.000000
1296382.987545,-13.000000,-85.000000,-1.000000,-6.000000,-3.000000,-2.000000,1.000000,42.000000
1296382.988639,-12.000000,50.000000,-6.000000,12.000000,-8.000000,-3.000000,-3.000000,-46.000000
1296382.988667,13.000000,16.000000,3.000000,-11.000000,-9.000000,0.000000,5.000000,13.000000
1296382.988807,5.000000,8.000000,-16.000000,30.000000,54.000000,1.000000,1.000000,4.000000
1296382.988819,8.000000,18.000000,2.000000,32.000000,-92.000000,11.000000,4.000000,20.000000
1296382.990826,-2.000000,7.000000,-4.000000,18.000000,-16.000000,-11.000000,-2.000000,-3.000000
1296382.990853,9.000000,7.000000,2.000000,31.000000,1.000000,9.000000,6.000000,8.000000
1296383.021037,9.000000,9.000000,0.000000,5.000000,20.000000,2.000000,5.000000,-2.000000
1296383.021065,16.000000,0.000000,12.000000,-4.000000,-46.000000,-7.000000,-12.000000,-29.000000
1296383.028868,-23.000000,11.000000,10.000000,42.000000,20.000000,-1.000000,4.000000,-3.000000
1296383.029012,-10.000000,-12.000000,6.000000,-45.000000,-21.000000,-12.000000,-5.000000,1.000000
1296383.043628,-1.000000,-34.000000,2.000000,14.000000,-5.000000,-2.000000,5.000000,-17.000000
1296383.043656,0.000000,17.000000,-9.000000,-7.000000,13.000000,0.000000,-6.000000,0.000000
1296383.058555,1.000000,0.000000,-1.000000,4.000000,-9.000000,-1.000000,2.000000,2.000000
1296383.058586,0.000000,37.000000,-2.000000,21.000000,-16.000000,2.000000,6.000000,-6.000000
1296383.059900,-3.000000,0.000000,-7.000000,2.000000,9.000000,3.000000,5.000000,21.000000
1296383.059926,20.000000,23.000000,13.000000,-14.000000,-13.000000,-6.000000,-10.000000,6.000000
1296383.061521,-3.000000,-76.000000,-2.000000,-23.000000,-4.000000,-4.000000,0.000000,-12.000000
1296383.061554,3.000000,19.000000,-1.000000,26.000000,0.000000,-3.000000,0.000000,-1.000000
1296383.062579,6.000000,-6.000000,-12.000000,35.000000,-4.000000,-2.000000,-3.000000,0.000000
1296383.062607,-2.000000,14.000000,-3.000000,-4.000000,-25.000000,0.000000,2.000000,-4.000000
1296383.066354,5.000000,7.000000,5.000000,-18.000000,-55.000000,-15.000000,-4.000000,8.000000
1296383.066414,10.000000,9.000000,-12.000000,84.000000,101.000000,34.000000,5.000000,7.000000
1296383.082648,-31.000000,-40.000000,0.000000,11.000000,-8.000000,-4.000000,-11.000000,-28.000000
1296383.082798,6.000000,6.000000,-12.000000,32.000000,26.000000,0.000000,0.000000,1.000000
1296383.096884,4.000000,-17.000000,-4.000000,-51.000000,-21.000000,-4.000000,-3.000000,4.000000
1296383.096953,0.000000,-1.000000,-4.000000,-12.000000,-2.000000,1.000000,-1.000000,-1.000000
1296383.105085,5.000000,45.000000,2.000000,-14.000000,-26.000000,-4.000000,8.000000,-18.000000
1296383.105134,-6.000000,-86.000000,-12.000000,45.000000,47.000000,12.000000,-4.000000,2.000000
1296383.111546,-15.000000,4.000000,-6.000000,18.000000,64.000000,2.000000,-5.000000,-13.000000
1296383.111610,16.000000,18.000000,6.000000,-8.000000,-46.000000,5.000000,3.000000,12.000000
1296383.133724,-29.000000,-37.000000,-8.000000,-12.000000,11.000000,-3.000000,1.000000,-7.000000
1296383.133752,5.000000,4.000000,2.000000,-15.000000,-17.000000,-6.000000,-2.000000,1.000000
1296383.141161,-8.000000,29.000000,-5.000000,0.000000,26.000000,4.000000,-1.000000,-21.000000
1296383.141189,19.000000,-7.000000,-5.000000,3.000000,-13.000000,3.000000,1.000000,18.000000
1296383.155997,-15.000000,-7.000000,6.000000,-83.000000,-54.000000,-4.000000,-6.000000,-7.000000
1296383.156036,9.000000,49.000000,-2.000000,59.000000,14.000000,-4.000000,1.000000,16.000000
1296383.179333,-2.000000,-5.000000,4.000000,-17.000000,6.000000,-6.000000,-6.000000,-9.000000
1296383.179363,-5.000000,-37.000000,3.000000,5.000000,-16.000000,-4.000000,-10.000000,-9.000000
1296383.193936,1.000000,6.000000,6.000000,0.000000,4.000000,-3.000000,2.000000,5.000000
1296383.193965,0.000000,-5.000000,-8.000000,4.000000,-9.000000,-5.000000,1.000000,-1.000000
1296383.208858,-8.000000,13.000000,0.000000,-20.000000,-26.000000,1.000000,7.000000,3.000000
1296383.208907,20.000000,-2.000000,15.000000,50.000000,10.000000,11.000000,-4.000000,30.000000
1296383.223779,-12.000000,6.000000,-2.000000,-12.000000,-19.000000,-15.000000,-10.000000,35.000000
1296383.223944,1.000000,5.000000,-12.000000,-25.000000,-5.000000,3.000000,3.000000,-31.000000
1296383.231111,12.000000,5.000000,4.000000,-8.000000,-18.000000,-5.000000,6.000000,20.000000
1296383.231138,-6.000000,-14.000000,-7.000000,16.000000,13.000000,-2.000000,-5.000000,-25.000000
1296383.255160,-15.000000,6.000000,-3.000000,1.000000,-21.000000,-1.000000,6.000000,25.000000
1296383.255596,18.000000,-6.000000,-10.000000,-27.000000,22.000000,11.000000,5.000000,24.000000
1296383.255964,-28.000000,38.000000,-1.000000,16.000000,61.000000,-10.000000,-20.000000,-23.000000
1296383.255993,-1.000000,15.000000,-2.000000,-21.000000,-36.000000,-1.000000,4.000000,-11.000000
1296383.256527,4.000000,10.000000,1.000000,25.000000,10.000000,1.000000,5.000000,3.000000
1296383.256547,9.000000,6.000000,2.000000,-19.000000,-21.000000,6.000000,3.000000,5.000000
1296383.257023,1.000000,7.000000,-4.000000,14.000000,33.000000,5.000000,-1.000000,-4.000000
1296383.257055,-2.000000,36.000000,3.000000,-19.000000,-40.000000,-11.000000,-1.000000,-8.000000
1296383.257449,-1.000000,-39.000000,1.000000,78.000000,44.000000,16.000000,5.000000,10.000000
1296383.257474,-5.000000,-49.000000,5.000000,-4.000000,-27.000000,-18.000000,-4.000000,-4.000000
1296383.258290,0.000000,0.000000,-4.000000,-8.000000,-16.000000,-3.000000,2.000000,-6.000000
1296383.258316,-5.000000,17.000000,-2.000000,-29.000000,31.000000,-4.000000,-5.000000,-6.000000
1296383.260862,4.000000,-15.000000,-4.000000,2.000000,-4.000000,-1.000000,1.000000,69.000000
1296383.260888,-5.000000,-26.000000,2.000000,6.000000,12.000000,8.000000,5.000000,-68.000000
1296383.269045,-6.000000,14.000000,0.000000,37.000000,-10.000000,-9.000000,-10.000000,-14.000000
1296383.269167,-21.000000,-81.000000,-5.000000,-23.000000,-25.000000,-8.000000,-7.000000,-16.000000
1296383.301095,16.000000,87.000000,1.000000,10.000000,1.000000,0.000000,1.000000,59.000000
1296383.301523,-15.000000,-123.000000,3.000000,-13.000000,17.000000,5.000000,-3.000000,-11.000000
1296383.302014,-2.000000,27.000000,-9.000000,-7.000000,-8.000000,-3.000000,-5.000000,-9.000000
1296383.302102,-4.000000,0.000000,-4.000000,-6.000000,-4.000000,-3.000000,-2.000000,0.000000
1296383.303227,4.000000,5.000000,-6.000000,7.000000,-15.000000,-4.000000,-2.000000,9.000000
1296383.303264,1.000000,18.000000,-1.000000,17.000000,18.000000,2.000000,-1.000000,-16.000000
1296383.321740,2.000000,-29.000000,6.000000,17.000000,-41.000000,0.000000,3.000000,9.000000
1296383.321792,-9.000000,13.000000,-3.000000,30.000000,12.000000,-4.000000,-2.000000,-4.000000
1296383.323066,21.000000,-9.000000,-8.000000,-11.000000,37.000000,3.000000,5.000000,2.000000
1296383.323092,-31.000000,3.000000,-3.000000,-19.000000,-13.000000,-6.000000,-5.000000,0.000000
1296383.337042,14.000000,25.000000,0.000000,-11.000000,13.000000,-4.000000,-3.000000,-10.000000
1296383.337100,-5.000000,0.000000,-2.000000,50.000000,18.000000,11.000000,4.000000,-26.000000
1296383.351420,11.000000,22.000000,3.000000,-60.000000,-31.000000,-5.000000,-2.000000,23.000000
1296383.351449,-9.000000,-22.000000,-2.000000,-34.000000,0.000000,0.000000,-4.000000,-5.000000
1296383.381152,0.000000,16.000000,3.000000,8.000000,-13.000000,-3.000000,1.000000,1.000000
1296383.381179,2.000000,12.000000,0.000000,-8.000000,-7.000000,-3.000000,3.000000,2.000000
1296383.411306,-5.000000,49.000000,-1.000000,-31.000000,37.000000,5.000000,3.000000,1.000000
1296383.411345,2.000000,-70.000000,-5.000000,7.000000,-48.000000,-6.000000,-6.000000,9.000000
1296383.419795,3.000000,46.000000,5.000000,-7.000000,-14.000000,-9.000000,-6.000000,-39.000000
1296383.420177,1.000000,-17.000000,-3.000000,44.000000,31.000000,12.000000,10.000000,16.000000
1296383.422892,-11.000000,9.000000,6.000000,2.000000,0.000000,0.000000,-5.000000,-8.000000
1296383.422949,3.000000,-44.000000,-11.000000,-2.000000,-4.000000,-1.000000,2.000000,1.000000
1296383.423340,13.000000,35.000000,3.000000,-1.000000,-10.000000,1.000000,-1.000000,10.000000
1296383.423387,-4.000000,-12.000000,-3.000000,9.000000,-6.000000,0.000000,2.000000,-15.000000
1296383.424076,-5.000000,-22.000000,-11.000000,3.000000,-10.000000,0.000000,2.000000,35.000000
1296383.424103,-9.000000,28.000000,2.000000,-32.000000,-33.000000,-10.000000,-6.000000,-29.000000
1296383.433854,10.000000,33.000000,-4.000000,-7.000000,-7.000000,2.000000,5.000000,2.000000
1296383.434085,-2.000000,-24.000000,1.000000,-26.000000,-6.000000,-1.000000,1.000000,4.000000
1296383.449369,11.000000,-12.000000,-2.000000,-49.000000,-31.000000,-9.000000,-3.000000,15.000000
1296383.449394,-27.000000,2.000000,5.000000,103.000000,58.000000,13.000000,4.000000,-29.000000
1296383.456079,13.000000,-52.000000,-4.000000,-26.000000,-11.000000,-10.000000,0.000000,6.000000
1296383.456110,-2.000000,37.000000,-5.000000,-33.000000,-29.000000,-4.000000,0.000000,15.000000
1296383.486468,5.000000,9.000000,3.000000,30.000000,11.000000,5.000000,-2.000000,-1.000000
1296383.486501,8.000000,28.000000,6.000000,6.000000,-9.000000,-15.000000,-8.000000,-6.000000
1296383.493470,-17.000000,-23.000000,2.000000,11.000000,19.000000,9.000000,2.000000,-16.000000
1296383.493497,1.000000,18.000000,0.000000,-4.000000,-7.000000,0.000000,-2.000000,-34.000000
1296383.508613,7.000000,-10.000000,-2.000000,8.000000,-45.000000,-15.000000,-1.000000,16.000000
1296383.508645,-5.000000,-25.000000,-4.000000,-7.000000,37.000000,11.000000,-3.000000,-16.000000
1296383.531247,-12.000000,11.000000,1.000000,-28.000000,-32.000000,-23.000000,-12.000000,-8.000000
1296383.531312,-7.000000,0.000000,-8.000000,18.000000,37.000000,11.000000,1.000000,2.000000
1296383.534019,20.000000,39.000000,1.000000,-29.000000,-17.000000,0.000000,5.000000,-8.000000
1296383.534079,0.000000,-63.000000,-10.000000,13.000000,50.000000,1.000000,-1.000000,18.000000
1296383.534365,-21.000000,-17.000000,-10.000000,-14.000000,-22.000000,-10.000000,-8.000000,-24.000000
1296383.534399,3.000000,21.000000,0.000000,21.000000,32.000000,-3.000000,-4.000000,4.000000
1296383.536089,-1.000000,1.000000,-9.000000,-20.000000,-24.000000,-7.000000,-10.000000,9.000000
1296383.536115,14.000000,53.000000,-5.000000,9.000000,-6.000000,-3.000000,1.000000,7.000000
1296383.536240,8.000000,13.000000,3.000000,-13.000000,-49.000000,0.000000,1.000000,0.000000
1296383.536254,6.000000,0.000000,1.000000,79.000000,7.000000,8.000000,4.000000,-4.000000
1296383.538318,-25.000000,-128.000000,-12.000000,-15.000000,26.000000,3.000000,-1.000000,93.000000
1296383.538345,2.000000,28.000000,1.000000,-1.000000,-14.000000,-1.000000,1.000000,-79.000000
1296383.576476,3.000000,12.000000,0.000000,-11.000000,-11.000000,-7.000000,-7.000000,0.000000
1296383.576507,-6.000000,-36.000000,-11.000000,10.000000,-8.000000,4.000000,4.000000,18.000000
1296383.613898,0.000000,-3.000000,2.000000,-38.000000,-43.000000,-1.000000,3.000000,2.000000
1296383.613925,28.000000,24.000000,26.000000,95.000000,43.000000,9.000000,-1.000000,32.000000
1296383.620982,0.000000,-7.000000,-5.000000,-14.000000,-26.000000,-8.000000,-3.000000,-9.000000
1296383.621008,4.000000,26.000000,-4.000000,3.000000,-5.000000,1.000000,3.000000,0.000000
1296383.659328,1.000000,-18.000000,0.000000,32.000000,24.000000,-1.000000,-1.000000,-14.000000
1296383.659365,-10.000000,30.000000,-1.000000,-23.000000,-5.000000,-7.000000,-7.000000,7.000000
1296383.659506,5.000000,-33.000000,-2.000000,-7.000000,-19.000000,-8.000000,0.000000,1.000000
1296383.659539,0.000000,28.000000,1.000000,10.000000,19.000000,1.000000,-4.000000,-7.000000
1296383.660806,7.000000,37.000000,-8.000000,0.000000,-18.000000,1.000000,4.000000,3.000000
1296383.661059,2.000000,-46.000000,8.000000,35.000000,8.000000,-3.000000,2.000000,12.000000
1296383.663018,6.000000,21.000000,-5.000000,-44.000000,31.000000,20.000000,5.000000,5.000000
1296383.663068,-7.000000,-31.000000,14.000000,-33.000000,-56.000000,-13.000000,-9.000000,-12.000000
1296383.663425,-9.000000,-27.000000,-4.000000,-5.000000,-17.000000,1.000000,2.000000,-5.000000
1296383.663492,8.000000,29.000000,7.000000,-2.000000,1.000000,2.000000,4.000000,10.000000
1296383.688722,5.000000,20.000000,3.000000,4.000000,-14.000000,-2.000000,0.000000,7.000000
1296383.688781,-1.000000,6.000000,-4.000000,-27.000000,-1.000000,-7.000000,1.000000,-3.000000
1296383.703645,-1.000000,-7.000000,5.000000,-4.000000,-42.000000,5.000000,-9.000000,-11.000000
1296383.703798,4.000000,2.000000,-2.000000,-8.000000,-4.000000,-3.000000,-2.000000,-2.000000
1296383.726157,-1.000000,-3.000000,-3.000000,-53.000000,-33.000000,-7.000000,0.000000,4.000000
1296383.726186,-6.000000,1.000000,-11.000000,47.000000,42.000000,-4.000000,-1.000000,1.000000
1296383.741265,-5.000000,-6.000000,-7.000000,22.000000,72.000000,12.000000,0.000000,-2.000000
1296383.741314,0.000000,-6.000000,0.000000,-41.000000,-38.000000,-6.000000,-6.000000,-9.000000
1296383.748622,-17.000000,5.000000,5.000000,17.000000,6.000000,-5.000000,-4.000000,-1.000000
1296383.748649,8.000000,6.000000,2.000000,-25.000000,-17.000000,1.000000,0.000000,5.000000
1296383.779059,4.000000,31.000000,-6.000000,8.000000,-22.000000,-4.000000,-3.000000,-3.000000
1296383.779102,1.000000,-17.000000,-1.000000,13.000000,20.000000,4.000000,-3.000000,7.000000
1296383.786234,-26.000000,-43.000000,-11.000000,25.000000,7.000000,1.000000,-2.000000,-19.000000
1296383.786265,-10.000000,20.000000,-6.000000,-22.000000,-10.000000,-4.000000,-3.000000,35.000000
1296383.793776,-7.000000,-13.000000,10.000000,-26.000000,-3.000000,-6.000000,-7.000000,-72.000000
1296383.793804,-2.000000,14.000000,8.000000,-7.000000,-12.000000,0.000000,2.000000,3.000000
1296383.801251,3.000000,-16.000000,8.000000,25.000000,47.000000,1.000000,1.000000,10.000000
1296383.801279,4.000000,26.000000,-8.000000,-6.000000,2.000000,-4.000000,0.000000,-21.000000
1296383.824118,-1.000000,24.000000,6.000000,-35.000000,-36.000000,-7.000000,-1.000000,4.000000
1296383.824166,10.000000,40.000000,4.000000,-31.000000,-23.000000,-8.000000,0.000000,-3.000000
1296383.832106,-8.000000,-1.000000,-3.000000,-2.000000,-4.000000,-3.000000,0.000000,-3.000000
1296383.832174,-1.000000,13.000000,5.000000,-25.000000,-31.000000,-3.000000,-3.000000,-9.000000
1296383.853947,11.000000,4.000000,-1.000000,-1.000000,8.000000,5.000000,4.000000,27.000000
1296383.853982,-9.000000,12.000000,1.000000,-39.000000,-1.000000,-5.000000,-4.000000,-27.000000
1296383.861369,-2.000000,26.000000,-7.000000,19.000000,-10.000000,1.000000,-2.000000,-12.000000
1296383.861420,19.000000,-21.000000,0.000000,22.000000,73.000000,4.000000,-3.000000,9.000000
1296383.905984,-12.000000,-70.000000,0.000000,19.000000,29.000000,1.000000,2.000000,-25.000000
1296383.906012,-19.000000,-18.000000,8.000000,-15.000000,-12.000000,-12.000000,-14.000000,-6.000000
1296383.928551,4.000000,25.000000,-8.000000,13.000000,-4.000000,8.000000,6.000000,34.000000
1296383.928579,13.000000,51.000000,21.000000,-10.000000,5.000000,-7.000000,4.000000,-12.000000
1296383.943492,-10.000000,1.000000,3.000000,-10.000000,20.000000,1.000000,-5.000000,-1.000000
1296383.943519,2.000000,6.000000,3.000000,21.000000,-20.000000,6.000000,2.000000,-1.000000
1296383.973923,3.000000,52.000000,-14.000000,11.000000,33.000000,7.000000,-4.000000,1.000000
1296383.973977,-6.000000,-7.000000,12.000000,28.000000,33.000000,4.000000,-6.000000,3.000000
1296383.981141,-21.000000,11.000000,-4.000000,-5.000000,-3.000000,1.000000,0.000000,-49.000000
1296383.981171,0.000000,12.000000,2.000000,2.000000,-8.000000,2.000000,1.000000,12.000000
1296384.013144,5.000000,-53.000000,-9.000000,10.000000,-16.000000,-7.000000,0.000000,-9.000000
1296384.013188,2.000000,20.000000,6.000000,-13.000000,-14.000000,4.000000,1.000000,2.000000
1296384.014219,-1.000000,-48.000000,1.000000,-29.000000,-30.000000,-10.000000,-2.000000,-12.000000
1296384.014279,-10.000000,17.000000,-8.000000,5.000000,4.000000,-3.000000,1.000000,11.000000
1296384.016514,3.000000,-25.000000,-7.000000,-14.000000,0.000000,-1.000000,-8.000000,-5.000000
1296384.016541,-19.000000,19.000000,7.000000,-38.000000,-30.000000,-8.000000,-6.000000,-5.000000
1296384.018695,-16.000000,-43.000000,-9.000000,8.000000,34.000000,-3.000000,-8.000000,-6.000000
1296384.018722,6.000000,23.000000,-9.000000,-6.000000,-6.000000,1.000000,4.000000,58.000000
1296384.056039,-7.000000,-8.000000,6.000000,-3.000000,-7.000000,-1.000000,-5.000000,-72.000000
1296384.056070,14.000000,42.000000,1.000000,-2.000000,3.000000,-5.000000,-3.000000,19.000000
1296384.063708,-12.000000,-37.000000,-1.000000,-31.000000,-43.000000,-6.000000,-7.000000,-1.000000
1296384.063754,3.000000,6.000000,10.000000,25.000000,17.000000,8.000000,-2.000000,9.000000
1296384.093503,8.000000,9.000000,-5.000000,10.000000,-25.000000,-3.000000,-5.000000,1.000000
1296384.093531,-7.000000,-14.000000,2.000000,-19.000000,4.000000,-5.000000,-6.000000,-4.000000
1296384.101067,-4.000000,-7.000000,-14.000000,21.000000,6.000000,-3.000000,-1.000000,-5.000000
1296384.101095,1.000000,17.000000,5.000000,6.000000,11.000000,-7.000000,1.000000,1.000000
1296384.139413,17.000000,55.000000,3.000000,13.000000,-9.000000,4.000000,-1.000000,10.000000
1296384.139749,-10.000000,-72.000000,-3.000000,-12.000000,31.000000,-8.000000,-2.000000,-4.000000
1296384.140429,0.000000,34.000000,8.000000,19.000000,-36.000000,11.000000,-2.000000,8.000000
1296384.140808,9.000000,3.000000,1.000000,-22.000000,5.000000,2.000000,1.000000,-16.000000
1296384.141533,-6.000000,-11.000000,-1.000000,4.000000,-7.000000,-3.000000,-3.000000,-31.000000
1296384.141558,7.000000,-5.000000,-1.000000,16.000000,10.000000,-1.000000,0.000000,11.000000
1296384.142436,-3.000000,1.000000,3.000000,-2.000000,-6.000000,-2.000000,2.000000,-6.000000
1296384.142461,3.000000,1.000000,1.000000,9.000000,8.000000,1.000000,-1.000000,-1.000000
1296384.154087,8.000000,16.000000,-1.000000,80.000000,33.000000,18.000000,5.000000,5.000000
1296384.154113,6.000000,-3.000000,14.000000,-29.000000,-4.000000,-11.000000,-7.000000,-34.000000
1296384.168603,-19.000000,-19.000000,-10.000000,-10.000000,15.000000,-5.000000,-1.000000,7.000000
1296384.168655,-5.000000,6.000000,-4.000000,3.000000,-2.000000,2.000000,3.000000,3.000000
1296384.183612,7.000000,45.000000,2.000000,-27.000000,-61.000000,0.000000,6.000000,-7.000000
1296384.183641,9.000000,-67.000000,-15.000000,0.000000,40.000000,13.000000,-2.000000,27.000000
1296384.191100,-28.000000,-10.000000,0.000000,-34.000000,-33.000000,-23.000000,-12.000000,-25.000000
1296384.191129,-10.000000,5.000000,-11.000000,-7.000000,24.000000,7.000000,5.000000,-2.000000
1296384.213489,12.000000,32.000000,3.000000,13.000000,-10.000000,-4.000000,6.000000,34.000000
1296384.213518,21.000000,-10.000000,-4.000000,3.000000,-23.000000,-8.000000,-1.000000,-12.000000
1296384.220952,-14.000000,-3.000000,0.000000,-9.000000,3.000000,-6.000000,-6.000000,-9.000000
1296384.220980,1.000000,22.000000,-1.000000,-19.000000,0.000000,0.000000,0.000000,-1.000000
1296384.244699,13.000000,8.000000,1.000000,-13.000000,-23.000000,-4.000000,3.000000,7.000000
1296384.245137,6.000000,31.000000,-11.000000,29.000000,11.000000,5.000000,7.000000,21.000000
1296384.246566,-6.000000,-34.000000,2.000000,-29.000000,-28.000000,-2.000000,0.000000,-19.000000
1296384.246590,-8.000000,1.000000,7.000000,-5.000000,-5.000000,-7.000000,-6.000000,-17.000000
1296384.247042,-5.000000,7.000000,1.000000,6.000000,29.000000,0.000000,1.000000,-1.000000
1296384.247061,20.000000,1.000000,-6.000000,-4.000000,-13.000000,-3.000000,3.000000,10.000000
1296384.247176,-17.000000,-2.000000,7.000000,6.000000,-19.000000,1.000000,-3.000000,-4.000000
1296384.247190,-10.000000,-1.000000,-1.000000,-40.000000,-22.000000,-11.000000,-8.000000,-10.000000
1296384.251859,7.000000,19.000000,-2.000000,16.000000,-8.000000,3.000000,6.000000,4.000000
1296384.251884,3.000000,-10.000000,-10.000000,2.000000,33.000000,7.000000,1.000000,-3.000000
1296384.273299,2.000000,7.000000,-6.000000,-11.000000,-24.000000,-5.000000,1.000000,-4.000000
1296384.273324,6.000000,14.000000,-2.000000,7.000000,10.000000,-6.000000,1.000000,4.000000
1296384.303312,-32.000000,-4.000000,-1.000000,17.000000,7.000000,7.000000,-4.000000,-6.000000
1296384.303338,22.000000,5.000000,4.000000,-28.000000,-23.000000,-12.000000,0.000000,7.000000
1296384.326017,-12.000000,-17.000000,-1.000000,-36.000000,-43.000000,-6.000000,-7.000000,-35.000000
1296384.326053,1.000000,8.000000,4.000000,-55.000000,1.000000,-4.000000,-3.000000,-3.000000
1296384.340962,0.000000,1.000000,11.000000,-5.000000,-10.000000,6.000000,1.000000,15.000000
1296384.340988,5.000000,-4.000000,1.000000,-44.000000,-20.000000,-15.000000,-9.000000,-2.000000
1296384.364149,-10.000000,-16.000000,-7.000000,-16.000000,-40.000000,-7.000000,-3.000000,-4.000000
1296384.364183,5.000000,24.000000,0.000000,-31.000000,11.000000,1.000000,1.000000,9.000000
1296384.366312,0.000000,-23.000000,0.000000,22.000000,6.000000,11.000000,4.000000,-14.000000
1296384.366339,-10.000000,-16.000000,-1.000000,8.000000,9.000000,-2.000000,2.000000,9.000000
1296384.366485,11.000000,-8.000000,9.000000,-41.000000,-14.000000,-9.000000,-11.000000,6.000000
1296384.366533,-17.000000,3.000000,18.000000,23.000000,-1.000000,5.000000,-1.000000,-11.000000
1296384.367448,-2.000000,-2.000000,-7.000000,-3.000000,-2.000000,-7.000000,-2.000000,-4.000000
1296384.367473,11.000000,18.000000,3.000000,-5.000000,-7.000000,1.000000,3.000000,1.000000
1296384.368889,4.000000,18.000000,-8.000000,3.000000,-7.000000,0.000000,-1.000000,-20.000000
1296384.368934,-3.000000,-36.000000,4.000000,-15.000000,-3.000000,1.000000,-9.000000,18.000000
1296384.371934,7.000000,5.000000,5.000000,-13.000000,-12.000000,-8.000000,5.000000,16.000000
1296384.371990,-2.000000,-11.000000,7.000000,-40.000000,31.000000,3.000000,-4.000000,13.000000
1296384.386860,-7.000000,6.000000,1.000000,-15.000000,-30.000000,-14.000000,-4.000000,-7.000000
1296384.386889,8.000000,13.000000,-7.000000,32.000000,43.000000,7.000000,-1.000000,-28.000000
1296384.408569,-13.000000,-61.000000,-2.000000,-18.000000,-8.000000,-2.000000,2.000000,1.000000
1296384.408597,-3.000000,-16.000000,-5.000000,-31.000000,-2.000000,-10.000000,-4.000000,26.000000
1296384.446201,0.000000,19.000000,6.000000,-51.000000,-17.000000,-7.000000,-7.000000,-43.000000
1296384.446250,9.000000,8.000000,-3.000000,13.000000,21.000000,0.000000,4.000000,-15.000000
1296384.461040,0.000000,6.000000,-11.000000,13.000000,39.000000,15.000000,1.000000,21.000000
1296384.461103,16.000000,-39.000000,-8.000000,-31.000000,-14.000000,-10.000000,-9.000000,-9.000000
1296384.483783,-16.000000,9.000000,0.000000,23.000000,-7.000000,-4.000000,0.000000,-2.000000
1296384.483809,5.000000,9.000000,-6.000000,-29.000000,-3.000000,0.000000,1.000000,2.000000
1296384.498284,1.000000,5.000000,-9.000000,1.000000,-17.000000,3.000000,2.000000,2.000000
1296384.498309,11.000000,8.000000,12.000000,12.000000,-5.000000,8.000000,2.000000,2.000000
1296384.528418,-11.000000,-38.000000,1.000000,-27.000000,-10.000000,1.000000,2.000000,1.000000
1296384.528444,-7.000000,1.000000,-11.000000,-14.000000,-38.000000,-14.000000,-4.000000,-10.000000
1296384.536441,-3.000000,11.000000,-2.000000,-11.000000,-13.000000,-7.000000,-5.000000,-1.000000
1296384.536523,4.000000,20.000000,12.000000,7.000000,-6.000000,-1.000000,1.000000,7.000000
1296384.558526,2.000000,-15.000000,-7.000000,-3.000000,16.000000,-1.000000,-2.000000,5.000000
1296384.558559,-12.000000,14.000000,0.000000,-6.000000,-25.000000,-7.000000,3.000000,41.000000
1296384.565939,3.000000,-32.000000,7.000000,-9.000000,9.000000,0.000000,0.000000,2.000000
1296384.566133,-12.000000,1.000000,3.000000,-27.000000,-16.000000,-11.000000,-5.000000,-21.000000
1296384.588240,-4.000000,7.000000,-11.000000,12.000000,23.000000,8.000000,8.000000,16.000000
1296384.588378,8.000000,9.000000,3.000000,6.000000,31.000000,4.000000,1.000000,-13.000000
1296384.603259,7.000000,53.000000,-1.000000,24.000000,33.000000,7.000000,-4.000000,24.000000
1296384.603284,-2.000000,-60.000000,-5.000000,-4.000000,-13.000000,-5.000000,-3.000000,-15.000000
1296384.604756,2.000000,14.000000,-2.000000,13.000000,16.000000,-2.000000,-4.000000,-8.000000
1296384.604802,-9.000000,-27.000000,-2.000000,-43.000000,6.000000,-1.000000,-3.000000,-7.000000
1296384.606125,-6.000000,-17.000000,-7.000000,52.000000,73.000000,17.000000,5.000000,-15.000000
1296384.606154,11.000000,4.000000,4.000000,3.000000,-10.000000,-8.000000,-11.000000,-11.000000
1296384.607568,-5.000000,13.000000,-5.000000,-10.000000,-13.000000,0.000000,1.000000,6.000000
1296384.607592,1.000000,3.000000,-9.000000,7.000000,-6.000000,-2.000000,4.000000,39.000000
1296384.611709,5.000000,11.000000,-2.000000,-2.000000,-11.000000,-11.000000,-10.000000,-9.000000
1296384.611737,3.000000,14.000000,7.000000,0.000000,-13.000000,1.000000,3.000000,2.000000
1296384.633858,4.000000,-2.000000,1.000000,35.000000,31.000000,3.000000,7.000000,7.000000
1296384.633893,1.000000,9.000000,6.000000,-18.000000,-12.000000,-4.000000,0.000000,-5.000000
1296384.648594,-10.000000,-30.000000,-2.000000,-44.000000,-22.000000,-7.000000,-7.000000,-19.000000
1296384.648642,-9.000000,-7.000000,4.000000,-12.000000,19.000000,-9.000000,-3.000000,-14.000000
1296384.655725,-11.000000,-6.000000,6.000000,4.000000,34.000000,17.000000,9.000000,6.000000
1296384.655750,16.000000,-13.000000,0.000000,-4.000000,-9.000000,-3.000000,-1.000000,14.000000
1296384.694539,-5.000000,4.000000,4.000000,-16.000000,-8.000000,-10.000000,-6.000000,-6.000000
1296384.694601,-5.000000,2.000000,-4.000000,4.000000,-5.000000,1.000000,1.000000,-4.000000
1296384.696899,27.000000,53.000000,2.000000,13.000000,-3.000000,3.000000,3.000000,35.000000
1296384.697351,-38.000000,-97.000000,-3.000000,-41.000000,-13.000000,-6.000000,-4.000000,-50.000000
1296384.698094,5.000000,-19.000000,3.000000,-17.000000,-46.000000,0.000000,6.000000,1.000000
1296384.698139,5.000000,16.000000,6.000000,14.000000,24.000000,-1.000000,0.000000,-4.000000
1296384.698357,19.000000,3.000000,2.000000,18.000000,39.000000,0.000000,-2.000000,11.000000
1296384.698380,-5.000000,28.000000,-5.000000,-8.000000,-24.000000,-8.000000,-3.000000,0.000000
1296384.708237,3.000000,36.000000,7.000000,48.000000,-17.000000,2.000000,4.000000,9.000000
1296384.708262,0.000000,-2.000000,-17.000000,29.000000,113.000000,18.000000,-6.000000,-53.000000
1296384.731333,-7.000000,-38.000000,24.000000,1.000000,8.000000,-4.000000,-7.000000,10.000000
1296384.731392,-10.000000,6.000000,-6.000000,-12.000000,-2.000000,-7.000000,-2.000000,4.000000
1296384.731981,2.000000,13.000000,2.000000,1.000000,-9.000000,-6.000000,2.000000,3.000000
1296384.732004,-3.000000,-5.000000,-4.000000,12.000000,18.000000,1.000000,-3.000000,-3.000000
1296384.733350,6.000000,14.000000,-9.000000,-13.000000,-12.000000,-2.000000,1.000000,17.000000
1296384.733398,-11.000000,0.000000,7.000000,-1.000000,30.000000,7.000000,3.000000,-34.000000
1296384.760954,8.000000,24.000000,-5.000000,-2.000000,-13.000000,-8.000000,-3.000000,39.000000
1296384.760997,-5.000000,-50.000000,13.000000,10.000000,-7.000000,1.000000,5.000000,4.000000
1296384.775899,-4.000000,25.000000,3.000000,7.000000,8.000000,-1.000000,-2.000000,-3.000000
1296384.775925,-2.000000,21.000000,0.000000,0.000000,-5.000000,1.000000,-1.000000,-4.000000
1296384.813755,3.000000,6.000000,-2.000000,2.000000,-4.000000,4.000000,4.000000,3.000000
1296384.813805,14.000000,39.000000,-2.000000,-24.000000,-29.000000,-2.000000,4.000000,-10.000000
1296384.844102,3.000000,-42.000000,-2.000000,31.000000,19.000000,3.000000,-3.000000,-14.000000
1296384.844164,-11.000000,-11.000000,-5.000000,-30.000000,17.000000,-3.000000,-2.000000,7.000000
1296384.845090,-4.000000,21.000000,-1.000000,61.000000,32.000000,12.000000,0.000000,0.000000
1296384.845581,-3.000000,-47.000000,8.000000,-10.000000,-5.000000,-2.000000,0.000000,-13.000000
1296384.847228,1.000000,-5.000000,-7.000000,-12.000000,-3.000000,-4.000000,-1.000000,1.000000
1296384.847265,-15.000000,-10.000000,-1.000000,-7.000000,15.000000,1.000000,-2.000000,-20.000000
1296384.847401,-4.000000,14.000000,3.000000,-42.000000,-21.000000,-3.000000,-1.000000,13.000000
1296384.847477,4.000000,3.000000,-1.000000,33.000000,34.000000,4.000000,1.000000,2.000000
1296384.848311,-3.000000,-16.000000,2.000000,-8.000000,0.000000,-5.000000,-9.000000,-11.000000
1296384.848364,-9.000000,-9.000000,-9.000000,-6.000000,-15.000000,-3.000000,-1.000000,-5.000000
1296384.852175,2.000000,16.000000,3.000000,-25.000000,-20.000000,-4.000000,4.000000,-24.000000
1296384.852212,7.000000,6.000000,4.000000,5.000000,1.000000,8.000000,5.000000,12.000000
1296384.873936,-10.000000,-52.000000,-7.000000,13.000000,1.000000,3.000000,-5.000000,-13.000000
1296384.873965,3.000000,17.000000,-1.000000,-25.000000,-19.000000,-12.000000,-4.000000,-1.000000
1296384.888684,3.000000,19.000000,-4.000000,15.000000,-12.000000,-2.000000,1.000000,2.000000
1296384.888711,0.000000,24.000000,-6.000000,5.000000,5.000000,2.000000,2.000000,-3.000000
1296384.896309,10.000000,-10.000000,3.000000,48.000000,39.000000,10.000000,6.000000,-3.000000
1296384.896340,-24.000000,-47.000000,3.000000,-6.000000,4.000000,-6.000000,-15.000000,-6.000000
1296384.910784,-4.000000,6.000000,-2.000000,6.000000,12.000000,1.000000,1.000000,-3.000000
1296384.910809,2.000000,5.000000,1.000000,-17.000000,-30.000000,-3.000000,0.000000,5.000000
1296384.918772,3.000000,10.000000,7.000000,-19.000000,-14.000000,-6.000000,2.000000,2.000000
1296384.918818,3.000000,-12.000000,-6.000000,2.000000,19.000000,-1.000000,1.000000,2.000000
1296384.933555,1.000000,20.000000,1.000000,-38.000000,-40.000000,0.000000,1.000000,-5.000000
1296384.933607,10.000000,-9.000000,4.000000,31.000000,17.000000,1.000000,2.000000,26.000000
1296384.934404,-12.000000,6.000000,-4.000000,-14.000000,-8.000000,-5.000000,-3.000000,-23.000000
1296384.934432,-5.000000,9.000000,12.000000,-13.000000,-31.000000,2.000000,-3.000000,9.000000
1296384.935628,7.000000,-17.000000,8.000000,32.000000,-3.000000,-1.000000,3.000000,2.000000
1296384.935649,-9.000000,-19.000000,7.000000,-26.000000,-15.000000,0.000000,-5.000000,-4.000000
1296384.948340,4.000000,24.000000,1.000000,-8.000000,-5.000000,-6.000000,3.000000,3.000000
1296384.948372,-2.000000,-22.000000,-6.000000,-13.000000,-4.000000,-1.000000,3.000000,14.000000
1296384.964174,-2.000000,-8.000000,-4.000000,22.000000,23.000000,8.000000,-3.000000,-27.000000
1296384.964414,18.000000,20.000000,12.000000,-39.000000,-27.000000,-7.000000,-1.000000,-18.000000
1296384.965022,-36.000000,-58.000000,3.000000,76.000000,48.000000,5.000000,-1.000000,10.000000
1296384.965166,12.000000,56.000000,-6.000000,-22.000000,-31.000000,-4.000000,4.000000,29.000000
1296384.972197,-13.000000,-4.000000,3.000000,34.000000,49.000000,2.000000,-6.000000,-21.000000
1296384.972247,16.000000,24.000000,0.000000,13.000000,-10.000000,3.000000,2.000000,18.000000
1296384.986376,6.000000,-7.000000,10.000000,-13.000000,-44.000000,-5.000000,2.000000,-4.000000
1296384.986522,-20.000000,-13.000000,4.000000,-22.000000,-29.000000,-6.000000,-1.000000,-6.000000
1296385.008579,18.000000,5.000000,-9.000000,-38.000000,23.000000,-6.000000,1.000000,1.000000
1296385.008603,-8.000000,9.000000,9.000000,-38.000000,-50.000000,3.000000,0.000000,4.000000
1296385.009509,-8.000000,-43.000000,-8.000000,-4.000000,45.000000,-1.000000,2.000000,-3.000000
1296385.009563,1.000000,1.000000,-6.000000,-3.000000,-35.000000,5.000000,3.000000,-7.000000
1296385.023396,2.000000,15.000000,5.000000,-32.000000,-19.000000,-6.000000,-6.000000,-7.000000
1296385.023421,-4.000000,7.000000,-1.000000,-3.000000,11.000000,0.000000,-5.000000,0.000000
1296385.038399,-15.000000,-5.000000,-4.000000,-18.000000,-3.000000,-10.000000,-2.000000,-1.000000
1296385.038425,-14.000000,-10.000000,-6.000000,4.000000,1.000000,-3.000000,-1.000000,-12.000000
1296385.053854,10.000000,46.000000,3.000000,32.000000,5.000000,5.000000,4.000000,20.000000
1296385.053883,4.000000,-29.000000,-1.000000,-8.000000,-3.000000,0.000000,-1.000000,-15.000000
1296385.060806,-11.000000,11.000000,1.000000,2.000000,2.000000,-7.000000,-8.000000,-26.000000
1296385.060830,6.000000,22.000000,-2.000000,-7.000000,-6.000000,1.000000,2.000000,-1.000000
1296385.083623,12.000000,-11.000000,-3.000000,-98.000000,-50.000000,-9.000000,0.000000,12.000000
1296385.083649,-2.000000,25.000000,7.000000,127.000000,127.000000,19.000000,-2.000000,-23.000000
1296385.091794,-4.000000,-28.000000,-7.000000,-16.000000,-33.000000,-9.000000,1.000000,0.000000
1296385.092195,0.000000,7.000000,12.000000,-13.000000,-23.000000,-5.000000,3.000000,-29.000000
1296385.094545,8.000000,4.000000,2.000000,-27.000000,-14.000000,-6.000000,-5.000000,9.000000
1296385.094599,1.000000,12.000000,5.000000,4.000000,-11.000000,-4.000000,-1.000000,-19.000000
1296385.094989,-5.000000,-3.000000,-6.000000,-52.000000,-25.000000,-4.000000,-5.000000,15.000000
1296385.095410,15.000000,39.000000,7.000000,56.000000,57.000000,19.000000,9.000000,15.000000
1296385.098468,-5.000000,-37.000000,-4.000000,-42.000000,-44.000000,-8.000000,-3.000000,10.000000
1296385.098495,-4.000000,20.000000,5.000000,0.000000,45.000000,5.000000,1.000000,3.000000
1296385.113481,15.000000,-10.000000,-4.000000,-9.000000,0.000000,-5.000000,-4.000000,-17.000000
1296385.113534,-19.000000,12.000000,-14.000000,3.000000,7.000000,-1.000000,-5.000000,15.000000
1296385.128492,5.000000,22.000000,8.000000,2.000000,-19.000000,3.000000,-4.000000,-2.000000
1296385.128517,4.000000,28.000000,7.000000,0.000000,-8.000000,0.000000,1.000000,-24.000000
1296385.151287,6.000000,-18.000000,0.000000,-21.000000,-29.000000,-8.000000,3.000000,-7.000000
1296385.151342,5.000000,-40.000000,5.000000,94.000000,59.000000,5.000000,-16.000000,4.000000
1296385.166176,-23.000000,14.000000,-9.000000,-20.000000,-28.000000,-11.000000,-2.000000,-8.000000
1296385.166202,3.000000,12.000000,-1.000000,-9.000000,-9.000000,-1.000000,3.000000,-3.000000
1296385.173214,7.000000,9.000000,-2.000000,-7.000000,-5.000000,5.000000,3.000000,9.000000
1296385.173239,4.000000,9.000000,-1.000000,13.000000,-13.000000,0.000000,1.000000,-8.000000
1296385.203291,9.000000,-31.000000,-3.000000,3.000000,10.000000,1.000000,5.000000,11.000000
1296385.203316,-15.000000,-2.000000,2.000000,-1.000000,-24.000000,-7.000000,5.000000,1.000000
1296385.210933,-6.000000,-11.000000,-18.000000,57.000000,83.000000,11.000000,-2.000000,-10.000000
1296385.210959,-1.000000,-17.000000,-6.000000,-15.000000,-20.000000,-10.000000,-2.000000,-11.000000
1296385.278561,8.000000,36.000000,-2.000000,-19.000000,6.000000,8.000000,2.000000,23.000000
1296385.278704,12.000000,-3.000000,19.000000,19.000000,-8.000000,-5.000000,-11.000000,-11.000000
1296385.285806,-4.000000,14.000000,3.000000,1.000000,-5.000000,3.000000,-6.000000,-11.000000
1296385.285835,-11.000000,-32.000000,-3.000000,-22.000000,-10.000000,-5.000000,0.000000,-1.000000
1296385.287901,-16.000000,4.000000,-6.000000,-14.000000,0.000000,-3.000000,-2.000000,-17.000000
1296385.287928,3.000000,10.000000,-8.000000,4.000000,-43.000000,-11.000000,-4.000000,9.000000
1296385.288725,4.000000,18.000000,6.000000,12.000000,-14.000000,-1.000000,3.000000,-31.000000
1296385.288749,-9.000000,-6.000000,1.000000,21.000000,47.000000,6.000000,3.000000,12.000000
1296385.289323,0.000000,-16.000000,-7.000000,-17.000000,-4.000000,-5.000000,-12.000000,-6.000000
1296385.289345,7.000000,38.000000,6.000000,-6.000000,-23.000000,-6.000000,-4.000000,-6.000000
1296385.316737,-10.000000,-12.000000,3.000000,-89.000000,-30.000000,-5.000000,-3.000000,7.000000
1296385.317103,25.000000,69.000000,11.000000,34.000000,30.000000,2.000000,-7.000000,10.000000
1296385.317546,-15.000000,-95.000000,-8.000000,-37.000000,-20.000000,-11.000000,-2.000000,-13.000000
1296385.317567,3.000000,18.000000,-4.000000,-28.000000,-18.000000,-6.000000,-3.000000,-4.000000
1296385.318312,2.000000,5.000000,-1.000000,-11.000000,-9.000000,1.000000,2.000000,8.000000
1296385.318330,4.000000,16.000000,-4.000000,21.000000,-10.000000,2.000000,1.000000,-3.000000
1296385.323464,2.000000,-4.000000,0.000000,-21.000000,4.000000,0.000000,4.000000,-1.000000
1296385.323489,0.000000,18.000000,-1.000000,0.000000,12.000000,-8.000000,-9.000000,-3.000000
1296385.353472,-22.000000,-96.000000,-7.000000,10.000000,15.000000,4.000000,1.000000,38.000000
1296385.353634,-2.000000,16.000000,-2.000000,3.000000,-9.000000,-4.000000,-3.000000,-40.000000
1296385.361225,6.000000,41.000000,5.000000,-20.000000,-20.000000,1.000000,4.000000,-2.000000
1296385.361279,3.000000,-73.000000,9.000000,-45.000000,35.000000,8.000000,-5.000000,-3.000000
1296385.375837,-17.000000,37.000000,-9.000000,9.000000,-10.000000,-3.000000,-5.000000,4.000000
1296385.375862,-2.000000,9.000000,6.000000,-15.000000,-17.000000,-10.000000,-4.000000,17.000000
1296385.383837,-5.000000,-17.000000,-7.000000,27.000000,-19.000000,-3.000000,0.000000,14.000000
1296385.383887,9.000000,21.000000,13.000000,-5.000000,-24.000000,-7.000000,-9.000000,-9.000000
1296385.406019,-10.000000,-14.000000,-11.000000,-18.000000,-22.000000,-5.000000,-3.000000,-3.000000
1296385.406049,-4.000000,18.000000,-1.000000,16.000000,5.000000,5.000000,2.000000,5.000000
1296385.435991,-8.000000,-24.000000,-4.000000,7.000000,27.000000,2.000000,1.000000,6.000000
1296385.436023,2.000000,28.000000,0.000000,17.000000,-21.000000,-5.000000,-1.000000,-19.000000
1296385.438530,6.000000,-8.000000,-3.000000,2.000000,-4.000000,1.000000,-1.000000,4.000000
1296385.438572,7.000000,1.000000,-6.000000,2.000000,13.000000,-2.000000,0.000000,12.000000
1296385.438970,-8.000000,-4.000000,-7.000000,-11.000000,-12.000000,-4.000000,-1.000000,-3.000000
1296385.439013,5.000000,13.000000,-7.000000,31.000000,41.000000,5.000000,4.000000,41.000000
1296385.440412,-7.000000,-51.000000,-8.000000,-36.000000,-9.000000,-3.000000,-8.000000,-41.000000
1296385.440433,-8.000000,22.000000,3.000000,-22.000000,-17.000000,-9.000000,-9.000000,-2.000000
1296385.443669,-2.000000,5.000000,-6.000000,-32.000000,-11.000000,0.000000,3.000000,7.000000
1296385.443706,12.000000,18.000000,-6.000000,-1.000000,-12.000000,3.000000,8.000000,6.000000
1296385.444713,-2.000000,-8.000000,-2.000000,0.000000,11.000000,-5.000000,-3.000000,-7.000000
1296385.444764,1.000000,9.000000,10.000000,-27.000000,-18.000000,-6.000000,-3.000000,4.000000
1296385.474081,-3.000000,-19.000000,-2.000000,-43.000000,-78.000000,9.000000,2.000000,0.000000
1296385.474111,7.000000,31.000000,9.000000,-31.000000,-36.000000,-5.000000,0.000000,-26.000000
1296385.488593,3.000000,-10.000000,-2.000000,25.000000,2.000000,8.000000,0.000000,11.000000
1296385.488622,-5.000000,-19.000000,7.000000,9.000000,20.000000,-3.000000,-8.000000,17.000000
1296385.526116,-9.000000,8.000000,-13.000000,-2.000000,-7.000000,-2.000000,-1.000000,-10.000000
1296385.526142,5.000000,18.000000,-1.000000,-14.000000,-19.000000,-5.000000,5.000000,4.000000
1296385.540861,0.000000,-72.000000,-6.000000,19.000000,42.000000,12.000000,4.000000,0.000000
1296385.540893,-5.000000,20.000000,6.000000,1.000000,-13.000000,-4.000000,2.000000,32.000000
1296385.557046,-1.000000,12.000000,-13.000000,51.000000,25.000000,4.000000,4.000000,-17.000000
1296385.557095,1.000000,9.000000,4.000000,-6.000000,2.000000,-1.000000,-2.000000,-24.000000
1296385.558538,5.000000,27.000000,-4.000000,-33.000000,-18.000000,-2.000000,7.000000,19.000000
1296385.558590,8.000000,-17.000000,8.000000,1.000000,10.000000,-3.000000,-2.000000,-1.000000
1296385.560609,-1.000000,-25.000000,-7.000000,7.000000,-5.000000,-5.000000,-2.000000,3.000000
1296385.560669,-6.000000,17.000000,-4.000000,-16.000000,-21.000000,-8.000000,-4.000000,-11.000000
1296385.564152,2.000000,-17.000000,-6.000000,-41.000000,-40.000000,-5.000000,-1.000000,-15.000000
1296385.564199,-3.000000,-8.000000,-5.000000,66.000000,79.000000,21.000000,5.000000,-10.000000
1296385.578838,-2.000000,3.000000,-8.000000,-13.000000,1.000000,-5.000000,-1.000000,-2.000000
1296385.578890,-3.000000,13.000000,-10.000000,-3.000000,-22.000000,-8.000000,0.000000,2.000000
1296385.593541,6.000000,-4.000000,0.000000,-18.000000,-28.000000,3.000000,0.000000,3.000000
1296385.593566,12.000000,-5.000000,10.000000,19.000000,11.000000,2.000000,-2.000000,4.000000
1296385.608465,-6.000000,12.000000,-9.000000,-9.000000,-30.000000,-5.000000,-4.000000,-6.000000
1296385.608491,19.000000,32.000000,3.000000,-28.000000,-14.000000,1.000000,2.000000,17.000000
1296385.630902,-27.000000,-20.000000,-7.000000,5.000000,39.000000,3.000000,-5.000000,7.000000
1296385.630927,1.000000,9.000000,-3.000000,52.000000,41.000000,4.000000,5.000000,-22.000000
1296385.639832,6.000000,6.000000,-3.000000,-8.000000,-25.000000,-3.000000,-6.000000,19.000000
1296385.639860,5.000000,-12.000000,13.000000,-6.000000,-4.000000,4.000000,2.000000,-16.000000
1296385.640087,-3.000000,9.000000,-7.000000,-13.000000,1.000000,-7.000000,0.000000,31.000000
1296385.640111,-5.000000,-26.000000,3.000000,-45.000000,-44.000000,-4.000000,-5.000000,-43.000000
1296385.641420,-7.000000,14.000000,1.000000,-19.000000,-11.000000,6.000000,-3.000000,2.000000
1296385.641444,-1.000000,8.000000,4.000000,-15.000000,-23.000000,-9.000000,-5.000000,6.000000
1296385.646588,6.000000,5.000000,-10.000000,1.000000,0.000000,1.000000,3.000000,47.000000
1296385.646617,-1.000000,15.000000,5.000000,-54.000000,4.000000,-11.000000,-8.000000,-54.000000
1296385.669326,6.000000,3.000000,-8.000000,78.000000,39.000000,30.000000,11.000000,20.000000
1296385.669838,-11.000000,-57.000000,-6.000000,-41.000000,6.000000,-14.000000,-8.000000,-1.000000
1296385.670554,4.000000,19.000000,3.000000,-12.000000,-21.000000,-4.000000,-7.000000,-11.000000
1296385.670581,-13.000000,-20.000000,8.000000,-4.000000,-1.000000,2.000000,1.000000,12.000000
1296385.675858,-7.000000,1.000000,3.000000,3.000000,-7.000000,-3.000000,0.000000,-13.000000
1296385.675885,6.000000,17.000000,1.000000,12.000000,3.000000,5.000000,0.000000,6.000000
1296385.684423,11.000000,5.000000,2.000000,7.000000,-11.000000,-2.000000,1.000000,29.000000
1296385.684528,8.000000,-1.000000,-2.000000,-7.000000,9.000000,3.000000,1.000000,-11.000000
1296385.706186,-39.000000,-34.000000,-2.000000,-11.000000,-6.000000,-13.000000,-14.000000,-12.000000
1296385.706323,-7.000000,7.000000,-8.000000,-5.000000,31.000000,10.000000,0.000000,17.000000
1296385.713666,8.000000,17.000000,-5.000000,-17.000000,-37.000000,4.000000,0.000000,-42.000000
1296385.713694,7.000000,-25.000000,17.000000,-34.000000,-49.000000,-9.000000,-4.000000,3.000000
1296385.730442,-8.000000,-27.000000,8.000000,-7.000000,-2.000000,-6.000000,-1.000000,6.000000
1296385.730707,-6.000000,32.000000,4.000000,-23.000000,-47.000000,-5.000000,3.000000,13.000000
1296385.730972,21.000000,-8.000000,-5.000000,98.000000,42.000000,15.000000,3.000000,33.000000
1296385.731000,-45.000000,-31.000000,-13.000000,1.000000,-20.000000,-9.000000,-9.000000,-33.000000
1296385.744032,5.000000,14.000000,-1.000000,-17.000000,-8.000000,-5.000000,3.000000,-2.000000
1296385.744068,4.000000,24.000000,-3.000000,-11.000000,2.000000,7.000000,2.000000,3.000000
1296385.751266,5.000000,-8.000000,3.000000,13.000000,-3.000000,1.000000,0.000000,1.000000
1296385.751295,8.000000,-13.000000,7.000000,-11.000000,-22.000000,-5.000000,-2.000000,-1.000000
1296385.766086,-13.000000,4.000000,-6.000000,43.000000,28.000000,-1.000000,-4.000000,-2.000000
1296385.766115,0.000000,7.000000,-4.000000,58.000000,75.000000,19.000000,8.000000,1.000000
1296385.773460,-5.000000,-23.000000,-3.000000,-10.000000,-22.000000,-4.000000,0.000000,15.000000
1296385.773487,-2.000000,50.000000,6.000000,-32.000000,-43.000000,-18.000000,-9.000000,-14.000000
1296385.796402,8.000000,-39.000000,-1.000000,96.000000,127.000000,26.000000,-4.000000,-36.000000
1296385.796429,-19.000000,-1.000000,-5.000000,-23.000000,-24.000000,-12.000000,-7.000000,-1.000000
1296385.803459,0.000000,31.000000,2.000000,2.000000,-12.000000,1.000000,2.000000,5.000000
1296385.803485,2.000000,-26.000000,0.000000,2.000000,-2.000000,-4.000000,0.000000,7.000000
1296385.841036,13.000000,21.000000,-2.000000,7.000000,-6.000000,0.000000,-1.000000,13.000000
1296385.841063,-11.000000,-11.000000,-7.000000,1.000000,8.000000,1.000000,0.000000,-13.000000
1296385.849084,3.000000,27.000000,12.000000,-37.000000,-25.000000,0.000000,7.000000,6.000000
1296385.849231,14.000000,-43.000000,-10.000000,-21.000000,16.000000,6.000000,-2.000000,0.000000
1296385.871272,-16.000000,2.000000,2.000000,-7.000000,-7.000000,-5.000000,-4.000000,1.000000
1296385.871297,0.000000,0.000000,3.000000,-18.000000,-12.000000,-3.000000,5.000000,-2.000000
1296385.893567,0.000000,2.000000,-3.000000,14.000000,15.000000,3.000000,0.000000,0.000000
1296385.893623,4.000000,-41.000000,10.000000,4.000000,-22.000000,4.000000,3.000000,36.000000
1296385.894871,-13.000000,1.000000,-4.000000,-29.000000,8.000000,3.000000,1.000000,9.000000
1296385.894891,-7.000000,-5.000000,-3.000000,34.000000,-13.000000,-4.000000,6.000000,17.000000
1296385.908501,12.000000,-7.000000,-2.000000,26.000000,-3.000000,25.000000,9.000000,13.000000
1296385.908529,14.000000,-3.000000,11.000000,-40.000000,-28.000000,-17.000000,-12.000000,-4.000000
1296385.909585,-23.000000,-12.000000,-1.000000,-14.000000,-19.000000,-3.000000,-1.000000,-10.000000
1296385.909614,3.000000,-2.000000,10.000000,-4.000000,-8.000000,-1.000000,-1.000000,-4.000000
1296385.910680,-8.000000,-10.000000,-19.000000,4.000000,-11.000000,-2.000000,0.000000,20.000000
1296385.910710,-1.000000,14.000000,3.000000,8.000000,-14.000000,-1.000000,0.000000,1.000000
1296385.953776,0.000000,3.000000,-2.000000,9.000000,24.000000,7.000000,-5.000000,-11.000000
1296385.953936,7.000000,20.000000,0.000000,-10.000000,-2.000000,-1.000000,-6.000000,-1.000000
1296385.960959,-6.000000,-4.000000,3.000000,-27.000000,6.000000,-3.000000,-6.000000,-8.000000
1296385.961004,-7.000000,-31.000000,10.000000,-19.000000,-43.000000,-12.000000,1.000000,-17.000000
1296385.998587,-6.000000,-14.000000,-10.000000,76.000000,79.000000,12.000000,-7.000000,18.000000
1296385.998615,-15.000000,-17.000000,-8.000000,25.000000,53.000000,1.000000,-1.000000,-7.000000
1296386.006149,6.000000,12.000000,-5.000000,-3.000000,-18.000000,-3.000000,0.000000,-5.000000
1296386.006176,9.000000,20.000000,0.000000,-1.000000,-1.000000,4.000000,0.000000,-4.000000
1296386.021964,-1.000000,-16.000000,-7.000000,3.000000,-13.000000,1.000000,6.000000,62.000000
1296386.022002,3.000000,16.000000,0.000000,41.000000,32.000000,6.000000,-1.000000,-60.000000
1296386.028689,-5.000000,2.000000,-2.000000,-16.000000,9.000000,-10.000000,-15.000000,-12.000000
1296386.028718,-15.000000,-12.000000,-1.000000,-3.000000,-1.000000,3.000000,0.000000,-1.000000
1296386.037369,7.000000,30.000000,4.000000,-41.000000,-16.000000,4.000000,3.000000,-4.000000
1296386.037423,-7.000000,-24.000000,-8.000000,9.000000,3.000000,-2.000000,-1.000000,14.000000
1296386.038116,-18.000000,-7.000000,4.000000,-1.000000,-4.000000,-5.000000,-7.000000,-5.000000
1296386.038557,6.000000,9.000000,-7.000000,-12.000000,-31.000000,1.000000,6.000000,-16.000000
1296386.040185,3.000000,8.000000,3.000000,-8.000000,-23.000000,-5.000000,-3.000000,-2.000000
1296386.040207,6.000000,5.000000,-5.000000,-10.000000,12.000000,-1.000000,-7.000000,-10.000000
1296386.041118,-7.000000,19.000000,3.000000,-2.000000,-30.000000,-1.000000,8.000000,42.000000
1296386.041146,3.000000,11.000000,-8.000000,17.000000,-36.000000,-1.000000,-1.000000,-60.000000
1296386.059062,-7.000000,-26.000000,9.000000,-11.000000,-3.000000,-10.000000,-12.000000,9.000000
1296386.059091,-4.000000,10.000000,-4.000000,-29.000000,-5.000000,2.000000,0.000000,-9.000000
1296386.080958,3.000000,5.000000,1.000000,24.000000,8.000000,3.000000,-1.000000,11.000000
1296386.080985,10.000000,13.000000,2.000000,-38.000000,-61.000000,-7.000000,-2.000000,-11.000000
1296386.097164,-3.000000,-27.000000,3.000000,15.000000,-1.000000,0.000000,-2.000000,4.000000
1296386.097339,-2.000000,13.000000,1.000000,8.000000,10.000000,4.000000,2.000000,0.000000
1296386.118708,3.000000,3.000000,-3.000000,-8.000000,-6.000000,-3.000000,-1.000000,1.000000
1296386.118737,2.000000,2.000000,4.000000,4.000000,-5.000000,-1.000000,1.000000,1.000000
1296386.126136,-13.000000,10.000000,-6.000000,-2.000000,10.000000,2.000000,-1.000000,1.000000
1296386.126602,-1.000000,-56.000000,-3.000000,-17.000000,-5.000000,1.000000,1.000000,1.000000
1296386.128954,-2.000000,9.000000,1.000000,-34.000000,-25.000000,-7.000000,-4.000000,-1.000000
1296386.129011,-2.000000,-22.000000,-1.000000,-6.000000,-16.000000,-10.000000,-8.000000,-5.000000
1296386.129311,1.000000,9.000000,-4.000000,5.000000,14.000000,-1.000000,-4.000000,-35.000000
1296386.129339,-1.000000,1.000000,-11.000000,0.000000,-7.000000,2.000000,-2.000000,38.000000
1296386.130579,4.000000,13.000000,-9.000000,-3.000000,-16.000000,-2.000000,6.000000,3.000000
1296386.130636,5.000000,2.000000,7.000000,-8.000000,-27.000000,5.000000,5.000000,32.000000
1296386.148141,2.000000,-33.000000,0.000000,5.000000,33.000000,3.000000,1.000000,-34.000000
1296386.148170,-7.000000,-32.000000,2.000000,-7.000000,-12.000000,-9.000000,-9.000000,18.000000
1296386.148995,-4.000000,1.000000,-5.000000,-16.000000,-23.000000,-7.000000,4.000000,-10.000000
1296386.149047,6.000000,16.000000,8.000000,-6.000000,-10.000000,7.000000,3.000000,-4.000000
1296386.156105,7.000000,18.000000,3.000000,3.000000,3.000000,1.000000,6.000000,3.000000
1296386.156134,0.000000,5.000000,-13.000000,10.000000,35.000000,2.000000,-3.000000,-5.000000
1296386.170924,-2.000000,-4.000000,0.000000,-15.000000,-18.000000,-1.000000,1.000000,0.000000
1296386.170957,4.000000,1.000000,3.000000,-20.000000,-13.000000,0.000000,0.000000,0.000000
1296386.193194,-5.000000,-35.000000,-1.000000,1.000000,39.000000,8.000000,3.000000,2.000000
1296386.193220,-5.000000,5.000000,-7.000000,8.000000,20.000000,-4.000000,-6.000000,-2.000000
1296386.216097,-19.000000,0.000000,7.000000,2.000000,-17.000000,-3.000000,-3.000000,-31.000000
1296386.216157,4.000000,8.000000,-8.000000,14.000000,51.000000,3.000000,-1.000000,2.000000
1296386.238790,17.000000,25.000000,-7.000000,-14.000000,-39.000000,-6.000000,2.000000,7.000000
1296386.238848,0.000000,12.000000,0.000000,-14.000000,-10.000000,4.000000,5.000000,3.000000
1296386.239949,-3.000000,-19.000000,-6.000000,-11.000000,-4.000000,-3.000000,-8.000000,-32.000000
1296386.240005,-2.000000,2.000000,4.000000,18.000000,4.000000,0.000000,2.000000,16.000000
1296386.241625,0.000000,14.000000,-1.000000,16.000000,20.000000,-4.000000,-10.000000,-21.000000
1296386.241648,6.000000,10.000000,6.000000,-31.000000,-17.000000,-5.000000,0.000000,-7.000000
1296386.242027,-6.000000,3.000000,-1.000000,-2.000000,-22.000000,-4.000000,0.000000,7.000000
1296386.242048,-5.000000,-51.000000,-11.000000,74.000000,41.000000,8.000000,4.000000,23.000000
1296386.245929,3.000000,-60.000000,1.000000,31.000000,21.000000,-10.000000,-7.000000,15.000000
1296386.245981,-7.000000,45.000000,-2.000000,-31.000000,-52.000000,-12.000000,1.000000,-8.000000
1296386.268537,-8.000000,6.000000,-8.000000,95.000000,127.000000,18.000000,8.000000,-5.000000
1296386.268882,5.000000,-39.000000,-8.000000,-1.000000,-15.000000,0.000000,4.000000,18.000000
1296386.269866,-8.000000,29.000000,-2.000000,-34.000000,-1.000000,-6.000000,-8.000000,-4.000000
1296386.269907,12.000000,30.000000,6.000000,16.000000,0.000000,2.000000,0.000000,0.000000
1296386.275682,-3.000000,-14.000000,-9.000000,31.000000,3.000000,-1.000000,-2.000000,-8.000000
1296386.275706,-3.000000,-10.000000,-7.000000,-13.000000,8.000000,0.000000,-4.000000,-5.000000
1296386.313515,5.000000,-1.000000,-8.000000,-20.000000,-44.000000,-7.000000,2.000000,11.000000
1296386.313541,7.000000,5.000000,-16.000000,14.000000,67.000000,13.000000,9.000000,0.000000
1296386.335932,-6.000000,-8.000000,16.000000,-33.000000,-31.000000,-12.000000,-9.000000,1.000000
1296386.335959,-8.000000,-9.000000,-11.000000,3.000000,-4.000000,0.000000,3.000000,-11.000000
1296386.351081,-4.000000,-1.000000,6.000000,-15.000000,-10.000000,-4.000000,6.000000,30.000000
1296386.351108,10.000000,25.000000,1.000000,-14.000000,1.000000,2.000000,0.000000,-45.000000
1296386.374088,-10.000000,-10.000000,-10.000000,-23.000000,7.000000,-7.000000,0.000000,2.000000
1296386.374127,1.000000,8.000000,5.000000,-2.000000,4.000000,1.000000,1.000000,17.000000
1296386.388807,4.000000,4.000000,-2.000000,-6.000000,-9.000000,5.000000,3.000000,-34.000000
1296386.389019,6.000000,-31.000000,7.000000,27.000000,-10.000000,-2.000000,-10.000000,27.000000
1296386.403329,-11.000000,45.000000,-3.000000,-16.000000,0.000000,-6.000000,-5.000000,-14.000000
1296386.403354,-8.000000,-49.000000,-12.000000,-17.000000,-1.000000,7.000000,1.000000,11.000000
1296386.411158,5.000000,28.000000,13.000000,-40.000000,-50.000000,-9.000000,-7.000000,-8.000000
1296386.411185,14.000000,9.000000,-5.000000,-28.000000,-9.000000,-3.000000,6.000000,4.000000
1296386.426198,1.000000,6.000000,5.000000,-2.000000,-40.000000,-5.000000,-4.000000,3.000000
1296386.426223,7.000000,14.000000,5.000000,-56.000000,16.000000,4.000000,-1.000000,2.000000
1296386.449126,10.000000,-23.000000,2.000000,-11.000000,-34.000000,10.000000,6.000000,-3.000000
1296386.449157,-12.000000,6.000000,-4.000000,-16.000000,-9.000000,-18.000000,-18.000000,-20.000000
1296386.464007,-8.000000,16.000000,4.000000,5.000000,-13.000000,-2.000000,-3.000000,-30.000000
1296386.464401,11.000000,26.000000,-6.000000,-24.000000,6.000000,-4.000000,-3.000000,-1.000000
1296386.466878,0.000000,-25.000000,-5.000000,42.000000,68.000000,16.000000,0.000000,8.000000
1296386.467059,-2.000000,-1.000000,-3.000000,-9.000000,-36.000000,-11.000000,-7.000000,-2.000000
1296386.467543,-2.000000,15.000000,-2.000000,14.000000,43.000000,2.000000,4.000000,4.000000
1296386.467567,-2.000000,-31.000000,4.000000,-40.000000,-19.000000,-9.000000,-7.000000,-8.000000
1296386.467777,8.000000,30.000000,-3.000000,27.000000,22.000000,8.000000,6.000000,-15.000000
1296386.467827,-11.000000,-33.000000,-3.000000,-28.000000,14.000000,-7.000000,-5.000000,-26.000000
1296386.468075,-4.000000,30.000000,-1.000000,-5.000000,30.000000,5.000000,-4.000000,19.000000
1296386.468143,9.000000,6.000000,-5.000000,6.000000,19.000000,6.000000,-8.000000,-4.000000
1296386.471175,-9.000000,-24.000000,2.000000,-8.000000,12.000000,-5.000000,0.000000,-40.000000
1296386.471486,-9.000000,14.000000,-10.000000,-14.000000,-6.000000,-8.000000,2.000000,6.000000
1296386.478562,5.000000,13.000000,-5.000000,50.000000,45.000000,10.000000,3.000000,28.000000
1296386.478608,5.000000,-8.000000,8.000000,-16.000000,-31.000000,-10.000000,-7.000000,11.000000
1296386.493297,-9.000000,13.000000,-5.000000,-4.000000,0.000000,-3.000000,2.000000,-8.000000
1296386.493428,2.000000,2.000000,2.000000,-11.000000,-15.000000,-1.000000,4.000000,-13.000000
1296386.500896,4.000000,13.000000,-4.000000,46.000000,23.000000,6.000000,5.000000,22.000000
1296386.500945,-6.000000,1.000000,5.000000,10.000000,29.000000,4.000000,-4.000000,-6.000000
1296386.508215,-4.000000,-3.000000,1.000000,-1.000000,-8.000000,-6.000000,-10.000000,-12.000000
1296386.508381,0.000000,0.000000,0.000000,16.000000,10.000000,4.000000,6.000000,6.000000
1296386.515930,-3.000000,3.000000,-8.000000,-8.000000,-2.000000,-2.000000,1.000000,0.000000
1296386.515957,0.000000,3.000000,-3.000000,6.000000,-8.000000,0.000000,1.000000,2.000000
1296386.538432,12.000000,17.000000,1.000000,8.000000,-11.000000,1.000000,0.000000,-31.000000
1296386.538457,-13.000000,-22.000000,-3.000000,-52.000000,39.000000,-10.000000,-11.000000,1.000000
1296386.546627,-20.000000,-24.000000,-4.000000,-7.000000,-41.000000,-5.000000,-8.000000,-10.000000
1296386.546659,-7.000000,37.000000,-7.000000,9.000000,-7.000000,-2.000000,1.000000,-1.000000
1296386.547500,5.000000,-12.000000,-6.000000,7.000000,-17.000000,-1.000000,3.000000,5.000000
1296386.547526,3.000000,14.000000,1.000000,22.000000,17.000000,-1.000000,-5.000000,2.000000
1296386.561256,1.000000,9.000000,2.000000,0.000000,-6.000000,-2.000000,-1.000000,3.000000
1296386.561296,2.000000,21.000000,-2.000000,-24.000000,-29.000000,1.000000,5.000000,-18.000000
1296386.576196,11.000000,-26.000000,25.000000,-25.000000,15.000000,0.000000,-2.000000,5.000000
1296386.576224,-14.000000,0.000000,-10.000000,-21.000000,5.000000,1.000000,-5.000000,-12.000000
1296386.590916,-1.000000,8.000000,1.000000,-6.000000,-15.000000,-4.000000,-3.000000,-1.000000
1296386.590949,3.000000,3.000000,-1.000000,-12.000000,-2.000000,-6.000000,0.000000,-3.000000
1296386.598560,7.000000,-30.000000,-11.000000,-19.000000,12.000000,-1.000000,1.000000,0.000000
1296386.598589,-18.000000,38.000000,-2.000000,47.000000,9.000000,1.000000,-5.000000,-17.000000
1296386.635871,0.000000,19.000000,-2.000000,-3.000000,-20.000000,-1.000000,-1.000000,0.000000
1296386.635967,5.000000,22.000000,1.000000,8.000000,33.000000,1.000000,0.000000,-42.000000
1296386.666278,1.000000,5.000000,12.000000,34.000000,32.000000,-2.000000,-9.000000,15.000000
1296386.666544,1.000000,-5.000000,-20.000000,48.000000,41.000000,4.000000,-1.000000,0.000000
1296386.667968,3.000000,24.000000,8.000000,-2.000000,5.000000,3.000000,4.000000,5.000000
1296386.667993,-5.000000,-4.000000,-2.000000,-20.000000,-7.000000,-4.000000,0.000000,27.000000
1296386.673372,9.000000,20.000000,3.000000,-14.000000,-16.000000,-10.000000,-14.000000,-20.000000
1296386.673397,-6.000000,-51.000000,0.000000,-51.000000,-33.000000,-4.000000,-5.000000,-7.000000
1296386.688786,9.000000,-7.000000,3.000000,-22.000000,-10.000000,-6.000000,2.000000,7.000000
1296386.688816,6.000000,-20.000000,-6.000000,40.000000,31.000000,1.000000,-1.000000,3.000000
1296386.710768,2.000000,10.000000,6.000000,-12.000000,-26.000000,-10.000000,-9.000000,28.000000
1296386.710918,-10.000000,-72.000000,1.000000,-60.000000,-42.000000,-14.000000,-9.000000,-2.000000
1296386.718685,-10.000000,9.000000,-4.000000,75.000000,47.000000,5.000000,5.000000,11.000000
1296386.718819,9.000000,26.000000,-3.000000,-12.000000,4.000000,2.000000,3.000000,19.000000
1296386.740986,9.000000,-16.000000,0.000000,-14.000000,20.000000,1.000000,1.000000,-27.000000
1296386.741134,-9.000000,-6.000000,9.000000,2.000000,-31.000000,-9.000000,-5.000000,0.000000
1296386.748451,7.000000,18.000000,0.000000,-10.000000,-15.000000,7.000000,4.000000,14.000000
1296386.748476,13.000000,-7.000000,8.000000,25.000000,33.000000,-1.000000,-2.000000,9.000000
1296386.757008,-10.000000,-12.000000,-5.000000,-14.000000,-11.000000,-3.000000,0.000000,-7.000000
1296386.757034,-6.000000,-7.000000,7.000000,-5.000000,-3.000000,-6.000000,2.000000,-1.000000
1296386.758537,0.000000,36.000000,1.000000,2.000000,-34.000000,-4.000000,7.000000,87.000000
1296386.758565,1.000000,-24.000000,-22.000000,91.000000,87.000000,16.000000,2.000000,-74.000000
1296386.758872,5.000000,-2.000000,-1.000000,-38.000000,-13.000000,-10.000000,-7.000000,-1.000000
1296386.758895,-10.000000,8.000000,-1.000000,2.000000,-14.000000,-3.000000,3.000000,7.000000
1296386.759756,-27.000000,-97.000000,3.000000,23.000000,42.000000,9.000000,-11.000000,-27.000000
1296386.759782,-2.000000,11.000000,0.000000,-9.000000,-10.000000,-10.000000,-3.000000,-10.000000
1296386.779006,0.000000,16.000000,-1.000000,0.000000,-11.000000,-3.000000,3.000000,-1.000000
1296386.779036,15.000000,46.000000,9.000000,-5.000000,-18.000000,1.000000,1.000000,8.000000
1296386.800745,-8.000000,-102.000000,-12.000000,12.000000,5.000000,0.000000,3.000000,2.000000
1296386.800772,-6.000000,15.000000,-1.000000,20.000000,-5.000000,-7.000000,-6.000000,-9.000000
1296386.808566,3.000000,14.000000,-6.000000,-20.000000,-5.000000,14.000000,1.000000,14.000000
1296386.808611,8.000000,20.000000,4.000000,10.000000,-14.000000,-3.000000,1.000000,-10.000000
1296386.830776,2.000000,-14.000000,4.000000,14.000000,-14.000000,-2.000000,-4.000000,22.000000
1296386.830807,-7.000000,-13.000000,-2.000000,16.000000,8.000000,-2.000000,2.000000,-12.000000
1296386.838520,2.000000,6.000000,-2.000000,22.000000,2.000000,1.000000,6.000000,10.000000
1296386.838547,7.000000,12.000000,-3.000000,6.000000,28.000000,1.000000,1.000000,-33.000000
1296386.863072,25.000000,25.000000,3.000000,-11.000000,-20.000000,0.000000,2.000000,25.000000
1296386.863534,-17.000000,-19.000000,-5.000000,6.000000,3.000000,-8.000000,-8.000000,-9.000000
1296386.864502,1.000000,32.000000,-1.000000,10.000000,1.000000,4.000000,2.000000,-1.000000
1296386.864525,-9.000000,-40.000000,0.000000,-9.000000,-2.000000,-3.000000,0.000000,-16.000000
1296386.865151,12.000000,47.000000,8.000000,5.000000,-5.000000,1.000000,2.000000,3.000000
1296386.865173,0.000000,-16.000000,0.000000,-8.000000,-2.000000,1.000000,-1.000000,11.000000
1296386.865571,-4.000000,6.000000,-5.000000,16.000000,-1.000000,3.000000,0.000000,-1.000000
1296386.865603,1.000000,20.000000,-2.000000,-5.000000,4.000000,-3.000000,2.000000,-1.000000
1296386.868100,4.000000,3.000000,1.000000,-18.000000,18.000000,7.000000,1.000000,-1.000000
1296386.868124,-6.000000,-53.000000,4.000000,-41.000000,-45.000000,-7.000000,-2.000000,1.000000
1296386.875951,1.000000,11.000000,13.000000,-17.000000,-28.000000,-5.000000,-1.000000,0.000000
1296386.875976,2.000000,10.000000,-4.000000,-11.000000,-2.000000,-4.000000,-1.000000,-1.000000
1296386.906555,-4.000000,-11.000000,9.000000,14.000000,-37.000000,0.000000,-1.000000,9.000000
1296386.906597,0.000000,13.000000,1.000000,8.000000,-20.000000,4.000000,0.000000,-21.000000
1296386.928673,5.000000,-7.000000,1.000000,-33.000000,5.000000,3.000000,2.000000,4.000000
1296386.928700,-4.000000,-8.000000,-4.000000,17.000000,20.000000,-6.000000,-3.000000,-7.000000
1296386.943444,-12.000000,7.000000,5.000000,-6.000000,-16.000000,1.000000,1.000000,6.000000
1296386.943472,-5.000000,-6.000000,-4.000000,15.000000,65.000000,2.000000,-5.000000,5.000000
1296386.981859,-1.000000,-11.000000,-7.000000,-5.000000,-11.000000,-7.000000,-3.000000,1.000000
1296386.981918,-6.000000,20.000000,3.000000,-1.000000,-9.000000,-2.000000,2.000000,-4.000000
1296386.982482,10.000000,21.000000,2.000000,-7.000000,-9.000000,2.000000,5.000000,30.000000
1296386.982542,-12.000000,-48.000000,-2.000000,6.000000,3.000000,-2.000000,-4.000000,-23.000000
1296386.983871,-9.000000,13.000000,-1.000000,11.000000,1.000000,-2.000000,0.000000,-14.000000
1296386.984322,-11.000000,4.000000,4.000000,-8.000000,-6.000000,-2.000000,0.000000,1.000000
1296386.985360,16.000000,7.000000,18.000000,12.000000,18.000000,11.000000,-3.000000,47.000000
1296386.985400,-12.000000,-29.000000,-5.000000,-37.000000,-44.000000,-21.000000,-11.000000,-6.000000
1296386.988827,18.000000,2.000000,7.000000,45.000000,63.000000,8.000000,-7.000000,-25.000000
1296386.988853,-26.000000,-11.000000,10.000000,-15.000000,-17.000000,-12.000000,-14.000000,-13.000000
1296387.004434,-4.000000,6.000000,9.000000,-29.000000,-1.000000,-1.000000,-1.000000,10.000000
1296387.004472,2.000000,10.000000,-3.000000,-2.000000,-7.000000,6.000000,3.000000,5.000000
1296387.026183,14.000000,2.000000,-1.000000,-11.000000,-14.000000,-1.000000,1.000000,3.000000
1296387.026210,-16.000000,-6.000000,7.000000,8.000000,8.000000,2.000000,-8.000000,-1.000000
1296387.033435,2.000000,10.000000,-1.000000,-1.000000,-5.000000,-1.000000,2.000000,-3.000000
1296387.033461,9.000000,61.000000,-2.000000,1.000000,-2.000000,-4.000000,0.000000,-7.000000
1296387.056232,6.000000,-61.000000,-3.000000,-15.000000,-17.000000,-3.000000,5.000000,21.000000
1296387.056280,3.000000,18.000000,-5.000000,49.000000,76.000000,17.000000,-1.000000,0.000000
1296387.063558,-6.000000,8.000000,0.000000,-22.000000,-10.000000,-15.000000,-14.000000,-38.000000
1296387.063583,6.000000,2.000000,-4.000000,-2.000000,-16.000000,0.000000,5.000000,0.000000
1296387.093784,-4.000000,-14.000000,-3.000000,-24.000000,8.000000,-4.000000,0.000000,-1.000000
1296387.093838,1.000000,8.000000,2.000000,17.000000,12.000000,-2.000000,-1.000000,0.000000
1296387.100930,7.000000,-3.000000,0.000000,0.000000,-13.000000,-1.000000,1.000000,0.000000
1296387.100957,9.000000,34.000000,-6.000000,-11.000000,-86.000000,-2.000000,4.000000,96.000000
1296387.115950,-18.000000,-48.000000,1.000000,-11.000000,51.000000,5.000000,-2.000000,-109.000000
1296387.115977,18.000000,-33.000000,15.000000,-38.000000,-56.000000,-1.000000,3.000000,53.000000
1296387.131363,-19.000000,13.000000,-2.000000,-25.000000,-5.000000,-19.000000,-15.000000,-20.000000
1296387.131391,7.000000,20.000000,-1.000000,-2.000000,0.000000,-3.000000,2.000000,1.000000
1296387.140649,11.000000,9.000000,0.000000,-15.000000,-5.000000,2.000000,0.000000,6.000000
1296387.140901,0.000000,3.000000,-1.000000,-4.000000,4.000000,-1.000000,-1.000000,-6.000000
1296387.146016,3.000000,-21.000000,3.000000,-2.000000,7.000000,5.000000,0.000000,5.000000
1296387.146046,-2.000000,27.000000,-6.000000,-26.000000,-37.000000,-8.000000,-2.000000,-20.000000
1296387.191135,-1.000000,-12.000000,-3.000000,-6.000000,-20.000000,-4.000000,-3.000000,30.000000
1296387.191161,-5.000000,-9.000000,-5.000000,-22.000000,-3.000000,-4.000000,3.000000,-64.000000
1296387.221519,3.000000,-8.000000,-8.000000,-41.000000,-32.000000,-1.000000,1.000000,-5.000000
1296387.221575,-20.000000,-50.000000,5.000000,-30.000000,-7.000000,-5.000000,0.000000,6.000000
1296387.221934,-1.000000,13.000000,4.000000,-17.000000,-40.000000,-6.000000,0.000000,-5.000000
1296387.222004,6.000000,12.000000,-3.000000,-8.000000,7.000000,3.000000,0.000000,35.000000
1296387.223416,10.000000,24.000000,-7.000000,85.000000,100.000000,10.000000,-5.000000,-35.000000
1296387.223464,-10.000000,-61.000000,-1.000000,-22.000000,-28.000000,-12.000000,-3.000000,3.000000
1296387.224503,-7.000000,9.000000,-5.000000,-14.000000,-24.000000,-4.000000,1.000000,-3.000000
1296387.224545,14.000000,66.000000,1.000000,-26.000000,-47.000000,1.000000,11.000000,-13.000000
1296387.225616,7.000000,39.000000,0.000000,-2.000000,-16.000000,1.000000,0.000000,0.000000
1296387.225662,10.000000,20.000000,-5.000000,-6.000000,-7.000000,1.000000,4.000000,4.000000
1296387.228927,6.000000,4.000000,-12.000000,-16.000000,1.000000,1.000000,-3.000000,-1.000000
1296387.228963,4.000000,-3.000000,10.000000,0.000000,-2.000000,-6.000000,0.000000,1.000000
1296387.244033,-3.000000,-7.000000,2.000000,4.000000,3.000000,1.000000,-1.000000,27.000000
1296387.244063,-9.000000,-16.000000,-7.000000,8.000000,-4.000000,3.000000,4.000000,-18.000000
1296387.265908,8.000000,13.000000,7.000000,-11.000000,-10.000000,-7.000000,-3.000000,-5.000000
1296387.265934,6.000000,-77.000000,-7.000000,14.000000,40.000000,2.000000,-11.000000,1.000000
1296387.273330,-6.000000,26.000000,-6.000000,4.000000,12.000000,2.000000,4.000000,17.000000
1296387.273356,7.000000,-31.000000,3.000000,-22.000000,-19.000000,2.000000,1.000000,-22.000000
1296387.303442,-16.000000,12.000000,-3.000000,2.000000,19.000000,-10.000000,-8.000000,-8.000000
1296387.303468,-2.000000,14.000000,-1.000000,-1.000000,-41.000000,3.000000,5.000000,33.000000
1296387.311051,16.000000,15.000000,-6.000000,2.000000,48.000000,5.000000,0.000000,-37.000000
1296387.311078,3.000000,-42.000000,13.000000,35.000000,-13.000000,-1.000000,-2.000000,18.000000
1296387.343278,-7.000000,3.000000,-6.000000,-29.000000,-4.000000,-4.000000,-4.000000,5.000000
1296387.343843,1.000000,5.000000,-2.000000,18.000000,-3.000000,-4.000000,-1.000000,-1.000000
1296387.344264,11.000000,57.000000,-3.000000,28.000000,-18.000000,2.000000,4.000000,23.000000
1296387.344319,-14.000000,-80.000000,-6.000000,-42.000000,-27.000000,-2.000000,-3.000000,-33.000000
1296387.345125,-7.000000,13.000000,0.000000,0.000000,33.000000,-3.000000,-8.000000,0.000000
1296387.345144,-10.000000,-22.000000,6.000000,-27.000000,-7.000000,-6.000000,-6.000000,-19.000000
1296387.345252,6.000000,13.000000,-9.000000,-7.000000,-11.000000,3.000000,1.000000,9.000000
1296387.345304,0.000000,12.000000,7.000000,-8.000000,-13.000000,-6.000000,-1.000000,0.000000
1296387.348872,8.000000,10.000000,5.000000,1.000000,3.000000,3.000000,4.000000,7.000000
1296387.348897,0.000000,4.000000,-1.000000,3.000000,-14.000000,-5.000000,-8.000000,-35.000000
1296387.379096,14.000000,11.000000,4.000000,18.000000,4.000000,-3.000000,-8.000000,11.000000
1296387.379335,-3.000000,1.000000,1.000000,11.000000,-21.000000,-2.000000,4.000000,13.000000
1296387.408476,-1.000000,30.000000,-9.000000,8.000000,-3.000000,4.000000,0.000000,-20.000000
1296387.408503,16.000000,17.000000,14.000000,19.000000,25.000000,-3.000000,-3.000000,32.000000
1296387.415834,-28.000000,-30.000000,-11.000000,-18.000000,-18.000000,0.000000,0.000000,-16.000000
1296387.415859,10.000000,15.000000,-6.000000,-10.000000,3.000000,-4.000000,0.000000,5.000000
1296387.446196,-7.000000,26.000000,3.000000,-30.000000,-41.000000,-20.000000,0.000000,-1.000000
1296387.446240,10.000000,-20.000000,8.000000,19.000000,112.000000,25.000000,5.000000,-17.000000
1296387.462931,4.000000,34.000000,-7.000000,0.000000,23.000000,-5.000000,-7.000000,1.000000
1296387.463797,-9.000000,-28.000000,-6.000000,-15.000000,-42.000000,-3.000000,-2.000000,-1.000000
1296387.465091,3.000000,13.000000,0.000000,11.000000,12.000000,5.000000,4.000000,11.000000
1296387.465119,2.000000,2.000000,4.000000,-24.000000,-17.000000,-1.000000,1.000000,6.000000
1296387.466147,-8.000000,-20.000000,0.000000,4.000000,-5.000000,-2.000000,-5.000000,-8.000000
1296387.466294,-4.000000,8.000000,-9.000000,-6.000000,-4.000000,-2.000000,0.000000,1.000000
1296387.467627,14.000000,65.000000,-6.000000,-35.000000,-3.000000,-5.000000,2.000000,-43.000000
1296387.467660,6.000000,-18.000000,4.000000,21.000000,-16.000000,9.000000,4.000000,18.000000
1296387.469135,-35.000000,0.000000,-1.000000,7.000000,-5.000000,-13.000000,-12.000000,-21.000000
1296387.469161,10.000000,30.000000,6.000000,33.000000,38.000000,10.000000,4.000000,2.000000
1296387.483743,6.000000,17.000000,-3.000000,-30.000000,-17.000000,-3.000000,-2.000000,19.000000
1296387.483789,4.000000,7.000000,-3.000000,24.000000,25.000000,9.000000,2.000000,-20.000000
1296387.513593,3.000000,1.000000,3.000000,6.000000,-2.000000,3.000000,-1.000000,4.000000
1296387.513624,-7.000000,-35.000000,-4.000000,-17.000000,-14.000000,-5.000000,3.000000,1.000000
1296387.520728,-1.000000,13.000000,-6.000000,-4.000000,-5.000000,-2.000000,-1.000000,-1.000000
1296387.520754,7.000000,-6.000000,-2.000000,4.000000,15.000000,2.000000,3.000000,10.000000
1296387.535847,-8.000000,-20.000000,-15.000000,-25.000000,-24.000000,-5.000000,-2.000000,-35.000000
1296387.535872,1.000000,-4.000000,22.000000,4.000000,-11.000000,1.000000,1.000000,17.000000
1296387.543894,-5.000000,9.000000,-1.000000,-19.000000,-9.000000,-3.000000,-5.000000,-1.000000
1296387.543932,-8.000000,-17.000000,5.000000,-12.000000,-24.000000,-7.000000,-1.000000,-1.000000
1296387.573401,12.000000,8.000000,7.000000,50.000000,6.000000,15.000000,10.000000,36.000000
1296387.573678,-7.000000,8.000000,-3.000000,-26.000000,-6.000000,-15.000000,-10.000000,-53.000000
1296387.574215,3.000000,32.000000,-5.000000,54.000000,53.000000,7.000000,1.000000,21.000000
1296387.574415,9.000000,-27.000000,1.000000,-8.000000,-28.000000,-3.000000,-2.000000,10.000000
1296387.575408,-1.000000,-2.000000,-6.000000,-15.000000,33.000000,5.000000,4.000000,-44.000000
1296387.575483,3.000000,34.000000,9.000000,-29.000000,-13.000000,-5.000000,-4.000000,8.000000
1296387.576779,9.000000,-7.000000,-6.000000,-4.000000,-16.000000,-3.000000,0.000000,4.000000
1296387.576824,3.000000,41.000000,2.000000,-1.000000,12.000000,0.000000,3.000000,-1.000000
1296387.578104,11.000000,19.000000,-7.000000,-6.000000,-25.000000,8.000000,-3.000000,10.000000
1296387.578126,-14.000000,-85.000000,11.000000,-60.000000,-37.000000,-9.000000,-8.000000,-5.000000
1296387.580791,-3.000000,26.000000,-5.000000,7.000000,17.000000,-2.000000,-1.000000,0.000000
1296387.580881,10.000000,35.000000,2.000000,-17.000000,-13.000000,-4.000000,-1.000000,-2.000000
1296387.589379,-1.000000,13.000000,10.000000,-30.000000,-49.000000,-7.000000,-2.000000,2.000000
1296387.589402,-3.000000,-6.000000,-13.000000,38.000000,78.000000,9.000000,2.000000,-3.000000
1296387.618472,4.000000,5.000000,4.000000,-26.000000,-3.000000,2.000000,-3.000000,1.000000
1296387.618499,4.000000,-1.000000,-1.000000,-13.000000,-8.000000,-1.000000,-1.000000,6.000000
1296387.648693,-6.000000,-1.000000,6.000000,15.000000,-14.000000,-6.000000,-6.000000,37.000000
1296387.648751,-3.000000,-2.000000,-4.000000,-10.000000,3.000000,3.000000,-2.000000,-54.000000
1296387.655831,-3.000000,-8.000000,1.000000,1.000000,-21.000000,-5.000000,-11.000000,39.000000
1296387.655859,10.000000,13.000000,-2.000000,9.000000,15.000000,5.000000,3.000000,-15.000000
1296387.670889,-4.000000,-18.000000,3.000000,0.000000,6.000000,0.000000,0.000000,2.000000
1296387.670911,-13.000000,-12.000000,3.000000,15.000000,15.000000,-2.000000,4.000000,-2.000000
1296387.693461,13.000000,27.000000,-6.000000,-16.000000,-14.000000,-4.000000,-1.000000,1.000000
1296387.693492,8.000000,-69.000000,-9.000000,-31.000000,31.000000,1.000000,-5.000000,6.000000
1296387.716158,-11.000000,2.000000,4.000000,-30.000000,-66.000000,-10.000000,-1.000000,-1.000000
1296387.716194,6.000000,20.000000,-12.000000,53.000000,32.000000,8.000000,4.000000,3.000000
1296387.738411,4.000000,16.000000,0.000000,-4.000000,-14.000000,-5.000000,0.000000,0.000000
1296387.738437,5.000000,-14.000000,9.000000,-4.000000,-17.000000,1.000000,1.000000,-3.000000
1296387.746914,-1.000000,2.000000,-16.000000,29.000000,34.000000,0.000000,-1.000000,-18.000000
1296387.746946,-1.000000,0.000000,1.000000,-2.000000,0.000000,-3.000000,-6.000000,-20.000000
1296387.748327,-14.000000,-12.000000,2.000000,-10.000000,-18.000000,-4.000000,-6.000000,-10.000000
1296387.748352,-5.000000,-5.000000,4.000000,-25.000000,-15.000000,1.000000,-1.000000,-27.000000
1296387.749490,-4.000000,-7.000000,-8.000000,29.000000,30.000000,1.000000,2.000000,31.000000
1296387.749522,6.000000,15.000000,-8.000000,-18.000000,-13.000000,-4.000000,-6.000000,-32.000000
1296387.776127,-15.000000,-53.000000,2.000000,17.000000,-9.000000,-6.000000,-4.000000,4.000000
1296387.776168,-2.000000,13.000000,-8.000000,62.000000,68.000000,9.000000,1.000000,9.000000
1296387.777598,-5.000000,8.000000,-1.000000,-6.000000,38.000000,5.000000,4.000000,1.000000
1296387.777624,21.000000,17.000000,3.000000,-12.000000,-33.000000,1.000000,4.000000,8.000000
1296387.778617,-10.000000,-16.000000,3.000000,-1.000000,3.000000,-2.000000,-4.000000,10.000000
1296387.778640,0.000000,10.000000,-3.000000,-4.000000,-16.000000,-11.000000,-5.000000,1.000000
1296387.783373,3.000000,13.000000,-7.000000,7.000000,0.000000,18.000000,3.000000,-10.000000
1296387.783408,10.000000,-6.000000,-7.000000,-2.000000,12.000000,2.000000,3.000000,15.000000
1296387.799111,8.000000,-18.000000,1.000000,3.000000,19.000000,-1.000000,1.000000,-1.000000
1296387.799152,-18.000000,-24.000000,-5.000000,-31.000000,-8.000000,-14.000000,-9.000000,-12.000000
1296387.799513,0.000000,18.000000,-1.000000,-39.000000,-5.000000,0.000000,-2.000000,-12.000000
1296387.799535,-2.000000,10.000000,-7.000000,10.000000,0.000000,2.000000,1.000000,-1.000000
1296387.813938,4.000000,0.000000,0.000000,-21.000000,5.000000,3.000000,-1.000000,-15.000000
1296387.813962,2.000000,3.000000,6.000000,34.000000,-19.000000,-1.000000,-1.000000,18.000000
1296387.820778,-7.000000,-23.000000,3.000000,-13.000000,3.000000,-4.000000,-12.000000,-50.000000
1296387.820852,-6.000000,-2.000000,2.000000,-10.000000,-5.000000,-4.000000,-3.000000,15.000000
1296387.829817,-2.000000,4.000000,-14.000000,20.000000,2.000000,1.000000,1.000000,5.000000
1296387.829843,7.000000,5.000000,8.000000,-28.000000,-29.000000,-1.000000,-4.000000,7.000000
1296387.851113,-1.000000,6.000000,-9.000000,-22.000000,-13.000000,0.000000,1.000000,7.000000
1296387.851140,6.000000,11.000000,2.000000,9.000000,-14.000000,-2.000000,-1.000000,-12.000000
1296387.865946,1.000000,0.000000,-3.000000,5.000000,13.000000,-2.000000,2.000000,118.000000
1296387.865973,11.000000,-20.000000,1.000000,-28.000000,-13.000000,3.000000,-1.000000,-80.000000
1296387.873876,-18.000000,23.000000,12.000000,-3.000000,-41.000000,-13.000000,-1.000000,-10.000000
1296387.874005,7.000000,11.000000,2.000000,9.000000,6.000000,0.000000,5.000000,11.000000
1296387.895928,3.000000,1.000000,2.000000,-3.000000,-6.000000,-4.000000,4.000000,7.000000
1296387.895955,6.000000,-22.000000,-4.000000,-3.000000,4.000000,1.000000,-3.000000,7.000000
1296387.903718,-5.000000,24.000000,-6.000000,-15.000000,-8.000000,-8.000000,-4.000000,-4.000000
1296387.903846,-8.000000,-36.000000,-7.000000,49.000000,97.000000,14.000000,-1.000000,-3.000000
1296387.935034,3.000000,12.000000,3.000000,-26.000000,-43.000000,-7.000000,1.000000,7.000000
1296387.935394,11.000000,34.000000,4.000000,-2.000000,-8.000000,-5.000000,-6.000000,-2.000000
1296387.936204,3.000000,-50.000000,-11.000000,-19.000000,-23.000000,-8.000000,-5.000000,-1.000000
1296387.936857,-19.000000,4.000000,4.000000,50.000000,27.000000,2.000000,0.000000,-7.000000
1296387.937899,-3.000000,-16.000000,5.000000,13.000000,-12.000000,3.000000,4.000000,1.000000
1296387.937929,18.000000,12.000000,0.000000,-20.000000,-8.000000,0.000000,2.000000,5.000000
1296387.938629,-6.000000,-7.000000,3.000000,-13.000000,10.000000,1.000000,-2.000000,-2.000000
1296387.938660,0.000000,11.000000,-3.000000,-10.000000,-18.000000,-4.000000,-5.000000,-7.000000
1296387.938857,1.000000,2.000000,-5.000000,-21.000000,-1.000000,-1.000000,-4.000000,-17.000000
1296387.938879,5.000000,-21.000000,13.000000,15.000000,-10.000000,-6.000000,-4.000000,22.000000
1296387.940991,-6.000000,-1.000000,7.000000,1.000000,-4.000000,1.000000,-3.000000,-5.000000
1296387.941015,8.000000,45.000000,-7.000000,2.000000,-27.000000,-1.000000,6.000000,-2.000000
1296387.971253,-15.000000,-80.000000,4.000000,-1.000000,-2.000000,-8.000000,-6.000000,-11.000000
1296387.971301,-3.000000,23.000000,-5.000000,-8.000000,21.000000,0.000000,-7.000000,-34.000000
1296387.986175,1.000000,-9.000000,11.000000,-11.000000,-6.000000,0.000000,-2.000000,14.000000
1296387.986312,-7.000000,-10.000000,-4.000000,1.000000,-10.000000,-1.000000,2.000000,5.000000
1296388.016015,-4.000000,-4.000000,-3.000000,-10.000000,-18.000000,-1.000000,4.000000,1.000000
1296388.016045,0.000000,12.000000,-5.000000,30.000000,73.000000,9.000000,1.000000,0.000000
1296388.023574,14.000000,15.000000,5.000000,-38.000000,-3.000000,-2.000000,-4.000000,-5.000000
1296388.023599,-20.000000,-18.000000,-8.000000,-64.000000,-18.000000,-13.000000,-4.000000,2.000000
1296388.039259,-1.000000,10.000000,9.000000,37.000000,29.000000,7.000000,3.000000,12.000000
1296388.039284,0.000000,23.000000,2.000000,-30.000000,-15.000000,-16.000000,-9.000000,-22.000000
1296388.054867,-6.000000,-34.000000,8.000000,-19.000000,-15.000000,-6.000000,-2.000000,16.000000
1296388.055320,9.000000,16.000000,-6.000000,0.000000,4.000000,4.000000,3.000000,3.000000
1296388.056801,-2.000000,-20.000000,7.000000,-12.000000,1.000000,1.000000,-4.000000,3.000000
1296388.057140,-14.000000,3.000000,-8.000000,-3.000000,-12.000000,-4.000000,-4.000000,-6.000000
1296388.058370,3.000000,18.000000,0.000000,13.000000,-9.000000,3.000000,1.000000,6.000000
1296388.058414,10.000000,-20.000000,8.000000,-16.000000,-32.000000,-1.000000,1.000000,1.000000
1296388.059002,-7.000000,-4.000000,-10.000000,-42.000000,-5.000000,-14.000000,-9.000000,3.000000
1296388.059024,5.000000,24.000000,4.000000,-8.000000,-19.000000,-3.000000,-9.000000,-2.000000
1296388.061404,-1.000000,-9.000000,-12.000000,54.000000,85.000000,14.000000,1.000000,-13.000000
1296388.061455,-6.000000,-1.000000,-1.000000,-1.000000,-25.000000,-6.000000,-4.000000,7.000000
1296388.076122,12.000000,37.000000,-8.000000,20.000000,-10.000000,-6.000000,2.000000,83.000000
1296388.076159,5.000000,-22.000000,-1.000000,-21.000000,6.000000,7.000000,-1.000000,-104.000000
1296388.091045,-20.000000,-10.000000,-5.000000,10.000000,-7.000000,-12.000000,-10.000000,0.000000
1296388.091166,5.000000,22.000000,-7.000000,52.000000,44.000000,4.000000,4.000000,15.000000
1296388.106530,-1.000000,-21.000000,6.000000,-8.000000,-3.000000,2.000000,1.000000,3.000000
1296388.106578,17.000000,58.000000,-3.000000,7.000000,-25.000000,3.000000,5.000000,19.000000
1296388.129018,1.000000,-73.000000,3.000000,-25.000000,-7.000000,-4.000000,-2.000000,22.000000
1296388.129079,-14.000000,22.000000,7.000000,-10.000000,19.000000,-7.000000,-7.000000,-16.000000
1296388.144098,0.000000,14.000000,-5.000000,-1.000000,-13.000000,-2.000000,-1.000000,-4.000000
1296388.145164,0.000000,2.000000,0.000000,38.000000,58.000000,4.000000,2.000000,0.000000
1296388.145898,0.000000,2.000000,0.000000,-10.000000,-17.000000,-2.000000,-2.000000,-14.000000
1296388.145923,3.000000,-2.000000,-15.000000,8.000000,3.000000,-1.000000,2.000000,30.000000
1296388.146047,19.000000,12.000000,6.000000,-4.000000,-16.000000,-4.000000,-4.000000,-4.000000
1296388.146097,-18.000000,-54.000000,-11.000000,28.000000,17.000000,-5.000000,-5.000000,24.000000
1296388.147039,-4.000000,6.000000,2.000000,-46.000000,-12.000000,-4.000000,-7.000000,-26.000000
1296388.147065,11.000000,56.000000,-8.000000,28.000000,57.000000,6.000000,-3.000000,-35.000000
1296388.175529,-4.000000,11.000000,-5.000000,-20.000000,-27.000000,-4.000000,-3.000000,-1.000000
1296388.175581,18.000000,20.000000,-15.000000,65.000000,113.000000,16.000000,6.000000,2.000000
1296388.175940,-10.000000,-38.000000,10.000000,12.000000,0.000000,3.000000,4.000000,19.000000
1296388.175984,-16.000000,-31.000000,2.000000,-19.000000,-9.000000,-11.000000,-5.000000,-4.000000
1296388.177093,-1.000000,-13.000000,-5.000000,-11.000000,-21.000000,-3.000000,1.000000,5.000000
1296388.177115,0.000000,15.000000,6.000000,3.000000,-23.000000,-6.000000,-1.000000,-4.000000
1296388.181043,-5.000000,13.000000,0.000000,-9.000000,-17.000000,-7.000000,1.000000,-13.000000
1296388.181068,3.000000,16.000000,-2.000000,37.000000,34.000000,0.000000,5.000000,13.000000
1296388.196298,3.000000,-10.000000,0.000000,3.000000,-22.000000,8.000000,3.000000,-2.000000
1296388.196346,-1.000000,-5.000000,-1.000000,-19.000000,-5.000000,-9.000000,-5.000000,-28.000000
1296388.203468,-7.000000,3.000000,-10.000000,-61.000000,-36.000000,-7.000000,0.000000,-14.000000
1296388.203494,-1.000000,24.000000,-2.000000,36.000000,86.000000,21.000000,7.000000,37.000000
1296388.218752,13.000000,-17.000000,3.000000,-24.000000,-66.000000,-6.000000,-1.000000,-35.000000
1296388.218796,-13.000000,-43.000000,-2.000000,18.000000,32.000000,-3.000000,-1.000000,-11.000000
1296388.226004,-10.000000,22.000000,-12.000000,3.000000,-14.000000,-4.000000,-3.000000,0.000000
1296388.226053,10.000000,30.000000,0.000000,-11.000000,-7.000000,-5.000000,-1.000000,11.000000
1296388.263348,0.000000,-18.000000,-5.000000,3.000000,0.000000,3.000000,1.000000,-1.000000
1296388.263374,8.000000,22.000000,1.000000,2.000000,-6.000000,1.000000,2.000000,-14.000000
1296388.270915,6.000000,23.000000,-5.000000,-1.000000,-1.000000,-4.000000,-2.000000,14.000000
1296388.271122,0.000000,-52.000000,3.000000,-10.000000,10.000000,-5.000000,-6.000000,8.000000
1296388.294317,-5.000000,21.000000,-7.000000,9.000000,3.000000,0.000000,-3.000000,-7.000000
1296388.294370,10.000000,27.000000,3.000000,9.000000,-9.000000,0.000000,-1.000000,1.000000
1296388.301019,-1.000000,-16.000000,-5.000000,4.000000,7.000000,-2.000000,1.000000,22.000000
1296388.301046,1.000000,8.000000,5.000000,-8.000000,12.000000,4.000000,1.000000,-59.000000
1296388.338365,7.000000,-27.000000,0.000000,-4.000000,4.000000,-5.000000,-2.000000,10.000000
1296388.338391,-44.000000,-11.000000,5.000000,3.000000,-24.000000,-16.000000,-12.000000,-4.000000
1296388.376056,6.000000,5.000000,-6.000000,-14.000000,-15.000000,-7.000000,2.000000,5.000000
1296388.376083,9.000000,15.000000,0.000000,3.000000,-17.000000,7.000000,4.000000,6.000000
1296388.391321,-4.000000,0.000000,-2.000000,19.000000,-7.000000,1.000000,-3.000000,1.000000
1296388.391384,1.000000,-19.000000,-2.000000,21.000000,4.000000,0.000000,0.000000,0.000000
1296388.408011,2.000000,15.000000,0.000000,-21.000000,-19.000000,-8.000000,-5.000000,19.000000
1296388.408038,5.000000,19.000000,-3.000000,2.000000,-11.000000,-6.000000,-3.000000,-19.000000
1296388.408421,0.000000,12.000000,3.000000,-28.000000,-36.000000,-3.000000,-2.000000,-38.000000
1296388.408446,20.000000,-23.000000,14.000000,60.000000,73.000000,13.000000,2.000000,23.000000
1296388.408677,9.000000,25.000000,-3.000000,13.000000,11.000000,5.000000,5.000000,3.000000
1296388.408704,0.000000,6.000000,-7.000000,5.000000,-4.000000,2.000000,4.000000,0.000000
1296388.413417,6.000000,-3.000000,4.000000,-8.000000,-22.000000,-1.000000,-3.000000,-2.000000
1296388.413444,-3.000000,21.000000,-2.000000,-3.000000,3.000000,-5.000000,-1.000000,-9.000000
1296388.420866,16.000000,0.000000,5.000000,-9.000000,-40.000000,-4.000000,2.000000,-31.000000
1296388.420892,-22.000000,-29.000000,-6.000000,19.000000,82.000000,3.000000,-13.000000,21.000000
1296388.422106,3.000000,28.000000,-7.000000,-6.000000,-7.000000,-3.000000,-1.000000,-6.000000
1296388.422157,2.000000,-20.000000,3.000000,1.000000,-25.000000,0.000000,5.000000,8.000000
1296388.443996,-11.000000,7.000000,-2.000000,2.000000,-8.000000,0.000000,3.000000,37.000000
1296388.444025,15.000000,32.000000,3.000000,-23.000000,-18.000000,-5.000000,-1.000000,-42.000000
1296388.451167,6.000000,-26.000000,4.000000,20.000000,42.000000,4.000000,-6.000000,5.000000
1296388.451195,-2.000000,-12.000000,-3.000000,-61.000000,-10.000000,3.000000,2.000000,19.000000
1296388.488400,2.000000,0.000000,1.000000,5.000000,-27.000000,-2.000000,2.000000,-14.000000
1296388.488426,-4.000000,36.000000,4.000000,-16.000000,-14.000000,-5.000000,-5.000000,-1.000000
1296388.496161,6.000000,-27.000000,-8.000000,-16.000000,-24.000000,-5.000000,-3.000000,-2.000000
1296388.496190,-12.000000,13.000000,0.000000,-30.000000,3.000000,-3.000000,-1.000000,2.000000
1296388.497593,8.000000,13.000000,8.000000,9.000000,3.000000,1.000000,4.000000,7.000000
1296388.497613,5.000000,-34.000000,-6.000000,-2.000000,53.000000,2.000000,-4.000000,-1.000000
1296388.498472,-23.000000,-19.000000,4.000000,-20.000000,-42.000000,-7.000000,-1.000000,14.000000
1296388.498762,9.000000,33.000000,2.000000,35.000000,36.000000,8.000000,5.000000,-56.000000
1296388.499327,-3.000000,5.000000,-2.000000,-8.000000,-5.000000,-3.000000,-4.000000,50.000000
1296388.499348,-2.000000,6.000000,0.000000,-7.000000,-3.000000,3.000000,4.000000,-17.000000
1296388.503410,8.000000,-2.000000,-2.000000,0.000000,-22.000000,-6.000000,-8.000000,6.000000
1296388.503456,-16.000000,-16.000000,3.000000,-2.000000,31.000000,5.000000,-1.000000,-9.000000
1296388.528044,-7.000000,25.000000,2.000000,-11.000000,-16.000000,-4.000000,0.000000,1.000000
1296388.528080,9.000000,-45.000000,10.000000,-37.000000,-9.000000,-6.000000,1.000000,-1.000000
1296388.528437,-8.000000,6.000000,-6.000000,24.000000,18.000000,9.000000,0.000000,2.000000
1296388.528468,-2.000000,14.000000,2.000000,-3.000000,7.000000,-4.000000,2.000000,-5.000000
1296388.534189,1.000000,-24.000000,-1.000000,-9.000000,-22.000000,3.000000,3.000000,18.000000
1296388.534214,-3.000000,6.000000,-1.000000,4.000000,-14.000000,1.000000,-1.000000,-26.000000
1296388.540745,-13.000000,-17.000000,-2.000000,6.000000,28.000000,-2.000000,-4.000000,6.000000
1296388.540769,0.000000,16.000000,-3.000000,-14.000000,6.000000,-1.000000,0.000000,2.000000
1296388.578796,2.000000,9.000000,-4.000000,-4.000000,-7.000000,0.000000,3.000000,-1.000000
1296388.578831,12.000000,-13.000000,4.000000,-7.000000,9.000000,-2.000000,3.000000,0.000000
1296388.608713,-20.000000,1.000000,0.000000,26.000000,-36.000000,-1.000000,-3.000000,-2.000000
1296388.608761,-4.000000,-4.000000,-6.000000,23.000000,30.000000,10.000000,1.000000,-55.000000
1296388.623509,1.000000,17.000000,1.000000,-54.000000,-29.000000,-12.000000,-8.000000,19.000000
1296388.623552,15.000000,-13.000000,-2.000000,15.000000,12.000000,8.000000,1.000000,18.000000
1296388.646100,-7.000000,-9.000000,2.000000,-16.000000,-7.000000,-7.000000,-1.000000,-1.000000
1296388.646124,-6.000000,-2.000000,-4.000000,-5.000000,-10.000000,2.000000,1.000000,26.000000
1296388.647061,-6.000000,-5.000000,-1.000000,-19.000000,-10.000000,-5.000000,-4.000000,-19.000000
1296388.647110,6.000000,28.000000,1.000000,10.000000,14.000000,-2.000000,-4.000000,2.000000
1296388.648325,-2.000000,-18.000000,6.000000,3.000000,6.000000,-4.000000,-5.000000,0.000000
1296388.648352,4.000000,22.000000,-12.000000,0.000000,-1.000000,-1.000000,2.000000,-1.000000
1296388.649033,-20.000000,-2.000000,-19.000000,11.000000,-5.000000,6.000000,5.000000,67.000000
1296388.649060,6.000000,21.000000,16.000000,34.000000,40.000000,9.000000,-2.000000,-48.000000
1296388.650038,8.000000,16.000000,4.000000,24.000000,12.000000,6.000000,8.000000,31.000000
1296388.650060,0.000000,-7.000000,9.000000,-18.000000,8.000000,-3.000000,-6.000000,-23.000000
1296388.654291,-2.000000,8.000000,1.000000,-65.000000,-44.000000,-6.000000,-2.000000,-2.000000
1296388.654332,15.000000,-3.000000,4.000000,66.000000,9.000000,16.000000,7.000000,10.000000
1296388.661195,-11.000000,-2.000000,-6.000000,18.000000,-18.000000,-6.000000,-5.000000,-14.000000
1296388.661219,1.000000,-4.000000,-7.000000,-45.000000,-22.000000,-5.000000,-2.000000,-1.000000
1296388.683612,-13.000000,-44.000000,3.000000,7.000000,15.000000,-1.000000,-3.000000,-1.000000
1296388.683641,-9.000000,-15.000000,-1.000000,-27.000000,-1.000000,-5.000000,-5.000000,-5.000000
1296388.690656,4.000000,18.000000,5.000000,-3.000000,-4.000000,-3.000000,-1.000000,35.000000
1296388.690681,0.000000,7.000000,-6.000000,-2.000000,-22.000000,-2.000000,-2.000000,-60.000000
1296388.705952,-6.000000,2.000000,1.000000,26.000000,43.000000,8.000000,7.000000,40.000000
1296388.705978,11.000000,8.000000,-8.000000,19.000000,73.000000,-1.000000,-6.000000,4.000000
1296388.721065,-11.000000,-23.000000,-3.000000,-3.000000,20.000000,6.000000,-1.000000,13.000000
1296388.721092,6.000000,-6.000000,-12.000000,-11.000000,6.000000,-1.000000,4.000000,-22.000000
1296388.735849,-18.000000,3.000000,5.000000,12.000000,-22.000000,0.000000,-6.000000,-11.000000
1296388.735875,9.000000,27.000000,-5.000000,20.000000,-13.000000,-7.000000,-3.000000,2.000000
1296388.743786,-5.000000,-10.000000,-8.000000,5.000000,13.000000,3.000000,0.000000,5.000000
1296388.744046,6.000000,5.000000,1.000000,-6.000000,-10.000000,0.000000,3.000000,-4.000000
1296388.745156,9.000000,10.000000,-9.000000,13.000000,28.000000,-4.000000,1.000000,8.000000
1296388.745179,-4.000000,-24.000000,1.000000,0.000000,33.000000,7.000000,-3.000000,1.000000
1296388.758431,-8.000000,1.000000,-11.000000,-10.000000,-41.000000,-7.000000,-1.000000,15.000000
1296388.758470,1.000000,-12.000000,-2.000000,-36.000000,-16.000000,-8.000000,-1.000000,-19.000000
1296388.766602,4.000000,13.000000,3.000000,6.000000,-15.000000,-2.000000,-2.000000,-13.000000
1296388.766625,-12.000000,-9.000000,-1.000000,54.000000,11.000000,4.000000,-7.000000,-5.000000
1296388.767113,-4.000000,2.000000,4.000000,9.000000,-8.000000,1.000000,1.000000,3.000000
1296388.767135,9.000000,-9.000000,-4.000000,4.000000,1.000000,-6.000000,-2.000000,-3.000000
1296388.774355,-7.000000,-13.000000,-2.000000,-19.000000,-22.000000,-1.000000,4.000000,4.000000
1296388.774495,5.000000,12.000000,0.000000,28.000000,15.000000,5.000000,2.000000,-18.000000
1296388.781205,-5.000000,-1.000000,2.000000,-8.000000,-7.000000,-7.000000,-6.000000,-8.000000
1296388.781265,-5.000000,-2.000000,-2.000000,-26.000000,-12.000000,-1.000000,-1.000000,-6.000000
1296388.803500,1.000000,6.000000,3.000000,7.000000,20.000000,-1.000000,0.000000,2.000000
1296388.803530,19.000000,19.000000,0.000000,30.000000,10.000000,1.000000,5.000000,9.000000
1296388.810738,-18.000000,-25.000000,1.000000,23.000000,-22.000000,5.000000,0.000000,-11.000000
1296388.810764,4.000000,2.000000,8.000000,-7.000000,8.000000,-11.000000,-8.000000,3.000000
1296388.841092,9.000000,-29.000000,2.000000,-13.000000,14.000000,-4.000000,-3.000000,-5.000000
1296388.841136,-35.000000,8.000000,1.000000,-4.000000,-66.000000,-7.000000,0.000000,-6.000000
1296388.848811,3.000000,8.000000,-6.000000,31.000000,32.000000,18.000000,9.000000,16.000000
1296388.848842,10.000000,17.000000,5.000000,19.000000,28.000000,10.000000,-1.000000,-34.000000
1296388.888329,2.000000,10.000000,1.000000,-5.000000,19.000000,3.000000,6.000000,4.000000
1296388.889027,8.000000,-1.000000,8.000000,4.000000,-23.000000,-8.000000,0.000000,6.000000
1296388.889703,-10.000000,-22.000000,-2.000000,-30.000000,-57.000000,-15.000000,-21.000000,-12.000000
1296388.889728,-2.000000,-2.000000,0.000000,4.000000,-1.000000,1.000000,1.000000,7.000000
1296388.890466,-8.000000,-17.000000,1.000000,-1.000000,2.000000,-4.000000,-9.000000,-11.000000
1296388.890494,5.000000,8.000000,-6.000000,8.000000,-3.000000,8.000000,6.000000,-10.000000
1296388.890711,-8.000000,-5.000000,-4.000000,-1.000000,-9.000000,-4.000000,5.000000,23.000000
1296388.890758,3.000000,11.000000,-10.000000,-10.000000,-5.000000,-1.000000,-6.000000,-13.000000
1296388.893229,5.000000,12.000000,1.000000,-15.000000,-16.000000,-5.000000,4.000000,9.000000
1296388.893255,0.000000,1.000000,1.000000,-59.000000,-3.000000,-1.000000,1.000000,-15.000000
1296388.908617,12.000000,11.000000,-1.000000,11.000000,-5.000000,4.000000,1.000000,17.000000
1296388.908773,-3.000000,0.000000,2.000000,19.000000,50.000000,13.000000,6.000000,-6.000000
1296388.931340,-6.000000,4.000000,-13.000000,-7.000000,7.000000,-3.000000,1.000000,5.000000
1296388.931378,-1.000000,0.000000,-12.000000,3.000000,-1.000000,-2.000000,1.000000,-2.000000
1296388.938402,0.000000,-4.000000,-1.000000,-7.000000,2.000000,-1.000000,-1.000000,-4.000000
1296388.938427,4.000000,9.000000,0.000000,10.000000,5.000000,-2.000000,1.000000,-1.000000
1296388.960921,4.000000,19.000000,0.000000,-9.000000,-60.000000,-2.000000,3.000000,-11.000000
1296388.961060,8.000000,-57.000000,7.000000,51.000000,46.000000,12.000000,-6.000000,11.000000
1296388.968530,-31.000000,-17.000000,-9.000000,6.000000,17.000000,-9.000000,-5.000000,-9.000000
1296388.968559,3.000000,23.000000,12.000000,7.000000,-23.000000,-4.000000,3.000000,13.000000
1296388.983382,10.000000,33.000000,4.000000,3.000000,-19.000000,2.000000,4.000000,1.000000
1296388.983408,-4.000000,-13.000000,-15.000000,-32.000000,8.000000,2.000000,4.000000,-12.000000
1296389.006244,2.000000,20.000000,12.000000,35.000000,-3.000000,-5.000000,-12.000000,-11.000000
1296389.006269,-5.000000,-43.000000,-12.000000,-10.000000,18.000000,-2.000000,-2.000000,-25.000000
1296389.035936,-18.000000,8.000000,1.000000,-2.000000,-13.000000,4.000000,3.000000,-15.000000
1296389.036064,-1.000000,8.000000,4.000000,11.000000,25.000000,-3.000000,-10.000000,7.000000
1296389.043476,6.000000,5.000000,-5.000000,3.000000,-5.000000,5.000000,4.000000,6.000000
1296389.043499,-4.000000,-11.000000,-6.000000,38.000000,10.000000,2.000000,-1.000000,-1.000000
1296389.045224,-4.000000,-12.000000,-2.000000,-19.000000,-9.000000,0.000000,3.000000,15.000000
1296389.045250,10.000000,3.000000,-7.000000,-33.000000,-22.000000,-1.000000,4.000000,-3.000000
1296389.045373,3.000000,5.000000,12.000000,-20.000000,-27.000000,-13.000000,-16.000000,-12.000000
1296389.045388,-2.000000,4.000000,1.000000,46.000000,6.000000,5.000000,5.000000,3.000000
1296389.046238,0.000000,2.000000,-3.000000,31.000000,23.000000,-1.000000,1.000000,-3.000000
1296389.046264,-2.000000,0.000000,-5.000000,34.000000,33.000000,11.000000,1.000000,-2.000000
1296389.047809,4.000000,-11.000000,4.000000,-21.000000,-10.000000,-6.000000,-2.000000,-81.000000
1296389.047854,-14.000000,-64.000000,-7.000000,5.000000,-5.000000,-5.000000,-10.000000,55.000000
1296389.058496,-4.000000,12.000000,4.000000,-29.000000,2.000000,-6.000000,-8.000000,-34.000000
1296389.058522,7.000000,9.000000,4.000000,-8.000000,-25.000000,-4.000000,-5.000000,-1.000000
1296389.065756,2.000000,29.000000,0.000000,18.000000,18.000000,9.000000,5.000000,2.000000
1296389.065782,-6.000000,-16.000000,6.000000,-18.000000,-40.000000,-11.000000,-6.000000,-4.000000
1296389.082043,7.000000,33.000000,-7.000000,46.000000,75.000000,9.000000,5.000000,-7.000000
1296389.082068,-19.000000,-75.000000,4.000000,13.000000,-4.000000,8.000000,3.000000,-5.000000
1296389.095958,-3.000000,-9.000000,-16.000000,-8.000000,28.000000,-8.000000,-8.000000,-8.000000
1296389.096021,-9.000000,10.000000,13.000000,-17.000000,-27.000000,-11.000000,-9.000000,-14.000000
1296389.097846,2.000000,-11.000000,-9.000000,-4.000000,31.000000,2.000000,2.000000,2.000000
1296389.097891,0.000000,10.000000,4.000000,-30.000000,-31.000000,3.000000,3.000000,4.000000
1296389.125924,5.000000,-16.000000,18.000000,-23.000000,-6.000000,-2.000000,-1.000000,0.000000
1296389.125949,2.000000,4.000000,-5.000000,-3.000000,-15.000000,-1.000000,-4.000000,0.000000
1296389.127150,4.000000,8.000000,5.000000,-8.000000,-8.000000,0.000000,-1.000000,1.000000
1296389.127171,0.000000,-2.000000,-2.000000,7.000000,11.000000,2.000000,-4.000000,-4.000000
1296389.127903,0.000000,6.000000,-3.000000,6.000000,4.000000,2.000000,1.000000,-1.000000
1296389.127948,1.000000,-16.000000,-1.000000,-30.000000,-10.000000,-4.000000,-2.000000,-25.000000
1296389.133200,5.000000,4.000000,17.000000,32.000000,-21.000000,0.000000,-8.000000,-28.000000
1296389.133224,-4.000000,-1.000000,-4.000000,3.000000,-17.000000,-3.000000,1.000000,23.000000
1296389.148565,9.000000,15.000000,-2.000000,-6.000000,-8.000000,-1.000000,1.000000,9.000000
1296389.148592,1.000000,2.000000,-9.000000,-10.000000,-17.000000,-6.000000,0.000000,-2.000000
1296389.170978,6.000000,30.000000,0.000000,19.000000,4.000000,11.000000,7.000000,16.000000
1296389.171006,-17.000000,-52.000000,-5.000000,0.000000,28.000000,1.000000,-4.000000,-13.000000
1296389.179002,2.000000,35.000000,7.000000,-22.000000,-21.000000,-7.000000,-10.000000,6.000000
1296389.179061,-3.000000,-17.000000,-8.000000,8.000000,8.000000,2.000000,3.000000,-2.000000
1296389.200849,-5.000000,-20.000000,5.000000,23.000000,-6.000000,0.000000,-3.000000,-7.000000
1296389.201162,3.000000,0.000000,2.000000,9.000000,-29.000000,6.000000,2.000000,37.000000
1296389.202303,4.000000,-8.000000,6.000000,-23.000000,-12.000000,-6.000000,-2.000000,-48.000000
1296389.202445,-12.000000,0.000000,2.000000,-66.000000,-22.000000,-11.000000,-6.000000,3.000000
1296389.203617,-1.000000,-16.000000,-4.000000,-10.000000,10.000000,-2.000000,1.000000,-19.000000
1296389.203663,11.000000,13.000000,3.000000,14.000000,-29.000000,2.000000,-6.000000,11.000000
1296389.208171,-6.000000,-6.000000,0.000000,-26.000000,-17.000000,-7.000000,-6.000000,-11.000000
1296389.208235,-3.000000,4.000000,-9.000000,2.000000,-6.000000,-4.000000,-5.000000,14.000000
1296389.216092,12.000000,6.000000,13.000000,-3.000000,-12.000000,-4.000000,5.000000,11.000000
1296389.216117,10.000000,1.000000,3.000000,-8.000000,-25.000000,0.000000,-3.000000,-27.000000
1296389.238544,-22.000000,16.000000,-8.000000,-5.000000,37.000000,10.000000,1.000000,43.000000
1296389.238797,18.000000,-17.000000,7.000000,17.000000,4.000000,-4.000000,-6.000000,-12.000000
1296389.240098,5.000000,-36.000000,11.000000,13.000000,-12.000000,-3.000000,-1.000000,6.000000
1296389.240122,-24.000000,-27.000000,-7.000000,-19.000000,-17.000000,-9.000000,-3.000000,-5.000000
1296389.246195,1.000000,13.000000,-7.000000,-11.000000,-5.000000,-3.000000,-3.000000,-43.000000
1296389.246247,4.000000,14.000000,1.000000,-4.000000,-6.000000,0.000000,2.000000,7.000000
1296389.253784,13.000000,-13.000000,-2.000000,0.000000,7.000000,-3.000000,-3.000000,8.000000
1296389.253837,-17.000000,-40.000000,-5.000000,-59.000000,-17.000000,-7.000000,-3.000000,-5.000000
1296389.275954,-4.000000,7.000000,1.000000,51.000000,20.000000,3.000000,-6.000000,-6.000000
1296389.275980,11.000000,25.000000,5.000000,-17.000000,-37.000000,-7.000000,-1.000000,4.000000
1296389.291011,-6.000000,-60.000000,-8.000000,-20.000000,-10.000000,-5.000000,3.000000,3.000000
1296389.291035,2.000000,-15.000000,15.000000,1.000000,-19.000000,4.000000,0.000000,5.000000
1296389.298192,0.000000,2.000000,-12.000000,-21.000000,18.000000,1.000000,4.000000,0.000000
1296389.298218,3.000000,-16.000000,5.000000,-9.000000,-30.000000,-6.000000,-3.000000,-6.000000
1296389.320758,0.000000,9.000000,1.000000,-35.000000,-29.000000,-4.000000,2.000000,1.000000
1296389.320784,2.000000,6.000000,-6.000000,-24.000000,-3.000000,3.000000,7.000000,19.000000
1296389.328472,7.000000,12.000000,18.000000,41.000000,33.000000,-5.000000,-7.000000,12.000000
1296389.328498,0.000000,-24.000000,2.000000,-23.000000,-10.000000,2.000000,2.000000,-6.000000
1296389.359806,-8.000000,-8.000000,-4.000000,-17.000000,-1.000000,-6.000000,-3.000000,-8.000000
1296389.359830,3.000000,14.000000,-6.000000,0.000000,-4.000000,2.000000,1.000000,-10.000000
1296389.360431,4.000000,11.000000,-8.000000,-37.000000,-45.000000,-9.000000,-3.000000,11.000000
1296389.360459,-9.000000,13.000000,-19.000000,41.000000,99.000000,21.000000,4.000000,-15.000000
1296389.361658,5.000000,-6.000000,1.000000,-17.000000,-17.000000,-1.000000,-2.000000,15.000000
1296389.361686,-9.000000,21.000000,-5.000000,-1.000000,-9.000000,-3.000000,-5.000000,-20.000000
1296389.361807,2.000000,-16.000000,-7.000000,-11.000000,-9.000000,-1.000000,-1.000000,8.000000
1296389.361820,-1.000000,2.000000,0.000000,8.000000,17.000000,-2.000000,2.000000,11.000000
1296389.365991,-13.000000,7.000000,2.000000,26.000000,33.000000,7.000000,1.000000,-15.000000
1296389.366019,3.000000,-6.000000,-3.000000,-47.000000,-22.000000,-4.000000,-3.000000,2.000000
1296389.403499,-2.000000,14.000000,-1.000000,-6.000000,11.000000,-5.000000,-7.000000,-6.000000
1296389.403526,3.000000,-19.000000,0.000000,6.000000,-19.000000,1.000000,2.000000,7.000000
1296389.426071,-1.000000,1.000000,-7.000000,-36.000000,6.000000,-10.000000,-4.000000,-11.000000
1296389.426100,8.000000,20.000000,-6.000000,6.000000,-4.000000,-1.000000,5.000000,-4.000000
1296389.441213,-3.000000,-39.000000,-15.000000,45.000000,45.000000,10.000000,0.000000,6.000000
1296389.441244,-4.000000,-8.000000,-2.000000,-11.000000,-24.000000,-6.000000,-2.000000,8.000000
1296389.449260,-4.000000,6.000000,-5.000000,-37.000000,-41.000000,-8.000000,1.000000,-30.000000
1296389.449342,3.000000,-3.000000,4.000000,38.000000,80.000000,15.000000,-9.000000,0.000000
1296389.451402,-7.000000,14.000000,12.000000,-16.000000,-24.000000,-9.000000,-4.000000,0.000000
1296389.451426,-7.000000,-28.000000,-5.000000,-2.000000,-15.000000,1.000000,2.000000,5.000000
1296389.452777,1.000000,-15.000000,-2.000000,-8.000000,-17.000000,-1.000000,-1.000000,-7.000000
1296389.453190,7.000000,-7.000000,-8.000000,-15.000000,-3.000000,-2.000000,8.000000,-9.000000
1296389.454412,-9.000000,-7.000000,-10.000000,-3.000000,-6.000000,-6.000000,-1.000000,-1.000000
1296389.454528,2.000000,19.000000,-7.000000,-5.000000,3.000000,4.000000,3.000000,0.000000
1296389.456136,8.000000,22.000000,24.000000,110.000000,120.000000,27.000000,-3.000000,-6.000000
1296389.456162,8.000000,-29.000000,-11.000000,-13.000000,-32.000000,-18.000000,-15.000000,-8.000000
1296389.478931,-6.000000,4.000000,1.000000,-10.000000,-19.000000,-3.000000,5.000000,7.000000
1296389.479302,-2.000000,13.000000,4.000000,1.000000,-1.000000,2.000000,4.000000,3.000000
1296389.480527,4.000000,13.000000,1.000000,-10.000000,-23.000000,-2.000000,-1.000000,3.000000
1296389.480552,-2.000000,1.000000,-11.000000,14.000000,55.000000,4.000000,1.000000,0.000000
1296389.486358,0.000000,-6.000000,-2.000000,-6.000000,-5.000000,-6.000000,-4.000000,-5.000000
