# participant_id: P3
# gesture: soft
# trial_number: 2
# stream_name: Myo_EMG
# stream_type: emg
# timestamp: 20260420_133411
# samples: 5244
# duration_sec: 30.589
# nominal_sample_rate: 200.0
# effective_sample_rate: 171.40
#
timestamp,emg_1,emg_2,emg_3,emg_4,emg_5,emg_6,emg_7,emg_8
1296743.366531,-1.000000,27.000000,-2.000000,-31.000000,-20.000000,0.000000,8.000000,1.000000
1296743.366560,10.000000,15.000000,7.000000,5.000000,2.000000,7.000000,4.000000,7.000000
1296743.374101,3.000000,2.000000,-10.000000,2.000000,-11.000000,3.000000,5.000000,4.000000
1296743.374143,0.000000,-6.000000,-5.000000,-5.000000,-8.000000,-1.000000,0.000000,1.000000
1296743.376730,1.000000,-12.000000,-9.000000,20.000000,33.000000,4.000000,1.000000,7.000000
1296743.376758,-3.000000,-16.000000,-3.000000,47.000000,22.000000,-4.000000,-2.000000,2.000000
1296743.377127,-9.000000,1.000000,-4.000000,-9.000000,-17.000000,-4.000000,-6.000000,-5.000000
1296743.377172,-13.000000,3.000000,-4.000000,-25.000000,-26.000000,-7.000000,0.000000,7.000000
1296743.378599,6.000000,-5.000000,-1.000000,-1.000000,15.000000,13.000000,6.000000,-43.000000
1296743.378654,23.000000,-7.000000,2.000000,30.000000,8.000000,-5.000000,-7.000000,90.000000
1296743.410986,13.000000,33.000000,6.000000,-8.000000,-4.000000,-5.000000,-7.000000,-30.000000
1296743.411003,-36.000000,-63.000000,-9.000000,-8.000000,22.000000,-3.000000,0.000000,-12.000000
1296743.411553,-10.000000,10.000000,-2.000000,1.000000,-13.000000,-3.000000,0.000000,-10.000000
1296743.411561,3.000000,17.000000,8.000000,4.000000,25.000000,5.000000,6.000000,25.000000
1296743.413168,3.000000,5.000000,0.000000,-10.000000,-35.000000,5.000000,10.000000,18.000000
1296743.413183,11.000000,-3.000000,-1.000000,-3.000000,-11.000000,3.000000,4.000000,-1.000000
1296743.418004,16.000000,-6.000000,2.000000,19.000000,2.000000,-3.000000,-7.000000,10.000000
1296743.418018,-3.000000,-1.000000,0.000000,-8.000000,-1.000000,-2.000000,-1.000000,-4.000000
1296743.448009,-14.000000,-7.000000,-3.000000,-4.000000,-14.000000,-2.000000,2.000000,0.000000
1296743.448020,0.000000,9.000000,-3.000000,-10.000000,-2.000000,-3.000000,4.000000,4.000000
1296743.455993,-8.000000,-7.000000,-9.000000,2.000000,-32.000000,-8.000000,-7.000000,-5.000000
1296743.456031,0.000000,-3.000000,-7.000000,67.000000,35.000000,10.000000,1.000000,-16.000000
1296743.493015,12.000000,73.000000,14.000000,-6.000000,-30.000000,1.000000,2.000000,-5.000000
1296743.493025,10.000000,-51.000000,-6.000000,19.000000,39.000000,-1.000000,-7.000000,6.000000
1296743.500702,-49.000000,-48.000000,-11.000000,-23.000000,-37.000000,-10.000000,-1.000000,21.000000
1296743.500723,9.000000,43.000000,1.000000,-23.000000,-13.000000,2.000000,4.000000,-1.000000
1296743.538308,17.000000,-44.000000,-13.000000,74.000000,57.000000,1.000000,-22.000000,-19.000000
1296743.538318,-8.000000,-1.000000,-6.000000,-16.000000,15.000000,-14.000000,-6.000000,-7.000000
1296743.545436,9.000000,-13.000000,-9.000000,-54.000000,-50.000000,-1.000000,-1.000000,17.000000
1296743.545464,-12.000000,-8.000000,7.000000,24.000000,28.000000,7.000000,-3.000000,-17.000000
1296743.547318,-10.000000,8.000000,2.000000,-24.000000,-15.000000,1.000000,-1.000000,-12.000000
1296743.547356,1.000000,12.000000,-35.000000,1.000000,-12.000000,-5.000000,0.000000,32.000000
1296743.547941,29.000000,44.000000,7.000000,-14.000000,22.000000,1.000000,-3.000000,-31.000000
1296743.547961,-10.000000,-114.000000,-13.000000,60.000000,23.000000,12.000000,7.000000,11.000000
1296743.552918,-1.000000,7.000000,14.000000,3.000000,-16.000000,-5.000000,3.000000,-3.000000
1296743.552937,-8.000000,44.000000,-34.000000,14.000000,4.000000,3.000000,6.000000,-19.000000
1296743.568857,-5.000000,-29.000000,-5.000000,-18.000000,-37.000000,2.000000,5.000000,10.000000
1296743.568869,9.000000,-118.000000,5.000000,-7.000000,-12.000000,8.000000,-2.000000,78.000000
1296743.575686,-8.000000,55.000000,0.000000,1.000000,2.000000,-18.000000,-23.000000,-44.000000
1296743.575698,15.000000,21.000000,30.000000,17.000000,24.000000,6.000000,5.000000,9.000000
1296743.606252,-47.000000,-54.000000,-10.000000,-11.000000,-10.000000,1.000000,1.000000,-12.000000
1296743.606273,-3.000000,4.000000,-3.000000,5.000000,-15.000000,-4.000000,5.000000,-34.000000
1296743.606776,-1.000000,33.000000,-1.000000,18.000000,4.000000,8.000000,13.000000,-29.000000
1296743.606804,7.000000,-43.000000,-35.000000,-15.000000,-34.000000,-5.000000,-11.000000,24.000000
1296743.608537,7.000000,-2.000000,-1.000000,107.000000,73.000000,2.000000,-14.000000,29.000000
1296743.608547,-9.000000,17.000000,1.000000,-9.000000,2.000000,-5.000000,1.000000,-27.000000
1296743.613489,-3.000000,10.000000,-6.000000,-25.000000,-25.000000,-1.000000,3.000000,-12.000000
1296743.613501,-3.000000,10.000000,13.000000,-8.000000,44.000000,3.000000,3.000000,8.000000
1296743.628765,-6.000000,-14.000000,-28.000000,1.000000,-10.000000,-3.000000,1.000000,-8.000000
1296743.628775,2.000000,7.000000,-2.000000,-11.000000,-56.000000,-2.000000,4.000000,-5.000000
1296743.643042,2.000000,-12.000000,32.000000,12.000000,-2.000000,-6.000000,3.000000,31.000000
1296743.643063,-23.000000,3.000000,-21.000000,-10.000000,-2.000000,0.000000,-1.000000,-128.000000
1296743.658545,-4.000000,-8.000000,-8.000000,-17.000000,-51.000000,-2.000000,-2.000000,41.000000
1296743.658557,19.000000,56.000000,4.000000,7.000000,43.000000,0.000000,-6.000000,51.000000
1296743.673293,-18.000000,-127.000000,1.000000,-9.000000,12.000000,-17.000000,-30.000000,-34.000000
1296743.673304,2.000000,58.000000,4.000000,11.000000,-6.000000,3.000000,8.000000,-17.000000
1296743.695695,-20.000000,-30.000000,-7.000000,-37.000000,-14.000000,-3.000000,-3.000000,-13.000000
1296743.695711,-8.000000,-10.000000,-11.000000,3.000000,-13.000000,-1.000000,8.000000,-6.000000
1296743.703183,-1.000000,33.000000,-9.000000,-35.000000,-45.000000,-1.000000,10.000000,-53.000000
1296743.703194,-1.000000,-47.000000,10.000000,-33.000000,45.000000,21.000000,4.000000,63.000000
1296743.726145,-15.000000,18.000000,8.000000,20.000000,25.000000,-14.000000,-24.000000,-16.000000
1296743.726154,3.000000,2.000000,-24.000000,-15.000000,-27.000000,-3.000000,0.000000,-4.000000
1296743.726509,0.000000,-1.000000,-1.000000,-4.000000,-5.000000,-1.000000,2.000000,1.000000
1296743.726517,-5.000000,15.000000,2.000000,-24.000000,1.000000,-1.000000,2.000000,0.000000
1296743.727905,31.000000,21.000000,6.000000,24.000000,-16.000000,-2.000000,1.000000,6.000000
1296743.727923,-37.000000,-51.000000,-29.000000,51.000000,87.000000,5.000000,0.000000,-4.000000
1296743.728585,-9.000000,40.000000,15.000000,-8.000000,-6.000000,-2.000000,-3.000000,-9.000000
1296743.728601,0.000000,11.000000,0.000000,-5.000000,-10.000000,-2.000000,2.000000,-7.000000
1296743.733064,18.000000,16.000000,12.000000,8.000000,9.000000,8.000000,4.000000,36.000000
1296743.733090,12.000000,-72.000000,-13.000000,-26.000000,-24.000000,-12.000000,-5.000000,-29.000000
1296743.778108,-17.000000,21.000000,16.000000,-19.000000,37.000000,-2.000000,-2.000000,6.000000
1296743.778123,-5.000000,13.000000,-19.000000,-25.000000,-7.000000,0.000000,3.000000,-2.000000
1296743.793508,1.000000,3.000000,-10.000000,-6.000000,16.000000,1.000000,-7.000000,-8.000000
1296743.793520,-8.000000,3.000000,11.000000,-13.000000,4.000000,-6.000000,0.000000,-47.000000
1296743.815770,7.000000,21.000000,23.000000,19.000000,-21.000000,-2.000000,1.000000,8.000000
1296743.815783,12.000000,14.000000,8.000000,40.000000,7.000000,1.000000,2.000000,15.000000
1296743.823183,-14.000000,-23.000000,-7.000000,8.000000,45.000000,-3.000000,-4.000000,14.000000
1296743.823194,-6.000000,-3.000000,2.000000,-18.000000,18.000000,-2.000000,-3.000000,-16.000000
1296743.846182,-4.000000,11.000000,3.000000,2.000000,-9.000000,-2.000000,0.000000,-2.000000
1296743.846197,0.000000,-1.000000,-9.000000,-1.000000,-14.000000,-4.000000,1.000000,-3.000000
1296743.860503,13.000000,-69.000000,20.000000,59.000000,61.000000,5.000000,0.000000,22.000000
1296743.860523,-18.000000,30.000000,-4.000000,-33.000000,-20.000000,-10.000000,-11.000000,-22.000000
1296743.891160,-5.000000,11.000000,1.000000,9.000000,-4.000000,-1.000000,2.000000,-4.000000
1296743.891173,11.000000,16.000000,-2.000000,10.000000,0.000000,6.000000,4.000000,-12.000000
1296743.898226,10.000000,6.000000,10.000000,5.000000,-15.000000,-6.000000,3.000000,52.000000
1296743.898238,-9.000000,-32.000000,-14.000000,-13.000000,50.000000,10.000000,-5.000000,-19.000000
1296743.905573,13.000000,68.000000,-1.000000,11.000000,-6.000000,3.000000,4.000000,-33.000000
1296743.905591,17.000000,-63.000000,3.000000,-42.000000,-33.000000,3.000000,9.000000,14.000000
1296743.935646,-14.000000,-1.000000,0.000000,120.000000,48.000000,1.000000,-19.000000,-3.000000
1296743.935657,6.000000,16.000000,14.000000,-2.000000,-29.000000,-11.000000,-3.000000,0.000000
1296743.943353,-7.000000,-10.000000,-1.000000,26.000000,-18.000000,-2.000000,6.000000,-80.000000
1296743.943383,12.000000,2.000000,4.000000,64.000000,98.000000,16.000000,2.000000,70.000000
1296743.943780,-4.000000,-7.000000,5.000000,15.000000,-40.000000,-1.000000,3.000000,-14.000000
1296743.943802,17.000000,-49.000000,-4.000000,52.000000,85.000000,14.000000,3.000000,22.000000
1296743.951305,7.000000,9.000000,-8.000000,-14.000000,-20.000000,-9.000000,2.000000,-6.000000
1296743.951316,19.000000,64.000000,9.000000,-4.000000,2.000000,7.000000,2.000000,-18.000000
1296743.965337,25.000000,23.000000,1.000000,12.000000,-4.000000,-3.000000,-7.000000,83.000000
1296743.965386,-8.000000,-13.000000,-4.000000,55.000000,16.000000,-8.000000,-20.000000,-53.000000
1296743.966027,-11.000000,46.000000,5.000000,-1.000000,33.000000,-2.000000,-9.000000,-25.000000
1296743.966042,5.000000,-38.000000,-3.000000,0.000000,-8.000000,3.000000,6.000000,3.000000
1296743.967550,-9.000000,13.000000,0.000000,-15.000000,-32.000000,-4.000000,9.000000,-4.000000
1296743.967559,22.000000,38.000000,-1.000000,30.000000,84.000000,7.000000,-5.000000,22.000000
1296743.980579,0.000000,-32.000000,0.000000,-7.000000,-21.000000,6.000000,4.000000,-11.000000
1296743.980590,-13.000000,-11.000000,4.000000,8.000000,67.000000,-4.000000,0.000000,-10.000000
1296744.003191,-1.000000,16.000000,-8.000000,-3.000000,-31.000000,-4.000000,1.000000,21.000000
1296744.003200,-3.000000,-14.000000,-7.000000,17.000000,55.000000,2.000000,-1.000000,36.000000
1296744.010579,0.000000,34.000000,10.000000,-53.000000,6.000000,3.000000,0.000000,-52.000000
1296744.010596,11.000000,-41.000000,11.000000,29.000000,-20.000000,0.000000,4.000000,32.000000
1296744.048219,-2.000000,39.000000,16.000000,-26.000000,42.000000,-5.000000,-6.000000,8.000000
1296744.048232,-3.000000,-94.000000,-12.000000,-5.000000,-5.000000,0.000000,3.000000,-17.000000
1296744.056325,-21.000000,6.000000,2.000000,-17.000000,-34.000000,-7.000000,-4.000000,-2.000000
1296744.056348,1.000000,-11.000000,3.000000,19.000000,56.000000,11.000000,10.000000,-88.000000
1296744.086820,3.000000,22.000000,0.000000,-1.000000,-18.000000,-7.000000,-16.000000,-51.000000
1296744.086962,34.000000,54.000000,14.000000,-6.000000,21.000000,-4.000000,0.000000,13.000000
1296744.087857,-32.000000,-57.000000,-20.000000,5.000000,17.000000,-7.000000,-12.000000,0.000000
1296744.087897,7.000000,10.000000,-10.000000,-21.000000,-6.000000,-1.000000,4.000000,22.000000
1296744.089204,13.000000,7.000000,2.000000,1.000000,-10.000000,-1.000000,-3.000000,-5.000000
1296744.089223,-7.000000,-10.000000,-9.000000,1.000000,-7.000000,4.000000,3.000000,33.000000
1296744.089840,2.000000,-64.000000,-2.000000,10.000000,-17.000000,2.000000,-4.000000,63.000000
1296744.089860,-18.000000,-16.000000,-19.000000,42.000000,89.000000,5.000000,-4.000000,4.000000
1296744.090285,8.000000,15.000000,-8.000000,3.000000,10.000000,-6.000000,1.000000,-8.000000
1296744.090304,3.000000,10.000000,1.000000,-8.000000,-3.000000,0.000000,-3.000000,-4.000000
1296744.101091,2.000000,-26.000000,17.000000,21.000000,58.000000,7.000000,-1.000000,40.000000
1296744.101114,7.000000,11.000000,16.000000,11.000000,32.000000,-4.000000,-4.000000,-27.000000
1296744.124079,4.000000,2.000000,-42.000000,-16.000000,-10.000000,-1.000000,5.000000,21.000000
1296744.124163,8.000000,-30.000000,-9.000000,-22.000000,-23.000000,-2.000000,4.000000,-12.000000
1296744.131258,-20.000000,22.000000,24.000000,-10.000000,-18.000000,-13.000000,-13.000000,-14.000000
1296744.131281,19.000000,30.000000,0.000000,11.000000,-32.000000,6.000000,7.000000,-37.000000
1296744.146169,0.000000,-46.000000,25.000000,-10.000000,2.000000,-12.000000,-10.000000,26.000000
1296744.146203,-8.000000,39.000000,-53.000000,10.000000,-2.000000,-5.000000,-15.000000,-23.000000
1296744.161508,-1.000000,9.000000,13.000000,-1.000000,20.000000,2.000000,4.000000,20.000000
1296744.161547,10.000000,11.000000,5.000000,28.000000,-8.000000,1.000000,2.000000,0.000000
1296744.176478,-6.000000,-44.000000,-14.000000,-6.000000,2.000000,1.000000,0.000000,-19.000000
1296744.176561,-12.000000,26.000000,-9.000000,-14.000000,-32.000000,-9.000000,0.000000,-15.000000
1296744.199866,20.000000,67.000000,3.000000,42.000000,45.000000,13.000000,7.000000,37.000000
1296744.199913,-12.000000,-64.000000,-6.000000,5.000000,0.000000,-4.000000,-4.000000,-14.000000
1296744.213527,-4.000000,-14.000000,15.000000,25.000000,10.000000,4.000000,-7.000000,8.000000
1296744.213550,-6.000000,-1.000000,-17.000000,3.000000,-34.000000,4.000000,-4.000000,-18.000000
1296744.236265,2.000000,8.000000,10.000000,14.000000,7.000000,-3.000000,3.000000,2.000000
1296744.236308,3.000000,11.000000,4.000000,25.000000,19.000000,4.000000,1.000000,1.000000
1296744.251337,-13.000000,-1.000000,4.000000,-5.000000,9.000000,-2.000000,4.000000,-98.000000
1296744.251360,5.000000,-9.000000,-7.000000,42.000000,36.000000,10.000000,7.000000,114.000000
1296744.258486,2.000000,-18.000000,18.000000,36.000000,24.000000,-1.000000,-8.000000,-8.000000
1296744.258508,-3.000000,67.000000,5.000000,-18.000000,-26.000000,-5.000000,-2.000000,-15.000000
1296744.281434,27.000000,43.000000,-4.000000,-42.000000,-26.000000,-5.000000,0.000000,16.000000
1296744.281456,-16.000000,-101.000000,10.000000,-16.000000,52.000000,-7.000000,-23.000000,19.000000
1296744.304095,-11.000000,13.000000,4.000000,-20.000000,-34.000000,-7.000000,-3.000000,-5.000000
1296744.304140,1.000000,21.000000,-5.000000,1.000000,-7.000000,0.000000,2.000000,-5.000000
1296744.326398,6.000000,-4.000000,-15.000000,13.000000,6.000000,3.000000,6.000000,0.000000
1296744.326439,-2.000000,1.000000,2.000000,4.000000,5.000000,-6.000000,-2.000000,0.000000
1296744.327653,-5.000000,-2.000000,-14.000000,-5.000000,-46.000000,-1.000000,-1.000000,-3.000000
1296744.327676,5.000000,14.000000,10.000000,-7.000000,27.000000,7.000000,2.000000,3.000000
1296744.328119,-17.000000,17.000000,4.000000,-45.000000,-9.000000,8.000000,8.000000,-69.000000
1296744.328138,12.000000,-62.000000,-20.000000,12.000000,-16.000000,-9.000000,-17.000000,87.000000
1296744.328786,-2.000000,-128.000000,-15.000000,11.000000,-29.000000,-6.000000,1.000000,-21.000000
1296744.328809,-19.000000,67.000000,36.000000,8.000000,36.000000,5.000000,2.000000,-2.000000
1296744.329450,-1.000000,8.000000,1.000000,18.000000,-4.000000,-4.000000,5.000000,57.000000
1296744.329477,1.000000,6.000000,-2.000000,-6.000000,-32.000000,-3.000000,-7.000000,-91.000000
1296744.330187,12.000000,-12.000000,-3.000000,-46.000000,-28.000000,-1.000000,-4.000000,74.000000
1296744.330234,17.000000,36.000000,7.000000,60.000000,26.000000,6.000000,12.000000,7.000000
1296744.348863,-13.000000,-6.000000,-9.000000,-5.000000,-14.000000,-2.000000,1.000000,0.000000
1296744.348883,17.000000,-6.000000,5.000000,-4.000000,-34.000000,-7.000000,0.000000,15.000000
1296744.371458,-12.000000,2.000000,-8.000000,-25.000000,65.000000,11.000000,-1.000000,-11.000000
1296744.371507,-6.000000,0.000000,2.000000,-16.000000,-26.000000,-8.000000,-3.000000,-7.000000
1296744.401446,-1.000000,35.000000,-45.000000,25.000000,12.000000,-2.000000,1.000000,-6.000000
1296744.401485,5.000000,-44.000000,14.000000,-41.000000,-13.000000,7.000000,5.000000,-14.000000
1296744.416392,-5.000000,10.000000,2.000000,-6.000000,3.000000,-2.000000,-1.000000,56.000000
1296744.416414,21.000000,42.000000,4.000000,-6.000000,-81.000000,-1.000000,-9.000000,4.000000
1296744.423579,-24.000000,-57.000000,-12.000000,-5.000000,16.000000,-12.000000,-11.000000,-3.000000
1296744.423600,-7.000000,2.000000,15.000000,-12.000000,-4.000000,-4.000000,3.000000,-17.000000
1296744.440374,4.000000,32.000000,0.000000,1.000000,-8.000000,2.000000,3.000000,3.000000
1296744.440909,5.000000,-42.000000,-11.000000,17.000000,25.000000,-1.000000,0.000000,-3.000000
1296744.441758,-15.000000,-3.000000,2.000000,-1.000000,4.000000,1.000000,1.000000,30.000000
1296744.441785,1.000000,5.000000,-10.000000,-12.000000,-4.000000,-9.000000,-8.000000,-10.000000
1296744.442317,1.000000,0.000000,-1.000000,-80.000000,-38.000000,-11.000000,8.000000,-4.000000
1296744.442357,12.000000,0.000000,8.000000,108.000000,126.000000,13.000000,2.000000,33.000000
1296744.442909,6.000000,-4.000000,9.000000,-9.000000,12.000000,-6.000000,-5.000000,-10.000000
1296744.442939,-8.000000,-2.000000,-8.000000,-6.000000,-6.000000,-1.000000,1.000000,21.000000
1296744.443605,-9.000000,-3.000000,-6.000000,-5.000000,-4.000000,-6.000000,-4.000000,-111.000000
1296744.443624,-7.000000,3.000000,7.000000,-18.000000,-4.000000,-12.000000,-7.000000,-58.000000
1296744.447206,12.000000,-34.000000,-28.000000,21.000000,-16.000000,16.000000,5.000000,78.000000
1296744.447226,-3.000000,0.000000,-37.000000,-39.000000,-8.000000,-18.000000,-7.000000,2.000000
1296744.476307,-30.000000,-23.000000,-5.000000,-10.000000,-8.000000,-10.000000,-6.000000,-21.000000
1296744.476355,0.000000,6.000000,18.000000,-11.000000,-19.000000,2.000000,3.000000,-13.000000
1296744.514005,8.000000,-4.000000,12.000000,47.000000,48.000000,7.000000,2.000000,8.000000
1296744.514048,3.000000,9.000000,-10.000000,-5.000000,-44.000000,-6.000000,-7.000000,0.000000
1296744.521228,-2.000000,3.000000,9.000000,38.000000,29.000000,17.000000,6.000000,-24.000000
1296744.521357,2.000000,-8.000000,-16.000000,-12.000000,-17.000000,-7.000000,-1.000000,2.000000
1296744.536436,11.000000,20.000000,33.000000,-39.000000,-5.000000,-9.000000,-12.000000,15.000000
1296744.536459,-9.000000,-46.000000,-4.000000,-2.000000,-20.000000,1.000000,8.000000,-52.000000
1296744.551450,9.000000,32.000000,-3.000000,-12.000000,-7.000000,-1.000000,7.000000,37.000000
1296744.551492,-18.000000,-90.000000,6.000000,-13.000000,0.000000,2.000000,-12.000000,29.000000
1296744.559442,-15.000000,32.000000,-17.000000,-11.000000,2.000000,-7.000000,-7.000000,-35.000000
1296744.559487,10.000000,33.000000,10.000000,11.000000,1.000000,3.000000,2.000000,-5.000000
1296744.560811,2.000000,34.000000,9.000000,39.000000,67.000000,4.000000,2.000000,9.000000
1296744.560831,0.000000,-12.000000,7.000000,-50.000000,-35.000000,5.000000,1.000000,-6.000000
1296744.562483,5.000000,-44.000000,-19.000000,13.000000,88.000000,7.000000,-1.000000,23.000000
1296744.562504,-13.000000,23.000000,-3.000000,-2.000000,-16.000000,-4.000000,-3.000000,-19.000000
1296744.567385,-5.000000,-2.000000,-9.000000,6.000000,-14.000000,-5.000000,-4.000000,-17.000000
1296744.567423,5.000000,2.000000,9.000000,1.000000,-4.000000,0.000000,-2.000000,28.000000
1296744.589029,4.000000,12.000000,1.000000,-1.000000,0.000000,-4.000000,3.000000,-31.000000
1296744.589076,0.000000,-7.000000,6.000000,1.000000,-9.000000,2.000000,7.000000,16.000000
1296744.611457,-14.000000,-10.000000,4.000000,-2.000000,5.000000,-6.000000,-10.000000,-6.000000
1296744.611480,22.000000,2.000000,-2.000000,-30.000000,85.000000,10.000000,4.000000,32.000000
1296744.626308,-10.000000,-11.000000,0.000000,4.000000,-28.000000,4.000000,-1.000000,-9.000000
1296744.626330,-3.000000,52.000000,-12.000000,-12.000000,-20.000000,-8.000000,6.000000,-2.000000
1296744.641350,-27.000000,-128.000000,-19.000000,-27.000000,-8.000000,8.000000,10.000000,-13.000000
1296744.641485,18.000000,41.000000,-6.000000,-9.000000,-27.000000,-13.000000,-3.000000,66.000000
1296744.648649,-2.000000,8.000000,16.000000,32.000000,27.000000,7.000000,-7.000000,-19.000000
1296744.648671,0.000000,6.000000,-9.000000,-4.000000,-21.000000,-9.000000,2.000000,-22.000000
1296744.678992,-3.000000,10.000000,14.000000,36.000000,53.000000,17.000000,7.000000,15.000000
1296744.679039,5.000000,-25.000000,-24.000000,-36.000000,-26.000000,-5.000000,5.000000,-10.000000
1296744.679781,-3.000000,-7.000000,2.000000,-10.000000,-14.000000,-11.000000,-10.000000,-23.000000
1296744.679816,-7.000000,1.000000,-3.000000,-30.000000,-4.000000,0.000000,1.000000,-63.000000
1296744.681087,13.000000,12.000000,10.000000,-11.000000,-40.000000,-6.000000,-1.000000,59.000000
1296744.681584,-3.000000,-3.000000,-21.000000,13.000000,33.000000,4.000000,-5.000000,-25.000000
1296744.682426,-8.000000,0.000000,-7.000000,-4.000000,-22.000000,-4.000000,0.000000,-12.000000
1296744.682719,-4.000000,0.000000,-11.000000,11.000000,-41.000000,-2.000000,3.000000,-17.000000
1296744.683473,11.000000,23.000000,22.000000,76.000000,56.000000,11.000000,10.000000,33.000000
1296744.683493,-7.000000,-36.000000,-23.000000,-17.000000,33.000000,-4.000000,-12.000000,19.000000
1296744.686858,5.000000,-4.000000,13.000000,-26.000000,4.000000,1.000000,-4.000000,-30.000000
1296744.686883,-5.000000,13.000000,17.000000,-21.000000,-47.000000,-5.000000,2.000000,-43.000000
1296744.701359,3.000000,8.000000,-4.000000,-29.000000,-10.000000,9.000000,0.000000,-17.000000
1296744.701530,10.000000,-25.000000,-5.000000,-30.000000,1.000000,-19.000000,-13.000000,-3.000000
1296744.731534,-12.000000,3.000000,-29.000000,-16.000000,-30.000000,-4.000000,0.000000,-9.000000
1296744.731579,6.000000,32.000000,0.000000,1.000000,10.000000,3.000000,4.000000,-34.000000
1296744.754066,7.000000,3.000000,-8.000000,-28.000000,14.000000,2.000000,-2.000000,2.000000
1296744.754090,-12.000000,-21.000000,23.000000,0.000000,-64.000000,-10.000000,4.000000,-15.000000
1296744.768841,13.000000,5.000000,-5.000000,79.000000,103.000000,16.000000,9.000000,114.000000
1296744.768862,12.000000,7.000000,15.000000,-9.000000,-23.000000,-9.000000,-9.000000,-19.000000
1296744.769531,-44.000000,3.000000,-15.000000,-27.000000,-16.000000,-10.000000,-7.000000,-21.000000
1296744.769578,3.000000,6.000000,-10.000000,2.000000,-5.000000,-3.000000,0.000000,8.000000
1296744.770874,-10.000000,-31.000000,-7.000000,25.000000,-19.000000,-4.000000,1.000000,-24.000000
1296744.770913,2.000000,-6.000000,9.000000,67.000000,-2.000000,5.000000,0.000000,25.000000
1296744.771823,3.000000,39.000000,17.000000,-11.000000,-7.000000,-7.000000,-5.000000,-6.000000
1296744.772064,0.000000,14.000000,-1.000000,-8.000000,-17.000000,-6.000000,-2.000000,-3.000000
1296744.791476,-2.000000,4.000000,-35.000000,40.000000,-17.000000,-8.000000,-9.000000,3.000000
1296744.791596,-14.000000,3.000000,17.000000,-11.000000,1.000000,-7.000000,-6.000000,-17.000000
1296744.806420,4.000000,10.000000,15.000000,75.000000,102.000000,21.000000,7.000000,-6.000000
1296744.806442,9.000000,30.000000,-26.000000,-14.000000,-30.000000,-3.000000,3.000000,21.000000
1296744.814009,-1.000000,-31.000000,13.000000,-50.000000,-14.000000,-3.000000,1.000000,-11.000000
1296744.814037,-11.000000,-22.000000,-16.000000,-32.000000,5.000000,-6.000000,-11.000000,-26.000000
1296744.836940,0.000000,22.000000,-19.000000,-15.000000,-75.000000,5.000000,5.000000,110.000000
1296744.836988,14.000000,43.000000,10.000000,-53.000000,-28.000000,-4.000000,-1.000000,-48.000000
1296744.837688,-11.000000,-79.000000,11.000000,-13.000000,-23.000000,2.000000,-1.000000,25.000000
1296744.837709,-3.000000,24.000000,-26.000000,-32.000000,-30.000000,-12.000000,-13.000000,-24.000000
1296744.838414,4.000000,21.000000,2.000000,-12.000000,-6.000000,-3.000000,6.000000,27.000000
1296744.838432,-4.000000,13.000000,0.000000,2.000000,-20.000000,4.000000,0.000000,-40.000000
1296744.843773,-1.000000,-34.000000,-19.000000,-18.000000,30.000000,7.000000,0.000000,27.000000
1296744.843794,12.000000,23.000000,6.000000,11.000000,-9.000000,-14.000000,-12.000000,36.000000
1296744.851432,12.000000,28.000000,20.000000,12.000000,-35.000000,5.000000,1.000000,-58.000000
1296744.851454,-1.000000,-64.000000,-23.000000,-20.000000,-5.000000,7.000000,11.000000,71.000000
1296744.866319,-8.000000,-8.000000,1.000000,-13.000000,-27.000000,-9.000000,-8.000000,-8.000000
1296744.866341,8.000000,39.000000,-5.000000,48.000000,57.000000,8.000000,0.000000,-10.000000
1296744.882092,4.000000,5.000000,14.000000,1.000000,-5.000000,-3.000000,0.000000,-1.000000
1296744.882203,-11.000000,-3.000000,-21.000000,-37.000000,-10.000000,-3.000000,1.000000,3.000000
1296744.888674,13.000000,9.000000,-5.000000,25.000000,1.000000,5.000000,3.000000,-33.000000
1296744.888696,5.000000,6.000000,15.000000,11.000000,11.000000,1.000000,-4.000000,19.000000
1296744.890110,-1.000000,-7.000000,2.000000,19.000000,21.000000,4.000000,-8.000000,-9.000000
1296744.890132,0.000000,16.000000,3.000000,1.000000,-10.000000,-5.000000,-1.000000,-1.000000
1296744.903870,-9.000000,-27.000000,-9.000000,-7.000000,-1.000000,-2.000000,2.000000,-20.000000
1296744.903909,-7.000000,3.000000,-1.000000,11.000000,-11.000000,3.000000,4.000000,57.000000
1296744.918935,-3.000000,12.000000,2.000000,-4.000000,-6.000000,-6.000000,-1.000000,1.000000
1296744.918979,4.000000,-1.000000,-14.000000,2.000000,32.000000,10.000000,-3.000000,-7.000000
1296744.919643,-3.000000,-4.000000,23.000000,-14.000000,-39.000000,-6.000000,-1.000000,-6.000000
1296744.919664,5.000000,16.000000,-9.000000,6.000000,-9.000000,2.000000,9.000000,32.000000
1296744.934412,-3.000000,-17.000000,8.000000,3.000000,-14.000000,-4.000000,0.000000,35.000000
1296744.934442,-13.000000,-17.000000,-3.000000,94.000000,33.000000,6.000000,0.000000,-45.000000
1296744.949454,21.000000,5.000000,10.000000,17.000000,52.000000,6.000000,0.000000,18.000000
1296744.949497,-4.000000,-24.000000,1.000000,-34.000000,-2.000000,-4.000000,-9.000000,-6.000000
1296744.963770,-3.000000,19.000000,-9.000000,10.000000,-13.000000,-6.000000,2.000000,2.000000
1296744.963792,5.000000,6.000000,-2.000000,7.000000,-10.000000,2.000000,2.000000,4.000000
1296744.971137,2.000000,7.000000,16.000000,-9.000000,-30.000000,-6.000000,-5.000000,-7.000000
1296744.971158,14.000000,-1.000000,-21.000000,37.000000,54.000000,5.000000,4.000000,26.000000
1296744.994106,-17.000000,-16.000000,0.000000,-22.000000,-34.000000,-1.000000,-8.000000,-11.000000
1296744.994133,-8.000000,-9.000000,-2.000000,12.000000,-14.000000,-6.000000,-1.000000,-8.000000
1296745.001500,3.000000,17.000000,-1.000000,-32.000000,-30.000000,-2.000000,1.000000,13.000000
1296745.001550,-2.000000,23.000000,8.000000,25.000000,35.000000,-3.000000,0.000000,-7.000000
1296745.031423,-4.000000,-17.000000,-19.000000,-37.000000,-37.000000,-8.000000,7.000000,-46.000000
1296745.031448,0.000000,10.000000,18.000000,51.000000,43.000000,12.000000,-2.000000,4.000000
1296745.039493,-4.000000,1.000000,1.000000,-35.000000,-36.000000,-17.000000,-12.000000,-3.000000
1296745.039541,7.000000,25.000000,-6.000000,2.000000,62.000000,7.000000,-13.000000,9.000000
1296745.040951,-8.000000,-36.000000,-18.000000,-5.000000,-16.000000,-5.000000,-3.000000,-11.000000
1296745.040975,-11.000000,-3.000000,30.000000,-43.000000,-18.000000,-3.000000,4.000000,-11.000000
1296745.041468,2.000000,10.000000,3.000000,19.000000,21.000000,5.000000,4.000000,-13.000000
1296745.041727,1.000000,31.000000,5.000000,-11.000000,4.000000,2.000000,10.000000,71.000000
1296745.042598,23.000000,-5.000000,0.000000,34.000000,18.000000,-1.000000,-4.000000,-13.000000
1296745.042617,-5.000000,-36.000000,5.000000,19.000000,-16.000000,1.000000,-3.000000,4.000000
1296745.042995,-26.000000,-18.000000,-14.000000,1.000000,10.000000,-2.000000,4.000000,-13.000000
1296745.043017,-8.000000,2.000000,-9.000000,-8.000000,-11.000000,-2.000000,7.000000,-18.000000
1296745.061037,-6.000000,0.000000,15.000000,7.000000,8.000000,-3.000000,-13.000000,21.000000
1296745.061060,6.000000,28.000000,3.000000,0.000000,-12.000000,3.000000,5.000000,-30.000000
1296745.068575,7.000000,-7.000000,-6.000000,12.000000,6.000000,0.000000,5.000000,26.000000
1296745.068595,-6.000000,-38.000000,-9.000000,46.000000,28.000000,-2.000000,2.000000,-1.000000
1296745.084007,-7.000000,11.000000,7.000000,18.000000,-41.000000,4.000000,-4.000000,-3.000000
1296745.084096,12.000000,18.000000,-16.000000,-60.000000,-51.000000,1.000000,2.000000,0.000000
1296745.091085,-5.000000,-28.000000,-9.000000,-18.000000,-22.000000,-8.000000,-5.000000,-23.000000
1296745.091106,-33.000000,32.000000,1.000000,-11.000000,12.000000,-6.000000,1.000000,-42.000000
1296745.121331,-18.000000,17.000000,19.000000,18.000000,12.000000,-3.000000,-2.000000,48.000000
1296745.121355,12.000000,-33.000000,-1.000000,12.000000,18.000000,5.000000,-1.000000,14.000000
1296745.128844,-9.000000,16.000000,12.000000,2.000000,-7.000000,-2.000000,-3.000000,7.000000
1296745.128867,-9.000000,2.000000,-7.000000,-6.000000,-16.000000,1.000000,-5.000000,-22.000000
1296745.166326,-8.000000,-3.000000,3.000000,15.000000,36.000000,11.000000,-4.000000,-3.000000
1296745.166348,12.000000,9.000000,8.000000,20.000000,9.000000,2.000000,-3.000000,21.000000
1296745.167089,12.000000,2.000000,10.000000,-82.000000,-7.000000,-3.000000,-2.000000,50.000000
1296745.167112,-9.000000,-3.000000,14.000000,13.000000,-14.000000,-3.000000,12.000000,-29.000000
1296745.168981,0.000000,15.000000,-18.000000,-37.000000,-40.000000,3.000000,28.000000,-89.000000
1296745.169015,11.000000,-6.000000,-3.000000,-3.000000,31.000000,-5.000000,-48.000000,34.000000
1296745.169383,1.000000,36.000000,10.000000,-78.000000,-13.000000,-9.000000,0.000000,-12.000000
1296745.169465,4.000000,-37.000000,-7.000000,49.000000,31.000000,16.000000,15.000000,10.000000
1296745.211802,-6.000000,-26.000000,-10.000000,-16.000000,-18.000000,-4.000000,1.000000,18.000000
1296745.211823,0.000000,20.000000,20.000000,-15.000000,-15.000000,-5.000000,3.000000,-50.000000
1296745.218857,-4.000000,7.000000,4.000000,56.000000,13.000000,-5.000000,-5.000000,-10.000000
1296745.218985,6.000000,6.000000,-13.000000,-6.000000,-28.000000,-4.000000,2.000000,1.000000
1296745.241445,-10.000000,-20.000000,11.000000,-17.000000,51.000000,7.000000,3.000000,23.000000
1296745.241468,14.000000,63.000000,-19.000000,5.000000,-17.000000,7.000000,0.000000,-58.000000
1296745.242849,20.000000,-47.000000,8.000000,9.000000,-14.000000,-7.000000,-2.000000,8.000000
1296745.242871,-9.000000,-17.000000,9.000000,41.000000,84.000000,11.000000,4.000000,33.000000
1296745.243198,2.000000,3.000000,9.000000,-7.000000,22.000000,-12.000000,-18.000000,4.000000
1296745.243218,6.000000,29.000000,10.000000,-45.000000,-2.000000,2.000000,2.000000,-5.000000
1296745.243756,13.000000,-12.000000,2.000000,40.000000,-15.000000,-2.000000,-2.000000,33.000000
1296745.243780,7.000000,23.000000,36.000000,0.000000,0.000000,1.000000,7.000000,51.000000
1296745.249517,3.000000,-17.000000,1.000000,20.000000,10.000000,-1.000000,5.000000,8.000000
1296745.249540,3.000000,15.000000,-12.000000,20.000000,62.000000,7.000000,-1.000000,19.000000
1296745.263552,12.000000,9.000000,30.000000,26.000000,-11.000000,-1.000000,6.000000,2.000000
1296745.263575,-33.000000,-10.000000,-31.000000,40.000000,-31.000000,-4.000000,-4.000000,-11.000000
1296745.271877,-1.000000,-5.000000,17.000000,-10.000000,53.000000,0.000000,-1.000000,-6.000000
1296745.271898,2.000000,12.000000,-11.000000,-14.000000,-44.000000,-3.000000,1.000000,-18.000000
1296745.278723,-6.000000,17.000000,-9.000000,5.000000,-10.000000,5.000000,6.000000,-9.000000
1296745.278762,29.000000,-20.000000,12.000000,-60.000000,8.000000,2.000000,5.000000,-12.000000
1296745.316226,-30.000000,-49.000000,-11.000000,13.000000,-8.000000,-12.000000,-23.000000,-8.000000
1296745.316246,2.000000,22.000000,0.000000,-9.000000,9.000000,-2.000000,-2.000000,-21.000000
1296745.323836,-12.000000,-18.000000,-22.000000,-13.000000,-14.000000,-1.000000,2.000000,-56.000000
1296745.323881,23.000000,31.000000,-3.000000,-7.000000,1.000000,-4.000000,-7.000000,54.000000
1296745.362359,2.000000,-9.000000,2.000000,1.000000,2.000000,-1.000000,-7.000000,-20.000000
1296745.362404,18.000000,-2.000000,1.000000,8.000000,5.000000,8.000000,3.000000,1.000000
1296745.363410,0.000000,2.000000,-30.000000,-9.000000,-3.000000,-8.000000,-3.000000,-1.000000
1296745.363770,-18.000000,-12.000000,-17.000000,38.000000,-10.000000,3.000000,5.000000,-90.000000
1296745.364535,16.000000,12.000000,15.000000,8.000000,21.000000,-3.000000,-4.000000,127.000000
1296745.364577,10.000000,-22.000000,9.000000,-29.000000,-8.000000,-8.000000,-15.000000,-45.000000
1296745.364730,-17.000000,-1.000000,-6.000000,-20.000000,-39.000000,-2.000000,-1.000000,-16.000000
1296745.364747,-9.000000,-1.000000,9.000000,21.000000,70.000000,11.000000,8.000000,-6.000000
1296745.369572,10.000000,6.000000,15.000000,62.000000,41.000000,8.000000,1.000000,17.000000
1296745.369593,6.000000,-7.000000,5.000000,-59.000000,18.000000,2.000000,-5.000000,12.000000
1296745.383727,-22.000000,-3.000000,-4.000000,12.000000,15.000000,3.000000,-1.000000,4.000000
1296745.383748,-8.000000,7.000000,4.000000,-16.000000,-14.000000,-4.000000,-1.000000,-33.000000
1296745.391956,16.000000,7.000000,28.000000,-3.000000,16.000000,-4.000000,0.000000,44.000000
1296745.391975,4.000000,-3.000000,-8.000000,-41.000000,-39.000000,-1.000000,-2.000000,-47.000000
1296745.398752,-11.000000,-21.000000,-11.000000,10.000000,-7.000000,-6.000000,-12.000000,19.000000
1296745.398799,-8.000000,-10.000000,-2.000000,-3.000000,-5.000000,-3.000000,0.000000,-2.000000
1296745.421260,-11.000000,-5.000000,-5.000000,-14.000000,-8.000000,-1.000000,4.000000,-26.000000
1296745.421283,-3.000000,5.000000,4.000000,-8.000000,-3.000000,-2.000000,1.000000,21.000000
1296745.443805,-25.000000,-40.000000,-1.000000,14.000000,29.000000,8.000000,-5.000000,-11.000000
1296745.443847,-3.000000,-1.000000,-12.000000,-16.000000,-50.000000,-6.000000,0.000000,-13.000000
1296745.481061,1.000000,4.000000,6.000000,16.000000,52.000000,3.000000,-3.000000,-3.000000
1296745.481105,10.000000,17.000000,15.000000,-11.000000,-24.000000,-1.000000,-1.000000,14.000000
1296745.511175,4.000000,2.000000,-10.000000,-40.000000,-6.000000,-6.000000,-2.000000,-6.000000
1296745.511505,-4.000000,26.000000,3.000000,-14.000000,18.000000,3.000000,1.000000,-17.000000
1296745.513204,-8.000000,-27.000000,9.000000,-16.000000,-19.000000,-2.000000,2.000000,-82.000000
1296745.513511,-1.000000,45.000000,-32.000000,-30.000000,-26.000000,-4.000000,6.000000,72.000000
1296745.514418,20.000000,-45.000000,41.000000,28.000000,32.000000,7.000000,-11.000000,32.000000
1296745.514465,-16.000000,-42.000000,-12.000000,-15.000000,-11.000000,-12.000000,-10.000000,-7.000000
1296745.516501,-1.000000,12.000000,9.000000,-11.000000,-7.000000,-2.000000,2.000000,0.000000
1296745.516537,-5.000000,-13.000000,-3.000000,15.000000,6.000000,-4.000000,-3.000000,-2.000000
1296745.518595,-6.000000,-1.000000,45.000000,-12.000000,-32.000000,6.000000,1.000000,0.000000
1296745.518617,-2.000000,-1.000000,-6.000000,65.000000,17.000000,1.000000,0.000000,2.000000
1296745.548700,18.000000,-1.000000,10.000000,-10.000000,3.000000,-3.000000,-3.000000,2.000000
1296745.548724,-17.000000,-9.000000,0.000000,-9.000000,3.000000,-3.000000,2.000000,11.000000
1296745.556263,-12.000000,-23.000000,-34.000000,-12.000000,2.000000,-4.000000,-15.000000,-2.000000
1296745.556285,1.000000,10.000000,0.000000,-2.000000,0.000000,3.000000,3.000000,-12.000000
1296745.571222,3.000000,37.000000,22.000000,4.000000,-37.000000,-3.000000,10.000000,-85.000000
1296745.571258,21.000000,6.000000,-14.000000,58.000000,40.000000,16.000000,1.000000,120.000000
1296745.578704,22.000000,-32.000000,-2.000000,58.000000,127.000000,15.000000,-5.000000,5.000000
1296745.578861,-25.000000,21.000000,18.000000,-16.000000,-32.000000,-12.000000,-2.000000,-25.000000
1296745.601433,4.000000,2.000000,-16.000000,-15.000000,-18.000000,-1.000000,-2.000000,-6.000000
1296745.601456,-4.000000,6.000000,-9.000000,8.000000,-18.000000,1.000000,18.000000,73.000000
1296745.623551,22.000000,-23.000000,-15.000000,-21.000000,6.000000,1.000000,-6.000000,-18.000000
1296745.623572,-20.000000,-45.000000,19.000000,-29.000000,-10.000000,-3.000000,-13.000000,-22.000000
1296745.632693,4.000000,22.000000,-10.000000,16.000000,22.000000,4.000000,5.000000,22.000000
1296745.633000,4.000000,10.000000,24.000000,-2.000000,-17.000000,0.000000,2.000000,3.000000
1296745.633479,9.000000,-2.000000,-12.000000,30.000000,23.000000,4.000000,0.000000,-8.000000
1296745.633496,-16.000000,-32.000000,3.000000,-44.000000,-29.000000,-5.000000,-1.000000,0.000000
1296745.634088,20.000000,15.000000,7.000000,90.000000,46.000000,17.000000,0.000000,110.000000
1296745.634106,11.000000,28.000000,18.000000,-25.000000,-27.000000,-13.000000,-6.000000,-34.000000
1296745.634707,-3.000000,-11.000000,2.000000,-2.000000,-7.000000,-4.000000,3.000000,-16.000000
1296745.634727,-9.000000,31.000000,5.000000,-53.000000,-1.000000,-1.000000,2.000000,2.000000
1296745.635244,-10.000000,-35.000000,-8.000000,6.000000,-38.000000,-3.000000,8.000000,11.000000
1296745.635263,1.000000,10.000000,4.000000,6.000000,28.000000,3.000000,-4.000000,24.000000
1296745.638624,10.000000,4.000000,5.000000,16.000000,-12.000000,-11.000000,-6.000000,22.000000
1296745.638643,4.000000,9.000000,3.000000,-22.000000,-12.000000,-8.000000,-2.000000,7.000000
1296745.668712,-19.000000,-25.000000,-11.000000,8.000000,31.000000,7.000000,-6.000000,-9.000000
1296745.668736,-11.000000,26.000000,-1.000000,6.000000,-22.000000,-5.000000,1.000000,7.000000
1296745.676213,-15.000000,-17.000000,-6.000000,3.000000,-23.000000,4.000000,5.000000,12.000000
1296745.676234,36.000000,12.000000,-43.000000,-80.000000,12.000000,-12.000000,-9.000000,2.000000
1296745.698789,-24.000000,-3.000000,2.000000,-1.000000,-2.000000,-2.000000,-4.000000,-17.000000
1296745.698816,1.000000,20.000000,9.000000,13.000000,-42.000000,-4.000000,5.000000,6.000000
1296745.713989,5.000000,-18.000000,-19.000000,65.000000,124.000000,17.000000,-4.000000,1.000000
1296745.714034,0.000000,-4.000000,-10.000000,-3.000000,-12.000000,-8.000000,-7.000000,-16.000000
1296745.721803,-8.000000,-20.000000,0.000000,-14.000000,-13.000000,-3.000000,-1.000000,-6.000000
1296745.722127,-3.000000,5.000000,-3.000000,19.000000,16.000000,6.000000,2.000000,-4.000000
1296745.722685,13.000000,3.000000,3.000000,48.000000,0.000000,-1.000000,0.000000,12.000000
1296745.722973,-13.000000,-9.000000,-6.000000,19.000000,7.000000,4.000000,-1.000000,-2.000000
1296745.724234,17.000000,19.000000,12.000000,-36.000000,-45.000000,-9.000000,-1.000000,-48.000000
1296745.724270,-5.000000,-22.000000,1.000000,63.000000,112.000000,11.000000,3.000000,25.000000
1296745.725007,-3.000000,5.000000,12.000000,-42.000000,-50.000000,-8.000000,0.000000,9.000000
1296745.725044,32.000000,26.000000,7.000000,17.000000,67.000000,8.000000,-2.000000,46.000000
1296745.736693,-20.000000,-10.000000,22.000000,16.000000,-43.000000,-15.000000,-1.000000,15.000000
1296745.736714,-10.000000,21.000000,2.000000,14.000000,28.000000,11.000000,-1.000000,-20.000000
1296745.751364,7.000000,-17.000000,6.000000,1.000000,-3.000000,-5.000000,-6.000000,17.000000
1296745.751635,3.000000,13.000000,-1.000000,-5.000000,0.000000,-2.000000,-9.000000,-25.000000
1296745.753025,3.000000,9.000000,14.000000,2.000000,1.000000,0.000000,8.000000,47.000000
1296745.753046,-2.000000,43.000000,1.000000,16.000000,-13.000000,-2.000000,28.000000,-59.000000
1296745.774058,-12.000000,-112.000000,-22.000000,16.000000,19.000000,7.000000,-19.000000,24.000000
1296745.774175,-20.000000,9.000000,17.000000,-15.000000,-10.000000,-6.000000,0.000000,-4.000000
1296745.796093,6.000000,22.000000,-24.000000,-10.000000,-7.000000,-3.000000,-3.000000,-4.000000
1296745.796221,5.000000,-16.000000,1.000000,5.000000,-19.000000,-2.000000,3.000000,4.000000
1296745.803682,4.000000,19.000000,4.000000,4.000000,-33.000000,-7.000000,-2.000000,-2.000000
1296745.803703,17.000000,2.000000,-7.000000,41.000000,96.000000,10.000000,6.000000,-2.000000
1296745.826325,-1.000000,3.000000,-3.000000,9.000000,-29.000000,2.000000,1.000000,-2.000000
1296745.826363,-2.000000,17.000000,34.000000,1.000000,16.000000,-3.000000,-3.000000,-25.000000
1296745.834015,9.000000,-31.000000,-20.000000,-24.000000,-92.000000,4.000000,2.000000,-8.000000
1296745.834352,12.000000,-17.000000,4.000000,12.000000,1.000000,-13.000000,-22.000000,20.000000
1296745.835686,-34.000000,-14.000000,9.000000,-13.000000,34.000000,-3.000000,2.000000,-21.000000
1296745.836211,6.000000,24.000000,7.000000,-4.000000,-23.000000,-1.000000,6.000000,-18.000000
1296745.837009,12.000000,17.000000,10.000000,-1.000000,-14.000000,1.000000,5.000000,4.000000
1296745.837028,-6.000000,2.000000,-15.000000,32.000000,24.000000,1.000000,-2.000000,7.000000
1296745.837479,7.000000,9.000000,3.000000,-37.000000,-22.000000,2.000000,1.000000,-25.000000
1296745.837499,-2.000000,-3.000000,-37.000000,-16.000000,-20.000000,1.000000,28.000000,-1.000000
1296745.841150,17.000000,39.000000,18.000000,6.000000,-18.000000,-1.000000,-26.000000,14.000000
1296745.841172,17.000000,-4.000000,3.000000,-4.000000,9.000000,3.000000,4.000000,-9.000000
1296745.872747,-16.000000,-73.000000,-10.000000,-4.000000,-7.000000,-2.000000,5.000000,-4.000000
1296745.872797,-5.000000,12.000000,1.000000,4.000000,-6.000000,0.000000,-2.000000,12.000000
1296745.873495,8.000000,32.000000,6.000000,-15.000000,-3.000000,0.000000,-2.000000,-12.000000
1296745.873538,17.000000,-11.000000,-9.000000,3.000000,7.000000,1.000000,0.000000,4.000000
1296745.874604,-9.000000,-13.000000,-5.000000,-1.000000,-15.000000,-6.000000,-6.000000,-15.000000
1296745.874647,-7.000000,-3.000000,-3.000000,15.000000,8.000000,3.000000,-1.000000,3.000000
1296745.886457,6.000000,6.000000,3.000000,-43.000000,-6.000000,2.000000,2.000000,-55.000000
1296745.886503,4.000000,-5.000000,-4.000000,58.000000,38.000000,13.000000,3.000000,19.000000
1296745.916449,2.000000,31.000000,27.000000,-9.000000,-35.000000,-13.000000,-4.000000,-30.000000
1296745.916477,4.000000,-26.000000,-23.000000,-14.000000,10.000000,0.000000,-7.000000,37.000000
1296745.923937,-17.000000,-18.000000,3.000000,-20.000000,-10.000000,-10.000000,-10.000000,5.000000
1296745.923960,-8.000000,10.000000,32.000000,1.000000,-10.000000,-1.000000,3.000000,35.000000
1296745.946957,3.000000,7.000000,19.000000,16.000000,11.000000,7.000000,2.000000,-60.000000
1296745.946999,-5.000000,21.000000,-9.000000,-13.000000,-23.000000,-11.000000,-11.000000,20.000000
1296745.947932,-12.000000,-45.000000,-8.000000,-36.000000,-8.000000,-8.000000,-1.000000,7.000000
1296745.948172,12.000000,8.000000,-3.000000,-7.000000,-20.000000,1.000000,2.000000,-4.000000
1296745.949718,-15.000000,15.000000,-8.000000,2.000000,-15.000000,0.000000,2.000000,1.000000
1296745.949765,13.000000,5.000000,16.000000,8.000000,5.000000,4.000000,2.000000,9.000000
1296745.950110,-7.000000,8.000000,3.000000,-43.000000,-2.000000,-3.000000,5.000000,19.000000
1296745.950135,-2.000000,-7.000000,-9.000000,35.000000,24.000000,4.000000,-1.000000,-33.000000
1296745.954507,-1.000000,4.000000,33.000000,-7.000000,-11.000000,-7.000000,-6.000000,6.000000
1296745.954633,16.000000,93.000000,4.000000,11.000000,1.000000,7.000000,11.000000,-4.000000
1296745.961042,3.000000,-104.000000,-44.000000,-12.000000,-9.000000,-1.000000,-6.000000,32.000000
1296745.961062,-10.000000,3.000000,3.000000,-9.000000,-56.000000,-11.000000,-17.000000,-12.000000
1296745.992101,7.000000,26.000000,15.000000,27.000000,50.000000,10.000000,6.000000,-15.000000
1296745.992304,7.000000,9.000000,4.000000,29.000000,-11.000000,-6.000000,-4.000000,10.000000
1296745.992742,9.000000,25.000000,16.000000,-104.000000,-47.000000,6.000000,5.000000,29.000000
1296745.992797,14.000000,-13.000000,7.000000,-17.000000,-45.000000,0.000000,2.000000,-3.000000
1296745.994405,-11.000000,-5.000000,-25.000000,-12.000000,-27.000000,-11.000000,-6.000000,-11.000000
1296745.994455,1.000000,8.000000,33.000000,6.000000,58.000000,3.000000,0.000000,-8.000000
1296746.013927,-12.000000,-22.000000,3.000000,3.000000,-4.000000,-3.000000,1.000000,-5.000000
1296746.013950,13.000000,34.000000,-15.000000,8.000000,-3.000000,3.000000,1.000000,19.000000
1296746.036538,-14.000000,-20.000000,5.000000,-12.000000,-35.000000,-5.000000,5.000000,20.000000
1296746.036575,20.000000,14.000000,4.000000,20.000000,20.000000,4.000000,-5.000000,26.000000
1296746.043649,-39.000000,-32.000000,11.000000,6.000000,4.000000,0.000000,1.000000,-2.000000
1296746.043783,8.000000,7.000000,-54.000000,-11.000000,3.000000,-4.000000,-4.000000,-7.000000
1296746.073467,4.000000,7.000000,12.000000,-6.000000,-14.000000,0.000000,3.000000,6.000000
1296746.073490,-3.000000,18.000000,2.000000,17.000000,13.000000,1.000000,1.000000,12.000000
1296746.081299,-8.000000,7.000000,6.000000,10.000000,11.000000,5.000000,2.000000,1.000000
1296746.081341,7.000000,9.000000,6.000000,10.000000,-8.000000,0.000000,0.000000,-2.000000
1296746.111193,20.000000,29.000000,-3.000000,-19.000000,-18.000000,-1.000000,-1.000000,-3.000000
1296746.111215,-6.000000,-18.000000,-2.000000,-65.000000,-63.000000,3.000000,3.000000,-56.000000
1296746.119140,13.000000,-5.000000,20.000000,40.000000,57.000000,13.000000,1.000000,33.000000
1296746.119164,-17.000000,-5.000000,-14.000000,-31.000000,-20.000000,-12.000000,-14.000000,-13.000000
1296746.148726,-10.000000,13.000000,-15.000000,10.000000,-54.000000,-1.000000,0.000000,41.000000
1296746.148765,24.000000,22.000000,6.000000,0.000000,-40.000000,2.000000,1.000000,42.000000
1296746.178894,-3.000000,17.000000,1.000000,-9.000000,25.000000,-4.000000,-8.000000,4.000000
1296746.178935,4.000000,-19.000000,-6.000000,-16.000000,-9.000000,-8.000000,-11.000000,-15.000000
1296746.186070,0.000000,-25.000000,-18.000000,-12.000000,4.000000,-5.000000,-10.000000,-3.000000
1296746.186108,-5.000000,8.000000,3.000000,3.000000,1.000000,-2.000000,2.000000,-9.000000
1296746.194407,-6.000000,9.000000,-3.000000,-27.000000,-7.000000,-2.000000,3.000000,22.000000
1296746.194433,0.000000,24.000000,-1.000000,28.000000,-32.000000,0.000000,-2.000000,23.000000
1296746.194988,2.000000,-16.000000,-10.000000,40.000000,3.000000,30.000000,7.000000,-21.000000
1296746.195012,-3.000000,13.000000,12.000000,-17.000000,-33.000000,-11.000000,-3.000000,-7.000000
1296746.195817,-5.000000,12.000000,0.000000,-11.000000,-12.000000,-12.000000,-7.000000,-7.000000
1296746.195837,4.000000,0.000000,17.000000,-14.000000,-2.000000,2.000000,-1.000000,-1.000000
1296746.196523,0.000000,4.000000,-14.000000,0.000000,-3.000000,-5.000000,7.000000,43.000000
1296746.196545,2.000000,0.000000,21.000000,36.000000,33.000000,2.000000,-5.000000,-22.000000
1296746.197153,-14.000000,-5.000000,-20.000000,6.000000,26.000000,9.000000,5.000000,-4.000000
1296746.197173,13.000000,-50.000000,11.000000,-2.000000,-47.000000,-2.000000,0.000000,68.000000
1296746.201364,-16.000000,7.000000,-4.000000,-28.000000,-7.000000,-5.000000,-9.000000,6.000000
1296746.201404,-5.000000,9.000000,-4.000000,-1.000000,3.000000,-2.000000,2.000000,-21.000000
1296746.223807,8.000000,22.000000,6.000000,6.000000,-1.000000,3.000000,2.000000,-8.000000
1296746.223829,-29.000000,-64.000000,-24.000000,-2.000000,-1.000000,-7.000000,2.000000,2.000000
1296746.224619,0.000000,20.000000,-2.000000,-5.000000,-10.000000,-1.000000,-13.000000,-52.000000
1296746.224645,2.000000,-2.000000,4.000000,-4.000000,2.000000,-1.000000,0.000000,-1.000000
1296746.231500,10.000000,14.000000,8.000000,-8.000000,3.000000,-4.000000,0.000000,5.000000
1296746.231524,5.000000,13.000000,2.000000,14.000000,-42.000000,-1.000000,-4.000000,17.000000
1296746.276263,-8.000000,-53.000000,-9.000000,24.000000,29.000000,4.000000,2.000000,4.000000
1296746.276287,-20.000000,3.000000,-10.000000,9.000000,-35.000000,-6.000000,-9.000000,-19.000000
1296746.313871,3.000000,26.000000,26.000000,-25.000000,-10.000000,0.000000,-1.000000,12.000000
1296746.313922,10.000000,3.000000,4.000000,-10.000000,-20.000000,-1.000000,3.000000,-24.000000
1296746.314743,3.000000,53.000000,-4.000000,22.000000,8.000000,8.000000,-3.000000,-2.000000
1296746.314777,-9.000000,-70.000000,-31.000000,-8.000000,-22.000000,-5.000000,2.000000,-27.000000
1296746.315986,-12.000000,18.000000,18.000000,14.000000,102.000000,8.000000,0.000000,6.000000
1296746.316002,10.000000,-1.000000,13.000000,-14.000000,-15.000000,-6.000000,-9.000000,23.000000
1296746.316774,0.000000,10.000000,-17.000000,-11.000000,-15.000000,-1.000000,-2.000000,-14.000000
1296746.316792,-8.000000,-1.000000,-10.000000,-2.000000,-8.000000,2.000000,6.000000,18.000000
1296746.316972,2.000000,20.000000,7.000000,9.000000,-15.000000,2.000000,7.000000,-21.000000
1296746.316984,6.000000,25.000000,-3.000000,6.000000,-3.000000,4.000000,6.000000,13.000000
1296746.321420,3.000000,13.000000,-15.000000,-51.000000,-35.000000,-8.000000,-2.000000,-24.000000
1296746.321442,3.000000,35.000000,19.000000,115.000000,63.000000,19.000000,14.000000,54.000000
1296746.343669,13.000000,-42.000000,-7.000000,-21.000000,-14.000000,-11.000000,-9.000000,-5.000000
1296746.343710,-2.000000,20.000000,-1.000000,-11.000000,-8.000000,-4.000000,-2.000000,-7.000000
1296746.344584,-6.000000,-13.000000,0.000000,3.000000,-20.000000,2.000000,6.000000,-58.000000
1296746.344630,-3.000000,-10.000000,5.000000,-6.000000,15.000000,3.000000,-17.000000,37.000000
1296746.351683,-3.000000,0.000000,0.000000,1.000000,-18.000000,-5.000000,-1.000000,-1.000000
1296746.351723,-5.000000,16.000000,-15.000000,-1.000000,51.000000,4.000000,2.000000,-31.000000
1296746.381600,-5.000000,-7.000000,14.000000,17.000000,-3.000000,0.000000,-2.000000,13.000000
1296746.381780,-4.000000,-14.000000,-3.000000,-21.000000,-30.000000,-1.000000,4.000000,4.000000
1296746.396374,-12.000000,-16.000000,4.000000,39.000000,15.000000,-15.000000,-10.000000,-9.000000
1296746.396397,-3.000000,9.000000,-5.000000,41.000000,12.000000,14.000000,7.000000,9.000000
1296746.418896,6.000000,5.000000,-3.000000,-8.000000,-25.000000,-3.000000,0.000000,3.000000
1296746.418931,-5.000000,30.000000,-12.000000,3.000000,-34.000000,-6.000000,-3.000000,-19.000000
1296746.433738,-12.000000,-52.000000,12.000000,32.000000,49.000000,11.000000,2.000000,32.000000
1296746.433778,30.000000,35.000000,-18.000000,-15.000000,-4.000000,-9.000000,-10.000000,7.000000
1296746.441311,2.000000,24.000000,-4.000000,-14.000000,-1.000000,-2.000000,0.000000,-10.000000
1296746.441334,-2.000000,-19.000000,-29.000000,7.000000,-8.000000,1.000000,5.000000,-21.000000
1296746.464812,-20.000000,12.000000,-25.000000,7.000000,-5.000000,-2.000000,4.000000,-34.000000
1296746.464841,-12.000000,-47.000000,11.000000,17.000000,25.000000,2.000000,-8.000000,15.000000
1296746.466391,-7.000000,12.000000,-1.000000,-8.000000,-9.000000,-10.000000,-8.000000,-9.000000
1296746.466788,5.000000,20.000000,-3.000000,-5.000000,22.000000,-1.000000,-1.000000,-12.000000
1296746.467065,1.000000,7.000000,-6.000000,-18.000000,-22.000000,-3.000000,3.000000,24.000000
1296746.467109,6.000000,36.000000,37.000000,53.000000,18.000000,7.000000,8.000000,-3.000000
1296746.467896,-5.000000,-34.000000,-10.000000,-7.000000,-17.000000,-6.000000,-7.000000,-33.000000
1296746.467938,-24.000000,-27.000000,-10.000000,-12.000000,-11.000000,-9.000000,2.000000,24.000000
1296746.468339,2.000000,15.000000,0.000000,3.000000,-1.000000,-2.000000,-9.000000,-27.000000
1296746.468356,-7.000000,-5.000000,-7.000000,-6.000000,0.000000,1.000000,3.000000,-26.000000
1296746.471219,-6.000000,-44.000000,-35.000000,-8.000000,6.000000,-8.000000,-13.000000,-3.000000
1296746.471242,-8.000000,-1.000000,-7.000000,-35.000000,-32.000000,3.000000,7.000000,-4.000000
1296746.501477,-3.000000,20.000000,28.000000,-40.000000,-19.000000,-3.000000,0.000000,-1.000000
1296746.501512,-1.000000,-6.000000,-34.000000,2.000000,-12.000000,7.000000,4.000000,-4.000000
1296746.515975,1.000000,-5.000000,-4.000000,0.000000,-3.000000,-8.000000,-2.000000,-29.000000
1296746.516007,-10.000000,-9.000000,6.000000,1.000000,2.000000,-4.000000,-3.000000,12.000000
1296746.576477,-2.000000,-29.000000,2.000000,-14.000000,-55.000000,12.000000,7.000000,-70.000000
1296746.576524,23.000000,5.000000,1.000000,20.000000,48.000000,0.000000,-8.000000,93.000000
1296746.583355,-23.000000,-1.000000,3.000000,-34.000000,-18.000000,-14.000000,-19.000000,-40.000000
1296746.583374,8.000000,-5.000000,2.000000,-21.000000,-12.000000,-1.000000,4.000000,-38.000000
1296746.584656,-1.000000,9.000000,-16.000000,7.000000,-8.000000,0.000000,1.000000,-16.000000
1296746.584695,16.000000,18.000000,3.000000,3.000000,-21.000000,-2.000000,10.000000,48.000000
1296746.585271,8.000000,-40.000000,7.000000,9.000000,21.000000,3.000000,2.000000,-11.000000
1296746.585297,-7.000000,-4.000000,-23.000000,-12.000000,-1.000000,-4.000000,-7.000000,-13.000000
1296746.621207,1.000000,6.000000,-9.000000,-12.000000,-6.000000,-1.000000,0.000000,-9.000000
1296746.621230,-2.000000,0.000000,2.000000,0.000000,-20.000000,2.000000,4.000000,10.000000
1296746.636702,-3.000000,-3.000000,0.000000,69.000000,35.000000,5.000000,4.000000,-7.000000
1296746.636730,7.000000,19.000000,12.000000,4.000000,1.000000,0.000000,-4.000000,-11.000000
1296746.659148,13.000000,7.000000,-39.000000,43.000000,16.000000,5.000000,1.000000,18.000000
1296746.659174,-11.000000,-64.000000,-7.000000,-9.000000,2.000000,-2.000000,1.000000,-1.000000
1296746.675493,-4.000000,10.000000,8.000000,11.000000,-13.000000,-5.000000,-4.000000,-9.000000
1296746.675773,-4.000000,5.000000,-3.000000,1.000000,-8.000000,-2.000000,9.000000,-5.000000
1296746.676285,2.000000,6.000000,-3.000000,2.000000,2.000000,1.000000,-9.000000,16.000000
1296746.676336,-16.000000,-35.000000,-2.000000,-29.000000,-22.000000,-13.000000,-18.000000,-85.000000
1296746.677432,6.000000,9.000000,15.000000,-14.000000,8.000000,5.000000,5.000000,64.000000
1296746.677456,-7.000000,5.000000,0.000000,74.000000,54.000000,2.000000,-10.000000,-51.000000
1296746.704088,2.000000,-12.000000,-3.000000,-4.000000,-10.000000,-1.000000,-3.000000,-7.000000
1296746.704116,3.000000,-2.000000,0.000000,1.000000,-6.000000,-2.000000,2.000000,4.000000
1296746.711510,-21.000000,-62.000000,-4.000000,2.000000,-29.000000,1.000000,3.000000,-23.000000
1296746.711533,9.000000,45.000000,4.000000,60.000000,73.000000,6.000000,-4.000000,42.000000
1296746.749162,11.000000,-26.000000,3.000000,-7.000000,84.000000,1.000000,-5.000000,-4.000000
1296746.749190,-14.000000,2.000000,-17.000000,3.000000,-9.000000,-3.000000,-5.000000,-13.000000
1296746.756850,-3.000000,6.000000,0.000000,-11.000000,-24.000000,-2.000000,4.000000,-4.000000
1296746.757014,6.000000,1.000000,1.000000,-2.000000,-23.000000,-1.000000,-1.000000,-7.000000
1296746.786439,-7.000000,2.000000,22.000000,20.000000,12.000000,-1.000000,4.000000,-5.000000
1296746.786465,-3.000000,6.000000,-8.000000,7.000000,-6.000000,0.000000,1.000000,-15.000000
1296746.794035,9.000000,-7.000000,18.000000,-3.000000,-36.000000,4.000000,-4.000000,30.000000
1296746.794095,5.000000,32.000000,12.000000,-17.000000,-9.000000,-2.000000,5.000000,32.000000
1296746.824214,-9.000000,0.000000,15.000000,-12.000000,2.000000,-4.000000,-1.000000,-18.000000
1296746.824240,3.000000,20.000000,-1.000000,-3.000000,-17.000000,1.000000,7.000000,-8.000000
1296746.846732,-9.000000,1.000000,10.000000,-7.000000,7.000000,1.000000,-10.000000,-14.000000
1296746.846771,8.000000,15.000000,10.000000,3.000000,-22.000000,2.000000,-2.000000,-3.000000
1296746.877119,0.000000,-8.000000,4.000000,11.000000,5.000000,3.000000,-3.000000,51.000000
1296746.877149,-7.000000,-14.000000,-6.000000,-2.000000,8.000000,-6.000000,-4.000000,-15.000000
1296746.884699,-8.000000,10.000000,-10.000000,-11.000000,26.000000,4.000000,-1.000000,-20.000000
1296746.884748,6.000000,15.000000,9.000000,3.000000,-13.000000,-4.000000,-2.000000,22.000000
1296746.891667,0.000000,7.000000,-3.000000,12.000000,-13.000000,0.000000,1.000000,-9.000000
1296746.891696,9.000000,18.000000,0.000000,-1.000000,-14.000000,-1.000000,-7.000000,3.000000
1296746.901430,5.000000,15.000000,-30.000000,1.000000,-17.000000,-2.000000,1.000000,-28.000000
1296746.901495,-3.000000,8.000000,20.000000,37.000000,-11.000000,1.000000,4.000000,-34.000000
1296746.903113,-3.000000,24.000000,-6.000000,-23.000000,-30.000000,4.000000,6.000000,22.000000
1296746.903150,5.000000,15.000000,9.000000,15.000000,37.000000,6.000000,-10.000000,-16.000000
1296746.908161,3.000000,-4.000000,-26.000000,12.000000,12.000000,0.000000,3.000000,-6.000000
1296746.908296,-2.000000,3.000000,-3.000000,-2.000000,-10.000000,1.000000,1.000000,-5.000000
1296746.913965,-4.000000,-8.000000,-26.000000,-63.000000,-24.000000,-3.000000,1.000000,8.000000
1296746.914007,8.000000,30.000000,41.000000,32.000000,-1.000000,4.000000,-2.000000,-62.000000
1296746.937840,2.000000,-42.000000,-28.000000,-100.000000,-88.000000,0.000000,-3.000000,53.000000
1296746.937904,-22.000000,4.000000,0.000000,-16.000000,-15.000000,-9.000000,-6.000000,-21.000000
1296746.938507,4.000000,14.000000,6.000000,-6.000000,-5.000000,-2.000000,1.000000,1.000000
1296746.938551,-1.000000,2.000000,-26.000000,9.000000,-1.000000,1.000000,4.000000,0.000000
1296746.951745,-8.000000,8.000000,11.000000,-9.000000,-4.000000,0.000000,3.000000,-37.000000
1296746.951776,2.000000,21.000000,8.000000,-8.000000,-27.000000,-2.000000,5.000000,38.000000
1296746.966998,10.000000,-13.000000,1.000000,20.000000,41.000000,-2.000000,-9.000000,38.000000
1296746.967195,-9.000000,-16.000000,-3.000000,7.000000,18.000000,-6.000000,-6.000000,-24.000000
1296746.989353,-4.000000,15.000000,7.000000,-23.000000,3.000000,1.000000,0.000000,-10.000000
1296746.989383,-7.000000,-2.000000,-14.000000,-3.000000,-20.000000,-1.000000,2.000000,40.000000
1296747.012285,-7.000000,-5.000000,0.000000,-6.000000,-2.000000,-1.000000,4.000000,-53.000000
1296747.012352,-1.000000,4.000000,9.000000,-6.000000,-2.000000,2.000000,-3.000000,-72.000000
1296747.020426,5.000000,-5.000000,1.000000,-1.000000,-13.000000,-1.000000,4.000000,75.000000
1296747.020486,7.000000,14.000000,9.000000,-31.000000,0.000000,-6.000000,-5.000000,-11.000000
1296747.021640,1.000000,-30.000000,-31.000000,48.000000,-46.000000,7.000000,-1.000000,4.000000
1296747.021695,1.000000,-3.000000,-10.000000,18.000000,26.000000,1.000000,1.000000,3.000000
1296747.022631,-4.000000,9.000000,11.000000,-2.000000,-15.000000,-1.000000,0.000000,-8.000000
1296747.022654,-3.000000,7.000000,4.000000,-1.000000,3.000000,-2.000000,3.000000,-3.000000
1296747.022793,11.000000,11.000000,-11.000000,4.000000,-3.000000,6.000000,5.000000,3.000000
1296747.022831,-10.000000,-24.000000,-12.000000,3.000000,-26.000000,-5.000000,-3.000000,-5.000000
1296747.028166,-1.000000,-20.000000,-1.000000,8.000000,14.000000,4.000000,2.000000,-2.000000
1296747.028230,-4.000000,-12.000000,11.000000,1.000000,-18.000000,-11.000000,1.000000,28.000000
1296747.034320,5.000000,23.000000,-19.000000,19.000000,18.000000,7.000000,-2.000000,-15.000000
1296747.034377,4.000000,19.000000,10.000000,-9.000000,-10.000000,-4.000000,-8.000000,1.000000
1296747.056520,13.000000,35.000000,-3.000000,-15.000000,-14.000000,-4.000000,2.000000,45.000000
1296747.056559,15.000000,-32.000000,-26.000000,-3.000000,27.000000,-1.000000,1.000000,-37.000000
1296747.057847,-15.000000,-5.000000,12.000000,-2.000000,-2.000000,-1.000000,-3.000000,31.000000
1296747.057874,2.000000,7.000000,-4.000000,1.000000,-5.000000,4.000000,6.000000,-10.000000
1296747.071717,-17.000000,0.000000,-3.000000,-12.000000,-5.000000,4.000000,7.000000,-60.000000
1296747.071772,14.000000,15.000000,20.000000,-38.000000,-37.000000,-1.000000,-1.000000,43.000000
1296747.086785,10.000000,3.000000,-4.000000,-20.000000,-3.000000,-15.000000,-29.000000,-17.000000
1296747.086813,-3.000000,-6.000000,3.000000,11.000000,28.000000,8.000000,6.000000,-23.000000
1296747.109294,10.000000,-9.000000,-27.000000,-12.000000,-27.000000,-1.000000,5.000000,-5.000000
1296747.109338,-11.000000,11.000000,11.000000,45.000000,23.000000,8.000000,6.000000,-5.000000
1296747.124051,8.000000,-28.000000,-6.000000,59.000000,46.000000,9.000000,4.000000,9.000000
1296747.124086,-9.000000,-11.000000,10.000000,-14.000000,-27.000000,-10.000000,-5.000000,-5.000000
1296747.140715,-2.000000,1.000000,-8.000000,-13.000000,-6.000000,-3.000000,-6.000000,-3.000000
1296747.140827,7.000000,31.000000,0.000000,-2.000000,-10.000000,-6.000000,2.000000,1.000000
1296747.141159,-24.000000,-41.000000,12.000000,-22.000000,-14.000000,-3.000000,-3.000000,-7.000000
1296747.141779,9.000000,10.000000,12.000000,11.000000,12.000000,-3.000000,0.000000,1.000000
1296747.142752,-7.000000,-3.000000,-50.000000,-12.000000,-27.000000,1.000000,1.000000,-21.000000
1296747.142772,22.000000,-4.000000,12.000000,23.000000,48.000000,8.000000,9.000000,72.000000
1296747.142864,-5.000000,-11.000000,-1.000000,0.000000,19.000000,-3.000000,-16.000000,-39.000000
1296747.142875,-28.000000,21.000000,-23.000000,-37.000000,-32.000000,3.000000,-3.000000,2.000000
1296747.147520,10.000000,-19.000000,6.000000,-38.000000,-43.000000,-10.000000,-9.000000,0.000000
1296747.147545,15.000000,18.000000,4.000000,51.000000,54.000000,7.000000,7.000000,7.000000
1296747.154099,-4.000000,13.000000,-1.000000,-23.000000,-36.000000,-6.000000,1.000000,0.000000
1296747.154151,-2.000000,-20.000000,-6.000000,8.000000,-6.000000,2.000000,4.000000,0.000000
1296747.184346,-5.000000,5.000000,6.000000,-6.000000,-5.000000,-4.000000,2.000000,3.000000
1296747.184372,5.000000,9.000000,-42.000000,-4.000000,-4.000000,-5.000000,-10.000000,-1.000000
1296747.191658,1.000000,1.000000,29.000000,15.000000,18.000000,7.000000,1.000000,1.000000
1296747.191683,-4.000000,-4.000000,-7.000000,-7.000000,-3.000000,-1.000000,-3.000000,-16.000000
1296747.214328,0.000000,-7.000000,18.000000,-61.000000,-37.000000,-7.000000,-3.000000,-2.000000
1296747.214475,1.000000,-1.000000,15.000000,64.000000,103.000000,20.000000,6.000000,6.000000
1296747.228810,-1.000000,0.000000,1.000000,-1.000000,-19.000000,-12.000000,-6.000000,-3.000000
1296747.228837,-4.000000,22.000000,-10.000000,-10.000000,-10.000000,-1.000000,-4.000000,-6.000000
1296747.252689,-9.000000,-20.000000,-17.000000,-31.000000,-30.000000,-2.000000,-1.000000,-5.000000
1296747.252793,5.000000,25.000000,3.000000,14.000000,-12.000000,-7.000000,1.000000,17.000000
1296747.253382,2.000000,-5.000000,3.000000,-17.000000,-7.000000,2.000000,4.000000,-36.000000
1296747.253810,-9.000000,-46.000000,8.000000,-2.000000,-4.000000,-1.000000,-10.000000,-50.000000
1296747.255209,-3.000000,21.000000,-7.000000,-22.000000,13.000000,-3.000000,-13.000000,11.000000
1296747.255349,8.000000,37.000000,27.000000,10.000000,-12.000000,-3.000000,6.000000,-3.000000
1296747.256348,-7.000000,-10.000000,-50.000000,-17.000000,-17.000000,-5.000000,-11.000000,-9.000000
1296747.256397,1.000000,14.000000,-38.000000,0.000000,1.000000,3.000000,6.000000,-1.000000
1296747.260274,-9.000000,-19.000000,0.000000,7.000000,-1.000000,-2.000000,-5.000000,-14.000000
1296747.260323,-8.000000,-31.000000,3.000000,11.000000,-50.000000,-10.000000,5.000000,7.000000
1296747.261091,7.000000,17.000000,-6.000000,-50.000000,26.000000,3.000000,-4.000000,8.000000
1296747.261152,11.000000,8.000000,6.000000,9.000000,-26.000000,6.000000,2.000000,-2.000000
1296747.267814,3.000000,5.000000,3.000000,0.000000,-42.000000,-11.000000,-3.000000,-2.000000
1296747.267856,3.000000,5.000000,5.000000,-42.000000,23.000000,12.000000,2.000000,0.000000
1296747.273975,0.000000,4.000000,-5.000000,-24.000000,-24.000000,-5.000000,-3.000000,-1.000000
1296747.274013,-8.000000,28.000000,3.000000,-4.000000,-7.000000,0.000000,0.000000,-5.000000
1296747.297454,-9.000000,-65.000000,11.000000,6.000000,-10.000000,1.000000,10.000000,-23.000000
1296747.297505,10.000000,14.000000,-8.000000,-31.000000,-19.000000,-2.000000,-10.000000,-51.000000
1296747.304049,12.000000,-17.000000,6.000000,-18.000000,2.000000,-10.000000,-5.000000,61.000000
1296747.304103,-18.000000,-13.000000,0.000000,-7.000000,-6.000000,-2.000000,6.000000,29.000000
1296747.334834,-9.000000,6.000000,-2.000000,33.000000,2.000000,-1.000000,1.000000,33.000000
1296747.334890,-3.000000,-33.000000,8.000000,34.000000,2.000000,8.000000,2.000000,-56.000000
1296747.341587,40.000000,76.000000,2.000000,-1.000000,1.000000,1.000000,-3.000000,26.000000
1296747.341616,4.000000,-34.000000,20.000000,1.000000,-5.000000,-3.000000,-7.000000,10.000000
1296747.379225,-6.000000,-24.000000,-17.000000,-34.000000,-16.000000,4.000000,1.000000,-40.000000
1296747.379253,6.000000,6.000000,7.000000,25.000000,52.000000,-2.000000,1.000000,47.000000
1296747.386507,-3.000000,12.000000,-11.000000,-48.000000,-60.000000,-9.000000,-9.000000,-24.000000
1296747.386532,-1.000000,-20.000000,6.000000,27.000000,41.000000,13.000000,10.000000,11.000000
1296747.423881,0.000000,7.000000,3.000000,-24.000000,-9.000000,-8.000000,0.000000,-7.000000
1296747.423907,0.000000,-1.000000,-14.000000,-17.000000,-13.000000,-3.000000,2.000000,-6.000000
1296747.431704,2.000000,4.000000,-3.000000,8.000000,-7.000000,6.000000,1.000000,-2.000000
1296747.431732,1.000000,2.000000,0.000000,10.000000,18.000000,2.000000,0.000000,-4.000000
1296747.468904,0.000000,34.000000,-18.000000,38.000000,-51.000000,-15.000000,2.000000,-8.000000
1296747.468952,23.000000,-44.000000,-6.000000,110.000000,112.000000,38.000000,2.000000,56.000000
1296747.470029,-3.000000,21.000000,-14.000000,-19.000000,4.000000,-9.000000,-10.000000,-62.000000
1296747.470053,-1.000000,-18.000000,20.000000,-14.000000,-9.000000,4.000000,5.000000,41.000000
1296747.471229,8.000000,7.000000,15.000000,15.000000,12.000000,-8.000000,-7.000000,-7.000000
1296747.471277,-17.000000,-1.000000,1.000000,-4.000000,-33.000000,-6.000000,-4.000000,-50.000000
1296747.472588,6.000000,27.000000,9.000000,47.000000,40.000000,4.000000,0.000000,48.000000
1296747.472621,5.000000,-5.000000,-21.000000,-41.000000,-26.000000,-5.000000,4.000000,30.000000
1296747.491407,-2.000000,9.000000,10.000000,-21.000000,-8.000000,-1.000000,5.000000,0.000000
1296747.491510,5.000000,-5.000000,4.000000,24.000000,-28.000000,1.000000,-5.000000,11.000000
1296747.493013,5.000000,7.000000,8.000000,12.000000,32.000000,7.000000,5.000000,-29.000000
1296747.493037,15.000000,73.000000,33.000000,5.000000,-33.000000,-8.000000,9.000000,103.000000
1296747.498995,-23.000000,-128.000000,-10.000000,-23.000000,-64.000000,8.000000,-4.000000,-104.000000
1296747.499022,-16.000000,0.000000,6.000000,10.000000,22.000000,-7.000000,-18.000000,2.000000
1296747.507223,8.000000,34.000000,4.000000,-10.000000,-8.000000,-6.000000,4.000000,32.000000
1296747.507248,5.000000,-6.000000,-13.000000,-5.000000,-15.000000,0.000000,8.000000,-7.000000
1296747.536840,10.000000,18.000000,26.000000,-8.000000,-19.000000,-1.000000,-6.000000,-3.000000
1296747.536911,-2.000000,-18.000000,-10.000000,27.000000,18.000000,-1.000000,3.000000,-11.000000
1296747.551521,-2.000000,8.000000,6.000000,-5.000000,-13.000000,0.000000,3.000000,-3.000000
1296747.551546,-5.000000,-7.000000,5.000000,-31.000000,-21.000000,-2.000000,-6.000000,-4.000000
1296747.566782,0.000000,4.000000,0.000000,30.000000,4.000000,0.000000,-4.000000,-1.000000
1296747.566809,-4.000000,4.000000,3.000000,-14.000000,19.000000,2.000000,5.000000,0.000000
1296747.581241,-4.000000,-6.000000,-4.000000,3.000000,-12.000000,-2.000000,5.000000,0.000000
1296747.581266,-6.000000,-14.000000,-10.000000,-41.000000,-14.000000,1.000000,-3.000000,4.000000
1296747.589088,4.000000,-4.000000,18.000000,18.000000,-3.000000,1.000000,0.000000,8.000000
1296747.589111,12.000000,7.000000,-12.000000,-16.000000,5.000000,-7.000000,-1.000000,3.000000
1296747.614238,-4.000000,-18.000000,8.000000,-9.000000,-13.000000,1.000000,0.000000,-2.000000
1296747.614748,3.000000,19.000000,6.000000,6.000000,-7.000000,-3.000000,5.000000,4.000000
1296747.615246,-13.000000,-7.000000,5.000000,28.000000,74.000000,2.000000,-4.000000,-16.000000
1296747.615276,-11.000000,-9.000000,11.000000,-4.000000,-12.000000,0.000000,-3.000000,-5.000000
1296747.616081,12.000000,21.000000,10.000000,-12.000000,-9.000000,1.000000,3.000000,-49.000000
1296747.616102,-10.000000,-23.000000,20.000000,24.000000,9.000000,-3.000000,-9.000000,-42.000000
1296747.618833,13.000000,11.000000,-5.000000,-17.000000,14.000000,-13.000000,-6.000000,-3.000000
1296747.618865,-4.000000,-2.000000,4.000000,-6.000000,-17.000000,0.000000,-1.000000,-34.000000
1296747.620768,-2.000000,-71.000000,8.000000,33.000000,13.000000,3.000000,8.000000,13.000000
1296747.620793,-1.000000,7.000000,2.000000,-60.000000,-20.000000,-6.000000,-9.000000,-9.000000
1296747.627603,-2.000000,-4.000000,-33.000000,11.000000,24.000000,2.000000,1.000000,8.000000
1296747.627629,-6.000000,15.000000,6.000000,-1.000000,-12.000000,1.000000,2.000000,-23.000000
1296747.641972,13.000000,40.000000,0.000000,58.000000,16.000000,8.000000,2.000000,-76.000000
1296747.642001,15.000000,-44.000000,25.000000,-9.000000,10.000000,-1.000000,-6.000000,68.000000
1296747.671395,-2.000000,0.000000,-22.000000,-9.000000,-10.000000,-4.000000,5.000000,-22.000000
1296747.671428,-6.000000,21.000000,9.000000,-8.000000,-10.000000,6.000000,-6.000000,-21.000000
1296747.694187,-7.000000,3.000000,-3.000000,2.000000,-6.000000,-2.000000,11.000000,0.000000
1296747.694231,6.000000,0.000000,2.000000,-24.000000,-5.000000,0.000000,-10.000000,0.000000
1296747.709238,-8.000000,5.000000,-2.000000,-2.000000,-10.000000,-6.000000,3.000000,-15.000000
1296747.709265,20.000000,-10.000000,6.000000,46.000000,13.000000,8.000000,5.000000,5.000000
1296747.731968,-21.000000,-33.000000,-10.000000,33.000000,-3.000000,1.000000,-3.000000,5.000000
1296747.732019,-7.000000,15.000000,10.000000,-6.000000,-7.000000,-6.000000,-5.000000,-6.000000
1296747.746479,6.000000,14.000000,-24.000000,8.000000,56.000000,6.000000,3.000000,-3.000000
1296747.746520,4.000000,-8.000000,-1.000000,15.000000,5.000000,-3.000000,2.000000,2.000000
1296747.753851,7.000000,27.000000,20.000000,-18.000000,6.000000,-3.000000,-5.000000,18.000000
1296747.754008,-8.000000,-37.000000,0.000000,-7.000000,6.000000,2.000000,1.000000,-16.000000
1296747.769122,-4.000000,-4.000000,-7.000000,-3.000000,-2.000000,-9.000000,4.000000,70.000000
1296747.769202,-8.000000,15.000000,-6.000000,-6.000000,4.000000,11.000000,5.000000,-83.000000
1296747.776336,4.000000,10.000000,13.000000,-49.000000,-22.000000,-12.000000,-8.000000,54.000000
1296747.776498,29.000000,-3.000000,32.000000,65.000000,60.000000,5.000000,-7.000000,29.000000
1296747.814068,10.000000,26.000000,9.000000,7.000000,-11.000000,-5.000000,-6.000000,63.000000
1296747.814095,-15.000000,-43.000000,25.000000,-37.000000,-49.000000,-15.000000,-6.000000,-15.000000
1296747.829066,-7.000000,6.000000,7.000000,56.000000,11.000000,21.000000,5.000000,-20.000000
1296747.829091,4.000000,-11.000000,-5.000000,-4.000000,-28.000000,-19.000000,-7.000000,-4.000000
1296747.851650,7.000000,39.000000,13.000000,14.000000,-13.000000,1.000000,-4.000000,5.000000
1296747.851700,1.000000,-60.000000,-1.000000,-8.000000,-2.000000,-5.000000,-1.000000,1.000000
1296747.853011,-14.000000,13.000000,9.000000,4.000000,7.000000,3.000000,-7.000000,-11.000000
1296747.853037,3.000000,13.000000,-5.000000,-9.000000,3.000000,2.000000,3.000000,-19.000000
1296747.853669,-14.000000,-41.000000,-1.000000,-39.000000,11.000000,-7.000000,-6.000000,1.000000
1296747.853694,2.000000,32.000000,4.000000,52.000000,-26.000000,-2.000000,-8.000000,10.000000
1296747.854630,5.000000,-16.000000,7.000000,-27.000000,41.000000,0.000000,-3.000000,-14.000000
1296747.854652,4.000000,7.000000,-4.000000,42.000000,31.000000,2.000000,-2.000000,-14.000000
1296747.854939,0.000000,-5.000000,16.000000,-18.000000,-16.000000,-5.000000,1.000000,6.000000
1296747.854958,2.000000,12.000000,-29.000000,12.000000,-16.000000,-2.000000,7.000000,1.000000
1296747.855773,-9.000000,-52.000000,-8.000000,-8.000000,8.000000,2.000000,0.000000,2.000000
1296747.855794,0.000000,11.000000,13.000000,-1.000000,-19.000000,-3.000000,-6.000000,-2.000000
1296747.858848,14.000000,52.000000,-9.000000,4.000000,23.000000,2.000000,-1.000000,4.000000
1296747.858873,0.000000,-43.000000,31.000000,4.000000,2.000000,-8.000000,5.000000,7.000000
1296747.867333,-10.000000,-6.000000,-64.000000,4.000000,10.000000,-7.000000,-9.000000,-4.000000
1296747.867360,4.000000,15.000000,7.000000,45.000000,29.000000,1.000000,-5.000000,-3.000000
1296747.888896,1.000000,7.000000,-2.000000,-3.000000,-13.000000,-3.000000,0.000000,0.000000
1296747.888928,10.000000,10.000000,-6.000000,12.000000,-26.000000,-3.000000,4.000000,9.000000
1296747.919339,-7.000000,16.000000,4.000000,-6.000000,-34.000000,-9.000000,-9.000000,-3.000000
1296747.919368,6.000000,-40.000000,-14.000000,64.000000,78.000000,15.000000,2.000000,1.000000
1296747.934764,-16.000000,-3.000000,11.000000,3.000000,-3.000000,-4.000000,-2.000000,-1.000000
1296747.934808,0.000000,7.000000,-6.000000,-7.000000,-9.000000,2.000000,7.000000,-46.000000
1296747.964179,2.000000,-4.000000,-7.000000,21.000000,7.000000,-2.000000,-7.000000,24.000000
1296747.964280,1.000000,4.000000,-2.000000,4.000000,8.000000,-10.000000,-10.000000,5.000000
1296747.972139,10.000000,17.000000,6.000000,11.000000,-31.000000,6.000000,6.000000,19.000000
1296747.972624,4.000000,-9.000000,1.000000,19.000000,11.000000,0.000000,9.000000,17.000000
1296747.974340,-13.000000,-21.000000,-8.000000,6.000000,-1.000000,-2.000000,-6.000000,-10.000000
1296747.974362,-2.000000,12.000000,5.000000,-6.000000,-15.000000,-6.000000,-3.000000,-12.000000
1296747.974779,-7.000000,7.000000,-12.000000,19.000000,9.000000,10.000000,8.000000,-10.000000
1296747.974836,26.000000,7.000000,8.000000,-5.000000,-14.000000,-4.000000,-3.000000,52.000000
1296747.975107,0.000000,-7.000000,19.000000,-23.000000,3.000000,-10.000000,-12.000000,-64.000000
1296747.975164,-3.000000,3.000000,15.000000,-36.000000,11.000000,8.000000,6.000000,2.000000
1296747.979294,16.000000,21.000000,17.000000,28.000000,-11.000000,-6.000000,-7.000000,82.000000
1296747.979333,5.000000,-4.000000,-1.000000,47.000000,22.000000,5.000000,7.000000,-15.000000
1296747.986490,-12.000000,16.000000,-25.000000,-29.000000,-23.000000,0.000000,3.000000,-2.000000
1296747.986518,0.000000,-41.000000,-8.000000,-11.000000,-4.000000,-4.000000,-1.000000,-4.000000
1296748.008809,11.000000,23.000000,-1.000000,-8.000000,-10.000000,-5.000000,-4.000000,-43.000000
1296748.008835,2.000000,4.000000,8.000000,33.000000,20.000000,13.000000,6.000000,17.000000
1296748.016793,9.000000,-10.000000,-17.000000,3.000000,-17.000000,-3.000000,1.000000,25.000000
1296748.016820,-6.000000,-3.000000,-5.000000,-9.000000,11.000000,0.000000,-4.000000,-2.000000
1296748.031922,-11.000000,-2.000000,-23.000000,9.000000,-28.000000,-11.000000,-7.000000,18.000000
1296748.031951,9.000000,4.000000,15.000000,43.000000,8.000000,9.000000,10.000000,-16.000000
1296748.047466,-2.000000,-7.000000,-17.000000,-6.000000,13.000000,0.000000,9.000000,-21.000000
1296748.047497,0.000000,10.000000,7.000000,-19.000000,-13.000000,-6.000000,-25.000000,-22.000000
1296748.061331,-2.000000,-27.000000,13.000000,-5.000000,4.000000,-3.000000,0.000000,-28.000000
1296748.061358,0.000000,46.000000,-56.000000,10.000000,4.000000,-1.000000,0.000000,12.000000
1296748.069002,1.000000,-19.000000,-8.000000,54.000000,-9.000000,-4.000000,-13.000000,14.000000
1296748.069027,-14.000000,-16.000000,13.000000,-8.000000,13.000000,-1.000000,1.000000,8.000000
1296748.093497,1.000000,6.000000,4.000000,3.000000,4.000000,3.000000,6.000000,4.000000
1296748.093560,4.000000,40.000000,-6.000000,-46.000000,-21.000000,-8.000000,-5.000000,2.000000
1296748.094251,-16.000000,-42.000000,8.000000,-18.000000,41.000000,3.000000,1.000000,-44.000000
1296748.094276,11.000000,19.000000,-18.000000,19.000000,27.000000,4.000000,-2.000000,13.000000
1296748.095767,-3.000000,1.000000,-13.000000,1.000000,-3.000000,-6.000000,1.000000,0.000000
1296748.095811,0.000000,8.000000,24.000000,-15.000000,-19.000000,2.000000,-4.000000,-3.000000
1296748.096024,-2.000000,-8.000000,4.000000,-8.000000,-6.000000,1.000000,1.000000,1.000000
1296748.096061,-1.000000,-3.000000,5.000000,0.000000,-15.000000,-3.000000,1.000000,-2.000000
1296748.098756,-4.000000,-7.000000,8.000000,3.000000,13.000000,8.000000,4.000000,1.000000
1296748.098794,8.000000,10.000000,0.000000,-6.000000,-3.000000,-6.000000,-2.000000,2.000000
1296748.107151,3.000000,-12.000000,-11.000000,-4.000000,-5.000000,2.000000,0.000000,0.000000
1296748.107177,10.000000,7.000000,3.000000,2.000000,2.000000,-3.000000,-1.000000,-1.000000
1296748.128875,-12.000000,10.000000,25.000000,1.000000,3.000000,0.000000,2.000000,3.000000
1296748.128899,12.000000,-2.000000,-68.000000,-16.000000,-5.000000,1.000000,0.000000,-2.000000
1296748.144374,6.000000,-6.000000,27.000000,-20.000000,11.000000,1.000000,0.000000,14.000000
1296748.144418,-17.000000,6.000000,-13.000000,-50.000000,-37.000000,-13.000000,0.000000,37.000000
1296748.166799,-9.000000,5.000000,-13.000000,-28.000000,22.000000,-3.000000,0.000000,-44.000000
1296748.166826,-2.000000,-43.000000,45.000000,-5.000000,2.000000,22.000000,-14.000000,-14.000000
1296748.181629,-9.000000,-14.000000,-21.000000,-21.000000,23.000000,-2.000000,8.000000,-37.000000
1296748.181657,6.000000,5.000000,6.000000,-34.000000,-21.000000,-8.000000,-7.000000,36.000000
1296748.212159,-22.000000,-5.000000,-21.000000,66.000000,-10.000000,0.000000,8.000000,-82.000000
1296748.212185,6.000000,-9.000000,-10.000000,22.000000,34.000000,-1.000000,2.000000,99.000000
1296748.218951,16.000000,10.000000,17.000000,-15.000000,-3.000000,-4.000000,-11.000000,-17.000000
1296748.219012,-3.000000,13.000000,5.000000,-6.000000,-8.000000,-1.000000,3.000000,10.000000
1296748.219819,6.000000,-1.000000,17.000000,16.000000,-15.000000,-7.000000,4.000000,-19.000000
1296748.219871,-18.000000,-27.000000,-46.000000,6.000000,-14.000000,1.000000,-3.000000,-14.000000
1296748.221933,1.000000,-11.000000,-1.000000,74.000000,38.000000,-5.000000,-6.000000,-44.000000
1296748.221999,0.000000,48.000000,2.000000,-41.000000,-22.000000,6.000000,8.000000,20.000000
1296748.222220,-5.000000,-82.000000,-1.000000,-4.000000,-11.000000,-17.000000,-9.000000,14.000000
1296748.222262,-1.000000,32.000000,-2.000000,-4.000000,-5.000000,-3.000000,0.000000,-3.000000
1296748.223253,25.000000,21.000000,5.000000,8.000000,-21.000000,-9.000000,-8.000000,29.000000
1296748.223279,-32.000000,-39.000000,-25.000000,-39.000000,64.000000,1.000000,-2.000000,-17.000000
1296748.249428,1.000000,24.000000,17.000000,-15.000000,-34.000000,11.000000,5.000000,-31.000000
1296748.249456,1.000000,-9.000000,-3.000000,15.000000,-3.000000,-12.000000,-18.000000,20.000000
1296748.264370,0.000000,32.000000,9.000000,-12.000000,-2.000000,9.000000,0.000000,-26.000000
1296748.264396,5.000000,-18.000000,-9.000000,-2.000000,-19.000000,-6.000000,6.000000,-2.000000
1296748.287012,-9.000000,10.000000,21.000000,15.000000,12.000000,2.000000,-3.000000,13.000000
1296748.287040,8.000000,-5.000000,-21.000000,0.000000,27.000000,-2.000000,0.000000,-7.000000
1296748.294088,-2.000000,1.000000,1.000000,-6.000000,-11.000000,-2.000000,-2.000000,-2.000000
1296748.294137,-6.000000,7.000000,13.000000,8.000000,-2.000000,-5.000000,-3.000000,-9.000000
1296748.316425,-7.000000,3.000000,-4.000000,-10.000000,2.000000,22.000000,7.000000,10.000000
1296748.316451,21.000000,2.000000,3.000000,6.000000,19.000000,6.000000,11.000000,47.000000
1296748.324650,-9.000000,-30.000000,6.000000,-21.000000,-27.000000,-18.000000,-11.000000,-8.000000
1296748.324963,-15.000000,-17.000000,-3.000000,-6.000000,14.000000,0.000000,0.000000,-15.000000
1296748.325908,8.000000,11.000000,12.000000,13.000000,1.000000,3.000000,2.000000,-5.000000
1296748.325934,-4.000000,-4.000000,-16.000000,-12.000000,16.000000,3.000000,3.000000,0.000000
1296748.327458,-10.000000,-19.000000,-21.000000,-8.000000,2.000000,-7.000000,-4.000000,-17.000000
1296748.327483,7.000000,14.000000,10.000000,-5.000000,1.000000,0.000000,-3.000000,-45.000000
1296748.327686,5.000000,-44.000000,-2.000000,41.000000,7.000000,7.000000,0.000000,-44.000000
1296748.327701,-12.000000,1.000000,-9.000000,-23.000000,-16.000000,-3.000000,-3.000000,5.000000
1296748.327815,3.000000,22.000000,23.000000,11.000000,5.000000,1.000000,-5.000000,-1.000000
1296748.327827,-6.000000,-9.000000,-19.000000,-15.000000,-9.000000,-3.000000,0.000000,-11.000000
1296748.339702,8.000000,0.000000,0.000000,-5.000000,-6.000000,-10.000000,-7.000000,-3.000000
1296748.339725,13.000000,22.000000,-3.000000,-3.000000,-5.000000,6.000000,-1.000000,5.000000
1296748.340244,-7.000000,-24.000000,5.000000,49.000000,5.000000,8.000000,7.000000,-1.000000
1296748.340266,3.000000,21.000000,-4.000000,-37.000000,3.000000,-15.000000,-1.000000,-8.000000
1296748.361847,10.000000,-13.000000,3.000000,10.000000,-8.000000,0.000000,-4.000000,2.000000
1296748.361973,-5.000000,20.000000,2.000000,-5.000000,-62.000000,4.000000,-2.000000,5.000000
1296748.369387,-1.000000,-17.000000,7.000000,18.000000,9.000000,18.000000,1.000000,-14.000000
1296748.369425,-4.000000,-25.000000,-22.000000,-37.000000,52.000000,2.000000,2.000000,8.000000
1296748.384808,-10.000000,2.000000,11.000000,13.000000,-29.000000,-13.000000,-2.000000,-1.000000
1296748.384874,5.000000,-4.000000,4.000000,36.000000,35.000000,-3.000000,-5.000000,10.000000
1296748.406907,4.000000,51.000000,4.000000,-2.000000,-21.000000,-4.000000,3.000000,4.000000
1296748.406945,-6.000000,-61.000000,5.000000,15.000000,11.000000,-2.000000,1.000000,13.000000
1296748.415439,11.000000,36.000000,-4.000000,3.000000,-13.000000,2.000000,5.000000,-16.000000
1296748.415712,-4.000000,-18.000000,13.000000,-58.000000,-21.000000,1.000000,-6.000000,26.000000
1296748.416803,14.000000,-1.000000,-13.000000,44.000000,58.000000,4.000000,0.000000,7.000000
1296748.416859,-10.000000,7.000000,6.000000,-15.000000,-14.000000,-7.000000,-5.000000,-7.000000
1296748.417507,-1.000000,25.000000,1.000000,7.000000,-3.000000,1.000000,1.000000,1.000000
1296748.417530,5.000000,-6.000000,4.000000,4.000000,4.000000,3.000000,9.000000,9.000000
1296748.421494,-6.000000,-24.000000,-19.000000,-2.000000,-27.000000,-4.000000,-8.000000,-46.000000
1296748.421744,1.000000,4.000000,2.000000,14.000000,29.000000,8.000000,6.000000,18.000000
1296748.436268,9.000000,40.000000,26.000000,5.000000,12.000000,-1.000000,4.000000,-10.000000
1296748.436293,7.000000,-41.000000,-32.000000,-6.000000,-18.000000,-5.000000,-2.000000,24.000000
1296748.443940,-17.000000,6.000000,5.000000,-49.000000,-1.000000,8.000000,5.000000,-115.000000
1296748.443977,23.000000,40.000000,4.000000,-2.000000,-37.000000,-1.000000,2.000000,94.000000
1296748.451667,28.000000,-36.000000,18.000000,-96.000000,-4.000000,-22.000000,-11.000000,-31.000000
1296748.451692,-11.000000,21.000000,-22.000000,28.000000,-4.000000,15.000000,3.000000,34.000000
1296748.459169,-12.000000,-30.000000,-11.000000,-10.000000,-27.000000,2.000000,13.000000,13.000000
1296748.459196,0.000000,25.000000,27.000000,-17.000000,-23.000000,-11.000000,0.000000,-13.000000
1296748.496524,1.000000,-5.000000,-22.000000,-2.000000,3.000000,-6.000000,-2.000000,-4.000000
1296748.496549,9.000000,13.000000,4.000000,-3.000000,1.000000,10.000000,-4.000000,22.000000
1296748.526889,2.000000,20.000000,15.000000,-18.000000,-13.000000,-3.000000,-6.000000,-29.000000
1296748.526925,-15.000000,-58.000000,-49.000000,-3.000000,0.000000,-4.000000,2.000000,0.000000
1296748.542159,-10.000000,10.000000,9.000000,4.000000,-17.000000,-7.000000,-7.000000,-6.000000
1296748.542186,1.000000,-1.000000,8.000000,-36.000000,-10.000000,3.000000,-3.000000,-12.000000
1296748.542330,3.000000,6.000000,10.000000,16.000000,6.000000,1.000000,4.000000,-1.000000
1296748.542360,-3.000000,1.000000,-2.000000,-3.000000,-5.000000,-5.000000,-3.000000,0.000000
1296748.544151,0.000000,1.000000,-14.000000,-38.000000,-96.000000,1.000000,1.000000,0.000000
1296748.544200,-1.000000,-8.000000,-6.000000,42.000000,60.000000,10.000000,1.000000,16.000000
1296748.544625,-4.000000,-3.000000,-11.000000,-11.000000,-10.000000,-3.000000,-6.000000,-74.000000
1296748.544675,26.000000,16.000000,13.000000,-43.000000,-12.000000,-20.000000,-14.000000,24.000000
1296748.545510,3.000000,-33.000000,-33.000000,27.000000,18.000000,-3.000000,-2.000000,79.000000
1296748.545536,4.000000,24.000000,-8.000000,-22.000000,-4.000000,1.000000,-12.000000,-33.000000
1296748.564813,-4.000000,-27.000000,-1.000000,14.000000,5.000000,17.000000,9.000000,-12.000000
1296748.565156,-5.000000,-15.000000,1.000000,-3.000000,-3.000000,-16.000000,-8.000000,12.000000
1296748.565784,5.000000,-9.000000,19.000000,-24.000000,-9.000000,1.000000,2.000000,0.000000
1296748.565808,-6.000000,14.000000,-13.000000,-5.000000,-7.000000,-1.000000,1.000000,6.000000
1296748.571526,-9.000000,-2.000000,0.000000,-4.000000,0.000000,-6.000000,-1.000000,-57.000000
1296748.571551,5.000000,15.000000,-11.000000,11.000000,47.000000,0.000000,-2.000000,12.000000
1296748.578919,1.000000,-4.000000,2.000000,19.000000,14.000000,3.000000,0.000000,0.000000
1296748.578944,4.000000,5.000000,-6.000000,-10.000000,-8.000000,2.000000,4.000000,8.000000
1296748.616474,6.000000,-8.000000,-1.000000,-30.000000,-5.000000,-5.000000,-1.000000,24.000000
1296748.616535,-13.000000,3.000000,-3.000000,49.000000,8.000000,7.000000,-1.000000,-24.000000
1296748.638897,13.000000,11.000000,2.000000,-9.000000,-7.000000,-7.000000,-4.000000,21.000000
1296748.638922,-18.000000,-64.000000,-6.000000,11.000000,-11.000000,0.000000,2.000000,4.000000
1296748.654398,-3.000000,18.000000,11.000000,18.000000,42.000000,1.000000,-6.000000,48.000000
1296748.654447,1.000000,-20.000000,15.000000,-8.000000,12.000000,-10.000000,-6.000000,-22.000000
1296748.676717,-8.000000,14.000000,-20.000000,-29.000000,-1.000000,0.000000,-5.000000,-65.000000
1296748.676744,-3.000000,-21.000000,-2.000000,-48.000000,-5.000000,-8.000000,-18.000000,-3.000000
1296748.691737,-7.000000,6.000000,7.000000,-3.000000,-20.000000,7.000000,7.000000,2.000000
1296748.691818,7.000000,11.000000,4.000000,-12.000000,-17.000000,8.000000,9.000000,26.000000
1296748.699060,6.000000,8.000000,5.000000,33.000000,15.000000,-27.000000,-7.000000,-21.000000
1296748.699087,3.000000,-5.000000,-47.000000,-9.000000,-14.000000,28.000000,-7.000000,21.000000
1296748.721913,-6.000000,-9.000000,-15.000000,-16.000000,-18.000000,-4.000000,10.000000,0.000000
1296748.722196,-4.000000,1.000000,2.000000,1.000000,16.000000,3.000000,-5.000000,-5.000000
1296748.723176,3.000000,10.000000,5.000000,-55.000000,-14.000000,-9.000000,4.000000,-12.000000
1296748.723206,-6.000000,-3.000000,15.000000,45.000000,-32.000000,0.000000,-3.000000,32.000000
1296748.723336,22.000000,48.000000,-25.000000,3.000000,16.000000,-4.000000,-9.000000,-6.000000
1296748.723353,-25.000000,-49.000000,-25.000000,-35.000000,-5.000000,-13.000000,-6.000000,32.000000
1296748.723550,4.000000,-21.000000,7.000000,-43.000000,-23.000000,2.000000,2.000000,6.000000
1296748.723593,-11.000000,2.000000,0.000000,28.000000,-11.000000,-11.000000,-10.000000,-32.000000
1296748.724644,10.000000,11.000000,-22.000000,36.000000,56.000000,12.000000,11.000000,-2.000000
1296748.724672,6.000000,5.000000,43.000000,-19.000000,-17.000000,-4.000000,-9.000000,-6.000000
1296748.725678,-10.000000,0.000000,-1.000000,-11.000000,-20.000000,-7.000000,-4.000000,-22.000000
1296748.725702,-1.000000,-3.000000,-38.000000,-3.000000,-19.000000,-1.000000,-2.000000,27.000000
1296748.728962,-3.000000,4.000000,8.000000,34.000000,21.000000,24.000000,-5.000000,14.000000
1296748.729000,11.000000,-13.000000,-9.000000,19.000000,8.000000,7.000000,8.000000,-20.000000
1296748.751489,-24.000000,-31.000000,-8.000000,-32.000000,8.000000,-9.000000,-1.000000,-18.000000
1296748.751516,16.000000,58.000000,-7.000000,62.000000,-6.000000,4.000000,3.000000,91.000000
1296748.768370,15.000000,-33.000000,-19.000000,-25.000000,-11.000000,-5.000000,-7.000000,-39.000000
1296748.768402,-2.000000,-9.000000,12.000000,5.000000,48.000000,-5.000000,-8.000000,-44.000000
1296748.768993,-7.000000,33.000000,2.000000,-7.000000,9.000000,-4.000000,5.000000,32.000000
1296748.769098,18.000000,-19.000000,3.000000,16.000000,3.000000,0.000000,11.000000,74.000000
1296748.773871,-3.000000,1.000000,-41.000000,-1.000000,15.000000,0.000000,-15.000000,-97.000000
1296748.773897,-11.000000,-1.000000,-20.000000,-14.000000,-43.000000,-10.000000,-4.000000,16.000000
1296748.781527,0.000000,17.000000,-2.000000,42.000000,45.000000,4.000000,5.000000,-4.000000
1296748.781553,-9.000000,-35.000000,-1.000000,-32.000000,-20.000000,-1.000000,1.000000,-2.000000
1296748.805686,8.000000,5.000000,1.000000,9.000000,-5.000000,5.000000,4.000000,-52.000000
1296748.805938,4.000000,-19.000000,-13.000000,-4.000000,16.000000,2.000000,2.000000,50.000000
1296748.806219,-15.000000,-1.000000,19.000000,-2.000000,-15.000000,-7.000000,-7.000000,-10.000000
1296748.806330,4.000000,11.000000,-8.000000,3.000000,-12.000000,-2.000000,2.000000,3.000000
1296748.811542,-2.000000,-4.000000,16.000000,7.000000,-32.000000,-6.000000,1.000000,-3.000000
1296748.811593,-9.000000,17.000000,-17.000000,17.000000,4.000000,4.000000,7.000000,-14.000000
1296748.819182,21.000000,-51.000000,14.000000,-128.000000,-21.000000,-41.000000,-5.000000,44.000000
1296748.819208,-9.000000,-5.000000,-13.000000,79.000000,48.000000,24.000000,-12.000000,-11.000000
1296748.841302,-8.000000,11.000000,1.000000,-7.000000,-12.000000,14.000000,8.000000,-2.000000
1296748.841328,6.000000,13.000000,1.000000,-4.000000,3.000000,-5.000000,3.000000,0.000000
1296748.849009,8.000000,8.000000,2.000000,-11.000000,-1.000000,-2.000000,3.000000,-12.000000
1296748.849036,-13.000000,-7.000000,-18.000000,-31.000000,-42.000000,-13.000000,-13.000000,25.000000
1296748.879012,6.000000,10.000000,-7.000000,15.000000,-50.000000,-6.000000,-6.000000,-55.000000
1296748.879040,-15.000000,-35.000000,16.000000,32.000000,31.000000,-6.000000,-2.000000,31.000000
1296748.886618,3.000000,11.000000,-12.000000,-4.000000,-15.000000,-1.000000,5.000000,-41.000000
1296748.886890,-4.000000,9.000000,4.000000,-17.000000,-4.000000,-6.000000,-4.000000,29.000000
1296748.895067,-4.000000,-11.000000,1.000000,37.000000,6.000000,1.000000,1.000000,-2.000000
1296748.895222,12.000000,-12.000000,19.000000,-26.000000,-17.000000,7.000000,2.000000,-24.000000
1296748.896312,-9.000000,-19.000000,-3.000000,30.000000,-27.000000,-3.000000,1.000000,18.000000
1296748.896365,4.000000,3.000000,26.000000,-23.000000,-16.000000,1.000000,-3.000000,-18.000000
1296748.897723,0.000000,10.000000,-28.000000,-19.000000,-6.000000,-6.000000,-6.000000,8.000000
1296748.897781,4.000000,-1.000000,-12.000000,-2.000000,-1.000000,-6.000000,-4.000000,-5.000000
1296748.909512,2.000000,8.000000,16.000000,1.000000,-9.000000,7.000000,8.000000,8.000000
1296748.909548,0.000000,-1.000000,3.000000,21.000000,-35.000000,2.000000,0.000000,-5.000000
1296748.925303,-8.000000,-5.000000,-5.000000,7.000000,-3.000000,0.000000,-2.000000,-2.000000
1296748.925360,8.000000,21.000000,8.000000,19.000000,10.000000,-9.000000,-3.000000,4.000000
1296748.926271,-12.000000,-26.000000,1.000000,18.000000,-11.000000,8.000000,3.000000,5.000000
1296748.926319,15.000000,-2.000000,11.000000,-8.000000,-14.000000,-14.000000,0.000000,-20.000000
1296748.931896,-10.000000,-21.000000,-27.000000,-56.000000,14.000000,14.000000,-19.000000,0.000000
1296748.931964,9.000000,55.000000,8.000000,-6.000000,-31.000000,4.000000,14.000000,35.000000
1296748.962082,8.000000,-18.000000,10.000000,46.000000,9.000000,-3.000000,-4.000000,-33.000000
1296748.962116,2.000000,13.000000,-1.000000,-32.000000,-23.000000,-6.000000,3.000000,8.000000
1296748.976624,-3.000000,-2.000000,-7.000000,-43.000000,-18.000000,3.000000,2.000000,8.000000
1296748.976683,11.000000,24.000000,12.000000,10.000000,-13.000000,1.000000,-4.000000,3.000000
1296748.999288,0.000000,20.000000,-3.000000,14.000000,25.000000,-1.000000,2.000000,19.000000
1296748.999318,-3.000000,-23.000000,11.000000,30.000000,-8.000000,7.000000,5.000000,-15.000000
1296749.013762,1.000000,4.000000,-6.000000,-20.000000,2.000000,-8.000000,-9.000000,12.000000
1296749.013788,17.000000,-6.000000,-1.000000,-20.000000,-45.000000,-8.000000,7.000000,-7.000000
1296749.043931,-6.000000,24.000000,9.000000,25.000000,6.000000,7.000000,7.000000,-13.000000
1296749.043955,3.000000,-12.000000,-6.000000,-12.000000,-19.000000,-9.000000,-5.000000,9.000000
1296749.066513,3.000000,-20.000000,23.000000,-11.000000,0.000000,0.000000,9.000000,14.000000
1296749.066539,-18.000000,-4.000000,-16.000000,-9.000000,-10.000000,1.000000,-11.000000,51.000000
1296749.081681,8.000000,23.000000,31.000000,23.000000,30.000000,-17.000000,9.000000,-44.000000
1296749.081706,7.000000,8.000000,-4.000000,-20.000000,-8.000000,17.000000,-6.000000,20.000000
1296749.089020,5.000000,-31.000000,-13.000000,12.000000,2.000000,0.000000,1.000000,4.000000
1296749.089046,0.000000,2.000000,13.000000,8.000000,27.000000,-7.000000,0.000000,0.000000
1296749.096592,-8.000000,5.000000,-3.000000,30.000000,-21.000000,7.000000,-1.000000,-17.000000
1296749.096617,-21.000000,-17.000000,0.000000,8.000000,15.000000,11.000000,9.000000,-1.000000
1296749.119127,-9.000000,-19.000000,8.000000,-14.000000,-28.000000,-8.000000,0.000000,-3.000000
1296749.119155,-7.000000,-27.000000,-18.000000,-44.000000,7.000000,2.000000,3.000000,-2.000000
1296749.126536,12.000000,-33.000000,19.000000,-27.000000,-38.000000,-7.000000,-5.000000,74.000000
1296749.126560,1.000000,25.000000,7.000000,1.000000,18.000000,8.000000,-3.000000,-16.000000
1296749.134469,9.000000,14.000000,0.000000,-4.000000,-4.000000,3.000000,4.000000,-18.000000
1296749.134497,-12.000000,-24.000000,4.000000,-8.000000,-1.000000,-14.000000,-1.000000,-5.000000
1296749.135674,-5.000000,2.000000,-19.000000,-39.000000,-41.000000,-7.000000,4.000000,-4.000000
1296749.135705,14.000000,4.000000,28.000000,26.000000,5.000000,2.000000,5.000000,14.000000
1296749.136959,-10.000000,-12.000000,-42.000000,-38.000000,-23.000000,-19.000000,0.000000,-52.000000
1296749.137292,3.000000,-24.000000,-11.000000,5.000000,60.000000,28.000000,5.000000,9.000000
1296749.137941,-11.000000,-6.000000,12.000000,-2.000000,-37.000000,-9.000000,-4.000000,-4.000000
1296749.137965,2.000000,17.000000,2.000000,20.000000,36.000000,9.000000,3.000000,-32.000000
1296749.141669,6.000000,-3.000000,-4.000000,-31.000000,-4.000000,2.000000,0.000000,55.000000
1296749.141927,4.000000,5.000000,2.000000,26.000000,28.000000,3.000000,-5.000000,9.000000
1296749.156518,-2.000000,1.000000,12.000000,-3.000000,-7.000000,-6.000000,-3.000000,-12.000000
1296749.156578,1.000000,10.000000,23.000000,6.000000,-13.000000,-3.000000,2.000000,-5.000000
1296749.163906,-3.000000,-10.000000,0.000000,6.000000,-4.000000,12.000000,11.000000,0.000000
1296749.163933,-3.000000,-2.000000,1.000000,-6.000000,-8.000000,-15.000000,-9.000000,-7.000000
1296749.194028,1.000000,-1.000000,-12.000000,-7.000000,-10.000000,5.000000,1.000000,3.000000
1296749.194069,-4.000000,1.000000,11.000000,15.000000,9.000000,-1.000000,12.000000,-5.000000
1296749.201577,1.000000,1.000000,-14.000000,-17.000000,22.000000,14.000000,-33.000000,-9.000000
1296749.201629,2.000000,47.000000,1.000000,9.000000,1.000000,-9.000000,1.000000,-2.000000
1296749.216425,16.000000,-58.000000,26.000000,-4.000000,-58.000000,-2.000000,6.000000,5.000000
1296749.216481,-9.000000,17.000000,-10.000000,7.000000,10.000000,5.000000,2.000000,0.000000
1296749.231133,-15.000000,-15.000000,-11.000000,-57.000000,-12.000000,-20.000000,-2.000000,2.000000
1296749.231159,-7.000000,3.000000,3.000000,4.000000,-28.000000,5.000000,-2.000000,-81.000000
1296749.239495,12.000000,19.000000,8.000000,-59.000000,11.000000,4.000000,0.000000,86.000000
1296749.239524,-14.000000,-10.000000,-16.000000,1.000000,-40.000000,-17.000000,-1.000000,-56.000000
1296749.240593,-21.000000,-36.000000,14.000000,-32.000000,-26.000000,-8.000000,-10.000000,44.000000
1296749.240628,4.000000,14.000000,5.000000,-12.000000,2.000000,-14.000000,-16.000000,-9.000000
1296749.242284,-1.000000,17.000000,7.000000,-15.000000,-22.000000,-4.000000,4.000000,5.000000
1296749.242335,19.000000,20.000000,-5.000000,5.000000,-1.000000,1.000000,8.000000,16.000000
1296749.243066,-2.000000,-41.000000,-11.000000,-3.000000,-17.000000,5.000000,16.000000,-72.000000
1296749.243091,-23.000000,18.000000,-20.000000,-45.000000,-7.000000,-9.000000,-19.000000,32.000000
1296749.254108,8.000000,15.000000,22.000000,20.000000,61.000000,7.000000,-4.000000,12.000000
1296749.254161,16.000000,23.000000,-15.000000,-44.000000,-19.000000,-1.000000,1.000000,36.000000
1296749.269064,6.000000,-10.000000,8.000000,8.000000,18.000000,-4.000000,6.000000,-10.000000
1296749.269093,-23.000000,-33.000000,-11.000000,-15.000000,-6.000000,6.000000,0.000000,-18.000000
1296749.284401,2.000000,19.000000,6.000000,12.000000,-15.000000,-5.000000,-4.000000,8.000000
1296749.284449,2.000000,17.000000,-3.000000,11.000000,-22.000000,-6.000000,-1.000000,-7.000000
1296749.291872,4.000000,-5.000000,10.000000,53.000000,-17.000000,17.000000,5.000000,-1.000000
1296749.291901,-8.000000,-4.000000,16.000000,14.000000,-6.000000,-1.000000,4.000000,8.000000
1296749.329385,4.000000,17.000000,4.000000,-28.000000,-7.000000,-15.000000,-15.000000,1.000000
1296749.329427,-5.000000,-7.000000,-4.000000,11.000000,-10.000000,3.000000,1.000000,-7.000000
1296749.360108,-3.000000,21.000000,26.000000,-3.000000,-5.000000,-23.000000,-3.000000,0.000000
1296749.360381,11.000000,-15.000000,-13.000000,-9.000000,1.000000,25.000000,1.000000,-48.000000
1296749.361926,-26.000000,-33.000000,7.000000,-8.000000,5.000000,-22.000000,-4.000000,-1.000000
1296749.361977,6.000000,53.000000,8.000000,16.000000,22.000000,19.000000,4.000000,14.000000
1296749.362766,0.000000,-22.000000,8.000000,13.000000,-4.000000,12.000000,14.000000,74.000000
1296749.362792,-1.000000,-21.000000,-1.000000,-1.000000,-11.000000,-15.000000,-7.000000,-100.000000
1296749.363514,-21.000000,-44.000000,6.000000,16.000000,53.000000,2.000000,-4.000000,-29.000000
1296749.363536,-7.000000,32.000000,8.000000,-4.000000,-20.000000,5.000000,4.000000,-12.000000
1296749.374054,1.000000,6.000000,-33.000000,-18.000000,-21.000000,-12.000000,-11.000000,-66.000000
1296749.374080,4.000000,0.000000,17.000000,-14.000000,37.000000,2.000000,-5.000000,53.000000
1296749.381651,3.000000,10.000000,-17.000000,14.000000,-6.000000,-4.000000,-6.000000,-14.000000
1296749.381680,-7.000000,-40.000000,11.000000,-8.000000,19.000000,0.000000,6.000000,-2.000000
1296749.397894,-12.000000,-1.000000,2.000000,-8.000000,-9.000000,10.000000,0.000000,-6.000000
1296749.398022,15.000000,22.000000,1.000000,3.000000,-4.000000,-37.000000,3.000000,4.000000
1296749.404201,1.000000,-4.000000,11.000000,-11.000000,-15.000000,30.000000,-2.000000,-4.000000
1296749.404263,-6.000000,-8.000000,-1.000000,27.000000,46.000000,12.000000,9.000000,-1.000000
1296749.411984,-2.000000,12.000000,9.000000,9.000000,-11.000000,3.000000,5.000000,4.000000
1296749.412013,18.000000,6.000000,-12.000000,-4.000000,2.000000,-21.000000,-10.000000,4.000000
1296749.434413,0.000000,-9.000000,12.000000,2.000000,-6.000000,4.000000,-2.000000,1.000000
1296749.434474,2.000000,16.000000,-2.000000,-4.000000,5.000000,-4.000000,2.000000,-8.000000
1296749.479276,-3.000000,-15.000000,-11.000000,-12.000000,4.000000,11.000000,11.000000,19.000000
1296749.479306,12.000000,11.000000,8.000000,4.000000,-2.000000,-3.000000,-5.000000,-57.000000
1296749.487400,-7.000000,-8.000000,1.000000,8.000000,-31.000000,-14.000000,-17.000000,28.000000
1296749.487451,2.000000,5.000000,-3.000000,-39.000000,-16.000000,10.000000,7.000000,-11.000000
1296749.488714,-1.000000,-9.000000,5.000000,18.000000,3.000000,-5.000000,3.000000,-2.000000
1296749.488743,-1.000000,5.000000,-4.000000,8.000000,1.000000,-5.000000,0.000000,20.000000
1296749.490060,-3.000000,-2.000000,2.000000,-11.000000,-19.000000,-1.000000,0.000000,-2.000000
1296749.490116,8.000000,-4.000000,13.000000,-3.000000,5.000000,-26.000000,4.000000,13.000000
1296749.490847,-4.000000,-23.000000,-3.000000,-10.000000,-10.000000,36.000000,1.000000,23.000000
1296749.491211,-8.000000,-1.000000,-8.000000,3.000000,62.000000,-2.000000,4.000000,-51.000000
1296749.494718,-23.000000,-14.000000,2.000000,-58.000000,-18.000000,1.000000,-1.000000,-15.000000
1296749.494759,13.000000,8.000000,-4.000000,32.000000,17.000000,2.000000,5.000000,14.000000
1296749.510285,-2.000000,25.000000,3.000000,-19.000000,-12.000000,-5.000000,-1.000000,13.000000
1296749.510978,-6.000000,-7.000000,-9.000000,-23.000000,-6.000000,4.000000,1.000000,-13.000000
1296749.511854,1.000000,4.000000,-9.000000,15.000000,2.000000,9.000000,3.000000,14.000000
1296749.511878,20.000000,9.000000,8.000000,-1.000000,-14.000000,-3.000000,2.000000,-10.000000
1296749.554410,-29.000000,-32.000000,6.000000,2.000000,16.000000,-4.000000,-8.000000,-14.000000
1296749.554552,17.000000,15.000000,-2.000000,-13.000000,-10.000000,-1.000000,-3.000000,-9.000000
1296749.569157,3.000000,-1.000000,10.000000,-13.000000,-5.000000,-7.000000,-3.000000,-2.000000
1296749.569208,-11.000000,8.000000,-5.000000,9.000000,38.000000,2.000000,-2.000000,-6.000000
1296749.591734,-5.000000,-31.000000,1.000000,48.000000,-46.000000,0.000000,-5.000000,-11.000000
1296749.591761,8.000000,43.000000,-11.000000,7.000000,58.000000,-14.000000,4.000000,-2.000000
1296749.601157,-12.000000,-54.000000,3.000000,28.000000,-23.000000,15.000000,0.000000,-3.000000
1296749.601570,-17.000000,5.000000,5.000000,-29.000000,5.000000,9.000000,4.000000,-24.000000
1296749.602354,5.000000,25.000000,-4.000000,-80.000000,4.000000,-13.000000,-8.000000,-24.000000
1296749.602417,15.000000,26.000000,-6.000000,22.000000,-21.000000,-4.000000,5.000000,60.000000
1296749.602996,7.000000,-54.000000,-4.000000,-15.000000,-3.000000,-2.000000,8.000000,34.000000
1296749.603048,-17.000000,4.000000,7.000000,-14.000000,-7.000000,-11.000000,-14.000000,-53.000000
1296749.603561,-3.000000,9.000000,4.000000,-11.000000,10.000000,4.000000,0.000000,-12.000000
1296749.603589,0.000000,-20.000000,-1.000000,37.000000,19.000000,17.000000,10.000000,-10.000000
1296749.606573,-8.000000,27.000000,8.000000,-24.000000,-20.000000,-8.000000,-5.000000,-5.000000
1296749.606630,5.000000,2.000000,-3.000000,21.000000,-24.000000,-6.000000,8.000000,53.000000
1296749.621735,-11.000000,-4.000000,-7.000000,33.000000,-9.000000,1.000000,-7.000000,-33.000000
1296749.621760,32.000000,41.000000,-4.000000,43.000000,16.000000,4.000000,4.000000,6.000000
1296749.622852,-6.000000,-43.000000,4.000000,4.000000,27.000000,-1.000000,5.000000,9.000000
1296749.622902,-15.000000,-6.000000,-6.000000,-7.000000,-15.000000,-15.000000,6.000000,-3.000000
1296749.636892,1.000000,-1.000000,16.000000,7.000000,5.000000,14.000000,-2.000000,14.000000
1296749.636926,-7.000000,-5.000000,-21.000000,-43.000000,-58.000000,2.000000,4.000000,20.000000
1296749.651606,26.000000,59.000000,26.000000,47.000000,19.000000,14.000000,-1.000000,41.000000
1296749.651766,-15.000000,-69.000000,-5.000000,15.000000,49.000000,-1.000000,-10.000000,-4.000000
1296749.658999,-13.000000,6.000000,-11.000000,-12.000000,-19.000000,-12.000000,0.000000,-7.000000
1296749.659062,4.000000,1.000000,0.000000,-9.000000,-15.000000,1.000000,1.000000,16.000000
1296749.681758,-26.000000,-33.000000,-4.000000,51.000000,-5.000000,13.000000,1.000000,13.000000
1296749.681914,13.000000,49.000000,8.000000,-64.000000,-17.000000,-4.000000,-1.000000,8.000000
1296749.689026,9.000000,-32.000000,-1.000000,-4.000000,5.000000,-9.000000,-17.000000,-8.000000
1296749.689053,-19.000000,-3.000000,5.000000,-14.000000,-24.000000,-3.000000,2.000000,-13.000000
1296749.713027,6.000000,3.000000,-6.000000,-48.000000,-14.000000,0.000000,3.000000,2.000000
1296749.713084,11.000000,30.000000,22.000000,-6.000000,6.000000,7.000000,2.000000,5.000000
1296749.715215,-3.000000,3.000000,-5.000000,-1.000000,-17.000000,17.000000,-4.000000,-5.000000
1296749.715268,14.000000,-18.000000,3.000000,5.000000,-6.000000,9.000000,6.000000,2.000000
1296749.715627,0.000000,-12.000000,1.000000,12.000000,5.000000,-1.000000,-1.000000,-6.000000
1296749.715669,-2.000000,3.000000,0.000000,7.000000,3.000000,-1.000000,1.000000,-2.000000
1296749.715951,-2.000000,2.000000,-1.000000,-6.000000,-2.000000,3.000000,1.000000,1.000000
1296749.715995,3.000000,2.000000,1.000000,1.000000,-4.000000,-21.000000,1.000000,2.000000
1296749.728587,-11.000000,-12.000000,21.000000,-15.000000,49.000000,-2.000000,-1.000000,7.000000
1296749.728645,4.000000,13.000000,-11.000000,71.000000,3.000000,7.000000,2.000000,-5.000000
1296749.735806,10.000000,17.000000,-14.000000,-18.000000,-46.000000,-15.000000,-4.000000,6.000000
1296749.735835,16.000000,4.000000,-10.000000,-10.000000,1.000000,-5.000000,0.000000,40.000000
1296749.756940,-10.000000,3.000000,-5.000000,-10.000000,6.000000,0.000000,-1.000000,-15.000000
1296749.757310,-23.000000,-69.000000,-4.000000,28.000000,28.000000,2.000000,0.000000,7.000000
1296749.758165,3.000000,30.000000,6.000000,-12.000000,-3.000000,-4.000000,-4.000000,10.000000
1296749.758192,5.000000,13.000000,2.000000,-26.000000,-13.000000,0.000000,0.000000,-6.000000
1296749.771754,0.000000,6.000000,1.000000,51.000000,41.000000,5.000000,3.000000,-5.000000
1296749.771793,1.000000,4.000000,-6.000000,-12.000000,-15.000000,-2.000000,6.000000,19.000000
1296749.787215,0.000000,28.000000,1.000000,9.000000,4.000000,8.000000,6.000000,-16.000000
1296749.787273,2.000000,-23.000000,8.000000,11.000000,-1.000000,5.000000,-5.000000,1.000000
1296749.801664,0.000000,11.000000,2.000000,-24.000000,-39.000000,-1.000000,2.000000,-9.000000
1296749.801693,0.000000,-2.000000,-12.000000,24.000000,26.000000,2.000000,-3.000000,-11.000000
1296749.824439,-3.000000,-2.000000,2.000000,-28.000000,-9.000000,-18.000000,3.000000,0.000000
1296749.824469,2.000000,7.000000,9.000000,3.000000,0.000000,17.000000,-3.000000,-1.000000
1296749.832966,-11.000000,-20.000000,-18.000000,-7.000000,-17.000000,3.000000,0.000000,22.000000
1296749.833002,3.000000,-16.000000,-9.000000,4.000000,-18.000000,-7.000000,7.000000,53.000000
1296749.835304,-4.000000,3.000000,18.000000,0.000000,11.000000,2.000000,0.000000,-3.000000
1296749.835351,2.000000,25.000000,-31.000000,14.000000,19.000000,-21.000000,-19.000000,0.000000
1296749.836214,18.000000,16.000000,6.000000,-10.000000,-7.000000,2.000000,-6.000000,2.000000
1296749.836287,-4.000000,11.000000,8.000000,-32.000000,-21.000000,-3.000000,2.000000,-5.000000
1296749.836518,-6.000000,-81.000000,3.000000,30.000000,11.000000,1.000000,8.000000,-2.000000
1296749.836545,-10.000000,18.000000,-8.000000,-4.000000,-10.000000,2.000000,6.000000,-13.000000
1296749.847353,8.000000,15.000000,3.000000,-10.000000,-12.000000,-4.000000,-16.000000,-70.000000
1296749.847379,5.000000,29.000000,2.000000,-38.000000,7.000000,-8.000000,-11.000000,39.000000
1296749.869716,16.000000,-25.000000,35.000000,23.000000,7.000000,7.000000,9.000000,21.000000
1296749.869765,-9.000000,-3.000000,-29.000000,10.000000,10.000000,-7.000000,0.000000,-27.000000
1296749.877795,4.000000,25.000000,12.000000,-70.000000,-25.000000,2.000000,3.000000,17.000000
1296749.877818,5.000000,16.000000,-1.000000,69.000000,56.000000,-18.000000,-8.000000,-2.000000
1296749.878909,-7.000000,-1.000000,0.000000,-21.000000,-19.000000,25.000000,-1.000000,-10.000000
1296749.878956,-1.000000,-1.000000,23.000000,-4.000000,6.000000,-23.000000,0.000000,1.000000
1296749.921670,-6.000000,-8.000000,-39.000000,-7.000000,-17.000000,6.000000,-3.000000,-23.000000
1296749.921702,3.000000,10.000000,13.000000,44.000000,35.000000,19.000000,11.000000,29.000000
1296749.929331,20.000000,-37.000000,-1.000000,-21.000000,-33.000000,-18.000000,-8.000000,3.000000
1296749.929359,-34.000000,-16.000000,12.000000,20.000000,55.000000,4.000000,-4.000000,-7.000000
1296749.959583,-11.000000,-25.000000,-10.000000,6.000000,1.000000,-2.000000,2.000000,-24.000000
1296749.959639,0.000000,13.000000,-2.000000,-1.000000,8.000000,-9.000000,-4.000000,-10.000000
1296749.966524,5.000000,5.000000,-4.000000,-9.000000,-3.000000,-11.000000,-9.000000,-47.000000
1296749.966552,-6.000000,1.000000,3.000000,6.000000,4.000000,3.000000,3.000000,-42.000000
1296749.996529,7.000000,-9.000000,8.000000,-10.000000,1.000000,-8.000000,-9.000000,-52.000000
1296749.996553,-7.000000,-10.000000,-31.000000,-7.000000,14.000000,1.000000,-8.000000,20.000000
1296750.041536,1.000000,4.000000,-11.000000,4.000000,-28.000000,-2.000000,6.000000,-15.000000
1296750.041577,-8.000000,-11.000000,-5.000000,0.000000,-6.000000,2.000000,0.000000,-5.000000
1296750.072029,7.000000,3.000000,-2.000000,-8.000000,-7.000000,-9.000000,2.000000,-2.000000
1296750.072082,4.000000,23.000000,5.000000,30.000000,-1.000000,-5.000000,4.000000,37.000000
1296750.074662,-2.000000,2.000000,16.000000,-4.000000,-4.000000,-17.000000,2.000000,4.000000
1296750.074896,-8.000000,-21.000000,-24.000000,-8.000000,8.000000,4.000000,2.000000,-36.000000
1296750.076544,22.000000,57.000000,3.000000,-11.000000,-12.000000,-2.000000,-4.000000,30.000000
1296750.076575,-16.000000,-81.000000,-10.000000,-19.000000,2.000000,-2.000000,-3.000000,-23.000000
1296750.109810,-11.000000,1.000000,-11.000000,-1.000000,6.000000,4.000000,8.000000,-24.000000
1296750.109856,1.000000,-5.000000,-12.000000,-17.000000,-18.000000,-16.000000,-10.000000,-4.000000
1296750.111146,-6.000000,0.000000,6.000000,47.000000,26.000000,15.000000,8.000000,7.000000
1296750.111176,7.000000,18.000000,-1.000000,7.000000,-1.000000,7.000000,-10.000000,-7.000000
1296750.112099,-1.000000,-19.000000,-10.000000,25.000000,-7.000000,-8.000000,11.000000,68.000000
1296750.112121,-14.000000,-12.000000,19.000000,39.000000,67.000000,4.000000,1.000000,-43.000000
1296750.116544,22.000000,20.000000,-7.000000,22.000000,-13.000000,-5.000000,-10.000000,6.000000
1296750.116572,-18.000000,-36.000000,15.000000,-9.000000,5.000000,-1.000000,-7.000000,-9.000000
1296750.139429,-3.000000,-5.000000,19.000000,-24.000000,9.000000,-1.000000,3.000000,3.000000
1296750.139475,-5.000000,-4.000000,-41.000000,-34.000000,-26.000000,0.000000,-1.000000,-39.000000
1296750.153928,6.000000,11.000000,3.000000,30.000000,-26.000000,2.000000,5.000000,59.000000
1296750.153953,-23.000000,13.000000,7.000000,5.000000,26.000000,-9.000000,-14.000000,-18.000000
1296750.183843,-9.000000,-21.000000,-6.000000,-43.000000,-31.000000,-1.000000,9.000000,34.000000
1296750.183868,1.000000,15.000000,9.000000,39.000000,38.000000,18.000000,2.000000,-32.000000
1296750.191890,-4.000000,-14.000000,-2.000000,-3.000000,8.000000,2.000000,7.000000,5.000000
1296750.192164,15.000000,29.000000,15.000000,1.000000,-11.000000,-11.000000,-8.000000,-2.000000
1296750.193490,0.000000,1.000000,-5.000000,-15.000000,-13.000000,-1.000000,7.000000,-74.000000
1296750.193536,-8.000000,-16.000000,33.000000,5.000000,-5.000000,-3.000000,-6.000000,15.000000
1296750.194682,-15.000000,-6.000000,-55.000000,-25.000000,-7.000000,-4.000000,-4.000000,7.000000
1296750.194709,4.000000,45.000000,11.000000,15.000000,21.000000,-15.000000,0.000000,-23.000000
1296750.194999,-1.000000,-48.000000,22.000000,89.000000,37.000000,28.000000,5.000000,29.000000
1296750.195016,-30.000000,-3.000000,-38.000000,-15.000000,15.000000,9.000000,-1.000000,-13.000000
1296750.195712,22.000000,32.000000,9.000000,-16.000000,-20.000000,-41.000000,-5.000000,22.000000
1296750.195736,7.000000,8.000000,12.000000,-16.000000,20.000000,17.000000,2.000000,-19.000000
1296750.215661,6.000000,9.000000,5.000000,12.000000,-1.000000,1.000000,6.000000,10.000000
1296750.215685,-17.000000,-49.000000,2.000000,12.000000,20.000000,-9.000000,-2.000000,-5.000000
1296750.215807,-4.000000,6.000000,-19.000000,3.000000,-4.000000,3.000000,-4.000000,-26.000000
1296750.215820,3.000000,-4.000000,27.000000,-48.000000,-13.000000,-5.000000,-1.000000,41.000000
1296750.230055,3.000000,9.000000,14.000000,49.000000,1.000000,4.000000,2.000000,-54.000000
1296750.230075,-1.000000,12.000000,-47.000000,2.000000,43.000000,-5.000000,-1.000000,8.000000
1296750.237025,1.000000,-31.000000,9.000000,-9.000000,-19.000000,8.000000,-5.000000,-4.000000
1296750.237091,-20.000000,-41.000000,-15.000000,-9.000000,2.000000,-7.000000,-5.000000,-9.000000
1296750.266755,5.000000,21.000000,-6.000000,-12.000000,0.000000,2.000000,0.000000,4.000000
1296750.266792,14.000000,19.000000,17.000000,-9.000000,-26.000000,-1.000000,-3.000000,36.000000
1296750.274454,-7.000000,-4.000000,-10.000000,3.000000,-1.000000,0.000000,2.000000,-26.000000
1296750.274512,-2.000000,1.000000,8.000000,3.000000,4.000000,-2.000000,-1.000000,-30.000000
1296750.304158,-3.000000,-4.000000,-32.000000,-19.000000,4.000000,-5.000000,-1.000000,34.000000
1296750.304219,8.000000,13.000000,20.000000,22.000000,70.000000,9.000000,-4.000000,12.000000
1296750.311589,6.000000,8.000000,-25.000000,-18.000000,-22.000000,-10.000000,-5.000000,-22.000000
1296750.311617,0.000000,0.000000,-4.000000,-9.000000,-16.000000,-7.000000,-1.000000,-7.000000
1296750.349647,8.000000,42.000000,8.000000,17.000000,18.000000,0.000000,0.000000,61.000000
1296750.349790,-9.000000,-62.000000,13.000000,4.000000,13.000000,11.000000,4.000000,-33.000000
1296750.350648,-8.000000,-13.000000,-42.000000,-41.000000,-39.000000,6.000000,0.000000,-3.000000
1296750.350697,-3.000000,12.000000,28.000000,1.000000,10.000000,3.000000,-7.000000,0.000000
1296750.351844,4.000000,33.000000,6.000000,16.000000,-4.000000,-11.000000,-3.000000,12.000000
1296750.351884,-3.000000,-17.000000,-3.000000,1.000000,3.000000,2.000000,10.000000,4.000000
1296750.364014,10.000000,21.000000,27.000000,7.000000,-38.000000,3.000000,17.000000,12.000000
1296750.364052,-25.000000,-69.000000,2.000000,-50.000000,11.000000,-7.000000,-10.000000,29.000000
1296750.378905,7.000000,18.000000,-28.000000,-56.000000,3.000000,-11.000000,-16.000000,-74.000000
1296750.378932,-1.000000,11.000000,3.000000,-16.000000,-40.000000,-2.000000,6.000000,10.000000
1296750.386511,4.000000,-15.000000,18.000000,13.000000,8.000000,1.000000,-2.000000,7.000000
1296750.386563,-11.000000,-1.000000,1.000000,8.000000,-9.000000,-13.000000,-4.000000,-8.000000
1296750.401438,10.000000,51.000000,2.000000,2.000000,-18.000000,30.000000,6.000000,-11.000000
1296750.401463,3.000000,-52.000000,4.000000,-12.000000,48.000000,-20.000000,6.000000,5.000000
1296750.416493,-8.000000,-7.000000,-11.000000,1.000000,-28.000000,3.000000,-8.000000,-4.000000
1296750.416519,5.000000,16.000000,8.000000,-13.000000,0.000000,9.000000,1.000000,-3.000000
1296750.431647,5.000000,5.000000,-4.000000,22.000000,-11.000000,-13.000000,-2.000000,1.000000
1296750.431688,-4.000000,-9.000000,-35.000000,16.000000,-25.000000,-10.000000,3.000000,2.000000
1296750.438848,-5.000000,32.000000,32.000000,-41.000000,-21.000000,13.000000,-5.000000,-56.000000
1296750.438876,21.000000,-12.000000,-36.000000,-26.000000,-22.000000,-8.000000,-9.000000,19.000000
1296750.440826,-8.000000,-46.000000,-9.000000,-24.000000,-14.000000,-7.000000,-8.000000,33.000000
1296750.440872,-8.000000,23.000000,-3.000000,18.000000,18.000000,7.000000,-1.000000,-9.000000
1296750.442034,3.000000,20.000000,17.000000,24.000000,-6.000000,-5.000000,6.000000,-8.000000
1296750.442059,1.000000,-6.000000,-17.000000,5.000000,-7.000000,12.000000,5.000000,0.000000
1296750.476582,0.000000,24.000000,30.000000,-10.000000,-3.000000,-6.000000,5.000000,-4.000000
1296750.476675,1.000000,-22.000000,-1.000000,19.000000,-7.000000,4.000000,-4.000000,0.000000
1296750.483923,5.000000,40.000000,-5.000000,-16.000000,14.000000,-15.000000,-6.000000,-2.000000
1296750.483947,2.000000,-37.000000,-13.000000,-5.000000,-8.000000,12.000000,-2.000000,1.000000
1296750.513974,-3.000000,12.000000,7.000000,-4.000000,-11.000000,0.000000,-3.000000,-1.000000
1296750.513999,9.000000,-12.000000,5.000000,-33.000000,-29.000000,-10.000000,1.000000,16.000000
1296750.544292,5.000000,36.000000,-8.000000,1.000000,15.000000,-6.000000,-2.000000,-33.000000
1296750.544337,-3.000000,-39.000000,5.000000,24.000000,13.000000,15.000000,10.000000,47.000000
1296750.558946,-1.000000,-7.000000,4.000000,10.000000,-4.000000,0.000000,-4.000000,27.000000
1296750.558972,-20.000000,-3.000000,2.000000,-17.000000,-3.000000,-2.000000,-5.000000,-49.000000
1296750.589070,3.000000,7.000000,2.000000,12.000000,-9.000000,-3.000000,-2.000000,29.000000
1296750.589096,7.000000,-4.000000,10.000000,7.000000,-14.000000,2.000000,2.000000,-33.000000
1296750.626590,0.000000,10.000000,-11.000000,-22.000000,-15.000000,-10.000000,-10.000000,13.000000
1296750.626647,3.000000,-11.000000,-1.000000,-28.000000,3.000000,1.000000,-3.000000,-11.000000
1296750.641570,9.000000,-48.000000,15.000000,70.000000,32.000000,-4.000000,-2.000000,32.000000
1296750.641596,5.000000,15.000000,-3.000000,-34.000000,-24.000000,1.000000,-1.000000,-13.000000
1296750.664341,6.000000,-38.000000,15.000000,-80.000000,-9.000000,0.000000,2.000000,-92.000000
1296750.664378,23.000000,29.000000,-7.000000,70.000000,-8.000000,21.000000,-9.000000,55.000000
1296750.665970,-4.000000,-27.000000,6.000000,-35.000000,1.000000,15.000000,1.000000,16.000000
1296750.665996,-11.000000,-10.000000,-7.000000,33.000000,8.000000,2.000000,2.000000,-8.000000
1296750.666549,2.000000,2.000000,-21.000000,45.000000,59.000000,15.000000,-4.000000,-25.000000
1296750.666916,3.000000,-16.000000,4.000000,-1.000000,-34.000000,-33.000000,-3.000000,5.000000
1296750.667931,-12.000000,13.000000,-11.000000,-23.000000,18.000000,24.000000,0.000000,15.000000
1296750.667976,12.000000,-8.000000,-3.000000,21.000000,-11.000000,5.000000,6.000000,32.000000
1296750.679315,9.000000,37.000000,8.000000,-5.000000,-3.000000,4.000000,2.000000,-14.000000
1296750.679369,-11.000000,-52.000000,4.000000,8.000000,9.000000,0.000000,4.000000,-8.000000
1296750.701328,4.000000,13.000000,1.000000,-9.000000,-10.000000,-23.000000,-4.000000,24.000000
1296750.701354,-4.000000,9.000000,-2.000000,-13.000000,-8.000000,14.000000,-12.000000,28.000000
1296750.708996,6.000000,3.000000,5.000000,-48.000000,-40.000000,0.000000,9.000000,-24.000000
1296750.709022,7.000000,14.000000,-5.000000,-1.000000,28.000000,7.000000,-5.000000,21.000000
1296750.747246,-7.000000,-12.000000,0.000000,18.000000,22.000000,-2.000000,-1.000000,-14.000000
1296750.747370,7.000000,20.000000,-9.000000,2.000000,-26.000000,-9.000000,-1.000000,13.000000
1296750.754483,3.000000,15.000000,3.000000,-29.000000,-9.000000,-8.000000,-2.000000,-4.000000
1296750.754554,-7.000000,-39.000000,-21.000000,40.000000,18.000000,6.000000,4.000000,11.000000
1296750.784878,-1.000000,22.000000,19.000000,-6.000000,-29.000000,-22.000000,-6.000000,12.000000
1296750.785217,6.000000,-7.000000,-43.000000,34.000000,62.000000,24.000000,9.000000,-25.000000
1296750.786418,-2.000000,1.000000,9.000000,-21.000000,-27.000000,-1.000000,-4.000000,1.000000
1296750.786799,3.000000,25.000000,-2.000000,-7.000000,5.000000,-5.000000,-1.000000,-4.000000
1296750.787710,-10.000000,-52.000000,3.000000,37.000000,40.000000,7.000000,1.000000,-5.000000
1296750.787812,-3.000000,23.000000,-6.000000,-3.000000,-12.000000,-4.000000,-3.000000,-25.000000
1296750.789120,-9.000000,-8.000000,7.000000,5.000000,27.000000,5.000000,-9.000000,-13.000000
1296750.789171,-6.000000,11.000000,18.000000,-3.000000,-9.000000,-2.000000,3.000000,-3.000000
1296750.789476,6.000000,-8.000000,-6.000000,-7.000000,-2.000000,1.000000,2.000000,-57.000000
1296750.789524,5.000000,-20.000000,-36.000000,12.000000,4.000000,1.000000,0.000000,17.000000
1296750.799014,6.000000,-6.000000,-23.000000,-10.000000,41.000000,19.000000,12.000000,12.000000
1296750.799045,6.000000,22.000000,18.000000,45.000000,-13.000000,6.000000,-2.000000,31.000000
1296750.807677,-6.000000,-26.000000,-3.000000,-26.000000,-14.000000,-10.000000,2.000000,2.000000
1296750.807703,-2.000000,13.000000,-1.000000,3.000000,6.000000,-8.000000,-7.000000,-22.000000
1296750.821672,8.000000,12.000000,-7.000000,-21.000000,-10.000000,-3.000000,4.000000,32.000000
1296750.821730,-7.000000,-11.000000,-5.000000,27.000000,-33.000000,9.000000,2.000000,-69.000000
1296750.829061,1.000000,-6.000000,-17.000000,-57.000000,7.000000,-9.000000,-7.000000,13.000000
1296750.829110,-6.000000,-25.000000,-18.000000,0.000000,-26.000000,1.000000,-10.000000,10.000000
1296750.836726,-5.000000,17.000000,21.000000,33.000000,6.000000,7.000000,3.000000,-20.000000
1296750.836753,8.000000,-13.000000,7.000000,2.000000,0.000000,-5.000000,3.000000,11.000000
1296750.897047,2.000000,-2.000000,-17.000000,2.000000,14.000000,-1.000000,-4.000000,-3.000000
1296750.897077,-1.000000,22.000000,16.000000,6.000000,-10.000000,2.000000,0.000000,-7.000000
1296750.897197,-4.000000,-6.000000,-2.000000,1.000000,0.000000,-14.000000,2.000000,1.000000
