# participant_id: P7
# gesture: soft
# trial_number: 2
# stream_name: Myo_EMG
# stream_type: emg
# timestamp: 20260420_151518
# samples: 5359
# duration_sec: 30.409
# nominal_sample_rate: 200.0
# effective_sample_rate: 176.20
#
timestamp,emg_1,emg_2,emg_3,emg_4,emg_5,emg_6,emg_7,emg_8
1302810.452539,2.000000,-12.000000,-5.000000,15.000000,14.000000,-2.000000,-2.000000,4.000000
1302810.471308,-4.000000,15.000000,5.000000,-2.000000,1.000000,-7.000000,-29.000000,-7.000000
1302810.471319,2.000000,-4.000000,-3.000000,21.000000,0.000000,2.000000,13.000000,1.000000
1302810.471842,-11.000000,-11.000000,-51.000000,-14.000000,-3.000000,0.000000,-13.000000,-12.000000
1302810.471860,3.000000,-1.000000,21.000000,23.000000,-2.000000,-8.000000,25.000000,18.000000
1302810.501394,2.000000,-14.000000,6.000000,-40.000000,-20.000000,-17.000000,-25.000000,-7.000000
1302810.501430,-13.000000,12.000000,-3.000000,-28.000000,-20.000000,-10.000000,-8.000000,-5.000000
1302810.508949,18.000000,2.000000,-11.000000,-43.000000,-6.000000,4.000000,31.000000,8.000000
1302810.508959,-7.000000,-11.000000,-1.000000,9.000000,-1.000000,-1.000000,-22.000000,-8.000000
1302810.531286,-9.000000,-12.000000,-3.000000,-90.000000,-22.000000,-3.000000,28.000000,6.000000
1302810.531323,26.000000,10.000000,-9.000000,48.000000,23.000000,1.000000,-21.000000,0.000000
1302810.538965,-31.000000,-5.000000,4.000000,-17.000000,-9.000000,-20.000000,-11.000000,-15.000000
1302810.538978,-2.000000,-28.000000,-11.000000,-57.000000,-12.000000,-3.000000,1.000000,0.000000
1302810.553784,7.000000,-3.000000,27.000000,82.000000,11.000000,-6.000000,-10.000000,-2.000000
1302810.553796,-14.000000,0.000000,-45.000000,-55.000000,-3.000000,3.000000,-12.000000,-13.000000
1302810.554110,5.000000,-2.000000,46.000000,20.000000,11.000000,-4.000000,6.000000,4.000000
1302810.554119,16.000000,8.000000,6.000000,60.000000,16.000000,6.000000,-14.000000,3.000000
1302810.555367,-4.000000,10.000000,7.000000,11.000000,4.000000,6.000000,28.000000,0.000000
1302810.555378,4.000000,-10.000000,-9.000000,-17.000000,1.000000,10.000000,30.000000,6.000000
1302810.556289,-5.000000,-3.000000,3.000000,39.000000,5.000000,0.000000,-17.000000,2.000000
1302810.556299,6.000000,3.000000,-3.000000,37.000000,15.000000,5.000000,-11.000000,-6.000000
1302810.583945,3.000000,13.000000,38.000000,106.000000,46.000000,19.000000,5.000000,4.000000
1302810.583975,17.000000,6.000000,47.000000,117.000000,30.000000,12.000000,-37.000000,6.000000
1302810.591436,8.000000,-16.000000,-26.000000,1.000000,7.000000,13.000000,61.000000,22.000000
1302810.591447,-6.000000,13.000000,-23.000000,-13.000000,-13.000000,-23.000000,-32.000000,-14.000000
1302810.606592,20.000000,17.000000,6.000000,-7.000000,20.000000,14.000000,39.000000,15.000000
1302810.606602,-19.000000,-41.000000,25.000000,23.000000,-5.000000,-7.000000,-33.000000,-14.000000
1302810.607137,6.000000,1.000000,-2.000000,14.000000,2.000000,3.000000,6.000000,-1.000000
1302810.607148,-6.000000,2.000000,-1.000000,-27.000000,11.000000,13.000000,10.000000,2.000000
1302810.608671,4.000000,-16.000000,4.000000,-89.000000,-27.000000,-12.000000,2.000000,-7.000000
1302810.608679,-18.000000,5.000000,3.000000,-9.000000,-9.000000,-4.000000,-16.000000,-1.000000
1302810.613641,12.000000,-5.000000,-20.000000,-28.000000,-9.000000,-3.000000,18.000000,-1.000000
1302810.613650,4.000000,-2.000000,19.000000,-49.000000,-26.000000,-6.000000,-16.000000,-7.000000
1302810.629083,-11.000000,-5.000000,2.000000,-6.000000,3.000000,-1.000000,-9.000000,0.000000
1302810.629096,7.000000,3.000000,-9.000000,3.000000,5.000000,4.000000,25.000000,3.000000
1302810.651357,-7.000000,-7.000000,-10.000000,4.000000,14.000000,14.000000,8.000000,-1.000000
1302810.651374,12.000000,21.000000,75.000000,115.000000,13.000000,-19.000000,3.000000,9.000000
1302810.673665,-10.000000,-15.000000,-29.000000,11.000000,2.000000,3.000000,7.000000,-5.000000
1302810.673694,0.000000,-16.000000,-6.000000,-82.000000,-22.000000,-10.000000,-15.000000,-3.000000
1302810.688951,4.000000,17.000000,3.000000,68.000000,21.000000,-2.000000,-25.000000,3.000000
1302810.689070,-15.000000,9.000000,-12.000000,-19.000000,-11.000000,-7.000000,-27.000000,-21.000000
1302810.689833,0.000000,-17.000000,13.000000,18.000000,9.000000,20.000000,60.000000,34.000000
1302810.689843,-1.000000,36.000000,24.000000,-23.000000,-8.000000,-5.000000,-36.000000,-10.000000
1302810.690300,-3.000000,6.000000,-3.000000,77.000000,16.000000,-11.000000,-19.000000,-15.000000
1302810.690308,3.000000,0.000000,-9.000000,-11.000000,1.000000,6.000000,33.000000,12.000000
1302810.692354,2.000000,-5.000000,-10.000000,-28.000000,-22.000000,-3.000000,-2.000000,3.000000
1302810.692366,-7.000000,2.000000,-11.000000,13.000000,16.000000,11.000000,-40.000000,-11.000000
1302810.704021,-8.000000,-6.000000,13.000000,34.000000,4.000000,7.000000,46.000000,5.000000
1302810.704122,0.000000,-4.000000,-2.000000,-20.000000,-20.000000,-1.000000,48.000000,3.000000
1302810.711046,-1.000000,-4.000000,7.000000,0.000000,9.000000,-1.000000,-32.000000,1.000000
1302810.711095,-10.000000,-3.000000,16.000000,-10.000000,-3.000000,5.000000,-25.000000,-23.000000
1302810.711686,1.000000,10.000000,0.000000,-16.000000,-1.000000,4.000000,39.000000,15.000000
1302810.711695,-4.000000,-21.000000,-10.000000,-1.000000,1.000000,7.000000,22.000000,22.000000
1302810.726945,-6.000000,9.000000,5.000000,-35.000000,-6.000000,1.000000,-13.000000,-13.000000
1302810.726955,2.000000,7.000000,-12.000000,-23.000000,-11.000000,-8.000000,-13.000000,8.000000
1302810.733983,-10.000000,-15.000000,-12.000000,-52.000000,-19.000000,-18.000000,-24.000000,-14.000000
1302810.733994,13.000000,6.000000,-2.000000,-13.000000,-1.000000,1.000000,27.000000,14.000000
1302810.771505,-1.000000,2.000000,-19.000000,-35.000000,-6.000000,0.000000,-11.000000,-5.000000
1302810.771518,-7.000000,-19.000000,4.000000,-19.000000,-4.000000,5.000000,-22.000000,-13.000000
1302810.779077,5.000000,32.000000,2.000000,-5.000000,-7.000000,3.000000,27.000000,10.000000
1302810.779090,5.000000,1.000000,-20.000000,-18.000000,-19.000000,-14.000000,-7.000000,-3.000000
1302810.793716,-9.000000,-10.000000,-20.000000,-3.000000,2.000000,-4.000000,-12.000000,-11.000000
1302810.793736,0.000000,-6.000000,-53.000000,-18.000000,3.000000,8.000000,-30.000000,-12.000000
1302810.808596,15.000000,18.000000,19.000000,2.000000,-4.000000,4.000000,57.000000,24.000000
1302810.808608,17.000000,-2.000000,-5.000000,-17.000000,-8.000000,-18.000000,-44.000000,9.000000
1302810.809755,-18.000000,-3.000000,-13.000000,18.000000,3.000000,7.000000,12.000000,-7.000000
1302810.809764,6.000000,2.000000,-4.000000,-10.000000,18.000000,11.000000,34.000000,16.000000
1302810.810357,2.000000,11.000000,11.000000,-16.000000,-4.000000,-5.000000,-13.000000,4.000000
1302810.810365,-16.000000,-10.000000,7.000000,64.000000,2.000000,6.000000,-33.000000,-16.000000
1302810.811820,9.000000,15.000000,-6.000000,-19.000000,-11.000000,-17.000000,19.000000,9.000000
1302810.811828,6.000000,-2.000000,-38.000000,-25.000000,0.000000,2.000000,-13.000000,4.000000
1302810.818218,1.000000,5.000000,-1.000000,-25.000000,-19.000000,11.000000,33.000000,3.000000
1302810.818229,-2.000000,-3.000000,5.000000,33.000000,-4.000000,-13.000000,-13.000000,-9.000000
1302810.831852,21.000000,17.000000,25.000000,80.000000,30.000000,16.000000,8.000000,22.000000
1302810.831862,-19.000000,-3.000000,-25.000000,62.000000,4.000000,6.000000,24.000000,5.000000
1302810.832102,17.000000,1.000000,5.000000,22.000000,10.000000,5.000000,-14.000000,0.000000
1302810.832110,10.000000,18.000000,-1.000000,-8.000000,8.000000,17.000000,70.000000,31.000000
1302810.869121,2.000000,5.000000,-15.000000,-40.000000,-10.000000,-3.000000,-20.000000,-1.000000
1302810.869134,-3.000000,4.000000,15.000000,5.000000,-6.000000,-5.000000,-22.000000,-7.000000
1302810.883846,-5.000000,0.000000,-10.000000,-50.000000,-27.000000,-8.000000,5.000000,-13.000000
1302810.883856,4.000000,8.000000,7.000000,21.000000,8.000000,-1.000000,2.000000,19.000000
1302810.906419,8.000000,-2.000000,13.000000,49.000000,30.000000,11.000000,3.000000,1.000000
1302810.906431,-11.000000,14.000000,4.000000,6.000000,7.000000,10.000000,0.000000,-2.000000
1302810.928646,-4.000000,-13.000000,-2.000000,-26.000000,-21.000000,-24.000000,-53.000000,-17.000000
1302810.928658,25.000000,36.000000,55.000000,44.000000,16.000000,16.000000,47.000000,26.000000
1302810.929710,20.000000,3.000000,11.000000,46.000000,45.000000,13.000000,40.000000,33.000000
1302810.929720,-11.000000,6.000000,-18.000000,-33.000000,-8.000000,14.000000,-26.000000,-17.000000
1302810.930319,-1.000000,2.000000,-25.000000,7.000000,-8.000000,-22.000000,-13.000000,2.000000
1302810.930327,0.000000,-13.000000,-14.000000,20.000000,1.000000,-10.000000,11.000000,1.000000
1302810.931883,7.000000,1.000000,20.000000,-12.000000,6.000000,9.000000,-22.000000,-16.000000
1302810.931892,-4.000000,-7.000000,2.000000,15.000000,-9.000000,0.000000,21.000000,8.000000
1302810.932714,-18.000000,-1.000000,2.000000,-39.000000,-3.000000,3.000000,15.000000,-11.000000
1302810.932724,19.000000,10.000000,-12.000000,-19.000000,-18.000000,-2.000000,-19.000000,-1.000000
1302810.943568,-1.000000,-20.000000,-1.000000,26.000000,15.000000,5.000000,50.000000,24.000000
1302810.943578,-9.000000,4.000000,14.000000,67.000000,-3.000000,-4.000000,-56.000000,-18.000000
1302810.966360,3.000000,-1.000000,-22.000000,-6.000000,-9.000000,-2.000000,41.000000,-1.000000
1302810.966370,5.000000,-6.000000,25.000000,31.000000,5.000000,-12.000000,-32.000000,-1.000000
1302810.981540,13.000000,7.000000,2.000000,8.000000,6.000000,5.000000,26.000000,9.000000
1302810.981551,-10.000000,2.000000,62.000000,32.000000,8.000000,-1.000000,-41.000000,-18.000000
1302811.003954,13.000000,4.000000,-28.000000,0.000000,1.000000,6.000000,7.000000,6.000000
1302811.003979,-16.000000,-13.000000,-5.000000,-60.000000,-19.000000,-4.000000,-5.000000,-7.000000
1302811.011540,14.000000,15.000000,25.000000,-13.000000,-4.000000,-6.000000,-9.000000,-5.000000
1302811.011563,-9.000000,-11.000000,-9.000000,-21.000000,-18.000000,-13.000000,-30.000000,-14.000000
1302811.048719,0.000000,-4.000000,-7.000000,15.000000,18.000000,9.000000,3.000000,-14.000000
1302811.048744,-27.000000,-28.000000,-15.000000,-36.000000,-5.000000,0.000000,6.000000,-15.000000
1302811.055955,1.000000,5.000000,2.000000,5.000000,1.000000,-13.000000,-35.000000,-16.000000
1302811.055977,4.000000,10.000000,-13.000000,42.000000,18.000000,6.000000,27.000000,29.000000
1302811.064432,4.000000,15.000000,36.000000,3.000000,2.000000,-7.000000,10.000000,-5.000000
1302811.064441,7.000000,4.000000,59.000000,34.000000,20.000000,15.000000,30.000000,2.000000
1302811.065617,2.000000,10.000000,-21.000000,-37.000000,-24.000000,-14.000000,-37.000000,-27.000000
1302811.065651,7.000000,15.000000,20.000000,28.000000,5.000000,17.000000,96.000000,35.000000
1302811.066267,-6.000000,2.000000,-12.000000,39.000000,6.000000,7.000000,-49.000000,-18.000000
1302811.066275,-4.000000,-10.000000,12.000000,34.000000,20.000000,0.000000,72.000000,17.000000
1302811.066817,5.000000,1.000000,-7.000000,1.000000,1.000000,7.000000,70.000000,28.000000
1302811.066825,-7.000000,-12.000000,-3.000000,9.000000,-3.000000,3.000000,-14.000000,1.000000
1302811.071501,0.000000,8.000000,-1.000000,-7.000000,-6.000000,-10.000000,-42.000000,-18.000000
1302811.071512,-4.000000,-2.000000,-2.000000,-4.000000,-3.000000,3.000000,12.000000,-7.000000
1302811.108824,10.000000,7.000000,20.000000,36.000000,8.000000,4.000000,-12.000000,2.000000
1302811.108834,6.000000,1.000000,-62.000000,11.000000,1.000000,6.000000,53.000000,31.000000
1302811.146481,-1.000000,-14.000000,-4.000000,4.000000,9.000000,-2.000000,-37.000000,-11.000000
1302811.146499,6.000000,15.000000,6.000000,28.000000,0.000000,-7.000000,32.000000,6.000000
1302811.161566,-10.000000,0.000000,-2.000000,11.000000,20.000000,5.000000,-13.000000,-6.000000
1302811.161582,13.000000,14.000000,16.000000,2.000000,7.000000,7.000000,-3.000000,0.000000
1302811.162313,2.000000,-6.000000,-19.000000,-37.000000,-16.000000,-4.000000,17.000000,2.000000
1302811.162321,-15.000000,1.000000,9.000000,22.000000,7.000000,12.000000,-10.000000,-3.000000
1302811.162875,0.000000,-16.000000,-38.000000,-73.000000,-17.000000,-15.000000,-13.000000,-6.000000
1302811.162882,7.000000,7.000000,16.000000,78.000000,20.000000,1.000000,-3.000000,16.000000
1302811.165154,5.000000,-4.000000,-10.000000,-12.000000,-8.000000,-8.000000,-16.000000,-2.000000
1302811.165166,-12.000000,-11.000000,-11.000000,-21.000000,-20.000000,-17.000000,-17.000000,-12.000000
1302811.184121,3.000000,15.000000,6.000000,-12.000000,2.000000,-3.000000,-3.000000,2.000000
1302811.184136,7.000000,0.000000,7.000000,127.000000,60.000000,12.000000,-9.000000,-2.000000
1302811.184888,4.000000,3.000000,-10.000000,-10.000000,13.000000,9.000000,-16.000000,1.000000
1302811.184915,7.000000,7.000000,17.000000,-3.000000,-13.000000,-2.000000,26.000000,7.000000
1302811.221342,3.000000,-3.000000,-12.000000,-25.000000,-1.000000,-7.000000,-14.000000,-4.000000
1302811.221359,4.000000,5.000000,1.000000,27.000000,11.000000,10.000000,-2.000000,-3.000000
1302811.228748,6.000000,2.000000,-24.000000,24.000000,17.000000,11.000000,-10.000000,10.000000
1302811.228757,4.000000,5.000000,51.000000,48.000000,-14.000000,7.000000,48.000000,5.000000
1302811.259026,-5.000000,17.000000,10.000000,-13.000000,0.000000,6.000000,-8.000000,7.000000
1302811.259037,-7.000000,-13.000000,-14.000000,20.000000,-4.000000,-9.000000,-39.000000,-11.000000
1302811.266324,-10.000000,-10.000000,-10.000000,-1.000000,1.000000,-16.000000,5.000000,-17.000000
1302811.266335,12.000000,24.000000,-8.000000,-42.000000,-6.000000,6.000000,14.000000,9.000000
1302811.288568,-19.000000,-33.000000,-43.000000,79.000000,8.000000,-3.000000,-26.000000,-19.000000
1302811.288578,10.000000,7.000000,37.000000,4.000000,-3.000000,5.000000,12.000000,13.000000
1302811.303987,-14.000000,-7.000000,-1.000000,73.000000,35.000000,25.000000,21.000000,9.000000
1302811.304387,-11.000000,-5.000000,12.000000,-63.000000,-47.000000,-48.000000,-44.000000,-12.000000
1302811.305162,11.000000,11.000000,-44.000000,51.000000,30.000000,20.000000,48.000000,9.000000
1302811.305170,-20.000000,-36.000000,-20.000000,-30.000000,-16.000000,-11.000000,-22.000000,-13.000000
1302811.305988,7.000000,6.000000,23.000000,31.000000,3.000000,5.000000,36.000000,12.000000
1302811.305996,0.000000,-9.000000,-26.000000,-74.000000,-15.000000,-8.000000,-29.000000,-14.000000
1302811.308065,-3.000000,-12.000000,-15.000000,-49.000000,-20.000000,-2.000000,1.000000,3.000000
1302811.308075,8.000000,2.000000,-36.000000,-15.000000,-11.000000,-4.000000,40.000000,11.000000
1302811.341434,-10.000000,-8.000000,27.000000,11.000000,11.000000,4.000000,-45.000000,-24.000000
1302811.341445,-2.000000,8.000000,-16.000000,-32.000000,-12.000000,-19.000000,-8.000000,0.000000
1302811.348823,1.000000,-13.000000,-16.000000,-69.000000,-5.000000,6.000000,47.000000,13.000000
1302811.348834,0.000000,22.000000,13.000000,17.000000,6.000000,1.000000,-28.000000,-8.000000
1302811.386431,4.000000,-7.000000,-18.000000,-25.000000,-13.000000,-16.000000,-1.000000,-9.000000
1302811.386441,3.000000,-1.000000,26.000000,95.000000,21.000000,2.000000,-14.000000,10.000000
1302811.408965,-8.000000,-5.000000,1.000000,3.000000,-3.000000,3.000000,13.000000,-11.000000
1302811.409080,-5.000000,-18.000000,-6.000000,52.000000,9.000000,3.000000,6.000000,1.000000
1302811.409729,12.000000,7.000000,-1.000000,-10.000000,-7.000000,-8.000000,-4.000000,-1.000000
1302811.409737,-7.000000,-12.000000,-10.000000,-15.000000,-3.000000,-3.000000,-18.000000,-7.000000
1302811.410487,7.000000,11.000000,-55.000000,-21.000000,-6.000000,-5.000000,-6.000000,12.000000
1302811.410497,1.000000,0.000000,48.000000,127.000000,33.000000,16.000000,29.000000,2.000000
1302811.411770,3.000000,5.000000,-12.000000,-61.000000,-9.000000,6.000000,6.000000,0.000000
1302811.411778,-9.000000,-4.000000,-21.000000,2.000000,-11.000000,-17.000000,-27.000000,-12.000000
1302811.412601,3.000000,-3.000000,2.000000,-8.000000,-1.000000,4.000000,15.000000,0.000000
1302811.412628,4.000000,25.000000,7.000000,-11.000000,4.000000,1.000000,-26.000000,-16.000000
1302811.439146,-4.000000,-14.000000,-30.000000,-19.000000,-10.000000,-19.000000,-24.000000,-9.000000
1302811.439158,12.000000,11.000000,-17.000000,116.000000,37.000000,20.000000,68.000000,39.000000
1302811.446526,3.000000,11.000000,2.000000,-7.000000,2.000000,-6.000000,-47.000000,-7.000000
1302811.446538,-16.000000,-4.000000,-18.000000,-15.000000,6.000000,10.000000,11.000000,-17.000000
1302811.483973,37.000000,7.000000,14.000000,30.000000,0.000000,1.000000,43.000000,39.000000
1302811.483983,-14.000000,-13.000000,-6.000000,-24.000000,-3.000000,2.000000,-23.000000,-4.000000
1302811.498926,-6.000000,-13.000000,-4.000000,9.000000,15.000000,1.000000,-9.000000,-12.000000
1302811.498944,0.000000,-1.000000,9.000000,-5.000000,-12.000000,-15.000000,4.000000,4.000000
1302811.506478,-4.000000,15.000000,9.000000,-36.000000,0.000000,2.000000,-17.000000,-4.000000
1302811.506488,-8.000000,-4.000000,1.000000,-42.000000,-4.000000,-4.000000,-28.000000,-14.000000
1302811.507164,-6.000000,-10.000000,-12.000000,2.000000,-4.000000,-1.000000,50.000000,-5.000000
1302811.507177,9.000000,7.000000,-7.000000,-5.000000,6.000000,20.000000,20.000000,16.000000
1302811.508435,-5.000000,-4.000000,-78.000000,-20.000000,-16.000000,-21.000000,-43.000000,-19.000000
1302811.508449,15.000000,12.000000,63.000000,127.000000,69.000000,16.000000,14.000000,15.000000
1302811.521843,5.000000,3.000000,-10.000000,-4.000000,-2.000000,5.000000,-13.000000,-4.000000
1302811.521853,2.000000,-1.000000,-9.000000,24.000000,9.000000,7.000000,-2.000000,-3.000000
1302811.536296,-16.000000,-28.000000,-17.000000,-6.000000,-8.000000,-2.000000,-28.000000,-5.000000
1302811.536328,-3.000000,9.000000,9.000000,15.000000,-11.000000,-9.000000,62.000000,-5.000000
1302811.544159,12.000000,13.000000,4.000000,-23.000000,-2.000000,-11.000000,-23.000000,3.000000
1302811.544168,-16.000000,-6.000000,24.000000,4.000000,1.000000,2.000000,-12.000000,1.000000
1302811.545362,12.000000,7.000000,-57.000000,-19.000000,-10.000000,-12.000000,-14.000000,8.000000
1302811.545372,-5.000000,1.000000,23.000000,33.000000,24.000000,16.000000,-25.000000,-12.000000
1302811.566189,-7.000000,-1.000000,-13.000000,-42.000000,-27.000000,-18.000000,55.000000,-10.000000
1302811.566212,-12.000000,-14.000000,24.000000,65.000000,30.000000,2.000000,-32.000000,1.000000
1302811.581610,-18.000000,-19.000000,-25.000000,-34.000000,-26.000000,-20.000000,-7.000000,-15.000000
1302811.581623,23.000000,24.000000,34.000000,31.000000,19.000000,12.000000,16.000000,13.000000
1302811.618873,-14.000000,-19.000000,-31.000000,-10.000000,-12.000000,-7.000000,-21.000000,-8.000000
1302811.618884,-2.000000,-5.000000,-19.000000,-37.000000,-19.000000,-6.000000,-3.000000,-6.000000
1302811.626442,6.000000,-3.000000,11.000000,17.000000,9.000000,-6.000000,3.000000,2.000000
1302811.626454,0.000000,10.000000,3.000000,-11.000000,-5.000000,-2.000000,-32.000000,-5.000000
1302811.641651,-5.000000,-1.000000,-76.000000,-5.000000,3.000000,7.000000,38.000000,0.000000
1302811.641662,5.000000,3.000000,32.000000,63.000000,17.000000,8.000000,-21.000000,3.000000
1302811.642210,-2.000000,-8.000000,-4.000000,19.000000,-11.000000,5.000000,12.000000,-10.000000
1302811.642219,-3.000000,-2.000000,-18.000000,-28.000000,-7.000000,-11.000000,8.000000,-10.000000
1302811.643594,-2.000000,-7.000000,-1.000000,-34.000000,-2.000000,-6.000000,-2.000000,2.000000
1302811.643604,-15.000000,-9.000000,-7.000000,10.000000,-13.000000,-5.000000,-24.000000,-19.000000
1302811.648696,-6.000000,1.000000,7.000000,65.000000,2.000000,-11.000000,-27.000000,-11.000000
1302811.648705,1.000000,-6.000000,7.000000,-52.000000,-9.000000,22.000000,19.000000,11.000000
1302811.664006,5.000000,24.000000,8.000000,76.000000,6.000000,-5.000000,7.000000,-14.000000
1302811.664033,10.000000,-10.000000,9.000000,16.000000,-1.000000,-4.000000,16.000000,22.000000
1302811.664981,-6.000000,17.000000,2.000000,0.000000,0.000000,1.000000,-20.000000,-9.000000
1302811.664991,-3.000000,-9.000000,-41.000000,62.000000,43.000000,11.000000,-35.000000,-5.000000
1302811.686282,-9.000000,-11.000000,10.000000,-30.000000,-4.000000,18.000000,13.000000,-6.000000
1302811.686293,1.000000,-10.000000,5.000000,11.000000,-2.000000,-21.000000,-7.000000,0.000000
1302811.693675,-10.000000,-14.000000,-9.000000,18.000000,3.000000,4.000000,-23.000000,-11.000000
1302811.693702,-7.000000,3.000000,-14.000000,24.000000,15.000000,1.000000,13.000000,-4.000000
1302811.708614,-3.000000,-3.000000,13.000000,16.000000,5.000000,3.000000,4.000000,5.000000
1302811.708642,-3.000000,-9.000000,-30.000000,-60.000000,-19.000000,-8.000000,-5.000000,-4.000000
1302811.716409,-12.000000,-1.000000,1.000000,-13.000000,-16.000000,-11.000000,-24.000000,-12.000000
1302811.716420,-4.000000,2.000000,-12.000000,-9.000000,-6.000000,-4.000000,-2.000000,-16.000000
1302811.731140,11.000000,-3.000000,-3.000000,-8.000000,-4.000000,6.000000,23.000000,27.000000
1302811.731153,1.000000,4.000000,26.000000,-14.000000,-11.000000,-6.000000,6.000000,-5.000000
1302811.738720,4.000000,14.000000,-1.000000,-5.000000,18.000000,29.000000,47.000000,16.000000
1302811.738765,-11.000000,-14.000000,-42.000000,-119.000000,-44.000000,-22.000000,-15.000000,-9.000000
1302811.739899,-11.000000,-6.000000,16.000000,58.000000,10.000000,7.000000,-24.000000,-9.000000
1302811.739926,-5.000000,-3.000000,-6.000000,-30.000000,-21.000000,-17.000000,10.000000,-12.000000
1302811.761257,7.000000,-10.000000,-8.000000,-19.000000,-5.000000,-6.000000,13.000000,19.000000
1302811.761267,3.000000,16.000000,11.000000,-11.000000,-2.000000,1.000000,-14.000000,-6.000000
1302811.762292,-6.000000,-18.000000,-9.000000,47.000000,38.000000,16.000000,-15.000000,-9.000000
1302811.762299,2.000000,0.000000,6.000000,25.000000,0.000000,4.000000,19.000000,10.000000
1302811.776073,13.000000,19.000000,12.000000,5.000000,1.000000,3.000000,2.000000,5.000000
1302811.776103,-10.000000,-28.000000,-19.000000,-23.000000,-13.000000,0.000000,-4.000000,-9.000000
1302811.777411,-4.000000,-4.000000,-6.000000,-50.000000,-30.000000,-7.000000,-4.000000,-2.000000
1302811.777419,-3.000000,2.000000,10.000000,65.000000,30.000000,11.000000,-19.000000,-5.000000
1302811.784071,5.000000,-2.000000,-18.000000,-58.000000,-11.000000,-8.000000,33.000000,13.000000
1302811.784091,-4.000000,-1.000000,-2.000000,-8.000000,0.000000,1.000000,-8.000000,-5.000000
1302811.821416,3.000000,5.000000,8.000000,42.000000,29.000000,11.000000,1.000000,3.000000
1302811.821428,2.000000,4.000000,-6.000000,1.000000,-1.000000,-5.000000,-12.000000,-3.000000
1302811.836314,-5.000000,1.000000,12.000000,44.000000,-6.000000,1.000000,-30.000000,-14.000000
1302811.836325,6.000000,1.000000,5.000000,18.000000,6.000000,5.000000,52.000000,19.000000
1302811.858703,9.000000,5.000000,17.000000,100.000000,31.000000,12.000000,19.000000,8.000000
1302811.858713,-6.000000,-7.000000,-5.000000,-8.000000,-3.000000,-6.000000,-6.000000,-3.000000
1302811.881354,-1.000000,-2.000000,-11.000000,-13.000000,4.000000,7.000000,-16.000000,-7.000000
1302811.881366,-1.000000,-10.000000,-4.000000,-58.000000,-32.000000,-16.000000,-37.000000,-10.000000
1302811.903686,3.000000,1.000000,18.000000,23.000000,18.000000,12.000000,33.000000,9.000000
1302811.903696,1.000000,-5.000000,-10.000000,-1.000000,-14.000000,-12.000000,-18.000000,1.000000
1302811.918766,-7.000000,-6.000000,-21.000000,-33.000000,-4.000000,1.000000,0.000000,-1.000000
1302811.918795,8.000000,2.000000,14.000000,10.000000,20.000000,12.000000,5.000000,8.000000
1302811.963858,5.000000,7.000000,11.000000,37.000000,-8.000000,-14.000000,-23.000000,-3.000000
1302811.963887,-1.000000,3.000000,13.000000,10.000000,26.000000,20.000000,47.000000,12.000000
1302812.001769,6.000000,-15.000000,6.000000,4.000000,-22.000000,-28.000000,49.000000,10.000000
1302812.001778,17.000000,12.000000,7.000000,-34.000000,-18.000000,-2.000000,15.000000,14.000000
1302812.002319,-2.000000,-7.000000,-10.000000,-28.000000,-2.000000,-3.000000,-10.000000,-5.000000
1302812.002330,-3.000000,10.000000,7.000000,-26.000000,-2.000000,-6.000000,8.000000,-5.000000
1302812.003450,-2.000000,-5.000000,0.000000,-43.000000,-24.000000,-19.000000,5.000000,-8.000000
1302812.003457,-8.000000,-23.000000,-20.000000,-24.000000,-13.000000,-2.000000,3.000000,5.000000
1302812.016381,-10.000000,-11.000000,18.000000,2.000000,6.000000,-5.000000,0.000000,-3.000000
1302812.016519,5.000000,4.000000,-2.000000,13.000000,5.000000,9.000000,26.000000,-1.000000
1302812.017538,-8.000000,-6.000000,0.000000,6.000000,-1.000000,-15.000000,10.000000,0.000000
1302812.017547,-5.000000,16.000000,32.000000,60.000000,32.000000,7.000000,0.000000,1.000000
1302812.038731,0.000000,-9.000000,-25.000000,-24.000000,-12.000000,5.000000,-14.000000,-5.000000
1302812.038741,-6.000000,-4.000000,-16.000000,-30.000000,-2.000000,1.000000,22.000000,3.000000
1302812.061402,-6.000000,-13.000000,-7.000000,-1.000000,-5.000000,2.000000,7.000000,0.000000
1302812.061412,-3.000000,6.000000,10.000000,-15.000000,-11.000000,13.000000,-2.000000,1.000000
1302812.076368,7.000000,-7.000000,24.000000,110.000000,5.000000,-32.000000,-9.000000,-7.000000
1302812.076379,0.000000,7.000000,4.000000,-9.000000,0.000000,15.000000,25.000000,11.000000
1302812.098704,4.000000,4.000000,4.000000,-1.000000,0.000000,-1.000000,2.000000,7.000000
1302812.098715,-4.000000,1.000000,-8.000000,-60.000000,0.000000,6.000000,-18.000000,-10.000000
1302812.099084,-5.000000,-5.000000,-15.000000,-111.000000,-22.000000,1.000000,-13.000000,-3.000000
1302812.099093,-9.000000,-14.000000,-4.000000,-7.000000,2.000000,3.000000,8.000000,-21.000000
1302812.100675,0.000000,18.000000,28.000000,-37.000000,-21.000000,-16.000000,-23.000000,-2.000000
1302812.100688,-12.000000,-20.000000,-17.000000,10.000000,5.000000,1.000000,8.000000,-4.000000
1302812.101265,3.000000,-3.000000,8.000000,17.000000,1.000000,1.000000,-7.000000,6.000000
1302812.101274,-2.000000,0.000000,2.000000,39.000000,8.000000,3.000000,13.000000,-4.000000
1302812.113855,3.000000,-5.000000,-8.000000,-12.000000,-5.000000,-3.000000,-1.000000,2.000000
1302812.113876,-19.000000,-12.000000,-17.000000,5.000000,-9.000000,7.000000,-13.000000,-15.000000
1302812.115208,5.000000,13.000000,52.000000,86.000000,26.000000,-2.000000,19.000000,7.000000
1302812.115237,-6.000000,-12.000000,-38.000000,-18.000000,-4.000000,-11.000000,10.000000,7.000000
1302812.136177,3.000000,8.000000,7.000000,-8.000000,2.000000,6.000000,-26.000000,-15.000000
1302812.136189,2.000000,4.000000,-5.000000,-17.000000,-7.000000,-9.000000,-1.000000,9.000000
1302812.137463,-11.000000,-18.000000,-7.000000,55.000000,12.000000,3.000000,35.000000,-8.000000
1302812.137473,8.000000,10.000000,-6.000000,14.000000,9.000000,14.000000,60.000000,29.000000
1302812.166390,4.000000,-5.000000,-10.000000,-22.000000,-12.000000,-12.000000,-25.000000,-8.000000
1302812.166408,-14.000000,-2.000000,10.000000,-26.000000,-13.000000,12.000000,-25.000000,-22.000000
1302812.181470,15.000000,9.000000,-4.000000,-15.000000,-7.000000,-19.000000,4.000000,9.000000
1302812.181482,-5.000000,-4.000000,-2.000000,-47.000000,-29.000000,-14.000000,-21.000000,-8.000000
1302812.196780,2.000000,-6.000000,-11.000000,41.000000,18.000000,9.000000,17.000000,10.000000
1302812.196857,-3.000000,9.000000,13.000000,23.000000,0.000000,1.000000,-6.000000,-4.000000
1302812.211786,-9.000000,-8.000000,-20.000000,-22.000000,-10.000000,-9.000000,-6.000000,-6.000000
1302812.211795,-5.000000,-3.000000,35.000000,71.000000,25.000000,21.000000,-27.000000,-8.000000
1302812.212159,-3.000000,-2.000000,0.000000,-13.000000,-26.000000,-35.000000,36.000000,5.000000
1302812.212168,7.000000,-3.000000,-1.000000,-1.000000,10.000000,6.000000,-16.000000,0.000000
1302812.219130,-12.000000,-19.000000,-32.000000,-15.000000,-12.000000,0.000000,-17.000000,-10.000000
1302812.219142,-4.000000,1.000000,-5.000000,-14.000000,-7.000000,-12.000000,5.000000,-7.000000
1302812.219652,1.000000,-1.000000,6.000000,-6.000000,-14.000000,-6.000000,-43.000000,-7.000000
1302812.219661,5.000000,0.000000,11.000000,31.000000,11.000000,9.000000,16.000000,3.000000
1302812.220465,12.000000,3.000000,-3.000000,-70.000000,-24.000000,-11.000000,12.000000,17.000000
1302812.220473,-8.000000,-3.000000,-3.000000,25.000000,18.000000,16.000000,-31.000000,-14.000000
1302812.241197,7.000000,-3.000000,1.000000,-8.000000,-8.000000,-17.000000,19.000000,7.000000
1302812.241210,-1.000000,-6.000000,1.000000,44.000000,1.000000,-8.000000,-4.000000,2.000000
1302812.242510,-8.000000,-2.000000,27.000000,-32.000000,-5.000000,7.000000,-24.000000,-12.000000
1302812.242519,8.000000,2.000000,-3.000000,11.000000,2.000000,-1.000000,17.000000,6.000000
1302812.248737,-3.000000,-4.000000,5.000000,6.000000,20.000000,0.000000,-33.000000,-7.000000
1302812.248754,-7.000000,-11.000000,-14.000000,-8.000000,-5.000000,-2.000000,14.000000,-6.000000
1302812.271402,8.000000,5.000000,3.000000,10.000000,13.000000,6.000000,9.000000,10.000000
1302812.271413,6.000000,-2.000000,-7.000000,3.000000,-9.000000,-2.000000,-4.000000,3.000000
1302812.278903,-3.000000,2.000000,13.000000,57.000000,25.000000,-9.000000,0.000000,-4.000000
1302812.278914,1.000000,5.000000,-1.000000,-31.000000,-4.000000,-13.000000,15.000000,5.000000
1302812.316399,7.000000,-7.000000,5.000000,6.000000,7.000000,8.000000,10.000000,5.000000
1302812.316410,-9.000000,-1.000000,12.000000,-14.000000,-15.000000,-12.000000,-35.000000,-18.000000
1302812.323900,-1.000000,12.000000,8.000000,-36.000000,-28.000000,-13.000000,7.000000,1.000000
1302812.323911,12.000000,-10.000000,-8.000000,35.000000,23.000000,24.000000,76.000000,40.000000
1302812.338735,-3.000000,-5.000000,-7.000000,-18.000000,5.000000,21.000000,-36.000000,-14.000000
1302812.338746,-1.000000,13.000000,-11.000000,-23.000000,-39.000000,-42.000000,10.000000,1.000000
1302812.353607,-3.000000,-3.000000,3.000000,-4.000000,7.000000,3.000000,-4.000000,-3.000000
1302812.353617,9.000000,6.000000,-8.000000,-11.000000,1.000000,5.000000,-39.000000,0.000000
1302812.354616,-12.000000,-6.000000,-33.000000,-49.000000,-26.000000,0.000000,29.000000,-10.000000
1302812.354633,9.000000,6.000000,-4.000000,-11.000000,6.000000,1.000000,-1.000000,10.000000
1302812.368688,-1.000000,2.000000,-19.000000,-12.000000,3.000000,5.000000,34.000000,1.000000
1302812.368700,-12.000000,-24.000000,1.000000,-5.000000,-7.000000,-5.000000,25.000000,7.000000
1302812.376163,-6.000000,-10.000000,-3.000000,-37.000000,-7.000000,0.000000,-10.000000,-9.000000
1302812.376175,0.000000,15.000000,1.000000,-21.000000,-8.000000,-10.000000,-38.000000,-11.000000
1302812.376588,-2.000000,-16.000000,5.000000,-1.000000,-1.000000,-10.000000,-9.000000,-5.000000
1302812.376598,0.000000,-14.000000,-11.000000,-47.000000,-17.000000,2.000000,-12.000000,-7.000000
1302812.378490,8.000000,7.000000,17.000000,113.000000,33.000000,15.000000,6.000000,7.000000
1302812.378503,2.000000,1.000000,-13.000000,-15.000000,-4.000000,1.000000,5.000000,-1.000000
1302812.391474,-4.000000,-8.000000,-4.000000,-40.000000,-13.000000,2.000000,-23.000000,-7.000000
1302812.391497,19.000000,17.000000,23.000000,22.000000,25.000000,-6.000000,22.000000,4.000000
1302812.413773,-3.000000,-7.000000,-16.000000,20.000000,7.000000,4.000000,0.000000,4.000000
1302812.413783,-6.000000,5.000000,5.000000,5.000000,7.000000,14.000000,-44.000000,-11.000000
1302812.436467,11.000000,7.000000,4.000000,-3.000000,-9.000000,-9.000000,7.000000,-3.000000
1302812.436477,2.000000,-3.000000,-15.000000,-28.000000,-18.000000,-4.000000,74.000000,28.000000
1302812.451649,4.000000,12.000000,36.000000,62.000000,40.000000,30.000000,-16.000000,5.000000
1302812.451666,11.000000,12.000000,3.000000,16.000000,2.000000,5.000000,9.000000,9.000000
1302812.452169,-8.000000,3.000000,12.000000,79.000000,11.000000,5.000000,-18.000000,-13.000000
1302812.452182,4.000000,-4.000000,-9.000000,-12.000000,16.000000,11.000000,4.000000,5.000000
1302812.453494,3.000000,0.000000,16.000000,47.000000,7.000000,-5.000000,9.000000,2.000000
1302812.453522,-2.000000,7.000000,14.000000,-7.000000,-2.000000,8.000000,-11.000000,-10.000000
1302812.454133,-6.000000,-16.000000,-14.000000,-6.000000,-4.000000,-12.000000,-6.000000,-9.000000
1302812.454143,15.000000,8.000000,5.000000,-6.000000,-10.000000,-4.000000,27.000000,11.000000
1302812.458512,-7.000000,9.000000,43.000000,-16.000000,-15.000000,-1.000000,-11.000000,-8.000000
1302812.458521,2.000000,-4.000000,-17.000000,-30.000000,-4.000000,2.000000,-6.000000,2.000000
1302812.473949,-6.000000,-2.000000,-3.000000,-15.000000,-10.000000,2.000000,0.000000,-9.000000
1302812.473961,-16.000000,-1.000000,-1.000000,-28.000000,-15.000000,-16.000000,-71.000000,-21.000000
1302812.496320,6.000000,-7.000000,-3.000000,28.000000,11.000000,10.000000,109.000000,22.000000
1302812.496330,0.000000,-18.000000,-7.000000,0.000000,2.000000,0.000000,-30.000000,-2.000000
1302812.518744,-6.000000,-5.000000,-1.000000,-7.000000,2.000000,0.000000,-15.000000,-10.000000
1302812.518773,20.000000,30.000000,50.000000,127.000000,52.000000,33.000000,14.000000,17.000000
1302812.533730,-1.000000,-16.000000,-22.000000,-21.000000,-19.000000,-15.000000,-17.000000,1.000000
1302812.533759,-7.000000,-4.000000,-6.000000,-5.000000,1.000000,2.000000,6.000000,-12.000000
1302812.548716,-17.000000,-21.000000,-11.000000,-90.000000,-43.000000,-29.000000,-20.000000,-9.000000
1302812.548726,7.000000,4.000000,5.000000,7.000000,16.000000,10.000000,0.000000,3.000000
1302812.564055,5.000000,-1.000000,-5.000000,5.000000,5.000000,5.000000,-9.000000,-3.000000
1302812.564066,-1.000000,-8.000000,-8.000000,-25.000000,-8.000000,3.000000,1.000000,-5.000000
1302812.571334,-6.000000,4.000000,-12.000000,2.000000,8.000000,0.000000,11.000000,-2.000000
1302812.571345,13.000000,19.000000,3.000000,-16.000000,-4.000000,-7.000000,-17.000000,21.000000
1302812.594098,-7.000000,-13.000000,-5.000000,-13.000000,-15.000000,10.000000,77.000000,2.000000
1302812.594125,0.000000,3.000000,5.000000,56.000000,20.000000,-7.000000,-16.000000,-7.000000
1302812.594708,1.000000,-1.000000,-12.000000,-1.000000,5.000000,7.000000,13.000000,0.000000
1302812.594734,-2.000000,3.000000,16.000000,36.000000,-3.000000,0.000000,-7.000000,4.000000
1302812.595240,1.000000,-10.000000,-23.000000,-21.000000,-5.000000,1.000000,1.000000,1.000000
1302812.595248,-5.000000,-5.000000,1.000000,4.000000,5.000000,7.000000,3.000000,-1.000000
1302812.596515,-10.000000,2.000000,-12.000000,-44.000000,-21.000000,-2.000000,-9.000000,-5.000000
1302812.596545,5.000000,3.000000,3.000000,20.000000,16.000000,5.000000,-1.000000,0.000000
1302812.597772,0.000000,0.000000,-8.000000,-4.000000,-4.000000,-6.000000,-17.000000,-7.000000
1302812.597782,4.000000,21.000000,15.000000,-23.000000,5.000000,2.000000,-30.000000,-10.000000
1302812.609050,-9.000000,-17.000000,-14.000000,-41.000000,-21.000000,-10.000000,58.000000,20.000000
1302812.609064,-8.000000,-8.000000,-4.000000,-17.000000,4.000000,-8.000000,-29.000000,-7.000000
1302812.609502,-7.000000,7.000000,7.000000,46.000000,4.000000,9.000000,-12.000000,-11.000000
1302812.609511,-5.000000,-3.000000,-3.000000,-20.000000,-1.000000,2.000000,17.000000,-1.000000
1302812.616876,-9.000000,-9.000000,-14.000000,-18.000000,5.000000,6.000000,-27.000000,-17.000000
1302812.616887,2.000000,9.000000,18.000000,-43.000000,-27.000000,-24.000000,-13.000000,-3.000000
1302812.631233,3.000000,5.000000,4.000000,29.000000,31.000000,16.000000,26.000000,18.000000
1302812.631243,1.000000,-18.000000,-27.000000,-35.000000,-16.000000,-10.000000,-19.000000,-10.000000
1302812.654047,8.000000,23.000000,25.000000,69.000000,41.000000,16.000000,16.000000,11.000000
1302812.654057,2.000000,-4.000000,-13.000000,-29.000000,-11.000000,-4.000000,4.000000,-3.000000
1302812.668821,-6.000000,-6.000000,-50.000000,-23.000000,-11.000000,1.000000,-48.000000,-17.000000
1302812.668831,-3.000000,18.000000,45.000000,97.000000,-21.000000,-23.000000,34.000000,0.000000
1302812.714253,8.000000,3.000000,30.000000,60.000000,18.000000,3.000000,8.000000,11.000000
1302812.714265,9.000000,10.000000,-17.000000,-15.000000,-3.000000,4.000000,23.000000,13.000000
1302812.714671,-2.000000,-4.000000,-2.000000,-2.000000,12.000000,14.000000,-28.000000,-9.000000
1302812.714678,-25.000000,-21.000000,-7.000000,-40.000000,-35.000000,-28.000000,5.000000,-4.000000
1302812.715412,-8.000000,-15.000000,-28.000000,-4.000000,2.000000,15.000000,-7.000000,-9.000000
1302812.715420,7.000000,19.000000,24.000000,-12.000000,-21.000000,-23.000000,-15.000000,-9.000000
1302812.716233,-13.000000,-10.000000,-12.000000,-5.000000,-6.000000,3.000000,-24.000000,-5.000000
1302812.716241,7.000000,-7.000000,-19.000000,-45.000000,5.000000,6.000000,55.000000,18.000000
1302812.717813,5.000000,13.000000,-4.000000,-24.000000,-8.000000,-15.000000,41.000000,-6.000000
1302812.717829,20.000000,-4.000000,-5.000000,-23.000000,-3.000000,4.000000,-7.000000,0.000000
1302812.728434,-1.000000,4.000000,12.000000,-21.000000,-11.000000,-16.000000,-41.000000,-3.000000
1302812.728452,-8.000000,-23.000000,-15.000000,-27.000000,3.000000,10.000000,63.000000,-6.000000
1302812.729310,1.000000,6.000000,4.000000,-5.000000,-8.000000,-6.000000,-30.000000,-6.000000
1302812.729338,0.000000,19.000000,1.000000,21.000000,-2.000000,0.000000,-10.000000,-3.000000
1302812.736680,-5.000000,3.000000,5.000000,-5.000000,4.000000,7.000000,-10.000000,-5.000000
1302812.736708,-3.000000,-11.000000,-5.000000,7.000000,-11.000000,-12.000000,-7.000000,-3.000000
1302812.751436,-3.000000,-6.000000,4.000000,8.000000,-6.000000,14.000000,24.000000,2.000000
1302812.751446,-13.000000,-16.000000,-22.000000,-13.000000,-26.000000,-40.000000,-25.000000,-15.000000
1302812.796461,5.000000,4.000000,14.000000,87.000000,39.000000,40.000000,14.000000,2.000000
1302812.796472,8.000000,-2.000000,10.000000,-63.000000,-38.000000,-27.000000,39.000000,20.000000
1302812.811325,-17.000000,-6.000000,13.000000,-5.000000,-1.000000,-12.000000,-63.000000,-28.000000
1302812.811343,5.000000,-5.000000,-32.000000,-22.000000,-1.000000,16.000000,38.000000,7.000000
1302812.826446,-2.000000,-7.000000,15.000000,-4.000000,-7.000000,-5.000000,3.000000,16.000000
1302812.826474,-10.000000,-4.000000,-3.000000,-8.000000,-6.000000,-4.000000,-14.000000,-11.000000
1302812.827044,-3.000000,-26.000000,-30.000000,9.000000,13.000000,-1.000000,-8.000000,-16.000000
1302812.827051,10.000000,15.000000,52.000000,127.000000,47.000000,17.000000,-2.000000,4.000000
1302812.828354,-1.000000,0.000000,-8.000000,-18.000000,4.000000,21.000000,38.000000,12.000000
1302812.828380,0.000000,3.000000,-6.000000,-43.000000,-27.000000,-33.000000,-33.000000,-9.000000
1302812.829034,11.000000,2.000000,-1.000000,-9.000000,-1.000000,11.000000,15.000000,5.000000
1302812.829042,3.000000,5.000000,2.000000,-8.000000,-2.000000,0.000000,-4.000000,5.000000
1302812.829979,2.000000,-2.000000,9.000000,1.000000,5.000000,9.000000,-10.000000,1.000000
1302812.829986,-12.000000,-12.000000,-5.000000,-10.000000,-10.000000,-23.000000,-59.000000,-22.000000
1302812.841440,7.000000,-5.000000,-16.000000,1.000000,-4.000000,-7.000000,21.000000,-1.000000
1302812.841451,5.000000,-5.000000,-4.000000,-10.000000,10.000000,1.000000,11.000000,22.000000
1302812.848725,-8.000000,-13.000000,-10.000000,71.000000,16.000000,28.000000,-57.000000,-19.000000
1302812.848736,-3.000000,25.000000,20.000000,-80.000000,-67.000000,-63.000000,29.000000,-12.000000
1302812.886424,-5.000000,-3.000000,-2.000000,-23.000000,-2.000000,-1.000000,-21.000000,2.000000
1302812.886435,-9.000000,-12.000000,-13.000000,-34.000000,-4.000000,2.000000,-25.000000,-11.000000
1302812.893835,3.000000,12.000000,21.000000,-43.000000,2.000000,-4.000000,-13.000000,1.000000
1302812.893848,9.000000,1.000000,-3.000000,98.000000,45.000000,25.000000,37.000000,16.000000
1302812.931557,-8.000000,-1.000000,-23.000000,-5.000000,-1.000000,9.000000,-18.000000,-8.000000
1302812.931565,-5.000000,-20.000000,-1.000000,-15.000000,-36.000000,-36.000000,-19.000000,-11.000000
1302812.932226,-4.000000,3.000000,-25.000000,-50.000000,-17.000000,-12.000000,-19.000000,-8.000000
1302812.932234,-5.000000,-3.000000,8.000000,11.000000,18.000000,4.000000,9.000000,-3.000000
1302812.933500,7.000000,7.000000,28.000000,34.000000,13.000000,3.000000,12.000000,8.000000
1302812.933508,-4.000000,-3.000000,-3.000000,-25.000000,-15.000000,-9.000000,-15.000000,-7.000000
1302812.934139,2.000000,-15.000000,-21.000000,-49.000000,-19.000000,1.000000,6.000000,-9.000000
1302812.934147,0.000000,12.000000,7.000000,-9.000000,-14.000000,-11.000000,-8.000000,4.000000
1302812.939067,-2.000000,-7.000000,-14.000000,-16.000000,-20.000000,-39.000000,-58.000000,-20.000000
1302812.939079,13.000000,15.000000,26.000000,88.000000,24.000000,15.000000,80.000000,20.000000
1302812.946358,-5.000000,3.000000,10.000000,-6.000000,5.000000,20.000000,-11.000000,1.000000
1302812.946369,-8.000000,-13.000000,-10.000000,-8.000000,-20.000000,-21.000000,-31.000000,-13.000000
1302812.968902,-8.000000,0.000000,-4.000000,-10.000000,0.000000,5.000000,36.000000,3.000000
1302812.968914,-6.000000,-1.000000,-13.000000,-1.000000,-4.000000,1.000000,-29.000000,-12.000000
1302812.969462,5.000000,4.000000,9.000000,6.000000,2.000000,-3.000000,-10.000000,-1.000000
1302812.969471,-6.000000,-5.000000,6.000000,-18.000000,-4.000000,14.000000,15.000000,-1.000000
1302812.998695,11.000000,-8.000000,-16.000000,-84.000000,-30.000000,11.000000,17.000000,9.000000
1302812.998743,6.000000,15.000000,5.000000,-53.000000,-6.000000,2.000000,2.000000,7.000000
1302813.006337,0.000000,-9.000000,-36.000000,-12.000000,-12.000000,-35.000000,-30.000000,-15.000000
1302813.006347,-3.000000,-10.000000,9.000000,-14.000000,-11.000000,-5.000000,1.000000,-9.000000
1302813.043718,11.000000,-13.000000,-16.000000,-10.000000,1.000000,13.000000,54.000000,34.000000
1302813.043728,0.000000,1.000000,3.000000,-8.000000,17.000000,6.000000,-9.000000,-7.000000
1302813.051039,-4.000000,-5.000000,0.000000,7.000000,3.000000,0.000000,-35.000000,-11.000000
1302813.051055,-16.000000,-24.000000,10.000000,-29.000000,-13.000000,-6.000000,28.000000,3.000000
1302813.052144,9.000000,16.000000,9.000000,-4.000000,9.000000,10.000000,-7.000000,2.000000
1302813.052171,2.000000,3.000000,-13.000000,-20.000000,-13.000000,-16.000000,16.000000,2.000000
1302813.052793,1.000000,0.000000,-15.000000,-46.000000,-8.000000,-6.000000,-19.000000,-7.000000
1302813.052819,21.000000,18.000000,21.000000,49.000000,30.000000,8.000000,2.000000,1.000000
1302813.054159,0.000000,-3.000000,6.000000,-8.000000,9.000000,4.000000,-18.000000,-2.000000
1302813.054167,-14.000000,3.000000,-36.000000,-32.000000,-17.000000,-15.000000,-28.000000,-14.000000
1302813.074052,4.000000,-3.000000,23.000000,9.000000,2.000000,4.000000,10.000000,8.000000
1302813.074079,-11.000000,13.000000,8.000000,-77.000000,-18.000000,-1.000000,22.000000,2.000000
1302813.074555,5.000000,-22.000000,-17.000000,22.000000,3.000000,-3.000000,14.000000,5.000000
1302813.074563,10.000000,10.000000,-2.000000,-2.000000,-2.000000,0.000000,-10.000000,5.000000
1302813.088742,-2.000000,1.000000,-6.000000,-34.000000,-8.000000,17.000000,-3.000000,-1.000000
1302813.088771,1.000000,7.000000,20.000000,5.000000,-12.000000,-26.000000,-67.000000,-10.000000
1302813.089366,5.000000,3.000000,12.000000,27.000000,-1.000000,-11.000000,45.000000,2.000000
1302813.089385,7.000000,7.000000,-6.000000,-5.000000,4.000000,4.000000,35.000000,26.000000
1302813.111442,-16.000000,-20.000000,10.000000,33.000000,4.000000,-9.000000,-39.000000,-27.000000
1302813.111453,7.000000,3.000000,2.000000,12.000000,7.000000,8.000000,-11.000000,14.000000
1302813.126471,0.000000,-10.000000,-1.000000,-32.000000,5.000000,7.000000,15.000000,-9.000000
1302813.126483,10.000000,17.000000,0.000000,-25.000000,-9.000000,-5.000000,21.000000,11.000000
1302813.163548,-14.000000,-23.000000,-22.000000,-31.000000,-1.000000,-7.000000,-20.000000,-12.000000
1302813.163558,10.000000,13.000000,12.000000,16.000000,10.000000,9.000000,-11.000000,2.000000
1302813.171612,5.000000,-7.000000,-18.000000,-47.000000,-7.000000,0.000000,-4.000000,-6.000000
1302813.171622,-7.000000,2.000000,7.000000,-13.000000,-11.000000,-9.000000,-5.000000,-5.000000
1302813.208837,2.000000,-6.000000,2.000000,39.000000,10.000000,7.000000,17.000000,-2.000000
1302813.208849,-5.000000,-19.000000,-4.000000,-11.000000,-17.000000,-17.000000,-13.000000,5.000000
1302813.209287,4.000000,24.000000,-14.000000,-5.000000,9.000000,1.000000,1.000000,-5.000000
1302813.209362,8.000000,0.000000,2.000000,8.000000,15.000000,0.000000,-6.000000,3.000000
1302813.211345,-18.000000,-3.000000,3.000000,-6.000000,8.000000,20.000000,-56.000000,-20.000000
1302813.211366,-4.000000,-1.000000,-11.000000,2.000000,-23.000000,-33.000000,56.000000,1.000000
1302813.224478,4.000000,11.000000,4.000000,-3.000000,-2.000000,1.000000,-6.000000,4.000000
1302813.224501,-5.000000,-7.000000,5.000000,-16.000000,-7.000000,2.000000,-42.000000,-11.000000
1302813.231979,2.000000,-1.000000,16.000000,66.000000,10.000000,-7.000000,-2.000000,1.000000
1302813.232001,19.000000,5.000000,-1.000000,7.000000,10.000000,6.000000,49.000000,11.000000
1302813.247033,-4.000000,-6.000000,5.000000,69.000000,5.000000,0.000000,-15.000000,-7.000000
1302813.247055,1.000000,-8.000000,-8.000000,-52.000000,-16.000000,-6.000000,-4.000000,-1.000000
1302813.270018,-12.000000,-5.000000,-15.000000,2.000000,7.000000,7.000000,3.000000,-4.000000
1302813.270038,-2.000000,12.000000,0.000000,-17.000000,6.000000,5.000000,-3.000000,-2.000000
1302813.270689,-2.000000,-19.000000,-7.000000,50.000000,21.000000,5.000000,6.000000,3.000000
1302813.270702,6.000000,17.000000,31.000000,-18.000000,-2.000000,-6.000000,-44.000000,5.000000
1302813.271472,-4.000000,-10.000000,-22.000000,-11.000000,-3.000000,8.000000,41.000000,-2.000000
1302813.271485,-4.000000,5.000000,34.000000,11.000000,7.000000,-2.000000,-5.000000,-4.000000
1302813.271882,-4.000000,0.000000,-12.000000,-21.000000,2.000000,4.000000,-16.000000,-12.000000
1302813.271895,16.000000,14.000000,22.000000,108.000000,1.000000,2.000000,48.000000,19.000000
1302813.272729,-1.000000,-6.000000,6.000000,28.000000,17.000000,3.000000,-23.000000,-1.000000
1302813.272743,2.000000,-7.000000,-9.000000,-21.000000,-16.000000,-20.000000,8.000000,12.000000
1302813.284463,6.000000,2.000000,-15.000000,-26.000000,-4.000000,-6.000000,41.000000,-3.000000
1302813.284477,5.000000,20.000000,42.000000,105.000000,7.000000,-2.000000,-13.000000,10.000000
1302813.291218,10.000000,8.000000,21.000000,96.000000,41.000000,20.000000,14.000000,11.000000
1302813.291235,-6.000000,-21.000000,-14.000000,-14.000000,-10.000000,-5.000000,-7.000000,-7.000000
1302813.306370,-2.000000,3.000000,1.000000,-20.000000,-6.000000,2.000000,-17.000000,-10.000000
1302813.306380,11.000000,10.000000,3.000000,-8.000000,-1.000000,3.000000,36.000000,10.000000
1302813.328789,10.000000,1.000000,-5.000000,-54.000000,-16.000000,-6.000000,-2.000000,7.000000
1302813.328800,2.000000,-15.000000,-3.000000,16.000000,3.000000,-10.000000,-41.000000,-4.000000
1302813.358748,-7.000000,16.000000,12.000000,10.000000,4.000000,3.000000,4.000000,-14.000000
1302813.358760,5.000000,-6.000000,-10.000000,-1.000000,1.000000,11.000000,29.000000,17.000000
1302813.366307,-6.000000,-5.000000,14.000000,-13.000000,-14.000000,4.000000,-13.000000,-8.000000
1302813.366317,0.000000,1.000000,3.000000,-4.000000,-7.000000,-9.000000,-7.000000,0.000000
1302813.426315,-4.000000,1.000000,-2.000000,5.000000,4.000000,16.000000,14.000000,1.000000
1302813.426327,1.000000,-3.000000,4.000000,-14.000000,-22.000000,-11.000000,-10.000000,-5.000000
1302813.426946,-1.000000,-5.000000,-7.000000,-39.000000,-7.000000,-1.000000,8.000000,1.000000
1302813.426954,8.000000,-4.000000,-11.000000,-13.000000,-8.000000,0.000000,-5.000000,0.000000
1302813.427748,4.000000,4.000000,21.000000,10.000000,6.000000,2.000000,4.000000,12.000000
1302813.427757,-17.000000,-13.000000,-11.000000,-53.000000,-16.000000,-2.000000,1.000000,-10.000000
1302813.429351,5.000000,-4.000000,-7.000000,-9.000000,0.000000,20.000000,12.000000,11.000000
1302813.429360,4.000000,3.000000,5.000000,37.000000,7.000000,-3.000000,-22.000000,-1.000000
1302813.430370,2.000000,3.000000,-5.000000,-24.000000,-10.000000,-4.000000,-1.000000,6.000000
1302813.430379,-11.000000,20.000000,-1.000000,-16.000000,-20.000000,-1.000000,-13.000000,-20.000000
1302813.441672,3.000000,9.000000,21.000000,-32.000000,-16.000000,-13.000000,-18.000000,-3.000000
1302813.441817,6.000000,2.000000,-4.000000,-3.000000,-7.000000,6.000000,70.000000,19.000000
1302813.442695,-9.000000,-8.000000,21.000000,-41.000000,-7.000000,-6.000000,-24.000000,-8.000000
1302813.442705,13.000000,26.000000,-7.000000,-44.000000,1.000000,14.000000,-1.000000,6.000000
1302813.448980,-5.000000,0.000000,15.000000,49.000000,25.000000,4.000000,-3.000000,-11.000000
1302813.448998,10.000000,3.000000,8.000000,72.000000,26.000000,10.000000,1.000000,8.000000
1302813.487632,-11.000000,-3.000000,-9.000000,-37.000000,-12.000000,0.000000,0.000000,-8.000000
1302813.487647,-7.000000,1.000000,-3.000000,-18.000000,-14.000000,-21.000000,-27.000000,-8.000000
1302813.501191,-1.000000,0.000000,28.000000,46.000000,-3.000000,7.000000,10.000000,-6.000000
1302813.501220,9.000000,2.000000,6.000000,-14.000000,-16.000000,-9.000000,3.000000,10.000000
1302813.523824,-35.000000,-12.000000,-5.000000,-7.000000,-5.000000,8.000000,20.000000,-6.000000
1302813.523833,9.000000,-1.000000,-20.000000,-57.000000,-13.000000,-11.000000,-32.000000,-13.000000
1302813.546217,-2.000000,-36.000000,3.000000,47.000000,20.000000,-3.000000,32.000000,25.000000
1302813.546228,2.000000,16.000000,5.000000,-2.000000,-1.000000,5.000000,-19.000000,-9.000000
1302813.561376,-18.000000,-8.000000,-19.000000,-44.000000,-24.000000,4.000000,-53.000000,-16.000000
1302813.561391,1.000000,-1.000000,0.000000,16.000000,-7.000000,-17.000000,85.000000,7.000000
1302813.561841,5.000000,0.000000,-9.000000,-13.000000,-4.000000,-1.000000,-15.000000,8.000000
1302813.561851,-19.000000,-20.000000,-7.000000,-68.000000,-23.000000,-9.000000,-23.000000,-16.000000
1302813.563005,-20.000000,-33.000000,-11.000000,-13.000000,0.000000,2.000000,-16.000000,-15.000000
1302813.563021,6.000000,23.000000,8.000000,-13.000000,-2.000000,8.000000,39.000000,10.000000
1302813.563758,-6.000000,-4.000000,0.000000,-17.000000,-10.000000,-13.000000,-47.000000,-12.000000
1302813.563768,-6.000000,4.000000,0.000000,54.000000,28.000000,9.000000,22.000000,-6.000000
1302813.564453,-14.000000,-5.000000,-13.000000,-26.000000,-27.000000,-16.000000,-7.000000,-11.000000
1302813.564462,4.000000,-6.000000,-2.000000,15.000000,9.000000,15.000000,-6.000000,3.000000
1302813.569133,-14.000000,1.000000,-3.000000,-28.000000,-29.000000,-44.000000,-13.000000,-16.000000
1302813.569145,22.000000,-4.000000,10.000000,-7.000000,0.000000,12.000000,46.000000,32.000000
1302813.598609,-7.000000,-13.000000,-19.000000,-35.000000,-5.000000,-2.000000,-31.000000,-13.000000
1302813.598638,-7.000000,-11.000000,4.000000,-38.000000,-7.000000,7.000000,10.000000,-15.000000
1302813.606262,-6.000000,27.000000,19.000000,2.000000,11.000000,6.000000,9.000000,9.000000
1302813.606271,-8.000000,-22.000000,-24.000000,-15.000000,-14.000000,-9.000000,-14.000000,-10.000000
1302813.643576,-1.000000,-2.000000,-4.000000,-52.000000,-9.000000,0.000000,-1.000000,0.000000
1302813.643597,-1.000000,0.000000,-2.000000,20.000000,4.000000,8.000000,6.000000,-3.000000
1302813.644156,7.000000,14.000000,8.000000,-14.000000,-5.000000,-6.000000,-2.000000,2.000000
1302813.644167,11.000000,24.000000,42.000000,65.000000,41.000000,38.000000,85.000000,27.000000
1302813.645186,-5.000000,-12.000000,-23.000000,-16.000000,-9.000000,-13.000000,-33.000000,-13.000000
1302813.645195,4.000000,9.000000,-11.000000,-11.000000,-1.000000,-2.000000,6.000000,4.000000
1302813.646014,-10.000000,4.000000,7.000000,-5.000000,-5.000000,-2.000000,-4.000000,-7.000000
1302813.646023,2.000000,-15.000000,-20.000000,-48.000000,-8.000000,9.000000,-43.000000,-13.000000
1302813.647508,0.000000,2.000000,-12.000000,-16.000000,-18.000000,-6.000000,41.000000,4.000000
1302813.647528,1.000000,-7.000000,-6.000000,-29.000000,-16.000000,-29.000000,3.000000,10.000000
1302813.659058,-7.000000,-14.000000,-3.000000,18.000000,1.000000,-4.000000,-16.000000,-6.000000
1302813.659070,1.000000,21.000000,6.000000,-3.000000,4.000000,1.000000,-15.000000,-8.000000
1302813.660029,-5.000000,8.000000,-30.000000,-67.000000,-23.000000,-8.000000,-7.000000,-9.000000
1302813.660039,6.000000,-6.000000,4.000000,19.000000,-8.000000,-9.000000,12.000000,10.000000
1302813.681211,2.000000,3.000000,0.000000,-13.000000,6.000000,1.000000,-16.000000,-6.000000
1302813.681253,-16.000000,-8.000000,-27.000000,17.000000,10.000000,2.000000,-27.000000,-14.000000
1302813.682573,0.000000,4.000000,12.000000,-20.000000,0.000000,-7.000000,-21.000000,-4.000000
1302813.682583,1.000000,-5.000000,-24.000000,30.000000,10.000000,13.000000,52.000000,21.000000
1302813.688702,-5.000000,-6.000000,-4.000000,-16.000000,-3.000000,-3.000000,-34.000000,-9.000000
1302813.688725,5.000000,4.000000,-5.000000,-26.000000,-18.000000,-14.000000,-11.000000,-11.000000
1302813.718694,3.000000,3.000000,4.000000,-14.000000,-3.000000,11.000000,40.000000,30.000000
1302813.718705,-6.000000,-1.000000,-11.000000,-3.000000,4.000000,4.000000,-39.000000,-15.000000
1302813.726295,4.000000,-3.000000,-9.000000,-20.000000,-18.000000,-20.000000,-8.000000,-22.000000
1302813.726304,-3.000000,-4.000000,29.000000,45.000000,36.000000,3.000000,28.000000,24.000000
1302813.764348,-1.000000,14.000000,-6.000000,-45.000000,-19.000000,-9.000000,-21.000000,-10.000000
1302813.764365,1.000000,-2.000000,-4.000000,-13.000000,-5.000000,14.000000,14.000000,-3.000000
1302813.778700,-1.000000,-11.000000,-10.000000,-9.000000,1.000000,-1.000000,-14.000000,-6.000000
1302813.778711,-10.000000,1.000000,-21.000000,-63.000000,-29.000000,-20.000000,-8.000000,-7.000000
1302813.801437,-5.000000,12.000000,23.000000,90.000000,29.000000,11.000000,-16.000000,-1.000000
1302813.801448,2.000000,2.000000,5.000000,-6.000000,3.000000,0.000000,-8.000000,-9.000000
1302813.823733,0.000000,2.000000,-23.000000,-38.000000,-3.000000,14.000000,10.000000,-2.000000
1302813.823762,7.000000,3.000000,11.000000,1.000000,-10.000000,-23.000000,61.000000,36.000000
1302813.838977,-3.000000,-9.000000,-3.000000,-4.000000,-7.000000,-5.000000,-18.000000,-5.000000
1302813.838988,3.000000,16.000000,2.000000,-1.000000,1.000000,-1.000000,-17.000000,-5.000000
1302813.846383,-1.000000,23.000000,33.000000,85.000000,29.000000,13.000000,-4.000000,3.000000
1302813.846399,0.000000,-1.000000,-4.000000,-19.000000,-8.000000,-6.000000,-4.000000,-2.000000
1302813.854166,-8.000000,-11.000000,0.000000,22.000000,-1.000000,0.000000,1.000000,-9.000000
1302813.854179,12.000000,6.000000,-2.000000,-1.000000,5.000000,6.000000,21.000000,6.000000
1302813.861211,-10.000000,-8.000000,0.000000,30.000000,-1.000000,-3.000000,-19.000000,-8.000000
1302813.861220,-4.000000,-6.000000,-5.000000,-36.000000,-15.000000,1.000000,-12.000000,-4.000000
1302813.884053,9.000000,-4.000000,-11.000000,-45.000000,-22.000000,-18.000000,38.000000,13.000000
1302813.884078,0.000000,-3.000000,-17.000000,-9.000000,10.000000,0.000000,-10.000000,3.000000
1302813.884643,5.000000,2.000000,39.000000,80.000000,20.000000,10.000000,-13.000000,3.000000
1302813.884652,-9.000000,-11.000000,-8.000000,-13.000000,-3.000000,1.000000,11.000000,-7.000000
1302813.885309,-2.000000,-9.000000,-8.000000,-38.000000,-1.000000,2.000000,-22.000000,-8.000000
1302813.885317,0.000000,-10.000000,-12.000000,-4.000000,-7.000000,2.000000,35.000000,12.000000
1302813.885972,2.000000,10.000000,4.000000,3.000000,7.000000,7.000000,-15.000000,2.000000
1302813.885980,-8.000000,-8.000000,-14.000000,-37.000000,-5.000000,-4.000000,9.000000,-4.000000
1302813.888029,0.000000,8.000000,-16.000000,10.000000,19.000000,-1.000000,-14.000000,-9.000000
1302813.888039,5.000000,4.000000,20.000000,94.000000,56.000000,36.000000,23.000000,7.000000
1302813.906176,0.000000,-22.000000,2.000000,1.000000,-9.000000,-40.000000,-17.000000,-2.000000
1302813.906258,-3.000000,1.000000,3.000000,-12.000000,-10.000000,6.000000,23.000000,8.000000
1302813.907822,1.000000,-1.000000,-8.000000,-13.000000,0.000000,1.000000,-19.000000,-5.000000
1302813.907850,-7.000000,-4.000000,-5.000000,-17.000000,-2.000000,-23.000000,-50.000000,-19.000000
1302813.913788,-2.000000,3.000000,4.000000,40.000000,5.000000,5.000000,56.000000,16.000000
1302813.913799,-19.000000,-4.000000,12.000000,52.000000,11.000000,12.000000,-26.000000,-11.000000
1302813.921389,7.000000,5.000000,1.000000,-47.000000,-20.000000,-6.000000,-18.000000,-9.000000
1302813.921408,5.000000,-1.000000,-4.000000,11.000000,10.000000,-7.000000,45.000000,25.000000
1302813.936431,-6.000000,-8.000000,-12.000000,-36.000000,-16.000000,-10.000000,-44.000000,-14.000000
1302813.936442,3.000000,4.000000,9.000000,58.000000,50.000000,14.000000,24.000000,-1.000000
1302813.951356,-10.000000,4.000000,14.000000,-43.000000,6.000000,24.000000,15.000000,5.000000
1302813.951374,13.000000,-2.000000,-19.000000,-24.000000,-10.000000,-11.000000,2.000000,7.000000
1302813.958834,-10.000000,2.000000,1.000000,-17.000000,-9.000000,-6.000000,-15.000000,-11.000000
1302813.958853,-1.000000,1.000000,2.000000,20.000000,-3.000000,-7.000000,-14.000000,-8.000000
1302813.996264,2.000000,10.000000,-13.000000,-33.000000,9.000000,4.000000,0.000000,0.000000
1302813.996287,-2.000000,-15.000000,9.000000,70.000000,9.000000,2.000000,23.000000,14.000000
1302813.996856,-1.000000,6.000000,11.000000,-14.000000,-4.000000,13.000000,-27.000000,-9.000000
1302813.996866,10.000000,16.000000,-15.000000,-15.000000,-11.000000,-13.000000,32.000000,11.000000
1302813.998156,-2.000000,0.000000,19.000000,127.000000,24.000000,5.000000,-16.000000,-3.000000
1302813.998175,-2.000000,-4.000000,-5.000000,-49.000000,-12.000000,13.000000,-11.000000,-12.000000
1302813.998603,-12.000000,-9.000000,-3.000000,-15.000000,-7.000000,-3.000000,17.000000,-3.000000
1302813.998613,9.000000,-3.000000,-14.000000,-11.000000,-3.000000,-5.000000,5.000000,10.000000
1302814.003743,-6.000000,7.000000,0.000000,-19.000000,-16.000000,13.000000,-28.000000,-14.000000
1302814.003754,6.000000,19.000000,6.000000,-7.000000,-23.000000,-40.000000,10.000000,-5.000000
1302814.018665,4.000000,-14.000000,17.000000,81.000000,42.000000,15.000000,-16.000000,8.000000
1302814.018683,5.000000,3.000000,-8.000000,-23.000000,-8.000000,4.000000,27.000000,1.000000
1302814.020158,-4.000000,-4.000000,-9.000000,1.000000,-10.000000,-7.000000,-19.000000,-6.000000
1302814.020212,0.000000,8.000000,10.000000,-15.000000,3.000000,12.000000,-10.000000,-8.000000
1302814.041331,-3.000000,-2.000000,0.000000,17.000000,-14.000000,-14.000000,-3.000000,-1.000000
1302814.041360,-3.000000,-7.000000,11.000000,24.000000,7.000000,2.000000,29.000000,9.000000
1302814.056471,-5.000000,-10.000000,-20.000000,5.000000,-4.000000,-3.000000,-19.000000,-13.000000
1302814.056499,3.000000,-7.000000,-13.000000,-26.000000,-14.000000,-9.000000,-32.000000,-11.000000
1302814.063803,-3.000000,0.000000,0.000000,-1.000000,20.000000,22.000000,62.000000,16.000000
1302814.063820,13.000000,-25.000000,-8.000000,-5.000000,-13.000000,-12.000000,6.000000,10.000000
1302814.109055,-4.000000,7.000000,2.000000,-26.000000,-4.000000,0.000000,-23.000000,-9.000000
1302814.109088,0.000000,5.000000,15.000000,94.000000,25.000000,7.000000,-22.000000,-4.000000
1302814.116298,-1.000000,-1.000000,-2.000000,-12.000000,-18.000000,-10.000000,4.000000,-1.000000
1302814.116313,1.000000,-4.000000,-1.000000,-8.000000,4.000000,3.000000,-3.000000,-3.000000
1302814.117522,-3.000000,-5.000000,19.000000,-36.000000,-15.000000,4.000000,-2.000000,-3.000000
1302814.117535,1.000000,-1.000000,-5.000000,11.000000,13.000000,29.000000,13.000000,2.000000
1302814.117916,-9.000000,0.000000,-5.000000,-29.000000,-20.000000,-33.000000,-15.000000,-10.000000
1302814.118019,24.000000,8.000000,-13.000000,-18.000000,2.000000,7.000000,35.000000,27.000000
1302814.123896,-7.000000,-18.000000,2.000000,52.000000,-12.000000,-14.000000,-24.000000,-11.000000
1302814.123907,-12.000000,-14.000000,-17.000000,3.000000,3.000000,-8.000000,-13.000000,-6.000000
1302814.138901,-4.000000,0.000000,17.000000,69.000000,4.000000,6.000000,-13.000000,-7.000000
1302814.138917,-1.000000,4.000000,-12.000000,-14.000000,-21.000000,-17.000000,-4.000000,5.000000
1302814.140067,2.000000,2.000000,5.000000,-28.000000,-9.000000,8.000000,10.000000,-2.000000
1302814.140082,2.000000,4.000000,4.000000,22.000000,0.000000,-13.000000,-10.000000,-6.000000
1302814.161399,2.000000,4.000000,3.000000,-3.000000,12.000000,9.000000,2.000000,-1.000000
1302814.161410,2.000000,6.000000,7.000000,-16.000000,-10.000000,6.000000,5.000000,12.000000
1302814.191555,-3.000000,-7.000000,0.000000,-4.000000,-6.000000,2.000000,21.000000,-5.000000
1302814.191586,-5.000000,-12.000000,-8.000000,-9.000000,-8.000000,-12.000000,-34.000000,-10.000000
1302814.213826,-6.000000,4.000000,9.000000,19.000000,12.000000,-6.000000,-10.000000,-3.000000
1302814.213847,-1.000000,-10.000000,20.000000,15.000000,-3.000000,-3.000000,-19.000000,-2.000000
1302814.221497,-1.000000,-8.000000,-47.000000,-59.000000,-26.000000,-19.000000,6.000000,1.000000
1302814.221509,4.000000,-7.000000,-16.000000,-12.000000,6.000000,16.000000,-3.000000,4.000000
1302814.237361,1.000000,10.000000,18.000000,-35.000000,-7.000000,-3.000000,-28.000000,-8.000000
1302814.237373,-1.000000,-5.000000,-6.000000,23.000000,-5.000000,-15.000000,18.000000,-5.000000
1302814.237944,6.000000,3.000000,22.000000,110.000000,28.000000,14.000000,2.000000,7.000000
1302814.237961,3.000000,2.000000,16.000000,-16.000000,-11.000000,2.000000,17.000000,10.000000
1302814.239164,-10.000000,3.000000,2.000000,-9.000000,6.000000,4.000000,19.000000,-8.000000
1302814.239172,14.000000,-6.000000,0.000000,3.000000,-20.000000,-41.000000,7.000000,21.000000
1302814.240767,-8.000000,-12.000000,-5.000000,-1.000000,-11.000000,-5.000000,0.000000,-1.000000
1302814.240783,-15.000000,-10.000000,-16.000000,-39.000000,-6.000000,4.000000,-17.000000,-28.000000
1302814.259160,7.000000,20.000000,25.000000,64.000000,34.000000,31.000000,89.000000,32.000000
1302814.259173,3.000000,-5.000000,-6.000000,-23.000000,-6.000000,-2.000000,-21.000000,0.000000
1302814.260240,-5.000000,1.000000,-15.000000,-15.000000,-10.000000,-13.000000,-29.000000,-10.000000
1302814.260247,-10.000000,6.000000,-1.000000,-11.000000,-6.000000,3.000000,-7.000000,-11.000000
1302814.261201,-7.000000,-12.000000,-24.000000,-40.000000,-16.000000,-5.000000,12.000000,-4.000000
1302814.261209,0.000000,-6.000000,6.000000,37.000000,5.000000,0.000000,-7.000000,-6.000000
1302814.281440,9.000000,27.000000,8.000000,93.000000,41.000000,7.000000,0.000000,4.000000
1302814.281457,9.000000,6.000000,15.000000,8.000000,-11.000000,-6.000000,3.000000,13.000000
1302814.296140,-10.000000,-3.000000,-7.000000,-4.000000,-19.000000,-8.000000,-10.000000,-11.000000
1302814.296150,5.000000,6.000000,13.000000,55.000000,26.000000,18.000000,5.000000,3.000000
1302814.333739,15.000000,2.000000,11.000000,62.000000,6.000000,-6.000000,2.000000,2.000000
1302814.333750,-24.000000,-2.000000,-6.000000,-22.000000,-4.000000,2.000000,12.000000,-5.000000
1302814.334022,9.000000,-1.000000,15.000000,63.000000,33.000000,17.000000,-18.000000,1.000000
1302814.334043,8.000000,5.000000,-7.000000,-8.000000,2.000000,9.000000,33.000000,10.000000
1302814.335392,10.000000,-2.000000,6.000000,-22.000000,-13.000000,-11.000000,-3.000000,10.000000
1302814.335409,-3.000000,-5.000000,-1.000000,3.000000,0.000000,6.000000,-5.000000,-3.000000
1302814.335952,-7.000000,-7.000000,-11.000000,-14.000000,3.000000,-1.000000,-25.000000,-6.000000
1302814.335973,-8.000000,-11.000000,-19.000000,-36.000000,-28.000000,-26.000000,-11.000000,-16.000000
1302814.337519,13.000000,33.000000,36.000000,67.000000,34.000000,28.000000,62.000000,10.000000
1302814.337536,4.000000,-1.000000,-4.000000,-11.000000,-6.000000,-9.000000,16.000000,16.000000
1302814.341153,-8.000000,-12.000000,-1.000000,-60.000000,-33.000000,-27.000000,-27.000000,-12.000000
1302814.341161,-2.000000,-16.000000,-10.000000,-41.000000,8.000000,7.000000,-13.000000,-5.000000
1302814.356930,8.000000,24.000000,12.000000,7.000000,-11.000000,-6.000000,-6.000000,0.000000
1302814.356940,12.000000,2.000000,7.000000,19.000000,5.000000,0.000000,18.000000,14.000000
1302814.378721,-10.000000,-17.000000,-13.000000,-17.000000,-5.000000,0.000000,-5.000000,-9.000000
1302814.378742,-8.000000,-5.000000,-4.000000,-43.000000,-18.000000,-3.000000,-10.000000,-9.000000
1302814.380101,-3.000000,2.000000,-7.000000,-31.000000,-12.000000,-2.000000,-21.000000,-7.000000
1302814.380110,15.000000,3.000000,2.000000,26.000000,8.000000,-4.000000,15.000000,3.000000
1302814.386232,-5.000000,4.000000,-11.000000,2.000000,14.000000,16.000000,32.000000,9.000000
1302814.386242,-16.000000,-40.000000,-22.000000,-46.000000,-4.000000,-12.000000,-17.000000,-7.000000
1302814.401431,10.000000,3.000000,6.000000,37.000000,7.000000,12.000000,18.000000,-3.000000
1302814.401998,-6.000000,3.000000,-4.000000,19.000000,-1.000000,-1.000000,-11.000000,-3.000000
1302814.416467,1.000000,-2.000000,-1.000000,-18.000000,-5.000000,0.000000,-9.000000,3.000000
1302814.416478,4.000000,-1.000000,23.000000,56.000000,22.000000,13.000000,18.000000,3.000000
1302814.476158,7.000000,16.000000,-8.000000,-3.000000,9.000000,12.000000,1.000000,1.000000
1302814.476169,-2.000000,-3.000000,1.000000,-17.000000,-18.000000,-14.000000,-11.000000,-4.000000
1302814.491218,-3.000000,0.000000,-4.000000,61.000000,20.000000,-2.000000,12.000000,2.000000
1302814.491247,1.000000,-6.000000,-7.000000,3.000000,6.000000,3.000000,-9.000000,1.000000
1302814.514140,-6.000000,13.000000,7.000000,-70.000000,13.000000,27.000000,-8.000000,-7.000000
1302814.514155,-11.000000,4.000000,7.000000,-18.000000,-34.000000,-46.000000,-17.000000,-8.000000
1302814.536230,-3.000000,-10.000000,-36.000000,-13.000000,15.000000,4.000000,-10.000000,4.000000
1302814.536243,1.000000,3.000000,11.000000,25.000000,6.000000,2.000000,9.000000,-1.000000
1302814.558728,3.000000,6.000000,20.000000,126.000000,34.000000,27.000000,29.000000,12.000000
1302814.558739,0.000000,-4.000000,-15.000000,-57.000000,-27.000000,-4.000000,-6.000000,-6.000000
1302814.596309,5.000000,6.000000,19.000000,49.000000,23.000000,21.000000,32.000000,12.000000
1302814.596321,-5.000000,0.000000,-9.000000,-15.000000,-9.000000,-12.000000,-17.000000,-7.000000
1302814.598550,0.000000,-7.000000,-28.000000,-8.000000,-3.000000,-2.000000,54.000000,28.000000
1302814.598560,-10.000000,-19.000000,12.000000,-36.000000,-9.000000,-7.000000,-15.000000,-9.000000
1302814.611082,3.000000,7.000000,11.000000,-9.000000,-1.000000,8.000000,-12.000000,-1.000000
1302814.611129,-6.000000,-19.000000,-11.000000,-9.000000,-7.000000,-5.000000,15.000000,1.000000
1302814.612832,9.000000,11.000000,1.000000,-16.000000,-1.000000,-4.000000,2.000000,17.000000
1302814.612852,-1.000000,0.000000,-7.000000,-14.000000,-3.000000,-1.000000,7.000000,-8.000000
1302814.633701,-4.000000,-5.000000,1.000000,-7.000000,-3.000000,18.000000,17.000000,5.000000
1302814.633711,-12.000000,-12.000000,-17.000000,40.000000,-16.000000,-31.000000,-25.000000,-10.000000
1302814.663798,3.000000,3.000000,5.000000,-22.000000,18.000000,18.000000,-5.000000,-8.000000
1302814.663809,2.000000,6.000000,13.000000,54.000000,1.000000,-11.000000,20.000000,5.000000
1302814.671324,3.000000,-30.000000,-17.000000,-99.000000,-29.000000,-15.000000,-4.000000,4.000000
1302814.671333,2.000000,3.000000,20.000000,57.000000,24.000000,9.000000,4.000000,-4.000000
1302814.693985,6.000000,-2.000000,-6.000000,-11.000000,-3.000000,0.000000,-12.000000,-3.000000
1302814.694220,0.000000,2.000000,8.000000,-15.000000,-21.000000,-15.000000,-1.000000,1.000000
1302814.694512,2.000000,-5.000000,-13.000000,-24.000000,-11.000000,-2.000000,-13.000000,0.000000
1302814.694540,-5.000000,-21.000000,-20.000000,-10.000000,-4.000000,1.000000,17.000000,3.000000
1302814.695792,-9.000000,1.000000,2.000000,0.000000,-10.000000,-7.000000,-11.000000,-7.000000
1302814.695843,-7.000000,-7.000000,-10.000000,-23.000000,-5.000000,-7.000000,-68.000000,-19.000000
1302814.696832,2.000000,-2.000000,-17.000000,-46.000000,-13.000000,2.000000,94.000000,19.000000
1302814.696861,6.000000,17.000000,13.000000,-18.000000,-20.000000,-27.000000,-47.000000,-10.000000
1302814.701476,-9.000000,0.000000,-5.000000,-50.000000,-11.000000,-8.000000,-22.000000,-17.000000
1302814.701486,8.000000,14.000000,10.000000,35.000000,19.000000,6.000000,-14.000000,10.000000
1302814.716868,-4.000000,-10.000000,5.000000,-9.000000,-11.000000,5.000000,19.000000,-4.000000
1302814.716885,-3.000000,-2.000000,-12.000000,-14.000000,-11.000000,-8.000000,-24.000000,-15.000000
1302814.738925,7.000000,-5.000000,-20.000000,3.000000,7.000000,2.000000,13.000000,8.000000
1302814.738937,-21.000000,5.000000,-3.000000,-4.000000,2.000000,4.000000,-4.000000,-5.000000
1302814.739935,1.000000,-9.000000,-5.000000,28.000000,7.000000,5.000000,2.000000,-1.000000
1302814.739943,2.000000,-6.000000,-21.000000,-55.000000,-10.000000,-2.000000,5.000000,3.000000
1302814.753770,1.000000,3.000000,46.000000,69.000000,-2.000000,-3.000000,-40.000000,-3.000000
1302814.753799,-5.000000,13.000000,11.000000,53.000000,6.000000,6.000000,20.000000,-5.000000
1302814.776516,-5.000000,-4.000000,-4.000000,-1.000000,-3.000000,-17.000000,-40.000000,-6.000000
1302814.776529,11.000000,0.000000,0.000000,-30.000000,1.000000,14.000000,56.000000,11.000000
1302814.784024,0.000000,6.000000,-4.000000,-11.000000,-4.000000,-9.000000,-1.000000,5.000000
1302814.784037,0.000000,1.000000,-5.000000,-14.000000,-3.000000,4.000000,-20.000000,-8.000000
1302814.813581,-16.000000,-15.000000,-3.000000,-4.000000,-13.000000,-19.000000,-5.000000,-12.000000
1302814.813613,4.000000,-18.000000,-16.000000,-31.000000,-6.000000,2.000000,13.000000,6.000000
1302814.814046,5.000000,26.000000,27.000000,87.000000,46.000000,12.000000,-12.000000,-3.000000
1302814.814072,1.000000,9.000000,0.000000,-16.000000,-1.000000,-2.000000,4.000000,-4.000000
1302814.815134,0.000000,-9.000000,-25.000000,-38.000000,-1.000000,3.000000,-1.000000,-2.000000
1302814.815160,-6.000000,-7.000000,15.000000,3.000000,-8.000000,9.000000,-5.000000,-7.000000
1302814.815771,4.000000,18.000000,0.000000,10.000000,14.000000,0.000000,4.000000,3.000000
1302814.815778,7.000000,3.000000,-20.000000,-18.000000,-13.000000,2.000000,9.000000,-3.000000
1302814.817362,-8.000000,-5.000000,1.000000,6.000000,-2.000000,2.000000,-8.000000,-4.000000
1302814.817389,-7.000000,-20.000000,-9.000000,-19.000000,-14.000000,-16.000000,24.000000,-5.000000
1302814.828790,-5.000000,-11.000000,-12.000000,-25.000000,-4.000000,-1.000000,-44.000000,-8.000000
1302814.828803,-15.000000,2.000000,-6.000000,-6.000000,-3.000000,-4.000000,45.000000,-7.000000
1302814.836822,3.000000,0.000000,1.000000,-15.000000,-4.000000,7.000000,5.000000,11.000000
1302814.836833,6.000000,-6.000000,-4.000000,10.000000,-4.000000,-9.000000,-12.000000,-2.000000
1302814.851190,-2.000000,1.000000,-4.000000,1.000000,-1.000000,-1.000000,-8.000000,-7.000000
1302814.851221,3.000000,0.000000,-29.000000,12.000000,11.000000,-2.000000,-12.000000,-6.000000
1302814.874010,14.000000,6.000000,12.000000,74.000000,11.000000,11.000000,-10.000000,7.000000
1302814.874021,-5.000000,0.000000,10.000000,31.000000,40.000000,16.000000,36.000000,-1.000000
1302814.888638,-12.000000,-22.000000,-15.000000,-47.000000,-12.000000,-2.000000,-22.000000,-4.000000
1302814.888648,-5.000000,-13.000000,-7.000000,-55.000000,-40.000000,-27.000000,32.000000,-2.000000
1302814.933801,3.000000,20.000000,5.000000,-9.000000,3.000000,2.000000,5.000000,20.000000
1302814.933817,-5.000000,-3.000000,-7.000000,-31.000000,-4.000000,11.000000,-36.000000,-17.000000
1302814.948803,-4.000000,-6.000000,-9.000000,-20.000000,-12.000000,-19.000000,9.000000,-6.000000
1302814.948821,3.000000,0.000000,-1.000000,-19.000000,-2.000000,3.000000,8.000000,3.000000
1302814.971298,-7.000000,-4.000000,-15.000000,-60.000000,-16.000000,-10.000000,-38.000000,-15.000000
1302814.971309,-25.000000,-15.000000,-20.000000,-43.000000,-2.000000,-3.000000,0.000000,-19.000000
1302814.971917,23.000000,5.000000,22.000000,85.000000,34.000000,14.000000,49.000000,38.000000
1302814.971925,-12.000000,15.000000,-9.000000,-18.000000,-8.000000,-4.000000,-9.000000,-2.000000
1302814.972784,4.000000,9.000000,-5.000000,-10.000000,-3.000000,-4.000000,8.000000,3.000000
1302814.972791,-4.000000,4.000000,-9.000000,-35.000000,-19.000000,-7.000000,-17.000000,-9.000000
1302814.974521,4.000000,14.000000,10.000000,36.000000,6.000000,2.000000,25.000000,11.000000
1302814.974529,-9.000000,-6.000000,8.000000,33.000000,-3.000000,-5.000000,24.000000,-1.000000
1302815.016440,-15.000000,-10.000000,-4.000000,26.000000,8.000000,4.000000,-18.000000,-13.000000
1302815.016451,3.000000,6.000000,-3.000000,-27.000000,-6.000000,-1.000000,15.000000,13.000000
1302815.031414,3.000000,-4.000000,-19.000000,14.000000,25.000000,14.000000,11.000000,5.000000
1302815.031542,3.000000,-7.000000,-4.000000,-2.000000,-2.000000,-6.000000,0.000000,0.000000
1302815.031675,-11.000000,3.000000,-11.000000,-27.000000,-7.000000,2.000000,-16.000000,-5.000000
1302815.031685,3.000000,9.000000,5.000000,38.000000,26.000000,-5.000000,16.000000,8.000000
1302815.032800,7.000000,9.000000,17.000000,41.000000,6.000000,-19.000000,16.000000,3.000000
1302815.032812,4.000000,2.000000,-14.000000,1.000000,-4.000000,-3.000000,-42.000000,-9.000000
1302815.033414,-3.000000,-4.000000,-14.000000,-34.000000,-11.000000,1.000000,26.000000,1.000000
1302815.033436,-9.000000,-5.000000,9.000000,39.000000,3.000000,-6.000000,-13.000000,-3.000000
1302815.046186,1.000000,-3.000000,-31.000000,-13.000000,0.000000,-6.000000,55.000000,6.000000
1302815.046201,6.000000,10.000000,31.000000,41.000000,14.000000,1.000000,-15.000000,3.000000
1302815.061492,-5.000000,-4.000000,3.000000,16.000000,-10.000000,-4.000000,-25.000000,-9.000000
1302815.061502,1.000000,3.000000,-10.000000,-30.000000,-13.000000,-7.000000,-33.000000,-7.000000
1302815.068725,2.000000,0.000000,-6.000000,-43.000000,-6.000000,7.000000,38.000000,3.000000
1302815.068736,6.000000,1.000000,0.000000,-33.000000,-12.000000,-8.000000,-9.000000,8.000000
1302815.106374,0.000000,1.000000,-8.000000,-11.000000,-4.000000,-2.000000,-12.000000,-6.000000
1302815.106385,-5.000000,4.000000,27.000000,106.000000,31.000000,15.000000,5.000000,-1.000000
1302815.106849,-19.000000,-7.000000,-12.000000,-16.000000,-18.000000,-18.000000,-3.000000,-7.000000
1302815.106857,19.000000,4.000000,-9.000000,-24.000000,-7.000000,6.000000,0.000000,2.000000
1302815.107798,-23.000000,-25.000000,-4.000000,-7.000000,1.000000,-7.000000,-21.000000,-9.000000
1302815.107806,-5.000000,-2.000000,15.000000,56.000000,0.000000,2.000000,7.000000,-5.000000
1302815.108726,7.000000,6.000000,0.000000,7.000000,13.000000,11.000000,11.000000,8.000000
1302815.108735,-8.000000,11.000000,2.000000,-15.000000,-8.000000,1.000000,9.000000,13.000000
1302815.114291,6.000000,-7.000000,-6.000000,-13.000000,-7.000000,-24.000000,1.000000,-7.000000
1302815.114300,11.000000,-1.000000,24.000000,86.000000,36.000000,13.000000,63.000000,41.000000
1302815.128649,-12.000000,12.000000,0.000000,-23.000000,1.000000,17.000000,-27.000000,-9.000000
1302815.128665,7.000000,-5.000000,10.000000,-16.000000,-31.000000,-23.000000,-1.000000,-9.000000
1302815.151791,-2.000000,-4.000000,12.000000,127.000000,35.000000,10.000000,-7.000000,-3.000000
1302815.151801,-6.000000,21.000000,-5.000000,-22.000000,-6.000000,-3.000000,-14.000000,-5.000000
1302815.152344,-14.000000,-15.000000,-15.000000,-18.000000,-7.000000,-3.000000,13.000000,-4.000000
1302815.152356,8.000000,2.000000,-7.000000,8.000000,7.000000,2.000000,-17.000000,1.000000
1302815.154227,-19.000000,-12.000000,-9.000000,-8.000000,-1.000000,-3.000000,28.000000,0.000000
1302815.154238,3.000000,-8.000000,-5.000000,-14.000000,-8.000000,-7.000000,-5.000000,-1.000000
1302815.166421,-13.000000,-6.000000,-8.000000,31.000000,-1.000000,-5.000000,-81.000000,-19.000000
1302815.166443,16.000000,19.000000,53.000000,127.000000,27.000000,15.000000,72.000000,12.000000
1302815.174247,4.000000,4.000000,5.000000,7.000000,1.000000,20.000000,3.000000,12.000000
1302815.174265,2.000000,-4.000000,-19.000000,-72.000000,-29.000000,-22.000000,-28.000000,-8.000000
1302815.189112,-1.000000,-4.000000,-1.000000,29.000000,2.000000,-10.000000,9.000000,6.000000
1302815.189125,-5.000000,-1.000000,-5.000000,-10.000000,15.000000,22.000000,24.000000,9.000000
1302815.233587,-9.000000,2.000000,5.000000,-11.000000,-12.000000,-13.000000,-21.000000,-12.000000
1302815.233598,-17.000000,-4.000000,-11.000000,19.000000,-2.000000,2.000000,-21.000000,-17.000000
1302815.248991,15.000000,0.000000,0.000000,-6.000000,-1.000000,2.000000,25.000000,8.000000
1302815.249002,-7.000000,-21.000000,-32.000000,-99.000000,-19.000000,-16.000000,-27.000000,-8.000000
1302815.293968,9.000000,17.000000,27.000000,30.000000,8.000000,4.000000,10.000000,8.000000
1302815.294197,-13.000000,2.000000,23.000000,45.000000,12.000000,-1.000000,-18.000000,-15.000000
1302815.294443,-17.000000,-12.000000,-14.000000,8.000000,18.000000,1.000000,5.000000,-1.000000
1302815.294450,9.000000,1.000000,-14.000000,9.000000,8.000000,16.000000,0.000000,-1.000000
1302815.295634,12.000000,7.000000,11.000000,-1.000000,15.000000,11.000000,4.000000,6.000000
1302815.295645,-10.000000,-2.000000,0.000000,-18.000000,8.000000,15.000000,15.000000,1.000000
1302815.296672,1.000000,4.000000,31.000000,120.000000,53.000000,18.000000,-6.000000,-1.000000
1302815.296680,0.000000,-7.000000,-14.000000,-8.000000,12.000000,24.000000,10.000000,1.000000
1302815.297508,3.000000,15.000000,35.000000,88.000000,38.000000,9.000000,-4.000000,6.000000
1302815.297516,-1.000000,-2.000000,3.000000,-21.000000,-11.000000,13.000000,15.000000,-4.000000
1302815.308839,-13.000000,-7.000000,-1.000000,1.000000,-7.000000,-4.000000,1.000000,1.000000
1302815.308886,-5.000000,-10.000000,-10.000000,-41.000000,-8.000000,-4.000000,-21.000000,-8.000000
1302815.331421,-3.000000,0.000000,-5.000000,-20.000000,-6.000000,2.000000,-15.000000,-15.000000
1302815.331432,-2.000000,-12.000000,-6.000000,-87.000000,-40.000000,-2.000000,58.000000,11.000000
1302815.368697,-7.000000,-5.000000,-1.000000,-27.000000,0.000000,-5.000000,-15.000000,-12.000000
1302815.368717,17.000000,13.000000,-2.000000,-21.000000,-6.000000,7.000000,-2.000000,7.000000
1302815.384294,-7.000000,-10.000000,-5.000000,55.000000,14.000000,-5.000000,-15.000000,-8.000000
1302815.384304,-25.000000,21.000000,-1.000000,-11.000000,-3.000000,-14.000000,-47.000000,-18.000000
1302815.384730,-2.000000,2.000000,3.000000,10.000000,-17.000000,-11.000000,52.000000,6.000000
1302815.384738,14.000000,-5.000000,-5.000000,-30.000000,-4.000000,-15.000000,-5.000000,11.000000
1302815.386265,9.000000,8.000000,-1.000000,11.000000,1.000000,1.000000,-12.000000,-3.000000
1302815.386276,-7.000000,-2.000000,-13.000000,-5.000000,9.000000,21.000000,-24.000000,-19.000000
1302815.386761,-8.000000,-6.000000,0.000000,-4.000000,-2.000000,-24.000000,16.000000,4.000000
1302815.386770,4.000000,-1.000000,-5.000000,-22.000000,-2.000000,2.000000,-2.000000,7.000000
1302815.387506,-8.000000,-5.000000,-2.000000,0.000000,2.000000,3.000000,-19.000000,-12.000000
1302815.387514,5.000000,3.000000,0.000000,-1.000000,6.000000,3.000000,25.000000,10.000000
1302815.405988,-7.000000,-7.000000,-20.000000,-60.000000,-23.000000,-11.000000,-28.000000,-8.000000
1302815.405999,-3.000000,-9.000000,14.000000,61.000000,32.000000,0.000000,30.000000,-4.000000
1302815.406881,15.000000,16.000000,19.000000,-33.000000,-4.000000,10.000000,47.000000,21.000000
1302815.406894,-1.000000,-3.000000,-19.000000,-6.000000,-2.000000,-6.000000,-28.000000,-10.000000
1302815.428717,2.000000,-13.000000,4.000000,18.000000,24.000000,11.000000,3.000000,2.000000
1302815.428732,7.000000,8.000000,16.000000,2.000000,-13.000000,-13.000000,5.000000,12.000000
1302815.429291,-7.000000,-11.000000,-12.000000,-31.000000,-4.000000,10.000000,-1.000000,-5.000000
1302815.429299,2.000000,15.000000,10.000000,16.000000,0.000000,-5.000000,-7.000000,1.000000
1302815.451483,-6.000000,-8.000000,-23.000000,-36.000000,-9.000000,-5.000000,-7.000000,-8.000000
1302815.451493,12.000000,14.000000,36.000000,127.000000,50.000000,35.000000,-6.000000,5.000000
1302815.466407,13.000000,4.000000,7.000000,52.000000,0.000000,-8.000000,28.000000,14.000000
1302815.466422,-9.000000,-6.000000,-10.000000,-35.000000,-19.000000,-19.000000,15.000000,4.000000
1302815.496209,-5.000000,2.000000,-18.000000,-33.000000,3.000000,1.000000,-15.000000,-11.000000
1302815.496220,9.000000,7.000000,-10.000000,-28.000000,-6.000000,13.000000,0.000000,7.000000
1302815.503570,-4.000000,1.000000,12.000000,24.000000,3.000000,-11.000000,-25.000000,-11.000000
1302815.503600,5.000000,3.000000,-6.000000,-66.000000,-21.000000,2.000000,-3.000000,8.000000
1302815.511492,1.000000,1.000000,11.000000,50.000000,32.000000,24.000000,40.000000,4.000000
1302815.511515,-6.000000,-1.000000,-26.000000,-24.000000,-21.000000,-12.000000,20.000000,4.000000
1302815.512600,3.000000,5.000000,15.000000,42.000000,-13.000000,-12.000000,-13.000000,1.000000
1302815.512622,12.000000,16.000000,0.000000,1.000000,12.000000,25.000000,7.000000,3.000000
1302815.513914,0.000000,-3.000000,-7.000000,-14.000000,-3.000000,16.000000,-23.000000,-12.000000
1302815.513929,-10.000000,-31.000000,-15.000000,-45.000000,-12.000000,3.000000,47.000000,6.000000
1302815.526206,4.000000,17.000000,9.000000,-17.000000,-2.000000,-8.000000,-7.000000,1.000000
1302815.526238,1.000000,1.000000,22.000000,52.000000,19.000000,10.000000,-4.000000,-1.000000
1302815.526917,-21.000000,-18.000000,-28.000000,-31.000000,-14.000000,-10.000000,-19.000000,-13.000000
1302815.526925,22.000000,29.000000,31.000000,78.000000,11.000000,3.000000,8.000000,8.000000
1302815.549112,-28.000000,-24.000000,9.000000,59.000000,10.000000,0.000000,-8.000000,-1.000000
1302815.549128,19.000000,16.000000,20.000000,52.000000,40.000000,11.000000,-5.000000,4.000000
1302815.549684,3.000000,-8.000000,-20.000000,-35.000000,-12.000000,11.000000,47.000000,0.000000
1302815.549712,8.000000,4.000000,0.000000,-41.000000,-20.000000,-20.000000,-31.000000,2.000000
1302815.571399,33.000000,22.000000,2.000000,-16.000000,-2.000000,-5.000000,27.000000,22.000000
1302815.571409,-29.000000,-43.000000,-19.000000,6.000000,-2.000000,-7.000000,-22.000000,-20.000000
1302815.578859,11.000000,38.000000,24.000000,-29.000000,-1.000000,13.000000,6.000000,10.000000
1302815.578870,4.000000,-10.000000,-6.000000,-15.000000,-9.000000,-2.000000,4.000000,4.000000
1302815.601255,2.000000,19.000000,17.000000,-4.000000,3.000000,5.000000,2.000000,5.000000
1302815.601271,4.000000,-24.000000,-16.000000,-34.000000,-10.000000,-9.000000,-4.000000,-5.000000
1302815.609002,7.000000,12.000000,7.000000,-7.000000,0.000000,-1.000000,6.000000,4.000000
1302815.609013,5.000000,3.000000,-9.000000,-17.000000,-7.000000,6.000000,4.000000,-5.000000
1302815.645978,12.000000,-1.000000,8.000000,48.000000,11.000000,-6.000000,-12.000000,5.000000
1302815.645989,-2.000000,0.000000,0.000000,-12.000000,4.000000,20.000000,20.000000,0.000000
1302815.646597,-1.000000,-2.000000,-13.000000,-33.000000,-13.000000,-11.000000,7.000000,-1.000000
1302815.646606,0.000000,-1.000000,6.000000,21.000000,-10.000000,-8.000000,9.000000,-2.000000
1302815.647882,-12.000000,-10.000000,-4.000000,-13.000000,-3.000000,2.000000,-60.000000,-24.000000
1302815.647910,-7.000000,-7.000000,-12.000000,-26.000000,-21.000000,-21.000000,23.000000,-2.000000
1302815.648363,0.000000,8.000000,0.000000,12.000000,13.000000,-1.000000,12.000000,26.000000
1302815.648390,5.000000,-4.000000,-24.000000,-29.000000,-4.000000,-6.000000,-19.000000,-8.000000
1302815.650161,-30.000000,-23.000000,11.000000,44.000000,20.000000,23.000000,-12.000000,-19.000000
1302815.650170,-2.000000,1.000000,1.000000,-21.000000,-6.000000,-19.000000,5.000000,5.000000
1302815.661970,16.000000,19.000000,2.000000,90.000000,26.000000,5.000000,-23.000000,1.000000
1302815.661979,0.000000,4.000000,9.000000,19.000000,11.000000,19.000000,24.000000,3.000000
1302815.668967,-3.000000,-5.000000,-4.000000,-17.000000,-15.000000,-22.000000,-12.000000,-7.000000
1302815.668980,-5.000000,-6.000000,1.000000,3.000000,9.000000,2.000000,-14.000000,-6.000000
1302815.683718,0.000000,3.000000,4.000000,-9.000000,3.000000,10.000000,5.000000,8.000000
1302815.683763,-8.000000,-6.000000,-10.000000,-40.000000,12.000000,25.000000,9.000000,-7.000000
1302815.706412,-4.000000,-4.000000,-4.000000,50.000000,-28.000000,-45.000000,-22.000000,-11.000000
1302815.706423,-8.000000,-1.000000,-11.000000,6.000000,-9.000000,-9.000000,26.000000,0.000000
1302815.729294,-1.000000,-8.000000,-1.000000,7.000000,30.000000,13.000000,-17.000000,5.000000
1302815.729356,-1.000000,0.000000,7.000000,20.000000,13.000000,9.000000,26.000000,5.000000
1302815.743669,-7.000000,10.000000,14.000000,61.000000,14.000000,-9.000000,-15.000000,-2.000000
1302815.743693,3.000000,-10.000000,-7.000000,-15.000000,-8.000000,-5.000000,-24.000000,-15.000000
1302815.781229,2.000000,0.000000,0.000000,-7.000000,-7.000000,-1.000000,29.000000,13.000000
1302815.781305,-19.000000,-6.000000,6.000000,47.000000,14.000000,-4.000000,-12.000000,-10.000000
1302815.781768,7.000000,2.000000,-5.000000,13.000000,14.000000,4.000000,-28.000000,-3.000000
1302815.781786,-1.000000,-3.000000,-13.000000,-15.000000,-11.000000,-7.000000,-17.000000,3.000000
1302815.782780,-8.000000,-7.000000,0.000000,-18.000000,-21.000000,-15.000000,25.000000,-4.000000
1302815.782808,-1.000000,-10.000000,-29.000000,-73.000000,-3.000000,5.000000,-16.000000,6.000000
1302815.783601,15.000000,-4.000000,30.000000,101.000000,28.000000,4.000000,16.000000,8.000000
1302815.783619,-5.000000,-16.000000,-16.000000,-20.000000,-6.000000,-5.000000,-14.000000,-10.000000
1302815.784327,-12.000000,-17.000000,-16.000000,-11.000000,-14.000000,-4.000000,-20.000000,-9.000000
1302815.784335,-1.000000,-6.000000,21.000000,-21.000000,-8.000000,-11.000000,-10.000000,-6.000000
1302815.788347,-4.000000,2.000000,12.000000,27.000000,1.000000,-3.000000,1.000000,-3.000000
1302815.788357,-26.000000,-17.000000,-22.000000,-14.000000,-9.000000,-1.000000,-12.000000,-16.000000
1302815.804040,11.000000,-1.000000,8.000000,-22.000000,2.000000,2.000000,19.000000,12.000000
1302815.804052,7.000000,10.000000,12.000000,10.000000,7.000000,9.000000,17.000000,6.000000
1302815.826465,-13.000000,-21.000000,-17.000000,-9.000000,2.000000,-8.000000,0.000000,-5.000000
1302815.826488,-9.000000,9.000000,-5.000000,-28.000000,-3.000000,-4.000000,-27.000000,-14.000000
1302815.856447,6.000000,1.000000,16.000000,47.000000,5.000000,-4.000000,-19.000000,2.000000
1302815.856458,10.000000,-6.000000,-14.000000,-28.000000,-12.000000,3.000000,2.000000,-2.000000
1302815.863856,-2.000000,-1.000000,-2.000000,-15.000000,-4.000000,8.000000,17.000000,-3.000000
1302815.863867,6.000000,-5.000000,-10.000000,-52.000000,-22.000000,-9.000000,-7.000000,-7.000000
1302815.879159,-3.000000,0.000000,9.000000,22.000000,12.000000,2.000000,11.000000,7.000000
1302815.879171,-2.000000,14.000000,31.000000,53.000000,15.000000,5.000000,-7.000000,0.000000
1302815.879602,-6.000000,-1.000000,9.000000,18.000000,0.000000,-8.000000,17.000000,-3.000000
1302815.879610,-3.000000,-8.000000,-27.000000,-11.000000,-8.000000,-3.000000,-11.000000,-8.000000
1302815.881087,5.000000,8.000000,-15.000000,-43.000000,-15.000000,-7.000000,10.000000,4.000000
1302815.881105,-2.000000,-4.000000,6.000000,24.000000,26.000000,4.000000,-31.000000,-8.000000
1302815.882434,9.000000,-1.000000,-4.000000,3.000000,11.000000,-9.000000,18.000000,6.000000
1302815.882443,-8.000000,-12.000000,-9.000000,-13.000000,-9.000000,-9.000000,-18.000000,0.000000
1302815.886034,9.000000,7.000000,11.000000,-11.000000,11.000000,8.000000,20.000000,9.000000
1302815.886042,-21.000000,-30.000000,-6.000000,-2.000000,3.000000,2.000000,-12.000000,2.000000
1302815.901930,3.000000,-3.000000,-26.000000,-89.000000,-26.000000,-24.000000,6.000000,-6.000000
1302815.901940,5.000000,17.000000,21.000000,54.000000,20.000000,10.000000,-5.000000,0.000000
1302815.938961,-23.000000,-25.000000,-35.000000,-53.000000,-22.000000,-6.000000,-24.000000,-20.000000
1302815.938972,8.000000,13.000000,8.000000,-8.000000,8.000000,22.000000,16.000000,10.000000
1302815.961462,-9.000000,-7.000000,-11.000000,-24.000000,-19.000000,-26.000000,-4.000000,3.000000
1302815.961478,4.000000,12.000000,-10.000000,-18.000000,0.000000,3.000000,-9.000000,-9.000000
1302815.961857,-5.000000,-9.000000,-1.000000,31.000000,13.000000,-3.000000,5.000000,-3.000000
1302815.961864,-20.000000,-14.000000,2.000000,-37.000000,-12.000000,-7.000000,-13.000000,-7.000000
1302815.962956,11.000000,-1.000000,9.000000,29.000000,14.000000,20.000000,33.000000,14.000000
1302815.963047,-9.000000,-11.000000,-12.000000,-12.000000,-6.000000,-16.000000,-5.000000,-11.000000
1302815.963623,-5.000000,-10.000000,-8.000000,-73.000000,-13.000000,-15.000000,-10.000000,-1.000000
1302815.963642,1.000000,9.000000,26.000000,80.000000,18.000000,10.000000,8.000000,2.000000
1302815.983669,-6.000000,3.000000,-27.000000,-82.000000,-21.000000,5.000000,-6.000000,-11.000000
1302815.983725,-1.000000,-4.000000,-7.000000,35.000000,2.000000,-8.000000,-14.000000,-14.000000
1302815.984583,-11.000000,1.000000,1.000000,-11.000000,-6.000000,-4.000000,-2.000000,-5.000000
1302815.984591,-16.000000,-41.000000,-8.000000,-20.000000,-10.000000,-9.000000,5.000000,-3.000000
1302815.985491,9.000000,4.000000,-3.000000,3.000000,12.000000,8.000000,-2.000000,4.000000
1302815.985512,-3.000000,1.000000,5.000000,-27.000000,-12.000000,13.000000,-26.000000,-11.000000
1302815.999455,-23.000000,-13.000000,-3.000000,13.000000,6.000000,-25.000000,-17.000000,-11.000000
1302815.999465,1.000000,-19.000000,-16.000000,-53.000000,-9.000000,18.000000,39.000000,5.000000
1302816.006333,4.000000,7.000000,14.000000,18.000000,-8.000000,-14.000000,-24.000000,-4.000000
1302816.006345,2.000000,-5.000000,10.000000,39.000000,12.000000,9.000000,-1.000000,-7.000000
1302816.022204,-9.000000,1.000000,-12.000000,-2.000000,6.000000,-2.000000,0.000000,-5.000000
1302816.022240,-10.000000,-22.000000,-7.000000,-12.000000,-8.000000,-4.000000,-14.000000,-11.000000
1302816.044055,-6.000000,-9.000000,-8.000000,-28.000000,-4.000000,-3.000000,-5.000000,-4.000000
1302816.044067,-10.000000,-7.000000,6.000000,40.000000,10.000000,2.000000,-12.000000,-16.000000
1302816.066188,11.000000,6.000000,1.000000,7.000000,1.000000,-15.000000,19.000000,13.000000
1302816.066198,-6.000000,5.000000,-8.000000,-18.000000,2.000000,4.000000,-9.000000,-4.000000
1302816.081315,-3.000000,2.000000,24.000000,-3.000000,-1.000000,-4.000000,4.000000,1.000000
1302816.081325,-3.000000,-11.000000,-25.000000,-15.000000,-3.000000,2.000000,-42.000000,-11.000000
1302816.103763,-8.000000,-1.000000,-20.000000,-18.000000,-6.000000,4.000000,24.000000,-11.000000
1302816.103774,3.000000,7.000000,3.000000,-36.000000,0.000000,-12.000000,4.000000,5.000000
1302816.104063,0.000000,-4.000000,10.000000,43.000000,0.000000,0.000000,-2.000000,2.000000
1302816.104091,-1.000000,12.000000,-5.000000,-33.000000,-3.000000,-4.000000,-31.000000,-12.000000
1302816.105325,6.000000,7.000000,18.000000,11.000000,-1.000000,-1.000000,21.000000,16.000000
1302816.105334,9.000000,16.000000,-3.000000,-5.000000,13.000000,13.000000,17.000000,6.000000
1302816.106089,-13.000000,-10.000000,-13.000000,-31.000000,-26.000000,-8.000000,-14.000000,-16.000000
1302816.106097,6.000000,-5.000000,4.000000,-2.000000,-4.000000,-1.000000,29.000000,9.000000
1302816.106795,6.000000,15.000000,32.000000,115.000000,18.000000,13.000000,-15.000000,-1.000000
1302816.106808,0.000000,0.000000,-10.000000,-3.000000,2.000000,-9.000000,-18.000000,-7.000000
1302816.126802,-5.000000,20.000000,30.000000,89.000000,26.000000,13.000000,-9.000000,-4.000000
1302816.126813,-6.000000,-9.000000,13.000000,18.000000,-2.000000,5.000000,-5.000000,-11.000000
1302816.127656,-3.000000,5.000000,-20.000000,-58.000000,-24.000000,-25.000000,-8.000000,-8.000000
1302816.127667,-1.000000,5.000000,3.000000,-15.000000,3.000000,7.000000,5.000000,8.000000
1302816.141685,-4.000000,-16.000000,-16.000000,-16.000000,-12.000000,-10.000000,-13.000000,-9.000000
1302816.141700,-6.000000,1.000000,11.000000,30.000000,13.000000,2.000000,3.000000,4.000000
1302816.156558,6.000000,5.000000,-10.000000,-4.000000,-5.000000,0.000000,-12.000000,-5.000000
1302816.156579,-3.000000,-3.000000,11.000000,11.000000,-15.000000,-13.000000,-19.000000,-10.000000
1302816.178713,9.000000,7.000000,-7.000000,-30.000000,9.000000,10.000000,-14.000000,12.000000
1302816.178724,-11.000000,-2.000000,-8.000000,-5.000000,-5.000000,6.000000,78.000000,11.000000
1302816.201259,1.000000,-14.000000,-12.000000,-1.000000,-8.000000,-3.000000,-14.000000,-4.000000
1302816.201269,13.000000,41.000000,30.000000,2.000000,10.000000,-4.000000,5.000000,20.000000
1302816.223577,-12.000000,-15.000000,-9.000000,-45.000000,-18.000000,3.000000,-20.000000,-18.000000
1302816.223588,0.000000,3.000000,24.000000,18.000000,12.000000,10.000000,-4.000000,-1.000000
1302816.238857,-9.000000,-7.000000,-9.000000,-21.000000,-8.000000,-16.000000,5.000000,-2.000000
1302816.238868,3.000000,12.000000,-5.000000,-37.000000,-7.000000,-2.000000,-4.000000,-3.000000
1302816.262074,-8.000000,-8.000000,-10.000000,-48.000000,-9.000000,6.000000,-4.000000,-7.000000
1302816.262084,8.000000,-8.000000,-22.000000,-3.000000,-1.000000,-2.000000,12.000000,14.000000
1302816.262522,-7.000000,-9.000000,10.000000,93.000000,19.000000,13.000000,-16.000000,-9.000000
1302816.262549,22.000000,11.000000,5.000000,62.000000,16.000000,-6.000000,29.000000,15.000000
1302816.263041,-9.000000,-12.000000,-24.000000,-22.000000,-3.000000,1.000000,-17.000000,-13.000000
1302816.263057,-11.000000,15.000000,14.000000,-41.000000,-25.000000,-11.000000,-34.000000,-18.000000
1302816.264268,-16.000000,-8.000000,-9.000000,47.000000,10.000000,2.000000,-10.000000,-11.000000
1302816.264277,1.000000,-3.000000,1.000000,31.000000,28.000000,18.000000,-8.000000,3.000000
1302816.276214,8.000000,-7.000000,4.000000,-7.000000,-7.000000,-10.000000,-9.000000,-7.000000
1302816.276227,8.000000,34.000000,8.000000,-10.000000,2.000000,-5.000000,23.000000,7.000000
1302816.298680,2.000000,5.000000,0.000000,21.000000,-9.000000,1.000000,22.000000,17.000000
1302816.298703,-2.000000,-19.000000,4.000000,50.000000,24.000000,9.000000,14.000000,7.000000
1302816.321407,12.000000,6.000000,12.000000,39.000000,17.000000,11.000000,-12.000000,-1.000000
1302816.321419,-8.000000,-9.000000,-14.000000,-14.000000,-2.000000,-1.000000,-13.000000,-13.000000
1302816.336488,-3.000000,8.000000,9.000000,1.000000,0.000000,3.000000,-9.000000,-7.000000
1302816.336500,-2.000000,8.000000,-19.000000,-61.000000,-25.000000,-7.000000,-12.000000,-5.000000
1302816.343766,-22.000000,-26.000000,16.000000,25.000000,-6.000000,-24.000000,3.000000,-5.000000
1302816.343778,-1.000000,1.000000,3.000000,-41.000000,-10.000000,-15.000000,-1.000000,-1.000000
1302816.373684,3.000000,-3.000000,2.000000,17.000000,1.000000,1.000000,-14.000000,1.000000
1302816.373695,-5.000000,1.000000,-11.000000,-29.000000,-5.000000,6.000000,17.000000,-5.000000
1302816.374175,-11.000000,0.000000,1.000000,-52.000000,-14.000000,-7.000000,-34.000000,-9.000000
1302816.374183,11.000000,4.000000,22.000000,47.000000,12.000000,-1.000000,11.000000,6.000000
1302816.381168,-6.000000,7.000000,-7.000000,-15.000000,-8.000000,0.000000,25.000000,6.000000
1302816.381177,-12.000000,-6.000000,-14.000000,-17.000000,-4.000000,-2.000000,-19.000000,-10.000000
1302816.381569,2.000000,-2.000000,8.000000,2.000000,4.000000,3.000000,-21.000000,-5.000000
1302816.381577,6.000000,9.000000,14.000000,26.000000,5.000000,0.000000,23.000000,6.000000
1302816.383638,-3.000000,7.000000,-6.000000,0.000000,7.000000,0.000000,-9.000000,-5.000000
1302816.383649,-14.000000,-9.000000,-9.000000,-5.000000,-5.000000,2.000000,-22.000000,-11.000000
1302816.411519,-5.000000,0.000000,-2.000000,57.000000,10.000000,-10.000000,-26.000000,-11.000000
1302816.411529,11.000000,4.000000,14.000000,9.000000,11.000000,17.000000,4.000000,-5.000000
1302816.418599,12.000000,10.000000,-7.000000,-29.000000,-16.000000,3.000000,39.000000,22.000000
1302816.418608,-6.000000,2.000000,-1.000000,9.000000,15.000000,4.000000,-18.000000,-15.000000
1302816.441500,-7.000000,-10.000000,-9.000000,26.000000,1.000000,-2.000000,-3.000000,-3.000000
1302816.441524,14.000000,6.000000,13.000000,44.000000,22.000000,19.000000,39.000000,24.000000
1302816.449119,8.000000,2.000000,-6.000000,-7.000000,-13.000000,-15.000000,-10.000000,-1.000000
1302816.449149,-4.000000,1.000000,4.000000,-19.000000,-8.000000,-9.000000,-12.000000,-7.000000
1302816.478832,-4.000000,-4.000000,-3.000000,-8.000000,-5.000000,-7.000000,-36.000000,-5.000000
1302816.478843,4.000000,8.000000,-5.000000,7.000000,12.000000,-3.000000,-1.000000,-6.000000
1302816.479326,0.000000,-7.000000,1.000000,-52.000000,6.000000,21.000000,28.000000,10.000000
1302816.479334,-17.000000,5.000000,-8.000000,-44.000000,-33.000000,-37.000000,-27.000000,-13.000000
1302816.480312,1.000000,-13.000000,6.000000,18.000000,1.000000,5.000000,-9.000000,1.000000
1302816.480320,4.000000,5.000000,-6.000000,-31.000000,-11.000000,-3.000000,-24.000000,-5.000000
1302816.481052,-10.000000,4.000000,2.000000,-9.000000,9.000000,10.000000,29.000000,6.000000
1302816.481064,1.000000,-12.000000,-17.000000,-16.000000,-6.000000,-9.000000,-17.000000,0.000000
1302816.481815,8.000000,26.000000,-4.000000,-8.000000,1.000000,4.000000,7.000000,8.000000
1302816.481824,2.000000,1.000000,6.000000,-2.000000,-11.000000,-4.000000,12.000000,3.000000
1302816.493559,0.000000,-1.000000,21.000000,17.000000,8.000000,0.000000,-10.000000,-9.000000
1302816.493570,0.000000,20.000000,-14.000000,-29.000000,3.000000,-4.000000,-41.000000,-6.000000
1302816.501335,19.000000,5.000000,3.000000,11.000000,-8.000000,6.000000,70.000000,26.000000
1302816.501366,-3.000000,-1.000000,2.000000,-3.000000,6.000000,-4.000000,-16.000000,0.000000
1302816.516279,-2.000000,-8.000000,-5.000000,-67.000000,-17.000000,-14.000000,-26.000000,-8.000000
1302816.516309,8.000000,2.000000,3.000000,4.000000,2.000000,-4.000000,11.000000,5.000000
1302816.553948,-10.000000,-26.000000,-54.000000,-46.000000,-11.000000,1.000000,8.000000,-2.000000
1302816.553959,-5.000000,6.000000,9.000000,13.000000,3.000000,1.000000,-13.000000,-6.000000
1302816.561238,-5.000000,-12.000000,-13.000000,-10.000000,2.000000,-7.000000,-42.000000,-11.000000
1302816.561248,6.000000,-1.000000,8.000000,10.000000,-5.000000,-13.000000,-17.000000,-4.000000
1302816.562163,-14.000000,-8.000000,-22.000000,-24.000000,-14.000000,-5.000000,49.000000,-2.000000
1302816.562174,12.000000,8.000000,15.000000,49.000000,23.000000,4.000000,-6.000000,12.000000
1302816.562805,-7.000000,-11.000000,-20.000000,-27.000000,-2.000000,-17.000000,-18.000000,-10.000000
1302816.562814,-3.000000,-6.000000,-8.000000,-8.000000,-13.000000,-10.000000,-16.000000,-8.000000
1302816.564359,-3.000000,9.000000,13.000000,14.000000,1.000000,0.000000,2.000000,0.000000
1302816.564368,-10.000000,-24.000000,-27.000000,-54.000000,-15.000000,-12.000000,-13.000000,-13.000000
1302816.576106,10.000000,3.000000,-2.000000,20.000000,5.000000,4.000000,23.000000,19.000000
1302816.576117,-4.000000,-4.000000,-3.000000,7.000000,5.000000,7.000000,-6.000000,-2.000000
1302816.577453,-3.000000,-3.000000,-8.000000,-40.000000,0.000000,0.000000,-18.000000,-11.000000
1302816.577463,3.000000,0.000000,-5.000000,2.000000,-15.000000,-14.000000,-3.000000,2.000000
1302816.598976,-6.000000,10.000000,6.000000,-7.000000,-12.000000,-3.000000,5.000000,-1.000000
1302816.599087,-1.000000,-5.000000,-10.000000,2.000000,10.000000,13.000000,4.000000,-3.000000
1302816.600108,2.000000,-9.000000,-6.000000,-5.000000,-1.000000,5.000000,0.000000,-2.000000
1302816.600135,11.000000,-3.000000,-2.000000,-1.000000,-16.000000,-26.000000,22.000000,12.000000
1302816.613870,-5.000000,-8.000000,-20.000000,8.000000,13.000000,3.000000,-22.000000,-9.000000
1302816.613882,-10.000000,-7.000000,21.000000,70.000000,5.000000,0.000000,-57.000000,-8.000000
1302816.621400,10.000000,20.000000,16.000000,69.000000,10.000000,6.000000,60.000000,5.000000
1302816.621414,2.000000,-6.000000,-6.000000,-5.000000,-5.000000,2.000000,-15.000000,4.000000
1302816.637518,-5.000000,-4.000000,-9.000000,-10.000000,7.000000,-9.000000,-25.000000,-7.000000
1302816.637552,-4.000000,-13.000000,-16.000000,-8.000000,-5.000000,-6.000000,-9.000000,-3.000000
1302816.681562,22.000000,4.000000,26.000000,55.000000,29.000000,33.000000,25.000000,11.000000
1302816.681580,-22.000000,-23.000000,6.000000,47.000000,13.000000,-1.000000,29.000000,0.000000
1302816.682212,5.000000,3.000000,-4.000000,-14.000000,-6.000000,-11.000000,-15.000000,-3.000000
1302816.682247,2.000000,-6.000000,-21.000000,-26.000000,-5.000000,-2.000000,4.000000,4.000000
1302816.683459,2.000000,-5.000000,-17.000000,16.000000,4.000000,-1.000000,-16.000000,-3.000000
1302816.683690,-15.000000,22.000000,32.000000,4.000000,12.000000,16.000000,-1.000000,-8.000000
1302816.683929,-10.000000,-18.000000,-24.000000,-35.000000,-22.000000,-18.000000,-3.000000,-6.000000
1302816.683941,-1.000000,4.000000,4.000000,-4.000000,14.000000,3.000000,-2.000000,5.000000
1302816.696069,12.000000,15.000000,15.000000,65.000000,19.000000,3.000000,6.000000,19.000000
1302816.696079,-2.000000,-10.000000,-2.000000,-13.000000,-11.000000,-3.000000,-18.000000,-9.000000
1302816.697754,-6.000000,3.000000,0.000000,-20.000000,-6.000000,-5.000000,-18.000000,-15.000000
1302816.697765,-3.000000,-10.000000,-10.000000,-5.000000,-7.000000,11.000000,-20.000000,-4.000000
1302816.711573,0.000000,7.000000,13.000000,28.000000,8.000000,-5.000000,25.000000,7.000000
1302816.711591,4.000000,-1.000000,-12.000000,-39.000000,-10.000000,-3.000000,16.000000,-10.000000
1302816.719178,-14.000000,-24.000000,30.000000,38.000000,12.000000,2.000000,29.000000,11.000000
1302816.719258,4.000000,-12.000000,-29.000000,-70.000000,-9.000000,-10.000000,-21.000000,-9.000000
1302816.733615,6.000000,3.000000,0.000000,0.000000,-14.000000,-8.000000,-12.000000,-5.000000
1302816.733639,-9.000000,-14.000000,-11.000000,-2.000000,12.000000,5.000000,17.000000,10.000000
1302816.756441,0.000000,18.000000,-5.000000,25.000000,4.000000,2.000000,-5.000000,-1.000000
1302816.756452,3.000000,1.000000,2.000000,-15.000000,-2.000000,3.000000,1.000000,6.000000
1302816.778677,-10.000000,-13.000000,-10.000000,-9.000000,-8.000000,-10.000000,-15.000000,-12.000000
1302816.778719,-10.000000,8.000000,-13.000000,-8.000000,11.000000,-2.000000,-47.000000,-13.000000
1302816.808754,-4.000000,-8.000000,-3.000000,-24.000000,-13.000000,1.000000,86.000000,19.000000
1302816.808766,7.000000,0.000000,-7.000000,39.000000,11.000000,-12.000000,-35.000000,-11.000000
1302816.831177,15.000000,23.000000,34.000000,56.000000,34.000000,15.000000,10.000000,16.000000
1302816.831188,0.000000,15.000000,-8.000000,-30.000000,-15.000000,-5.000000,-5.000000,0.000000
1302816.832240,5.000000,17.000000,15.000000,98.000000,9.000000,11.000000,33.000000,13.000000
1302816.832267,3.000000,5.000000,-5.000000,-12.000000,-4.000000,-6.000000,-25.000000,-2.000000
1302816.833029,-2.000000,-1.000000,-10.000000,-34.000000,-26.000000,-14.000000,-9.000000,-7.000000
1302816.833037,-10.000000,-6.000000,-2.000000,17.000000,8.000000,1.000000,-8.000000,-2.000000
1302816.833552,-12.000000,-13.000000,-14.000000,-68.000000,-13.000000,-1.000000,-9.000000,-9.000000
1302816.833582,10.000000,0.000000,11.000000,8.000000,-9.000000,-5.000000,-19.000000,-1.000000
1302816.834119,-19.000000,-7.000000,-8.000000,1.000000,-6.000000,1.000000,-1.000000,-13.000000
1302816.834145,10.000000,-5.000000,0.000000,-2.000000,-5.000000,-17.000000,0.000000,14.000000
1302816.835084,-5.000000,-24.000000,-15.000000,-45.000000,-6.000000,-1.000000,10.000000,-10.000000
1302816.835105,4.000000,2.000000,21.000000,64.000000,28.000000,15.000000,7.000000,3.000000
1302816.838592,16.000000,18.000000,13.000000,-17.000000,7.000000,11.000000,13.000000,9.000000
1302816.838600,-15.000000,-13.000000,-14.000000,-19.000000,-14.000000,-14.000000,-18.000000,-3.000000
1302816.853766,11.000000,10.000000,12.000000,32.000000,6.000000,4.000000,-7.000000,-5.000000
1302816.853776,-13.000000,-13.000000,-12.000000,-59.000000,-33.000000,-15.000000,-17.000000,-14.000000
1302816.876378,-6.000000,-13.000000,3.000000,7.000000,6.000000,-4.000000,-16.000000,-12.000000
1302816.876450,5.000000,34.000000,4.000000,-3.000000,1.000000,-1.000000,11.000000,2.000000
1302816.883903,-13.000000,-2.000000,-2.000000,25.000000,9.000000,10.000000,-31.000000,-14.000000
1302816.883933,7.000000,-16.000000,8.000000,15.000000,-15.000000,-17.000000,32.000000,17.000000
1302816.899102,-22.000000,-41.000000,0.000000,24.000000,-11.000000,-14.000000,2.000000,-1.000000
1302816.899112,-4.000000,-5.000000,-12.000000,17.000000,-4.000000,-2.000000,-40.000000,-8.000000
1302816.913781,-1.000000,12.000000,16.000000,-21.000000,-10.000000,-7.000000,14.000000,-8.000000
1302816.913799,0.000000,0.000000,-11.000000,2.000000,12.000000,10.000000,-27.000000,-7.000000
1302816.936806,4.000000,13.000000,-11.000000,-35.000000,-19.000000,-18.000000,11.000000,8.000000
1302816.936816,-10.000000,-3.000000,-7.000000,-15.000000,2.000000,1.000000,6.000000,-10.000000
1302816.937299,12.000000,12.000000,10.000000,27.000000,21.000000,14.000000,8.000000,19.000000
1302816.937310,-4.000000,-12.000000,-16.000000,-1.000000,7.000000,17.000000,-28.000000,-17.000000
1302816.938498,5.000000,-6.000000,8.000000,22.000000,-6.000000,-8.000000,40.000000,13.000000
1302816.938506,-5.000000,-5.000000,9.000000,-8.000000,-1.000000,-4.000000,-7.000000,7.000000
1302816.939138,3.000000,7.000000,0.000000,-18.000000,-7.000000,0.000000,-10.000000,-4.000000
1302816.939145,-17.000000,-28.000000,-21.000000,-95.000000,-37.000000,-18.000000,-25.000000,-16.000000
1302816.958991,0.000000,-1.000000,14.000000,41.000000,13.000000,1.000000,-22.000000,-10.000000
1302816.959003,-11.000000,-9.000000,-13.000000,-11.000000,-28.000000,-8.000000,-21.000000,-18.000000
1302816.973598,-2.000000,0.000000,14.000000,38.000000,-3.000000,-16.000000,42.000000,9.000000
1302816.973627,-1.000000,-15.000000,-12.000000,-13.000000,-10.000000,1.000000,-6.000000,-1.000000
1302816.988945,-2.000000,2.000000,-3.000000,-4.000000,1.000000,-6.000000,-22.000000,-16.000000
1302816.988955,-4.000000,-1.000000,-13.000000,-30.000000,-16.000000,-15.000000,-56.000000,-14.000000
1302817.011337,17.000000,11.000000,33.000000,117.000000,51.000000,31.000000,66.000000,18.000000
1302817.011366,6.000000,3.000000,-8.000000,-28.000000,-5.000000,-2.000000,-15.000000,1.000000
1302817.034028,-2.000000,3.000000,-5.000000,53.000000,5.000000,-4.000000,-13.000000,-8.000000
1302817.034039,-7.000000,2.000000,6.000000,10.000000,-12.000000,-14.000000,-47.000000,-16.000000
1302817.048659,2.000000,-1.000000,-1.000000,66.000000,38.000000,15.000000,53.000000,19.000000
1302817.048670,7.000000,5.000000,-5.000000,-23.000000,2.000000,4.000000,-9.000000,2.000000
1302817.056159,2.000000,11.000000,8.000000,9.000000,-9.000000,-12.000000,-24.000000,-5.000000
1302817.056179,-1.000000,-11.000000,1.000000,23.000000,-1.000000,3.000000,-2.000000,-2.000000
1302817.057100,7.000000,0.000000,-1.000000,-22.000000,3.000000,-9.000000,6.000000,10.000000
1302817.057109,-7.000000,6.000000,0.000000,-16.000000,-1.000000,-12.000000,-29.000000,-7.000000
1302817.058546,12.000000,7.000000,15.000000,41.000000,9.000000,9.000000,8.000000,12.000000
1302817.058592,-8.000000,1.000000,-13.000000,9.000000,17.000000,8.000000,-16.000000,-6.000000
1302817.059277,2.000000,-9.000000,-13.000000,-27.000000,-16.000000,-13.000000,11.000000,3.000000
1302817.059286,5.000000,6.000000,22.000000,28.000000,9.000000,7.000000,-9.000000,-4.000000
1302817.071218,-15.000000,-10.000000,2.000000,2.000000,4.000000,6.000000,-10.000000,-10.000000
1302817.071233,11.000000,0.000000,2.000000,-10.000000,-10.000000,-1.000000,7.000000,9.000000
1302817.094062,-2.000000,2.000000,-3.000000,16.000000,9.000000,-1.000000,-2.000000,-3.000000
1302817.094095,14.000000,-3.000000,16.000000,-19.000000,1.000000,25.000000,35.000000,13.000000
1302817.108900,8.000000,17.000000,4.000000,21.000000,3.000000,-12.000000,8.000000,9.000000
1302817.108910,-13.000000,-11.000000,-14.000000,-1.000000,-11.000000,-5.000000,-16.000000,-13.000000
1302817.131436,-15.000000,-6.000000,-9.000000,-37.000000,-6.000000,7.000000,-19.000000,-12.000000
1302817.131447,-8.000000,-2.000000,-2.000000,-55.000000,-13.000000,-9.000000,-33.000000,-17.000000
1302817.153901,5.000000,7.000000,49.000000,16.000000,-2.000000,-9.000000,56.000000,8.000000
1302817.153913,-1.000000,-25.000000,-44.000000,-25.000000,-5.000000,4.000000,9.000000,10.000000
1302817.169454,-13.000000,-21.000000,16.000000,-29.000000,-8.000000,-4.000000,-28.000000,-15.000000
1302817.169464,3.000000,7.000000,-4.000000,-2.000000,3.000000,-2.000000,-22.000000,-7.000000
1302817.169904,-6.000000,-2.000000,-5.000000,-12.000000,-12.000000,-6.000000,-7.000000,-3.000000
1302817.169911,-1.000000,-1.000000,-2.000000,-15.000000,10.000000,1.000000,7.000000,-4.000000
1302817.171008,-5.000000,-4.000000,-8.000000,-21.000000,-19.000000,-6.000000,-1.000000,-3.000000
1302817.171123,3.000000,20.000000,-13.000000,-25.000000,-2.000000,-4.000000,-12.000000,-4.000000
1302817.173059,8.000000,-3.000000,-21.000000,-11.000000,1.000000,3.000000,-4.000000,-4.000000
1302817.173070,-6.000000,2.000000,33.000000,28.000000,24.000000,3.000000,-2.000000,2.000000
1302817.191170,2.000000,-4.000000,-8.000000,7.000000,-3.000000,-10.000000,0.000000,1.000000
1302817.191187,-5.000000,-5.000000,-18.000000,-24.000000,-6.000000,-3.000000,-3.000000,-4.000000
1302817.191666,-4.000000,5.000000,-16.000000,5.000000,4.000000,-2.000000,1.000000,-1.000000
1302817.191680,-7.000000,-6.000000,-18.000000,-66.000000,-26.000000,-9.000000,-22.000000,-16.000000
1302817.214045,-5.000000,-6.000000,14.000000,85.000000,-1.000000,5.000000,-3.000000,-5.000000
1302817.214057,14.000000,3.000000,9.000000,61.000000,18.000000,-10.000000,30.000000,22.000000
1302817.236177,-4.000000,15.000000,-10.000000,0.000000,-1.000000,8.000000,32.000000,4.000000
1302817.236188,10.000000,3.000000,6.000000,7.000000,10.000000,8.000000,-5.000000,3.000000
1302817.251187,0.000000,-4.000000,-9.000000,-33.000000,-9.000000,-4.000000,-2.000000,-8.000000
1302817.251215,4.000000,4.000000,18.000000,2.000000,0.000000,-8.000000,5.000000,-3.000000
1302817.266439,9.000000,21.000000,-8.000000,-14.000000,5.000000,3.000000,-8.000000,3.000000
1302817.266450,4.000000,5.000000,10.000000,5.000000,-3.000000,-3.000000,-11.000000,1.000000
1302817.288869,7.000000,-4.000000,-18.000000,-29.000000,-3.000000,15.000000,25.000000,4.000000
1302817.288888,0.000000,15.000000,43.000000,92.000000,18.000000,-1.000000,-9.000000,4.000000
1302817.311193,-1.000000,-9.000000,-11.000000,8.000000,3.000000,4.000000,-14.000000,-4.000000
1302817.311236,-2.000000,3.000000,-4.000000,-9.000000,-4.000000,-11.000000,-11.000000,-2.000000
1302817.312190,1.000000,19.000000,0.000000,-29.000000,-7.000000,7.000000,42.000000,5.000000
1302817.312198,-3.000000,-6.000000,-3.000000,-3.000000,-3.000000,-7.000000,-32.000000,-5.000000
1302817.313845,-8.000000,-2.000000,-37.000000,-14.000000,-7.000000,-13.000000,-9.000000,-12.000000
1302817.313877,9.000000,1.000000,15.000000,57.000000,-2.000000,6.000000,11.000000,11.000000
1302817.315036,-14.000000,-31.000000,-11.000000,-6.000000,21.000000,10.000000,-16.000000,-16.000000
1302817.315044,30.000000,10.000000,-9.000000,-35.000000,-8.000000,-7.000000,41.000000,25.000000
1302817.326421,21.000000,11.000000,30.000000,6.000000,3.000000,13.000000,4.000000,6.000000
1302817.326441,-7.000000,-2.000000,-5.000000,-37.000000,-25.000000,-6.000000,-11.000000,-13.000000
1302817.341173,6.000000,7.000000,-1.000000,-21.000000,-6.000000,-6.000000,-2.000000,4.000000
1302817.341184,-9.000000,-10.000000,0.000000,3.000000,-7.000000,-17.000000,-8.000000,-9.000000
1302817.348730,5.000000,6.000000,7.000000,7.000000,-3.000000,0.000000,12.000000,10.000000
1302817.348740,0.000000,-6.000000,7.000000,8.000000,9.000000,13.000000,7.000000,3.000000
1302817.386163,-7.000000,-6.000000,-39.000000,-81.000000,-26.000000,-23.000000,-38.000000,-19.000000
1302817.386191,14.000000,25.000000,33.000000,60.000000,21.000000,17.000000,43.000000,16.000000
1302817.386534,9.000000,-13.000000,-10.000000,-10.000000,-2.000000,11.000000,46.000000,17.000000
1302817.386563,-14.000000,-3.000000,-25.000000,-36.000000,2.000000,-3.000000,-23.000000,-10.000000
1302817.387867,0.000000,11.000000,-17.000000,41.000000,-10.000000,3.000000,2.000000,0.000000
1302817.387883,-8.000000,14.000000,19.000000,40.000000,12.000000,-7.000000,-12.000000,-7.000000
1302817.388641,7.000000,-1.000000,23.000000,-11.000000,0.000000,5.000000,-21.000000,-11.000000
1302817.388649,-7.000000,-11.000000,-16.000000,-38.000000,-14.000000,-16.000000,3.000000,4.000000
1302817.408991,-8.000000,-1.000000,-15.000000,-48.000000,-4.000000,8.000000,7.000000,-8.000000
1302817.409247,5.000000,-6.000000,24.000000,48.000000,11.000000,3.000000,3.000000,-4.000000
1302817.409579,-2.000000,7.000000,9.000000,-12.000000,-1.000000,0.000000,10.000000,9.000000
1302817.409606,2.000000,7.000000,35.000000,-18.000000,-6.000000,1.000000,-8.000000,1.000000
1302817.410918,-15.000000,-5.000000,-39.000000,-27.000000,0.000000,-3.000000,10.000000,-6.000000
1302817.410929,-5.000000,-10.000000,-1.000000,-2.000000,-5.000000,-7.000000,-21.000000,-8.000000
1302817.430990,2.000000,14.000000,0.000000,-12.000000,-17.000000,-7.000000,5.000000,-3.000000
1302817.431005,0.000000,-5.000000,9.000000,64.000000,16.000000,4.000000,-6.000000,-4.000000
1302817.432393,-1.000000,-31.000000,-13.000000,-13.000000,-5.000000,-4.000000,-28.000000,-6.000000
1302817.432412,-11.000000,3.000000,2.000000,-12.000000,-12.000000,-10.000000,7.000000,-7.000000
1302817.438614,-12.000000,-13.000000,-22.000000,-21.000000,-8.000000,-11.000000,-16.000000,-11.000000
1302817.438623,5.000000,3.000000,17.000000,95.000000,40.000000,11.000000,7.000000,10.000000
1302817.468750,-7.000000,-9.000000,-9.000000,-60.000000,-21.000000,-3.000000,2.000000,-4.000000
1302817.468767,-4.000000,-10.000000,-11.000000,46.000000,12.000000,-2.000000,-15.000000,-8.000000
1302817.491474,-5.000000,-11.000000,-32.000000,-66.000000,-1.000000,2.000000,-28.000000,-8.000000
1302817.491503,1.000000,19.000000,41.000000,75.000000,-3.000000,-6.000000,23.000000,-3.000000
1302817.521332,-2.000000,-1.000000,-13.000000,-17.000000,-2.000000,4.000000,9.000000,7.000000
1302817.521343,-2.000000,-8.000000,-3.000000,-18.000000,1.000000,7.000000,8.000000,7.000000
1302817.543765,11.000000,4.000000,16.000000,5.000000,-1.000000,-3.000000,-11.000000,1.000000
1302817.543777,-8.000000,-9.000000,-9.000000,19.000000,10.000000,11.000000,5.000000,-2.000000
1302817.544710,0.000000,-14.000000,14.000000,-6.000000,-6.000000,0.000000,17.000000,14.000000
1302817.544720,6.000000,6.000000,-16.000000,-38.000000,-16.000000,-3.000000,-12.000000,7.000000
1302817.545380,3.000000,1.000000,-21.000000,-16.000000,-5.000000,-4.000000,17.000000,-3.000000
1302817.545389,-9.000000,14.000000,44.000000,127.000000,60.000000,26.000000,13.000000,1.000000
1302817.548035,-18.000000,-6.000000,-10.000000,-29.000000,-21.000000,-29.000000,-12.000000,-5.000000
1302817.548048,16.000000,20.000000,18.000000,51.000000,-1.000000,-15.000000,-2.000000,1.000000
1302817.552048,-1.000000,1.000000,-8.000000,-41.000000,-11.000000,-5.000000,7.000000,-4.000000
1302817.552059,-17.000000,3.000000,-32.000000,-29.000000,-14.000000,-5.000000,-12.000000,-9.000000
1302817.566411,-7.000000,-5.000000,6.000000,-1.000000,8.000000,-4.000000,-32.000000,-12.000000
1302817.566421,2.000000,-3.000000,-28.000000,-42.000000,-8.000000,5.000000,18.000000,-3.000000
1302817.596492,0.000000,12.000000,32.000000,108.000000,42.000000,7.000000,-22.000000,-6.000000
1302817.596510,-1.000000,5.000000,-7.000000,-36.000000,-17.000000,-5.000000,81.000000,14.000000
1302817.603692,-5.000000,-21.000000,-3.000000,-23.000000,-10.000000,-8.000000,-12.000000,0.000000
1302817.603732,-3.000000,1.000000,-13.000000,1.000000,-1.000000,-11.000000,-23.000000,-10.000000
1302817.626424,-14.000000,-3.000000,10.000000,25.000000,10.000000,-4.000000,-27.000000,-13.000000
1302817.626437,3.000000,5.000000,-11.000000,-43.000000,-8.000000,-11.000000,-5.000000,-7.000000
1302817.648820,2.000000,9.000000,3.000000,34.000000,12.000000,3.000000,0.000000,1.000000
1302817.648830,-5.000000,-9.000000,-9.000000,-36.000000,-1.000000,-5.000000,-13.000000,-7.000000
1302817.671354,-5.000000,-14.000000,3.000000,-34.000000,-22.000000,-18.000000,2.000000,0.000000
1302817.671367,10.000000,7.000000,8.000000,47.000000,7.000000,6.000000,-1.000000,3.000000
1302817.671791,-4.000000,14.000000,-10.000000,-20.000000,-5.000000,-2.000000,-3.000000,-3.000000
1302817.671802,8.000000,8.000000,-8.000000,-40.000000,-19.000000,8.000000,-4.000000,1.000000
1302817.672867,9.000000,-2.000000,1.000000,-19.000000,1.000000,-7.000000,17.000000,1.000000
1302817.672877,-8.000000,1.000000,22.000000,12.000000,7.000000,8.000000,-12.000000,-5.000000
1302817.673554,6.000000,-11.000000,-36.000000,-35.000000,-10.000000,-5.000000,-4.000000,2.000000
1302817.673564,-5.000000,9.000000,23.000000,48.000000,7.000000,4.000000,-6.000000,-5.000000
1302817.674380,0.000000,1.000000,22.000000,58.000000,11.000000,-1.000000,-11.000000,-8.000000
1302817.674390,8.000000,1.000000,-4.000000,-7.000000,7.000000,1.000000,-37.000000,-2.000000
1302817.686528,-5.000000,0.000000,3.000000,2.000000,6.000000,-7.000000,-19.000000,4.000000
1302817.686540,-4.000000,-11.000000,-29.000000,-98.000000,-37.000000,-17.000000,9.000000,-6.000000
1302817.723749,-3.000000,0.000000,0.000000,-24.000000,6.000000,1.000000,-14.000000,-4.000000
1302817.723758,-12.000000,-12.000000,10.000000,-19.000000,-15.000000,-4.000000,-8.000000,-8.000000
1302817.731460,11.000000,7.000000,-20.000000,-6.000000,3.000000,4.000000,1.000000,4.000000
1302817.731471,-11.000000,-8.000000,-13.000000,-43.000000,-17.000000,-4.000000,-9.000000,-7.000000
1302817.753681,-4.000000,-14.000000,-2.000000,10.000000,6.000000,1.000000,-2.000000,4.000000
1302817.753698,-9.000000,11.000000,8.000000,39.000000,11.000000,4.000000,-6.000000,-8.000000
1302817.768899,1.000000,-5.000000,-6.000000,-12.000000,-17.000000,-20.000000,-10.000000,1.000000
1302817.768911,2.000000,-8.000000,-5.000000,-1.000000,5.000000,5.000000,18.000000,13.000000
1302817.769831,-8.000000,4.000000,3.000000,0.000000,0.000000,1.000000,-10.000000,-6.000000
1302817.769842,3.000000,-6.000000,15.000000,60.000000,-12.000000,-16.000000,-8.000000,-4.000000
1302817.770382,5.000000,8.000000,7.000000,-6.000000,-5.000000,0.000000,-29.000000,-6.000000
1302817.770389,-9.000000,-11.000000,1.000000,44.000000,17.000000,-2.000000,42.000000,7.000000
1302817.771729,-11.000000,-7.000000,-14.000000,-1.000000,18.000000,6.000000,-14.000000,-7.000000
1302817.771738,16.000000,6.000000,25.000000,122.000000,46.000000,15.000000,23.000000,7.000000
1302817.791205,4.000000,-9.000000,-11.000000,11.000000,3.000000,5.000000,-1.000000,-1.000000
1302817.791216,2.000000,1.000000,-8.000000,0.000000,-1.000000,3.000000,0.000000,2.000000
1302817.792450,-15.000000,-1.000000,12.000000,-2.000000,2.000000,-2.000000,-42.000000,-15.000000
1302817.792460,1.000000,6.000000,6.000000,6.000000,-7.000000,-8.000000,35.000000,4.000000
1302817.806321,4.000000,-6.000000,-10.000000,-1.000000,13.000000,4.000000,4.000000,12.000000
1302817.806331,8.000000,10.000000,4.000000,17.000000,11.000000,7.000000,-11.000000,3.000000
1302817.829048,-8.000000,2.000000,6.000000,16.000000,-19.000000,-11.000000,-23.000000,-11.000000
1302817.829060,-13.000000,-12.000000,-4.000000,-4.000000,-1.000000,7.000000,19.000000,-6.000000
1302817.836314,-7.000000,-7.000000,-11.000000,-8.000000,-6.000000,-9.000000,-6.000000,2.000000
1302817.836325,9.000000,-4.000000,-6.000000,-82.000000,-33.000000,-7.000000,24.000000,11.000000
1302817.866393,-2.000000,3.000000,17.000000,74.000000,41.000000,9.000000,-10.000000,-1.000000
1302817.866407,-8.000000,-15.000000,-10.000000,-41.000000,-12.000000,2.000000,-6.000000,-5.000000
