# participant_id: P2
# gesture: baseline
# trial_number: 2
# stream_name: Myo_EMG
# stream_type: emg
# timestamp: 20260420_131452
# samples: 5278
# duration_sec: 30.436
# nominal_sample_rate: 200.0
# effective_sample_rate: 173.38
#
timestamp,emg_1,emg_2,emg_3,emg_4,emg_5,emg_6,emg_7,emg_8
1295584.688952,-29.000000,-6.000000,-3.000000,-7.000000,0.000000,-1.000000,-7.000000,-19.000000
1295584.688972,2.000000,-6.000000,-7.000000,-5.000000,1.000000,-4.000000,1.000000,17.000000
1295584.689407,-9.000000,8.000000,2.000000,3.000000,3.000000,2.000000,0.000000,-10.000000
1295584.689420,1.000000,-4.000000,-2.000000,3.000000,-2.000000,0.000000,-2.000000,-3.000000
1295584.690862,-1.000000,-9.000000,-8.000000,-9.000000,-2.000000,-4.000000,-1.000000,13.000000
1295584.690872,2.000000,0.000000,3.000000,3.000000,-2.000000,2.000000,-3.000000,-13.000000
1295584.711510,-2.000000,2.000000,0.000000,-1.000000,-3.000000,-1.000000,2.000000,3.000000
1295584.711523,2.000000,-7.000000,-1.000000,-3.000000,-2.000000,-5.000000,-3.000000,-1.000000
1295584.712604,1.000000,0.000000,2.000000,-2.000000,-1.000000,-2.000000,-2.000000,-3.000000
1295584.712614,1.000000,5.000000,-1.000000,2.000000,0.000000,-1.000000,2.000000,6.000000
1295584.726769,-1.000000,-6.000000,-4.000000,-4.000000,-4.000000,-5.000000,-8.000000,8.000000
1295584.726780,-4.000000,-5.000000,-3.000000,-3.000000,-2.000000,-1.000000,-2.000000,0.000000
1295584.742080,-1.000000,7.000000,1.000000,8.000000,0.000000,3.000000,0.000000,1.000000
1295584.742152,2.000000,0.000000,-2.000000,-2.000000,1.000000,-3.000000,2.000000,8.000000
1295584.748980,-21.000000,-10.000000,-3.000000,-8.000000,1.000000,-3.000000,-8.000000,-4.000000
1295584.748992,-2.000000,2.000000,0.000000,3.000000,0.000000,-1.000000,-1.000000,0.000000
1295584.771747,0.000000,1.000000,-1.000000,2.000000,-1.000000,-1.000000,0.000000,-24.000000
1295584.771758,-2.000000,-7.000000,-2.000000,-4.000000,-3.000000,-3.000000,-3.000000,0.000000
1295584.779122,-3.000000,-1.000000,3.000000,-1.000000,1.000000,-3.000000,-6.000000,-16.000000
1295584.779133,3.000000,5.000000,2.000000,4.000000,3.000000,2.000000,4.000000,7.000000
1295584.816763,-3.000000,-4.000000,-1.000000,-3.000000,-1.000000,-3.000000,-6.000000,-5.000000
1295584.816774,2.000000,-2.000000,-4.000000,-2.000000,-3.000000,-1.000000,4.000000,4.000000
1295584.824135,3.000000,5.000000,0.000000,4.000000,0.000000,-2.000000,-1.000000,-4.000000
1295584.824145,-4.000000,-6.000000,0.000000,4.000000,0.000000,0.000000,0.000000,-2.000000
1295584.846408,4.000000,-7.000000,-3.000000,-6.000000,-5.000000,-3.000000,0.000000,11.000000
1295584.846427,-8.000000,2.000000,-3.000000,0.000000,0.000000,0.000000,-5.000000,-16.000000
1295584.861495,-2.000000,3.000000,1.000000,2.000000,1.000000,2.000000,1.000000,0.000000
1295584.861506,-1.000000,-6.000000,1.000000,-7.000000,-1.000000,-8.000000,-8.000000,2.000000
1295584.876710,2.000000,-3.000000,-2.000000,-1.000000,-5.000000,-4.000000,4.000000,6.000000
1295584.876721,-6.000000,-5.000000,-6.000000,-7.000000,0.000000,-3.000000,-11.000000,-11.000000
1295584.884070,2.000000,6.000000,-2.000000,4.000000,-3.000000,2.000000,1.000000,11.000000
1295584.884099,1.000000,-2.000000,-1.000000,-1.000000,-1.000000,0.000000,-2.000000,-2.000000
1295584.891513,0.000000,-5.000000,-4.000000,-6.000000,-2.000000,-5.000000,-1.000000,2.000000
1295584.891531,7.000000,2.000000,0.000000,2.000000,0.000000,-3.000000,1.000000,3.000000
1295584.928901,0.000000,-4.000000,0.000000,1.000000,0.000000,-1.000000,3.000000,26.000000
1295584.928911,-3.000000,-3.000000,-4.000000,-3.000000,-1.000000,-3.000000,-3.000000,-11.000000
1295584.929386,9.000000,4.000000,3.000000,5.000000,0.000000,3.000000,6.000000,-1.000000
1295584.929394,-5.000000,0.000000,2.000000,-2.000000,1.000000,5.000000,-1.000000,-5.000000
1295584.930590,1.000000,-12.000000,-8.000000,-8.000000,-4.000000,3.000000,6.000000,7.000000
1295584.930599,1.000000,3.000000,3.000000,1.000000,0.000000,-6.000000,-4.000000,1.000000
1295584.931424,0.000000,2.000000,-2.000000,1.000000,0.000000,-1.000000,0.000000,0.000000
1295584.931460,-4.000000,-8.000000,-1.000000,-2.000000,-4.000000,-1.000000,-2.000000,-4.000000
1295584.932810,-3.000000,2.000000,0.000000,3.000000,1.000000,-4.000000,-5.000000,-2.000000
1295584.932829,1.000000,5.000000,1.000000,4.000000,2.000000,1.000000,8.000000,9.000000
1295584.966712,-8.000000,-9.000000,-6.000000,-6.000000,-5.000000,-8.000000,-5.000000,-30.000000
1295584.966723,3.000000,0.000000,-2.000000,-1.000000,-1.000000,0.000000,2.000000,23.000000
1295585.004134,10.000000,6.000000,-1.000000,-1.000000,4.000000,6.000000,-1.000000,-3.000000
1295585.004156,-3.000000,-8.000000,-4.000000,-7.000000,-1.000000,-1.000000,-1.000000,0.000000
1295585.011622,-4.000000,-1.000000,-4.000000,-5.000000,-7.000000,-3.000000,-3.000000,-5.000000
1295585.011632,-35.000000,5.000000,-1.000000,1.000000,-1.000000,-2.000000,-1.000000,-14.000000
1295585.041766,0.000000,-8.000000,-1.000000,0.000000,1.000000,-4.000000,-4.000000,-8.000000
1295585.041775,1.000000,-3.000000,-2.000000,-3.000000,-1.000000,0.000000,-4.000000,-2.000000
1295585.042370,1.000000,5.000000,0.000000,0.000000,4.000000,-2.000000,-6.000000,9.000000
1295585.042379,-2.000000,-5.000000,-4.000000,-1.000000,0.000000,0.000000,4.000000,4.000000
1295585.043145,-3.000000,-1.000000,-3.000000,-3.000000,-3.000000,-3.000000,-4.000000,-5.000000
1295585.043194,-1.000000,6.000000,2.000000,4.000000,-1.000000,1.000000,0.000000,-5.000000
1295585.043736,0.000000,5.000000,-5.000000,1.000000,1.000000,-2.000000,1.000000,0.000000
1295585.043744,6.000000,-9.000000,1.000000,1.000000,-2.000000,-1.000000,2.000000,16.000000
1295585.044286,6.000000,2.000000,4.000000,-2.000000,-2.000000,-6.000000,-6.000000,15.000000
1295585.044294,-5.000000,-5.000000,-4.000000,-2.000000,3.000000,2.000000,6.000000,-2.000000
1295585.045163,4.000000,5.000000,6.000000,2.000000,-4.000000,1.000000,2.000000,-4.000000
1295585.045216,2.000000,-1.000000,-18.000000,-24.000000,-3.000000,-2.000000,-1.000000,2.000000
1295585.048801,-8.000000,-6.000000,-1.000000,3.000000,-1.000000,1.000000,-2.000000,-14.000000
1295585.048823,3.000000,-4.000000,-7.000000,-9.000000,-4.000000,-8.000000,-8.000000,7.000000
1295585.071423,3.000000,2.000000,-2.000000,-3.000000,-2.000000,1.000000,2.000000,11.000000
1295585.071435,-4.000000,1.000000,-1.000000,2.000000,-1.000000,1.000000,1.000000,-17.000000
1295585.079589,-5.000000,-8.000000,-4.000000,-3.000000,-3.000000,-6.000000,-2.000000,-4.000000
1295585.079600,9.000000,-1.000000,0.000000,-2.000000,-1.000000,-2.000000,0.000000,9.000000
1295585.086324,-4.000000,9.000000,1.000000,5.000000,0.000000,0.000000,3.000000,10.000000
1295585.086337,-2.000000,1.000000,4.000000,0.000000,2.000000,-1.000000,1.000000,1.000000
1295585.116530,8.000000,-4.000000,-5.000000,-7.000000,-4.000000,3.000000,-3.000000,-11.000000
1295585.116543,-23.000000,2.000000,3.000000,0.000000,2.000000,0.000000,-6.000000,-21.000000
1295585.123992,5.000000,0.000000,1.000000,-6.000000,-1.000000,-3.000000,2.000000,0.000000
1295585.124011,-3.000000,-5.000000,-6.000000,-7.000000,-2.000000,-4.000000,-4.000000,2.000000
1295585.138877,0.000000,2.000000,0.000000,1.000000,-4.000000,2.000000,-3.000000,3.000000
1295585.138887,7.000000,4.000000,5.000000,2.000000,1.000000,-2.000000,6.000000,16.000000
1295585.154014,-11.000000,-8.000000,0.000000,0.000000,-3.000000,-2.000000,2.000000,2.000000
1295585.154042,-3.000000,-3.000000,0.000000,-2.000000,1.000000,-1.000000,-8.000000,-35.000000
1295585.154950,6.000000,8.000000,3.000000,3.000000,-1.000000,2.000000,10.000000,9.000000
1295585.154976,-1.000000,-4.000000,-5.000000,-7.000000,-1.000000,1.000000,0.000000,3.000000
1295585.155768,-2.000000,-5.000000,-5.000000,-3.000000,-2.000000,-1.000000,-5.000000,-7.000000
1295585.155794,3.000000,10.000000,3.000000,4.000000,2.000000,6.000000,11.000000,14.000000
1295585.157182,0.000000,-7.000000,1.000000,-1.000000,-5.000000,-2.000000,-5.000000,0.000000
1295585.157207,0.000000,-10.000000,-12.000000,-7.000000,-6.000000,-4.000000,-1.000000,3.000000
1295585.161525,-4.000000,4.000000,2.000000,1.000000,0.000000,-9.000000,-3.000000,-19.000000
1295585.161543,-2.000000,2.000000,1.000000,-1.000000,0.000000,-1.000000,0.000000,-1.000000
1295585.169464,-2.000000,-5.000000,-7.000000,-3.000000,-3.000000,-4.000000,-3.000000,-2.000000
1295585.169487,1.000000,3.000000,0.000000,1.000000,0.000000,0.000000,1.000000,1.000000
1295585.191858,1.000000,1.000000,-3.000000,-3.000000,-1.000000,0.000000,3.000000,15.000000
1295585.191938,-5.000000,-1.000000,-4.000000,-2.000000,0.000000,-1.000000,-6.000000,-31.000000
1295585.214137,-12.000000,-4.000000,-2.000000,-4.000000,-3.000000,-3.000000,-2.000000,-5.000000
1295585.214155,6.000000,0.000000,-3.000000,4.000000,0.000000,5.000000,3.000000,3.000000
1295585.244143,3.000000,-1.000000,0.000000,1.000000,-2.000000,0.000000,2.000000,2.000000
1295585.244153,-8.000000,-5.000000,-5.000000,-8.000000,-4.000000,-5.000000,-2.000000,-27.000000
1295585.281994,3.000000,1.000000,0.000000,3.000000,-1.000000,-1.000000,3.000000,24.000000
1295585.282236,-3.000000,6.000000,-2.000000,0.000000,1.000000,2.000000,1.000000,-6.000000
1295585.282723,-3.000000,-10.000000,-3.000000,-6.000000,-6.000000,-1.000000,-4.000000,-8.000000
1295585.282906,1.000000,-3.000000,-3.000000,-1.000000,0.000000,-3.000000,-1.000000,-3.000000
1295585.283669,2.000000,6.000000,4.000000,5.000000,-3.000000,0.000000,2.000000,13.000000
1295585.283688,-2.000000,-4.000000,-4.000000,2.000000,0.000000,3.000000,-2.000000,-15.000000
1295585.284197,8.000000,0.000000,-4.000000,-4.000000,-4.000000,-8.000000,-1.000000,14.000000
1295585.284215,-4.000000,5.000000,0.000000,5.000000,0.000000,1.000000,2.000000,-19.000000
1295585.284677,7.000000,0.000000,1.000000,-1.000000,0.000000,1.000000,-6.000000,5.000000
1295585.284693,4.000000,10.000000,5.000000,3.000000,0.000000,2.000000,8.000000,8.000000
1295585.289368,1.000000,-4.000000,-3.000000,-5.000000,0.000000,-1.000000,3.000000,12.000000
1295585.289377,-1.000000,6.000000,2.000000,5.000000,1.000000,3.000000,1.000000,1.000000
1295585.318938,-1.000000,-6.000000,-2.000000,-3.000000,1.000000,-2.000000,1.000000,2.000000
1295585.318951,-5.000000,-6.000000,4.000000,-3.000000,-3.000000,-3.000000,-3.000000,-1.000000
1295585.334165,2.000000,2.000000,1.000000,1.000000,-1.000000,-3.000000,-2.000000,-3.000000
1295585.334177,-5.000000,-2.000000,0.000000,4.000000,0.000000,2.000000,-2.000000,8.000000
1295585.356457,-4.000000,-7.000000,-4.000000,-2.000000,-3.000000,-2.000000,1.000000,5.000000
1295585.356487,2.000000,4.000000,6.000000,-1.000000,-2.000000,-1.000000,5.000000,5.000000
1295585.371327,-1.000000,14.000000,7.000000,0.000000,1.000000,3.000000,-1.000000,2.000000
1295585.371350,-2.000000,-10.000000,-9.000000,-9.000000,-1.000000,-3.000000,-1.000000,2.000000
1295585.393913,2.000000,1.000000,-1.000000,-4.000000,-3.000000,-4.000000,-2.000000,1.000000
1295585.393923,9.000000,3.000000,-4.000000,-2.000000,-2.000000,-1.000000,-2.000000,0.000000
1295585.409012,3.000000,-1.000000,1.000000,4.000000,3.000000,-5.000000,0.000000,-5.000000
1295585.409083,-4.000000,-10.000000,0.000000,-4.000000,0.000000,-2.000000,-3.000000,7.000000
1295585.416366,-1.000000,3.000000,4.000000,3.000000,0.000000,-2.000000,-11.000000,-22.000000
1295585.416384,-10.000000,0.000000,1.000000,-1.000000,-2.000000,0.000000,1.000000,-10.000000
1295585.431786,3.000000,-7.000000,-3.000000,-5.000000,-4.000000,1.000000,-9.000000,-6.000000
1295585.431796,0.000000,-5.000000,-6.000000,-5.000000,1.000000,2.000000,7.000000,4.000000
1295585.439767,-20.000000,4.000000,-1.000000,-2.000000,0.000000,1.000000,-10.000000,-40.000000
1295585.439795,-1.000000,-8.000000,-3.000000,-2.000000,-1.000000,-1.000000,5.000000,18.000000
1295585.440118,-3.000000,8.000000,1.000000,1.000000,1.000000,1.000000,-1.000000,-11.000000
1295585.440130,-6.000000,13.000000,3.000000,2.000000,1.000000,-2.000000,-2.000000,-24.000000
1295585.441279,-5.000000,-8.000000,-3.000000,-5.000000,-2.000000,0.000000,-1.000000,19.000000
1295585.441287,0.000000,-6.000000,-8.000000,-2.000000,-3.000000,-2.000000,-1.000000,-2.000000
1295585.442167,1.000000,8.000000,-1.000000,4.000000,1.000000,-2.000000,2.000000,-1.000000
1295585.442176,-4.000000,-9.000000,4.000000,-5.000000,-2.000000,-3.000000,-7.000000,16.000000
1295585.446996,-1.000000,-3.000000,-2.000000,-4.000000,-3.000000,-1.000000,-1.000000,-8.000000
1295585.447006,0.000000,3.000000,0.000000,5.000000,-2.000000,0.000000,5.000000,3.000000
1295585.453865,-3.000000,0.000000,0.000000,1.000000,-2.000000,2.000000,-1.000000,1.000000
1295585.453875,-4.000000,-7.000000,-7.000000,-5.000000,-3.000000,-2.000000,-6.000000,-13.000000
1295585.484108,4.000000,2.000000,-1.000000,-2.000000,-4.000000,-1.000000,7.000000,6.000000
1295585.484121,-1.000000,-1.000000,0.000000,0.000000,-1.000000,0.000000,1.000000,-1.000000
1295585.484685,-5.000000,-11.000000,-1.000000,-4.000000,-3.000000,-1.000000,-2.000000,-4.000000
1295585.484746,-5.000000,1.000000,-1.000000,-1.000000,-3.000000,-1.000000,-6.000000,-24.000000
1295585.486277,5.000000,7.000000,2.000000,7.000000,0.000000,1.000000,7.000000,8.000000
1295585.486289,-32.000000,-7.000000,-1.000000,-1.000000,0.000000,0.000000,-5.000000,-21.000000
1295585.491595,0.000000,-1.000000,-3.000000,-4.000000,0.000000,-3.000000,-3.000000,-11.000000
1295585.491615,6.000000,4.000000,1.000000,6.000000,-1.000000,1.000000,2.000000,16.000000
1295585.522215,0.000000,0.000000,-3.000000,-5.000000,-2.000000,-1.000000,-3.000000,-29.000000
1295585.522246,-3.000000,-8.000000,3.000000,-1.000000,0.000000,1.000000,1.000000,6.000000
1295585.522666,-4.000000,1.000000,2.000000,0.000000,1.000000,3.000000,2.000000,3.000000
1295585.522674,-8.000000,0.000000,-2.000000,0.000000,-3.000000,-2.000000,-3.000000,-8.000000
1295585.524314,-2.000000,-6.000000,4.000000,-6.000000,-5.000000,-6.000000,-8.000000,-5.000000
1295585.524325,-7.000000,2.000000,1.000000,-1.000000,1.000000,0.000000,2.000000,-5.000000
1295585.529138,2.000000,12.000000,0.000000,7.000000,1.000000,3.000000,5.000000,3.000000
1295585.529149,-5.000000,-7.000000,-3.000000,-1.000000,-1.000000,-6.000000,-4.000000,0.000000
1295585.566803,-2.000000,-3.000000,-1.000000,0.000000,1.000000,0.000000,-1.000000,12.000000
1295585.566814,13.000000,7.000000,-3.000000,0.000000,1.000000,-3.000000,0.000000,3.000000
1295585.574133,-1.000000,0.000000,0.000000,0.000000,0.000000,0.000000,-2.000000,-1.000000
1295585.574143,-1.000000,-8.000000,-4.000000,-9.000000,-2.000000,-5.000000,0.000000,3.000000
1295585.596566,-4.000000,2.000000,1.000000,2.000000,-3.000000,1.000000,-3.000000,-15.000000
1295585.596577,8.000000,0.000000,4.000000,3.000000,1.000000,-1.000000,1.000000,14.000000
1295585.604142,2.000000,-10.000000,-2.000000,-2.000000,-3.000000,-4.000000,-2.000000,3.000000
1295585.604166,-1.000000,-2.000000,1.000000,0.000000,-2.000000,1.000000,0.000000,1.000000
1295585.611854,2.000000,4.000000,-2.000000,1.000000,0.000000,0.000000,-2.000000,-4.000000
1295585.611863,-2.000000,-4.000000,2.000000,-4.000000,-2.000000,-2.000000,0.000000,0.000000
1295585.612526,-12.000000,0.000000,4.000000,0.000000,-2.000000,-1.000000,1.000000,-7.000000
1295585.612535,6.000000,4.000000,-4.000000,2.000000,0.000000,-4.000000,-5.000000,-19.000000
1295585.614411,3.000000,2.000000,-1.000000,3.000000,1.000000,5.000000,5.000000,13.000000
1295585.614420,-1.000000,-8.000000,1.000000,-3.000000,-1.000000,-1.000000,-2.000000,-1.000000
1295585.615296,2.000000,4.000000,1.000000,-2.000000,-1.000000,-1.000000,-6.000000,-6.000000
1295585.615305,-4.000000,2.000000,2.000000,-1.000000,0.000000,6.000000,7.000000,8.000000
1295585.641839,-4.000000,-14.000000,-5.000000,-6.000000,1.000000,-1.000000,-3.000000,-2.000000
1295585.641901,-3.000000,6.000000,-6.000000,-4.000000,-2.000000,-12.000000,0.000000,5.000000
1295585.642324,-4.000000,5.000000,4.000000,3.000000,-1.000000,-1.000000,0.000000,-16.000000
1295585.642333,2.000000,-10.000000,-2.000000,-4.000000,-3.000000,0.000000,0.000000,11.000000
1295585.644015,-13.000000,-4.000000,0.000000,-1.000000,0.000000,-1.000000,0.000000,-4.000000
1295585.644024,2.000000,3.000000,-5.000000,-2.000000,1.000000,4.000000,0.000000,-4.000000
1295585.656346,-1.000000,-4.000000,-4.000000,2.000000,0.000000,2.000000,3.000000,12.000000
1295585.656358,-1.000000,-8.000000,-10.000000,-9.000000,-1.000000,-4.000000,-2.000000,2.000000
1295585.686409,-4.000000,7.000000,1.000000,3.000000,2.000000,2.000000,1.000000,-5.000000
1295585.686420,-1.000000,2.000000,2.000000,2.000000,0.000000,-3.000000,-1.000000,1.000000
1295585.693944,16.000000,-10.000000,-8.000000,-13.000000,-4.000000,-2.000000,1.000000,14.000000
1295585.693975,-2.000000,0.000000,1.000000,1.000000,1.000000,-1.000000,-4.000000,-8.000000
1295585.724166,-11.000000,4.000000,2.000000,6.000000,3.000000,0.000000,2.000000,0.000000
1295585.724199,2.000000,-3.000000,-1.000000,-3.000000,-1.000000,-2.000000,0.000000,-8.000000
1295585.731463,-7.000000,-3.000000,-2.000000,-1.000000,-2.000000,-6.000000,-14.000000,-23.000000
1295585.731480,10.000000,6.000000,5.000000,9.000000,4.000000,3.000000,3.000000,-2.000000
1295585.761761,-1.000000,-5.000000,-4.000000,-7.000000,-3.000000,0.000000,0.000000,0.000000
1295585.761775,8.000000,-7.000000,-5.000000,-5.000000,-5.000000,-3.000000,0.000000,4.000000
1295585.762140,1.000000,4.000000,-4.000000,1.000000,0.000000,-1.000000,0.000000,-2.000000
1295585.762150,-32.000000,6.000000,1.000000,3.000000,-2.000000,1.000000,-3.000000,-26.000000
1295585.763114,2.000000,1.000000,1.000000,4.000000,-1.000000,1.000000,3.000000,4.000000
1295585.763123,-3.000000,-5.000000,-3.000000,-3.000000,-1.000000,-2.000000,-4.000000,-7.000000
1295585.764450,-1.000000,-2.000000,0.000000,5.000000,3.000000,-1.000000,3.000000,10.000000
1295585.764462,-5.000000,5.000000,-3.000000,2.000000,1.000000,3.000000,-2.000000,-7.000000
1295585.765329,-2.000000,-6.000000,2.000000,-1.000000,-1.000000,-1.000000,-2.000000,2.000000
1295585.765339,-5.000000,-6.000000,-4.000000,-3.000000,1.000000,-1.000000,-2.000000,7.000000
1295585.784108,-13.000000,-9.000000,-5.000000,-5.000000,-3.000000,-4.000000,-6.000000,-10.000000
1295585.784119,2.000000,1.000000,-7.000000,-3.000000,-3.000000,3.000000,2.000000,3.000000
1295585.806679,-3.000000,5.000000,4.000000,5.000000,1.000000,0.000000,3.000000,-1.000000
1295585.806689,13.000000,-10.000000,-3.000000,-3.000000,-1.000000,-4.000000,1.000000,-2.000000
1295585.821678,-38.000000,2.000000,0.000000,-1.000000,-3.000000,0.000000,-4.000000,-13.000000
1295585.821688,1.000000,3.000000,4.000000,6.000000,1.000000,-1.000000,-1.000000,5.000000
1295585.845139,3.000000,10.000000,2.000000,3.000000,-3.000000,-1.000000,1.000000,4.000000
1295585.845212,-4.000000,-4.000000,-4.000000,1.000000,-1.000000,-4.000000,-4.000000,-11.000000
1295585.852963,4.000000,8.000000,1.000000,4.000000,1.000000,4.000000,-3.000000,-6.000000
1295585.853040,-3.000000,-5.000000,-5.000000,-3.000000,0.000000,1.000000,4.000000,1.000000
1295585.875027,15.000000,-9.000000,-4.000000,-4.000000,-2.000000,-3.000000,-3.000000,7.000000
1295585.875076,0.000000,2.000000,-8.000000,0.000000,-5.000000,-1.000000,4.000000,13.000000
1295585.876101,-8.000000,1.000000,-2.000000,0.000000,-1.000000,0.000000,0.000000,-9.000000
1295585.876707,-5.000000,-9.000000,-3.000000,-6.000000,-3.000000,-4.000000,-2.000000,6.000000
1295585.878206,3.000000,-6.000000,3.000000,4.000000,-1.000000,0.000000,-3.000000,-3.000000
1295585.878270,-7.000000,-9.000000,-1.000000,-5.000000,1.000000,-3.000000,-1.000000,12.000000
1295585.879887,-10.000000,-7.000000,-5.000000,-4.000000,-1.000000,-3.000000,-3.000000,-7.000000
1295585.879917,-2.000000,-2.000000,-3.000000,1.000000,-2.000000,-1.000000,-3.000000,4.000000
1295585.881310,0.000000,9.000000,1.000000,3.000000,2.000000,2.000000,2.000000,-13.000000
1295585.881338,0.000000,1.000000,4.000000,-2.000000,0.000000,0.000000,3.000000,0.000000
1295585.883740,5.000000,1.000000,-4.000000,-1.000000,-3.000000,-3.000000,-4.000000,-39.000000
1295585.883772,-2.000000,-7.000000,-3.000000,-6.000000,-2.000000,0.000000,-3.000000,-6.000000
1295585.904375,-2.000000,3.000000,-3.000000,4.000000,1.000000,1.000000,-1.000000,12.000000
1295585.904396,1.000000,6.000000,3.000000,3.000000,1.000000,2.000000,2.000000,-3.000000
1295585.926472,-3.000000,-5.000000,-1.000000,-3.000000,-2.000000,-2.000000,-7.000000,-4.000000
1295585.926482,-2.000000,-2.000000,-1.000000,-4.000000,-1.000000,-4.000000,4.000000,8.000000
1295585.941403,-5.000000,2.000000,-2.000000,6.000000,1.000000,0.000000,-1.000000,-15.000000
1295585.941427,-3.000000,-2.000000,-8.000000,-1.000000,-1.000000,-4.000000,1.000000,-4.000000
1295585.964126,5.000000,-6.000000,0.000000,-3.000000,-4.000000,-1.000000,-4.000000,-4.000000
1295585.964136,-20.000000,-3.000000,-6.000000,-1.000000,-5.000000,-3.000000,-2.000000,-4.000000
1295585.972012,2.000000,4.000000,1.000000,1.000000,0.000000,2.000000,1.000000,-7.000000
1295585.972032,0.000000,-7.000000,0.000000,-1.000000,0.000000,-1.000000,0.000000,7.000000
1295585.972945,-2.000000,3.000000,-1.000000,-6.000000,-3.000000,-4.000000,1.000000,17.000000
1295585.972954,-33.000000,3.000000,3.000000,4.000000,3.000000,-1.000000,-6.000000,-26.000000
1295585.973429,15.000000,-10.000000,-6.000000,-1.000000,0.000000,-4.000000,-4.000000,0.000000
1295585.973451,12.000000,6.000000,-3.000000,-3.000000,-3.000000,-1.000000,4.000000,16.000000
1295585.974901,-6.000000,-13.000000,-3.000000,-8.000000,-5.000000,-1.000000,3.000000,-8.000000
1295585.974913,0.000000,0.000000,-3.000000,-5.000000,3.000000,-6.000000,-7.000000,18.000000
1295585.987435,4.000000,5.000000,0.000000,1.000000,0.000000,-1.000000,-3.000000,-10.000000
1295585.987447,-2.000000,-7.000000,-6.000000,-8.000000,-5.000000,-3.000000,-2.000000,2.000000
1295585.994210,-2.000000,5.000000,-1.000000,2.000000,0.000000,0.000000,3.000000,-7.000000
1295585.994233,4.000000,5.000000,7.000000,4.000000,3.000000,1.000000,-2.000000,21.000000
1295586.009066,1.000000,-4.000000,-5.000000,-6.000000,-4.000000,-3.000000,-2.000000,-3.000000
1295586.009076,1.000000,-4.000000,1.000000,0.000000,3.000000,-3.000000,-5.000000,5.000000
1295586.039155,-4.000000,9.000000,2.000000,0.000000,-2.000000,-1.000000,4.000000,1.000000
1295586.039184,2.000000,-5.000000,-4.000000,-4.000000,-3.000000,0.000000,-3.000000,0.000000
1295586.061512,-5.000000,-13.000000,2.000000,-1.000000,-1.000000,-4.000000,-1.000000,0.000000
1295586.061523,-1.000000,4.000000,5.000000,1.000000,1.000000,-3.000000,-3.000000,-10.000000
1295586.076450,0.000000,-5.000000,-4.000000,0.000000,1.000000,-1.000000,0.000000,10.000000
1295586.076461,-5.000000,-11.000000,-2.000000,-7.000000,-3.000000,-3.000000,0.000000,-6.000000
1295586.099286,-2.000000,1.000000,-2.000000,0.000000,-1.000000,-1.000000,-1.000000,2.000000
1295586.099314,13.000000,5.000000,3.000000,2.000000,2.000000,-1.000000,1.000000,7.000000
1295586.114081,-19.000000,-2.000000,-1.000000,-7.000000,-1.000000,-2.000000,-5.000000,-26.000000
1295586.114104,3.000000,-2.000000,3.000000,-2.000000,2.000000,0.000000,-3.000000,-8.000000
1295586.128888,0.000000,5.000000,4.000000,2.000000,3.000000,0.000000,-1.000000,2.000000
1295586.128912,0.000000,1.000000,-3.000000,-1.000000,-3.000000,-5.000000,0.000000,5.000000
1295586.136706,1.000000,-6.000000,1.000000,-1.000000,-2.000000,0.000000,-5.000000,-23.000000
1295586.136715,2.000000,4.000000,3.000000,2.000000,2.000000,0.000000,2.000000,6.000000
1295586.151737,7.000000,2.000000,-6.000000,-4.000000,-4.000000,-3.000000,-6.000000,-7.000000
1295586.151748,-2.000000,4.000000,0.000000,2.000000,1.000000,2.000000,1.000000,-3.000000
1295586.189223,-1.000000,5.000000,3.000000,6.000000,2.000000,2.000000,-4.000000,-3.000000
1295586.189236,0.000000,-5.000000,-2.000000,-2.000000,-2.000000,-2.000000,1.000000,-3.000000
1295586.197042,14.000000,-2.000000,0.000000,2.000000,1.000000,3.000000,4.000000,-5.000000
1295586.197055,-12.000000,-7.000000,-3.000000,-5.000000,-5.000000,-3.000000,-7.000000,-10.000000
1295586.197622,11.000000,1.000000,0.000000,-1.000000,-1.000000,-4.000000,-5.000000,6.000000
1295586.197632,-7.000000,4.000000,0.000000,6.000000,0.000000,0.000000,6.000000,0.000000
1295586.198180,4.000000,-5.000000,-2.000000,-3.000000,-2.000000,-2.000000,-6.000000,0.000000
1295586.198190,0.000000,-3.000000,-3.000000,-4.000000,-2.000000,-4.000000,-2.000000,16.000000
1295586.199761,-3.000000,-6.000000,-8.000000,-8.000000,-4.000000,-3.000000,-3.000000,-4.000000
1295586.199772,1.000000,0.000000,0.000000,2.000000,0.000000,0.000000,-2.000000,-2.000000
1295586.211247,3.000000,-2.000000,-2.000000,-5.000000,-4.000000,-3.000000,-3.000000,-1.000000
1295586.211264,-5.000000,-2.000000,1.000000,0.000000,0.000000,-2.000000,0.000000,11.000000
1295586.234014,20.000000,9.000000,0.000000,2.000000,0.000000,-1.000000,1.000000,4.000000
1295586.234030,-17.000000,-4.000000,2.000000,0.000000,1.000000,0.000000,2.000000,-28.000000
1295586.235197,1.000000,-9.000000,-3.000000,-6.000000,-2.000000,-1.000000,-5.000000,-4.000000
1295586.235208,4.000000,1.000000,2.000000,2.000000,-1.000000,0.000000,-4.000000,19.000000
1295586.235939,-13.000000,-5.000000,-8.000000,2.000000,1.000000,-4.000000,3.000000,-17.000000
1295586.235949,0.000000,-3.000000,-4.000000,-3.000000,-3.000000,-2.000000,-3.000000,4.000000
1295586.242295,0.000000,2.000000,7.000000,2.000000,1.000000,2.000000,0.000000,11.000000
1295586.242307,3.000000,6.000000,2.000000,5.000000,-3.000000,-3.000000,-1.000000,-1.000000
1295586.263976,-15.000000,-9.000000,-2.000000,-5.000000,1.000000,-1.000000,-3.000000,-29.000000
1295586.264000,-9.000000,1.000000,4.000000,4.000000,-1.000000,-4.000000,-3.000000,-9.000000
1295586.286475,4.000000,0.000000,0.000000,0.000000,-1.000000,3.000000,3.000000,2.000000
1295586.286486,0.000000,-7.000000,-3.000000,-4.000000,-3.000000,-1.000000,1.000000,-2.000000
1295586.286872,-1.000000,-7.000000,-1.000000,-1.000000,0.000000,-2.000000,-2.000000,-7.000000
1295586.286881,-45.000000,5.000000,0.000000,0.000000,1.000000,1.000000,3.000000,-30.000000
1295586.288726,-1.000000,-1.000000,-1.000000,2.000000,3.000000,0.000000,-1.000000,-8.000000
1295586.288739,4.000000,-6.000000,-1.000000,-2.000000,0.000000,0.000000,0.000000,6.000000
1295586.301485,1.000000,2.000000,3.000000,2.000000,1.000000,1.000000,1.000000,0.000000
1295586.301498,1.000000,3.000000,-3.000000,2.000000,-1.000000,0.000000,3.000000,9.000000
1295586.324273,3.000000,-8.000000,-4.000000,1.000000,-3.000000,4.000000,0.000000,8.000000
1295586.324283,-3.000000,1.000000,0.000000,2.000000,3.000000,3.000000,9.000000,22.000000
1295586.354046,-13.000000,4.000000,-3.000000,-1.000000,-3.000000,-3.000000,-9.000000,-14.000000
1295586.354057,-2.000000,-3.000000,4.000000,4.000000,-3.000000,0.000000,0.000000,-1.000000
1295586.376818,5.000000,-4.000000,-2.000000,-4.000000,1.000000,-2.000000,-1.000000,8.000000
1295586.376828,3.000000,10.000000,1.000000,3.000000,1.000000,2.000000,2.000000,5.000000
1295586.391956,-6.000000,-2.000000,-1.000000,0.000000,-1.000000,0.000000,-1.000000,-6.000000
1295586.391983,-7.000000,-14.000000,-7.000000,-8.000000,-4.000000,-8.000000,-5.000000,-4.000000
1295586.406615,-2.000000,8.000000,6.000000,4.000000,-2.000000,-3.000000,-1.000000,-3.000000
1295586.406636,8.000000,3.000000,4.000000,4.000000,2.000000,2.000000,1.000000,-3.000000
1295586.429327,-2.000000,-7.000000,0.000000,-6.000000,-1.000000,-1.000000,-1.000000,-11.000000
1295586.429337,6.000000,0.000000,4.000000,6.000000,2.000000,-1.000000,3.000000,11.000000
1295586.429803,1.000000,-8.000000,-9.000000,-9.000000,-5.000000,-2.000000,-1.000000,5.000000
1295586.429811,3.000000,5.000000,2.000000,2.000000,2.000000,3.000000,2.000000,0.000000
1295586.430560,7.000000,-8.000000,-5.000000,-4.000000,0.000000,1.000000,-3.000000,30.000000
1295586.430569,-15.000000,0.000000,3.000000,2.000000,-1.000000,2.000000,-3.000000,-26.000000
1295586.431479,2.000000,-9.000000,-12.000000,-12.000000,-6.000000,-5.000000,-2.000000,-3.000000
1295586.431489,1.000000,3.000000,4.000000,4.000000,2.000000,5.000000,0.000000,-1.000000
1295586.432046,-2.000000,5.000000,1.000000,2.000000,3.000000,0.000000,-1.000000,-5.000000
1295586.432073,9.000000,-3.000000,-1.000000,-1.000000,-2.000000,-3.000000,2.000000,32.000000
1295586.436724,5.000000,-1.000000,-7.000000,-2.000000,-1.000000,1.000000,0.000000,-2.000000
1295586.436745,-1.000000,-10.000000,-4.000000,-4.000000,2.000000,0.000000,-4.000000,0.000000
1295586.444826,0.000000,1.000000,2.000000,0.000000,1.000000,-2.000000,2.000000,-1.000000
1295586.444849,-2.000000,-1.000000,-1.000000,0.000000,-1.000000,1.000000,-2.000000,-3.000000
1295586.466538,-11.000000,-7.000000,0.000000,-6.000000,-1.000000,-3.000000,-3.000000,-5.000000
1295586.466550,5.000000,1.000000,-6.000000,-6.000000,-3.000000,-4.000000,0.000000,3.000000
1295586.468003,6.000000,8.000000,10.000000,5.000000,-3.000000,-2.000000,0.000000,8.000000
1295586.468017,-8.000000,0.000000,-1.000000,-1.000000,1.000000,0.000000,-1.000000,-7.000000
1295586.474212,2.000000,-3.000000,-4.000000,-4.000000,-2.000000,-5.000000,-1.000000,13.000000
1295586.474224,1.000000,9.000000,2.000000,3.000000,0.000000,-1.000000,-5.000000,-19.000000
1295586.511778,-7.000000,-4.000000,3.000000,2.000000,1.000000,-1.000000,-1.000000,2.000000
1295586.511789,-2.000000,-7.000000,-5.000000,-3.000000,-2.000000,4.000000,2.000000,-18.000000
1295586.526598,-2.000000,0.000000,4.000000,3.000000,0.000000,0.000000,2.000000,22.000000
1295586.526609,-20.000000,0.000000,-5.000000,-3.000000,0.000000,1.000000,-1.000000,-19.000000
1295586.549027,-12.000000,-14.000000,-7.000000,-7.000000,-2.000000,-1.000000,-11.000000,-19.000000
1295586.549064,6.000000,-3.000000,0.000000,1.000000,1.000000,1.000000,1.000000,11.000000
1295586.556518,13.000000,6.000000,6.000000,3.000000,0.000000,0.000000,3.000000,-2.000000
1295586.556530,-2.000000,-11.000000,-3.000000,-5.000000,-3.000000,-3.000000,-5.000000,-16.000000
1295586.564289,-3.000000,2.000000,-1.000000,-8.000000,-2.000000,-3.000000,-2.000000,-2.000000
1295586.564304,2.000000,3.000000,0.000000,4.000000,-3.000000,0.000000,2.000000,4.000000
1295586.564946,-1.000000,-5.000000,4.000000,-2.000000,-2.000000,-3.000000,-1.000000,-2.000000
1295586.564955,-8.000000,-8.000000,-4.000000,0.000000,1.000000,-1.000000,-5.000000,-10.000000
1295586.566282,-7.000000,-7.000000,-3.000000,-4.000000,-1.000000,-1.000000,-4.000000,-32.000000
1295586.566291,1.000000,1.000000,2.000000,-3.000000,-1.000000,-3.000000,1.000000,0.000000
1295586.593990,1.000000,2.000000,-3.000000,-1.000000,0.000000,-2.000000,2.000000,17.000000
1295586.594008,-24.000000,5.000000,4.000000,2.000000,-2.000000,0.000000,-7.000000,-32.000000
1295586.595136,-1.000000,-4.000000,1.000000,-1.000000,-2.000000,-1.000000,-5.000000,-3.000000
1295586.595154,-3.000000,-3.000000,-4.000000,-5.000000,-3.000000,-3.000000,1.000000,-2.000000
1295586.595955,2.000000,3.000000,-2.000000,2.000000,0.000000,1.000000,4.000000,0.000000
1295586.595964,2.000000,0.000000,-1.000000,-2.000000,-2.000000,-1.000000,-3.000000,-1.000000
1295586.616660,-5.000000,-11.000000,-4.000000,-6.000000,-6.000000,0.000000,-3.000000,-2.000000
1295586.616688,-1.000000,3.000000,8.000000,0.000000,1.000000,-1.000000,-8.000000,6.000000
1295586.631599,-1.000000,4.000000,-1.000000,3.000000,-2.000000,-2.000000,0.000000,-4.000000
1295586.631620,-6.000000,1.000000,-1.000000,1.000000,-1.000000,-1.000000,-6.000000,-22.000000
1295586.669624,-9.000000,-7.000000,2.000000,1.000000,2.000000,-1.000000,4.000000,16.000000
1295586.669666,31.000000,7.000000,-2.000000,4.000000,-2.000000,-2.000000,1.000000,2.000000
1295586.676409,1.000000,-3.000000,1.000000,-2.000000,-4.000000,1.000000,1.000000,3.000000
1295586.676419,-3.000000,-3.000000,-3.000000,-7.000000,-2.000000,-2.000000,-5.000000,-6.000000
1295586.706704,1.000000,4.000000,4.000000,2.000000,-1.000000,0.000000,0.000000,9.000000
1295586.706715,-4.000000,3.000000,-4.000000,-2.000000,-4.000000,0.000000,2.000000,-8.000000
1295586.714267,-36.000000,-12.000000,-4.000000,-6.000000,-3.000000,-5.000000,-5.000000,-17.000000
1295586.714320,2.000000,3.000000,1.000000,2.000000,-1.000000,2.000000,-1.000000,-2.000000
1295586.715218,-3.000000,-6.000000,-6.000000,-5.000000,0.000000,-4.000000,-1.000000,-3.000000
1295586.715226,0.000000,8.000000,-1.000000,3.000000,1.000000,3.000000,3.000000,8.000000
1295586.716455,-5.000000,4.000000,-7.000000,-1.000000,1.000000,2.000000,0.000000,-4.000000
1295586.716463,-2.000000,-1.000000,0.000000,3.000000,-2.000000,-3.000000,2.000000,3.000000
1295586.728915,2.000000,-3.000000,-3.000000,-5.000000,-2.000000,-1.000000,-4.000000,-14.000000
1295586.728947,0.000000,6.000000,2.000000,7.000000,4.000000,3.000000,3.000000,17.000000
1295586.759100,-10.000000,-11.000000,6.000000,-1.000000,-4.000000,-2.000000,-4.000000,-22.000000
1295586.759129,-6.000000,-1.000000,-15.000000,-7.000000,-3.000000,-3.000000,-6.000000,-23.000000
1295586.789111,13.000000,7.000000,6.000000,1.000000,2.000000,0.000000,3.000000,1.000000
1295586.789125,-7.000000,-1.000000,8.000000,1.000000,2.000000,-2.000000,2.000000,-4.000000
1295586.789602,2.000000,-9.000000,-4.000000,-5.000000,-6.000000,-3.000000,-6.000000,2.000000
1295586.789612,-4.000000,0.000000,3.000000,-1.000000,4.000000,1.000000,8.000000,12.000000
1295586.790589,1.000000,-1.000000,0.000000,3.000000,0.000000,5.000000,0.000000,-12.000000
1295586.790599,3.000000,-6.000000,-2.000000,-3.000000,-1.000000,-6.000000,-2.000000,4.000000
1295586.791284,3.000000,-2.000000,0.000000,-2.000000,0.000000,-1.000000,2.000000,-4.000000
1295586.791294,2.000000,5.000000,-1.000000,3.000000,-2.000000,-2.000000,-2.000000,-5.000000
1295586.793219,2.000000,-5.000000,0.000000,-1.000000,0.000000,1.000000,2.000000,-3.000000
1295586.793232,14.000000,4.000000,0.000000,0.000000,-2.000000,-4.000000,-3.000000,25.000000
1295586.796501,4.000000,4.000000,5.000000,2.000000,5.000000,1.000000,5.000000,-8.000000
1295586.796511,-4.000000,-7.000000,-1.000000,-3.000000,-2.000000,1.000000,-8.000000,12.000000
1295586.804636,5.000000,-3.000000,-1.000000,-4.000000,1.000000,-3.000000,2.000000,21.000000
1295586.804647,-5.000000,-6.000000,-4.000000,0.000000,2.000000,1.000000,-6.000000,7.000000
1295586.818727,7.000000,3.000000,-2.000000,0.000000,2.000000,-4.000000,0.000000,0.000000
1295586.818742,-4.000000,-5.000000,0.000000,-1.000000,-5.000000,-3.000000,2.000000,-3.000000
1295586.826302,-4.000000,5.000000,-2.000000,3.000000,3.000000,2.000000,4.000000,-10.000000
1295586.826312,4.000000,7.000000,4.000000,3.000000,1.000000,2.000000,5.000000,0.000000
1295586.834080,-5.000000,-3.000000,1.000000,0.000000,1.000000,-1.000000,-2.000000,-6.000000
1295586.834091,-5.000000,-8.000000,-2.000000,-8.000000,-3.000000,-5.000000,3.000000,-4.000000
1295586.856360,5.000000,7.000000,3.000000,8.000000,-1.000000,-3.000000,0.000000,8.000000
1295586.856371,-8.000000,-2.000000,-5.000000,-4.000000,-4.000000,-1.000000,0.000000,-23.000000
1295586.871455,-17.000000,-8.000000,1.000000,-2.000000,-1.000000,-2.000000,-3.000000,-9.000000
1295586.871465,6.000000,1.000000,4.000000,1.000000,2.000000,-3.000000,-5.000000,0.000000
1295586.894237,-6.000000,2.000000,-4.000000,3.000000,-1.000000,2.000000,4.000000,-4.000000
1295586.894266,4.000000,-5.000000,1.000000,-7.000000,-5.000000,-4.000000,4.000000,18.000000
1295586.909107,-2.000000,-2.000000,-2.000000,2.000000,0.000000,-2.000000,-3.000000,-11.000000
1295586.909209,5.000000,6.000000,3.000000,5.000000,2.000000,1.000000,-1.000000,7.000000
1295586.909980,-1.000000,-4.000000,-1.000000,-4.000000,-6.000000,-3.000000,-5.000000,-2.000000
1295586.909988,11.000000,-5.000000,-3.000000,-2.000000,-2.000000,0.000000,8.000000,0.000000
1295586.910613,-3.000000,3.000000,1.000000,-2.000000,0.000000,-2.000000,-15.000000,-4.000000
1295586.910621,-8.000000,1.000000,2.000000,-1.000000,-2.000000,-1.000000,1.000000,-11.000000
1295586.912306,1.000000,-10.000000,-3.000000,-7.000000,-3.000000,-2.000000,3.000000,-2.000000
1295586.912321,2.000000,2.000000,-1.000000,2.000000,0.000000,1.000000,0.000000,-5.000000
1295586.916263,0.000000,5.000000,3.000000,3.000000,0.000000,6.000000,2.000000,-5.000000
1295586.916281,7.000000,-7.000000,-6.000000,-3.000000,-3.000000,-9.000000,3.000000,18.000000
1295586.932161,-43.000000,-7.000000,-3.000000,-5.000000,-1.000000,-2.000000,-8.000000,-41.000000
1295586.932171,1.000000,9.000000,2.000000,7.000000,-1.000000,-1.000000,3.000000,1.000000
1295586.946335,-4.000000,-3.000000,-3.000000,-2.000000,-4.000000,-4.000000,-1.000000,0.000000
1295586.946365,-6.000000,-6.000000,-1.000000,-2.000000,-2.000000,-1.000000,-4.000000,-3.000000
1295586.947735,8.000000,5.000000,2.000000,1.000000,0.000000,-1.000000,2.000000,13.000000
1295586.947765,-5.000000,-1.000000,0.000000,-1.000000,1.000000,-1.000000,-4.000000,-4.000000
1295586.954203,-3.000000,-6.000000,-2.000000,-6.000000,-3.000000,-4.000000,-3.000000,1.000000
1295586.954214,-1.000000,2.000000,-1.000000,-2.000000,0.000000,-2.000000,1.000000,4.000000
1295586.984074,8.000000,4.000000,0.000000,2.000000,1.000000,2.000000,-3.000000,-5.000000
1295586.984106,-4.000000,-9.000000,0.000000,-4.000000,0.000000,-5.000000,-1.000000,10.000000
1295586.991582,5.000000,9.000000,-4.000000,-1.000000,-3.000000,-1.000000,1.000000,5.000000
1295586.991610,0.000000,4.000000,9.000000,2.000000,2.000000,3.000000,7.000000,-2.000000
1295587.021344,-2.000000,-3.000000,-2.000000,1.000000,1.000000,-7.000000,-4.000000,-7.000000
1295587.021354,-4.000000,-4.000000,-3.000000,-3.000000,0.000000,-3.000000,-2.000000,2.000000
1295587.029210,6.000000,7.000000,1.000000,6.000000,-1.000000,1.000000,3.000000,10.000000
1295587.029221,-1.000000,0.000000,-1.000000,-4.000000,-1.000000,-2.000000,-3.000000,-19.000000
1295587.030058,-1.000000,-6.000000,2.000000,-4.000000,0.000000,3.000000,1.000000,6.000000
1295587.030069,2.000000,2.000000,4.000000,3.000000,4.000000,2.000000,0.000000,3.000000
1295587.030600,0.000000,-3.000000,-4.000000,0.000000,-3.000000,-4.000000,-3.000000,-3.000000
1295587.030608,-4.000000,-7.000000,-3.000000,-2.000000,-3.000000,7.000000,6.000000,1.000000
1295587.032420,-1.000000,-1.000000,1.000000,2.000000,2.000000,1.000000,-6.000000,-10.000000
1295587.032431,3.000000,9.000000,-3.000000,10.000000,2.000000,1.000000,7.000000,23.000000
1295587.036603,-2.000000,0.000000,4.000000,-2.000000,2.000000,-2.000000,-1.000000,5.000000
1295587.036616,-5.000000,-5.000000,-5.000000,-1.000000,-2.000000,-1.000000,-1.000000,-6.000000
1295587.066808,2.000000,3.000000,1.000000,0.000000,3.000000,1.000000,2.000000,-1.000000
1295587.066821,4.000000,-1.000000,-7.000000,-2.000000,0.000000,-2.000000,2.000000,6.000000
1295587.067235,-9.000000,-12.000000,0.000000,-5.000000,-5.000000,-6.000000,-11.000000,-5.000000
1295587.067246,1.000000,4.000000,4.000000,0.000000,2.000000,-1.000000,0.000000,-6.000000
1295587.068581,0.000000,3.000000,2.000000,3.000000,-3.000000,-8.000000,0.000000,-5.000000
1295587.068592,1.000000,-5.000000,-2.000000,-9.000000,-2.000000,-1.000000,4.000000,19.000000
1295587.074184,-4.000000,-1.000000,-4.000000,2.000000,1.000000,2.000000,-7.000000,-7.000000
1295587.074196,4.000000,5.000000,-2.000000,6.000000,3.000000,1.000000,2.000000,0.000000
1295587.096430,-5.000000,-6.000000,-1.000000,-4.000000,-3.000000,-2.000000,1.000000,-2.000000
1295587.096460,-4.000000,-1.000000,0.000000,4.000000,3.000000,-1.000000,-1.000000,11.000000
1295587.104006,2.000000,6.000000,6.000000,3.000000,-1.000000,-2.000000,-3.000000,-7.000000
1295587.104024,1.000000,-2.000000,0.000000,1.000000,1.000000,2.000000,7.000000,8.000000
1295587.119076,-7.000000,-7.000000,-5.000000,-6.000000,-2.000000,-3.000000,-2.000000,-9.000000
1295587.119089,4.000000,3.000000,0.000000,4.000000,1.000000,1.000000,0.000000,1.000000
1295587.134246,4.000000,2.000000,-3.000000,1.000000,-4.000000,-2.000000,-5.000000,-4.000000
1295587.134261,-1.000000,-10.000000,-7.000000,-7.000000,-3.000000,-1.000000,9.000000,2.000000
1295587.149505,-1.000000,2.000000,0.000000,-5.000000,-1.000000,-1.000000,-5.000000,1.000000
1295587.149523,-5.000000,3.000000,4.000000,3.000000,0.000000,-2.000000,1.000000,-2.000000
1295587.149981,13.000000,-3.000000,0.000000,-1.000000,0.000000,-1.000000,0.000000,10.000000
1295587.149990,-25.000000,-5.000000,1.000000,1.000000,-1.000000,0.000000,-4.000000,-26.000000
1295587.151373,9.000000,4.000000,-2.000000,0.000000,2.000000,1.000000,0.000000,4.000000
1295587.151389,-11.000000,2.000000,-1.000000,2.000000,-1.000000,0.000000,-3.000000,0.000000
1295587.156342,0.000000,-9.000000,-3.000000,-5.000000,-4.000000,-2.000000,1.000000,3.000000
1295587.156365,0.000000,1.000000,-1.000000,0.000000,1.000000,-2.000000,-2.000000,-2.000000
1295587.186736,-4.000000,0.000000,2.000000,1.000000,-1.000000,-1.000000,6.000000,0.000000
1295587.186746,14.000000,-10.000000,0.000000,-4.000000,-5.000000,-3.000000,-4.000000,7.000000
1295587.187459,-5.000000,0.000000,1.000000,1.000000,2.000000,-2.000000,2.000000,2.000000
1295587.187478,-3.000000,7.000000,1.000000,5.000000,-1.000000,-1.000000,-2.000000,-4.000000
1295587.188979,-3.000000,-5.000000,-3.000000,-6.000000,-3.000000,-4.000000,-3.000000,-5.000000
1295587.188993,-3.000000,3.000000,0.000000,-3.000000,-3.000000,-4.000000,-3.000000,-9.000000
1295587.193800,3.000000,-1.000000,-2.000000,4.000000,1.000000,1.000000,1.000000,-2.000000
1295587.193817,-2.000000,0.000000,5.000000,0.000000,1.000000,0.000000,1.000000,-5.000000
1295587.231590,1.000000,-8.000000,-2.000000,-7.000000,-5.000000,-5.000000,-8.000000,7.000000
1295587.231611,2.000000,0.000000,4.000000,0.000000,1.000000,0.000000,8.000000,27.000000
1295587.238981,0.000000,-1.000000,-3.000000,-1.000000,-1.000000,-3.000000,-11.000000,-11.000000
1295587.238998,3.000000,-8.000000,-5.000000,-4.000000,-4.000000,-2.000000,-1.000000,7.000000
1295587.262421,0.000000,1.000000,-1.000000,2.000000,0.000000,2.000000,-1.000000,-4.000000
1295587.262447,7.000000,4.000000,-1.000000,4.000000,1.000000,1.000000,3.000000,12.000000
1295587.262792,-6.000000,-9.000000,-1.000000,-2.000000,-2.000000,-3.000000,-10.000000,6.000000
1295587.262819,-3.000000,-2.000000,-3.000000,-5.000000,-2.000000,0.000000,7.000000,4.000000
1295587.263766,4.000000,8.000000,1.000000,3.000000,1.000000,-1.000000,-3.000000,-4.000000
1295587.263773,0.000000,-4.000000,-3.000000,-2.000000,-1.000000,-4.000000,-1.000000,0.000000
1295587.264493,-8.000000,-7.000000,-2.000000,-6.000000,-1.000000,-4.000000,-8.000000,-16.000000
1295587.264501,24.000000,2.000000,0.000000,0.000000,2.000000,4.000000,3.000000,4.000000
1295587.269225,-4.000000,2.000000,-2.000000,2.000000,0.000000,-2.000000,-2.000000,2.000000
1295587.269254,9.000000,-6.000000,-1.000000,-3.000000,-3.000000,0.000000,-2.000000,-3.000000
1295587.276493,0.000000,0.000000,1.000000,1.000000,-2.000000,0.000000,-5.000000,-3.000000
1295587.276517,-1.000000,2.000000,-7.000000,-3.000000,1.000000,2.000000,0.000000,-1.000000
1295587.284480,-1.000000,-6.000000,1.000000,-1.000000,-5.000000,-4.000000,-5.000000,-17.000000
1295587.284490,5.000000,3.000000,0.000000,1.000000,3.000000,-2.000000,-2.000000,7.000000
1295587.299261,6.000000,10.000000,3.000000,6.000000,-1.000000,2.000000,5.000000,-10.000000
1295587.299292,-10.000000,-10.000000,-2.000000,-1.000000,0.000000,-3.000000,-3.000000,16.000000
1295587.306795,1.000000,-7.000000,2.000000,-4.000000,-6.000000,-2.000000,-4.000000,-13.000000
1295587.306806,5.000000,4.000000,2.000000,3.000000,0.000000,-1.000000,2.000000,5.000000
1295587.314128,0.000000,-3.000000,-8.000000,-9.000000,-3.000000,-1.000000,-1.000000,-7.000000
1295587.314139,-3.000000,-4.000000,-3.000000,-3.000000,1.000000,-1.000000,4.000000,8.000000
1295587.351551,12.000000,6.000000,3.000000,0.000000,-3.000000,-1.000000,4.000000,15.000000
1295587.351561,-14.000000,3.000000,-8.000000,2.000000,-1.000000,-1.000000,1.000000,-11.000000
1295587.359139,3.000000,-4.000000,5.000000,-4.000000,0.000000,0.000000,-3.000000,2.000000
1295587.359150,6.000000,-1.000000,-1.000000,-1.000000,0.000000,-3.000000,-1.000000,9.000000
1295587.381688,-2.000000,5.000000,-7.000000,2.000000,3.000000,4.000000,8.000000,-1.000000
1295587.381707,-2.000000,-1.000000,0.000000,-3.000000,-5.000000,0.000000,-2.000000,-26.000000
1295587.389181,-6.000000,-11.000000,-5.000000,-5.000000,-1.000000,0.000000,2.000000,-17.000000
1295587.389196,-3.000000,1.000000,4.000000,1.000000,2.000000,0.000000,-6.000000,5.000000
1295587.426492,-18.000000,-4.000000,-2.000000,0.000000,-1.000000,-2.000000,2.000000,-5.000000
1295587.426502,-1.000000,-11.000000,-1.000000,-3.000000,-5.000000,-1.000000,-3.000000,2.000000
1295587.433770,-2.000000,-2.000000,-4.000000,-2.000000,-1.000000,-2.000000,0.000000,13.000000
1295587.433780,1.000000,1.000000,2.000000,4.000000,-1.000000,0.000000,0.000000,3.000000
1295587.435060,-9.000000,-5.000000,2.000000,-4.000000,-3.000000,-5.000000,-3.000000,-2.000000
1295587.435073,-1.000000,-2.000000,0.000000,-2.000000,-1.000000,-1.000000,-3.000000,-4.000000
1295587.435701,-8.000000,0.000000,-4.000000,7.000000,-1.000000,2.000000,2.000000,-4.000000
1295587.435797,-3.000000,-1.000000,3.000000,1.000000,-3.000000,-4.000000,-3.000000,4.000000
1295587.437152,-1.000000,0.000000,-5.000000,2.000000,-3.000000,0.000000,0.000000,-5.000000
1295587.437178,3.000000,-8.000000,-5.000000,-6.000000,-5.000000,-4.000000,-1.000000,9.000000
1295587.471553,-4.000000,3.000000,2.000000,4.000000,0.000000,1.000000,0.000000,15.000000
1295587.471572,5.000000,-9.000000,-5.000000,-4.000000,-3.000000,-2.000000,-5.000000,8.000000
1295587.478806,6.000000,1.000000,5.000000,-1.000000,-2.000000,1.000000,-2.000000,-3.000000
1295587.478816,8.000000,6.000000,4.000000,4.000000,0.000000,0.000000,-1.000000,1.000000
1295587.501677,-16.000000,-6.000000,-6.000000,-2.000000,0.000000,-4.000000,-1.000000,-9.000000
1295587.501706,0.000000,-6.000000,-2.000000,-7.000000,-2.000000,1.000000,0.000000,11.000000
1295587.502133,-5.000000,0.000000,0.000000,0.000000,-3.000000,-2.000000,0.000000,-12.000000
1295587.502160,1.000000,5.000000,1.000000,0.000000,-2.000000,1.000000,0.000000,2.000000
1295587.503129,-6.000000,-1.000000,0.000000,-1.000000,-2.000000,-1.000000,-3.000000,3.000000
1295587.503137,-7.000000,0.000000,4.000000,2.000000,-3.000000,0.000000,-4.000000,-3.000000
1295587.503818,0.000000,8.000000,5.000000,6.000000,5.000000,0.000000,1.000000,2.000000
1295587.503826,-1.000000,-7.000000,-4.000000,-4.000000,-2.000000,-1.000000,2.000000,1.000000
1295587.509341,-3.000000,-3.000000,-2.000000,-4.000000,-3.000000,-6.000000,-7.000000,-23.000000
1295587.509359,-1.000000,7.000000,2.000000,1.000000,-3.000000,-1.000000,-1.000000,4.000000
1295587.516535,-6.000000,0.000000,-1.000000,1.000000,-1.000000,0.000000,-4.000000,-22.000000
1295587.516555,8.000000,-8.000000,-4.000000,-7.000000,1.000000,-3.000000,3.000000,30.000000
1295587.554217,6.000000,2.000000,-5.000000,-2.000000,-1.000000,1.000000,3.000000,8.000000
1295587.554293,2.000000,3.000000,6.000000,4.000000,-1.000000,1.000000,0.000000,-8.000000
1295587.561350,0.000000,-12.000000,-5.000000,-4.000000,-2.000000,-3.000000,-9.000000,2.000000
1295587.561360,3.000000,7.000000,-1.000000,-1.000000,-1.000000,-1.000000,0.000000,-2.000000
1295587.591682,0.000000,7.000000,3.000000,5.000000,2.000000,1.000000,3.000000,-3.000000
1295587.591692,-3.000000,-1.000000,0.000000,-1.000000,0.000000,-2.000000,0.000000,1.000000
1295587.599017,-4.000000,-6.000000,-3.000000,-2.000000,-1.000000,-5.000000,-3.000000,2.000000
1295587.599027,-3.000000,6.000000,1.000000,2.000000,2.000000,2.000000,-3.000000,7.000000
1295587.621834,4.000000,-2.000000,-1.000000,-2.000000,0.000000,1.000000,6.000000,-1.000000
1295587.621855,0.000000,-6.000000,-6.000000,-9.000000,-4.000000,1.000000,1.000000,2.000000
1295587.622354,-8.000000,1.000000,6.000000,-1.000000,2.000000,-3.000000,-4.000000,-4.000000
1295587.622376,1.000000,2.000000,2.000000,6.000000,-1.000000,-1.000000,2.000000,15.000000
1295587.623621,4.000000,8.000000,7.000000,5.000000,0.000000,3.000000,10.000000,32.000000
1295587.623642,-41.000000,-7.000000,-2.000000,-6.000000,-2.000000,-4.000000,-3.000000,-19.000000
1295587.624295,1.000000,-1.000000,2.000000,1.000000,-2.000000,-1.000000,0.000000,11.000000
1295587.624315,-2.000000,7.000000,2.000000,3.000000,-1.000000,-4.000000,-2.000000,-18.000000
1295587.625128,-3.000000,1.000000,0.000000,2.000000,2.000000,0.000000,0.000000,-5.000000
1295587.625136,-5.000000,-7.000000,-5.000000,-8.000000,-2.000000,-4.000000,-3.000000,-9.000000
1295587.628688,-2.000000,-3.000000,5.000000,0.000000,3.000000,2.000000,-2.000000,1.000000
1295587.628710,-6.000000,3.000000,-1.000000,0.000000,-4.000000,0.000000,6.000000,3.000000
1295587.636754,-5.000000,-5.000000,-3.000000,-7.000000,-3.000000,-5.000000,-4.000000,-1.000000
1295587.636767,0.000000,-2.000000,-1.000000,-3.000000,-4.000000,-2.000000,-3.000000,-10.000000
1295587.658915,5.000000,4.000000,2.000000,4.000000,0.000000,2.000000,4.000000,5.000000
1295587.658925,4.000000,1.000000,-1.000000,2.000000,-1.000000,-1.000000,0.000000,-7.000000
1295587.666369,-7.000000,-4.000000,-3.000000,-2.000000,-1.000000,-2.000000,-2.000000,-5.000000
1295587.666419,0.000000,3.000000,2.000000,4.000000,3.000000,-1.000000,-6.000000,-20.000000
1295587.703937,11.000000,-4.000000,0.000000,-1.000000,-4.000000,-3.000000,2.000000,0.000000
1295587.703948,-23.000000,-13.000000,-1.000000,-3.000000,-3.000000,-3.000000,-3.000000,-4.000000
1295587.711428,0.000000,3.000000,1.000000,5.000000,-2.000000,2.000000,0.000000,-13.000000
1295587.711442,1.000000,-1.000000,-1.000000,3.000000,0.000000,0.000000,5.000000,4.000000
1295587.733919,0.000000,-6.000000,-5.000000,-4.000000,-7.000000,-5.000000,-2.000000,6.000000
1295587.733931,7.000000,-3.000000,-3.000000,-3.000000,-1.000000,-1.000000,-1.000000,0.000000
1295587.741588,4.000000,9.000000,4.000000,5.000000,2.000000,-2.000000,-1.000000,1.000000
1295587.741600,-5.000000,-5.000000,-7.000000,-3.000000,-1.000000,1.000000,0.000000,1.000000
1295587.742536,15.000000,-4.000000,-4.000000,-3.000000,-1.000000,-3.000000,-4.000000,-1.000000
1295587.742548,2.000000,4.000000,1.000000,-1.000000,-1.000000,3.000000,-1.000000,2.000000
1295587.743030,-7.000000,-1.000000,1.000000,1.000000,-4.000000,-3.000000,3.000000,6.000000
1295587.743038,10.000000,-6.000000,-5.000000,-4.000000,-2.000000,1.000000,-1.000000,6.000000
1295587.743728,-3.000000,-2.000000,1.000000,1.000000,3.000000,-5.000000,5.000000,18.000000
1295587.743736,-1.000000,5.000000,-1.000000,2.000000,0.000000,0.000000,-4.000000,-21.000000
1295587.744330,-6.000000,-8.000000,-5.000000,-8.000000,-5.000000,-4.000000,-3.000000,17.000000
1295587.744338,1.000000,1.000000,2.000000,-1.000000,2.000000,0.000000,0.000000,-3.000000
1295587.748776,1.000000,5.000000,1.000000,2.000000,2.000000,2.000000,0.000000,0.000000
1295587.748784,-1.000000,-5.000000,4.000000,0.000000,-2.000000,-2.000000,-1.000000,1.000000
1295587.763772,-2.000000,-4.000000,-7.000000,-1.000000,1.000000,-1.000000,0.000000,-2.000000
1295587.763796,3.000000,6.000000,-1.000000,6.000000,2.000000,3.000000,6.000000,11.000000
1295587.779128,-15.000000,-7.000000,-3.000000,-1.000000,-4.000000,-2.000000,-6.000000,-6.000000
1295587.779138,8.000000,-7.000000,-2.000000,-8.000000,-2.000000,-5.000000,-2.000000,-1.000000
1295587.786777,-1.000000,4.000000,0.000000,3.000000,2.000000,1.000000,0.000000,1.000000
1295587.786788,-2.000000,4.000000,2.000000,3.000000,0.000000,-1.000000,2.000000,1.000000
1295587.809118,-5.000000,-8.000000,-1.000000,-8.000000,-6.000000,-5.000000,-4.000000,1.000000
1295587.809141,-1.000000,-2.000000,0.000000,-1.000000,2.000000,1.000000,-9.000000,-2.000000
1295587.817461,1.000000,4.000000,0.000000,6.000000,1.000000,0.000000,3.000000,2.000000
1295587.817510,-3.000000,-5.000000,-1.000000,-2.000000,0.000000,1.000000,-3.000000,0.000000
1295587.832226,-9.000000,-5.000000,-3.000000,1.000000,-2.000000,-2.000000,-3.000000,-27.000000
1295587.832265,2.000000,10.000000,-1.000000,4.000000,1.000000,1.000000,1.000000,3.000000
1295587.839597,-3.000000,-2.000000,-3.000000,-5.000000,2.000000,2.000000,-7.000000,-13.000000
1295587.839612,-12.000000,-4.000000,1.000000,-3.000000,-3.000000,-1.000000,1.000000,3.000000
1295587.862124,18.000000,5.000000,2.000000,1.000000,1.000000,-4.000000,0.000000,4.000000
1295587.862172,-27.000000,-6.000000,-8.000000,-1.000000,-2.000000,0.000000,-3.000000,-22.000000
1295587.862595,1.000000,2.000000,1.000000,-4.000000,-2.000000,-5.000000,-2.000000,1.000000
1295587.862609,1.000000,0.000000,-3.000000,-1.000000,-1.000000,0.000000,-2.000000,0.000000
1295587.863948,-3.000000,4.000000,1.000000,7.000000,1.000000,1.000000,2.000000,-8.000000
1295587.863962,18.000000,0.000000,0.000000,-1.000000,0.000000,-1.000000,5.000000,14.000000
1295587.864632,-49.000000,-6.000000,-1.000000,-5.000000,-1.000000,-4.000000,-10.000000,-18.000000
1295587.864646,5.000000,8.000000,1.000000,5.000000,-1.000000,-5.000000,3.000000,18.000000
1295587.869018,-2.000000,1.000000,0.000000,-2.000000,-2.000000,-1.000000,-1.000000,-10.000000
1295587.869028,0.000000,-3.000000,-3.000000,-2.000000,-2.000000,-4.000000,-4.000000,-3.000000
1295587.876426,-1.000000,1.000000,3.000000,0.000000,3.000000,1.000000,1.000000,-5.000000
1295587.876454,7.000000,2.000000,-1.000000,1.000000,-2.000000,1.000000,0.000000,-12.000000
1295587.913869,-1.000000,-14.000000,-3.000000,-4.000000,-4.000000,0.000000,1.000000,17.000000
1295587.913893,-3.000000,1.000000,-1.000000,0.000000,1.000000,0.000000,-4.000000,1.000000
1295587.929057,0.000000,3.000000,-2.000000,4.000000,-1.000000,2.000000,-1.000000,-2.000000
1295587.929067,-7.000000,-8.000000,-4.000000,-4.000000,0.000000,-1.000000,-2.000000,-4.000000
1295587.943823,-4.000000,2.000000,1.000000,-3.000000,-3.000000,-1.000000,-3.000000,-4.000000
1295587.943847,4.000000,5.000000,3.000000,3.000000,1.000000,-1.000000,-1.000000,8.000000
1295587.951562,-5.000000,-2.000000,-3.000000,0.000000,-2.000000,-5.000000,-4.000000,-22.000000
1295587.951573,-6.000000,-6.000000,0.000000,-3.000000,-4.000000,-2.000000,-5.000000,-4.000000
1295587.966480,4.000000,1.000000,0.000000,4.000000,7.000000,2.000000,-3.000000,4.000000
1295587.966491,-8.000000,-1.000000,1.000000,0.000000,-3.000000,-1.000000,-4.000000,-25.000000
1295587.981850,5.000000,-4.000000,1.000000,-6.000000,-4.000000,0.000000,-3.000000,-3.000000
1295587.981862,-31.000000,-7.000000,1.000000,-1.000000,2.000000,-3.000000,-3.000000,-10.000000
1295588.004087,-1.000000,3.000000,2.000000,1.000000,-1.000000,1.000000,1.000000,-17.000000
1295588.004106,5.000000,-1.000000,-4.000000,-5.000000,-1.000000,-3.000000,-5.000000,5.000000
1295588.019172,0.000000,-5.000000,-5.000000,-2.000000,1.000000,1.000000,-3.000000,-9.000000
1295588.019183,0.000000,11.000000,3.000000,5.000000,1.000000,0.000000,7.000000,7.000000
1295588.026839,-5.000000,-4.000000,1.000000,-2.000000,-4.000000,0.000000,-1.000000,9.000000
1295588.026849,1.000000,-6.000000,-1.000000,-5.000000,-1.000000,-2.000000,-3.000000,-7.000000
1295588.056492,-4.000000,12.000000,-5.000000,1.000000,-1.000000,-1.000000,0.000000,-9.000000
1295588.056516,-1.000000,0.000000,1.000000,3.000000,1.000000,1.000000,1.000000,-1.000000
1295588.071797,1.000000,3.000000,2.000000,2.000000,-4.000000,2.000000,4.000000,-3.000000
1295588.071808,-2.000000,-6.000000,-5.000000,-6.000000,1.000000,0.000000,-4.000000,0.000000
1295588.093958,-42.000000,-9.000000,-4.000000,-3.000000,-4.000000,-3.000000,-4.000000,-25.000000
1295588.093968,-1.000000,-5.000000,-2.000000,0.000000,0.000000,1.000000,0.000000,3.000000
1295588.101412,-5.000000,-7.000000,-2.000000,-6.000000,-3.000000,-2.000000,1.000000,-9.000000
1295588.101427,6.000000,1.000000,1.000000,-4.000000,-1.000000,0.000000,-5.000000,16.000000
1295588.102408,1.000000,-6.000000,-1.000000,-3.000000,0.000000,-1.000000,-6.000000,7.000000
1295588.102416,9.000000,-1.000000,3.000000,-3.000000,-2.000000,-5.000000,0.000000,2.000000
1295588.102973,7.000000,8.000000,0.000000,3.000000,-1.000000,1.000000,1.000000,3.000000
1295588.102993,-13.000000,-4.000000,-1.000000,-4.000000,-3.000000,1.000000,1.000000,-2.000000
1295588.103585,-6.000000,-10.000000,-3.000000,-4.000000,-2.000000,-3.000000,-4.000000,-3.000000
1295588.103593,28.000000,6.000000,5.000000,4.000000,-4.000000,1.000000,1.000000,3.000000
1295588.104460,7.000000,2.000000,2.000000,3.000000,-1.000000,1.000000,-1.000000,1.000000
1295588.104472,-31.000000,-12.000000,-4.000000,-4.000000,0.000000,1.000000,0.000000,-7.000000
1295588.108760,-3.000000,0.000000,1.000000,2.000000,0.000000,1.000000,1.000000,-4.000000
1295588.108768,4.000000,4.000000,-2.000000,3.000000,1.000000,1.000000,0.000000,-2.000000
1295588.116255,2.000000,-1.000000,-4.000000,-4.000000,-1.000000,-4.000000,-3.000000,-3.000000
1295588.116264,-7.000000,-4.000000,-3.000000,2.000000,1.000000,-2.000000,-3.000000,12.000000
1295588.139088,-1.000000,5.000000,-1.000000,1.000000,1.000000,-1.000000,3.000000,2.000000
1295588.139112,-8.000000,-2.000000,5.000000,-1.000000,-1.000000,0.000000,-4.000000,-21.000000
1295588.146335,18.000000,-10.000000,-1.000000,-4.000000,-2.000000,-3.000000,1.000000,12.000000
1295588.146358,-5.000000,0.000000,-1.000000,0.000000,0.000000,3.000000,0.000000,-3.000000
1295588.176514,5.000000,1.000000,2.000000,1.000000,0.000000,-4.000000,-4.000000,0.000000
1295588.176524,-16.000000,-10.000000,1.000000,0.000000,3.000000,3.000000,7.000000,1.000000
1295588.184291,-2.000000,-1.000000,0.000000,0.000000,-4.000000,-1.000000,-4.000000,-1.000000
1295588.184305,3.000000,6.000000,0.000000,6.000000,0.000000,1.000000,1.000000,5.000000
1295588.207144,-1.000000,2.000000,2.000000,-5.000000,1.000000,0.000000,-3.000000,1.000000
1295588.207200,1.000000,-5.000000,-2.000000,-5.000000,-3.000000,-3.000000,-7.000000,-15.000000
1295588.207347,18.000000,9.000000,4.000000,5.000000,1.000000,4.000000,8.000000,30.000000
1295588.207355,-9.000000,-4.000000,1.000000,2.000000,-1.000000,-3.000000,-2.000000,-8.000000
1295588.208339,4.000000,-7.000000,-5.000000,-3.000000,2.000000,-1.000000,3.000000,8.000000
1295588.208365,2.000000,1.000000,5.000000,2.000000,1.000000,1.000000,-1.000000,-1.000000
1295588.208861,1.000000,6.000000,0.000000,0.000000,0.000000,-4.000000,0.000000,-12.000000
1295588.208869,0.000000,-4.000000,-3.000000,-6.000000,-4.000000,-1.000000,-3.000000,-6.000000
1295588.210214,3.000000,2.000000,-1.000000,3.000000,-2.000000,1.000000,-2.000000,-21.000000
1295588.210222,0.000000,2.000000,7.000000,2.000000,0.000000,0.000000,3.000000,-6.000000
1295588.222175,-1.000000,-3.000000,-3.000000,-4.000000,0.000000,1.000000,3.000000,6.000000
1295588.222196,-4.000000,-8.000000,0.000000,-4.000000,-1.000000,0.000000,-4.000000,2.000000
1295588.228778,2.000000,5.000000,2.000000,6.000000,0.000000,2.000000,-1.000000,-1.000000
1295588.228796,3.000000,-1.000000,-1.000000,-1.000000,-7.000000,-3.000000,1.000000,0.000000
1295588.236285,-7.000000,-12.000000,-4.000000,-7.000000,0.000000,-2.000000,0.000000,-6.000000
1295588.236295,-2.000000,6.000000,4.000000,3.000000,4.000000,1.000000,-1.000000,0.000000
1295588.281476,0.000000,2.000000,1.000000,0.000000,0.000000,0.000000,2.000000,-2.000000
1295588.281488,-10.000000,-11.000000,-5.000000,-1.000000,-1.000000,-3.000000,-3.000000,-18.000000
1295588.296910,11.000000,5.000000,-1.000000,-3.000000,0.000000,2.000000,8.000000,26.000000
1295588.296939,3.000000,6.000000,1.000000,7.000000,1.000000,1.000000,1.000000,0.000000
1295588.334084,1.000000,-9.000000,-1.000000,2.000000,-2.000000,-1.000000,-1.000000,-5.000000
1295588.334098,-2.000000,-2.000000,2.000000,0.000000,3.000000,0.000000,-6.000000,-10.000000
1295588.334434,3.000000,8.000000,4.000000,3.000000,3.000000,6.000000,2.000000,-21.000000
1295588.334444,6.000000,2.000000,0.000000,1.000000,-1.000000,0.000000,3.000000,6.000000
1295588.335604,-3.000000,-8.000000,-3.000000,-5.000000,-3.000000,-3.000000,-5.000000,1.000000
1295588.335614,1.000000,2.000000,-1.000000,3.000000,-1.000000,0.000000,2.000000,6.000000
1295588.336453,-3.000000,1.000000,1.000000,0.000000,-1.000000,2.000000,3.000000,-4.000000
1295588.336463,0.000000,-11.000000,-9.000000,-7.000000,-5.000000,-2.000000,-6.000000,1.000000
1295588.336931,-2.000000,1.000000,2.000000,-1.000000,-3.000000,-1.000000,-4.000000,-11.000000
1295588.336941,-3.000000,6.000000,8.000000,8.000000,0.000000,-1.000000,4.000000,0.000000
1295588.337719,-3.000000,-4.000000,-4.000000,-2.000000,-1.000000,-3.000000,-1.000000,3.000000
1295588.337728,-14.000000,-7.000000,-1.000000,-6.000000,-4.000000,-1.000000,-5.000000,-13.000000
1295588.341268,-43.000000,-15.000000,-2.000000,-7.000000,-2.000000,0.000000,-5.000000,-25.000000
1295588.341277,3.000000,6.000000,-3.000000,0.000000,-1.000000,-1.000000,0.000000,9.000000
1295588.349256,3.000000,2.000000,-1.000000,1.000000,-3.000000,0.000000,0.000000,6.000000
1295588.349270,1.000000,-8.000000,-5.000000,-6.000000,-4.000000,-4.000000,-3.000000,13.000000
1295588.356547,2.000000,0.000000,5.000000,0.000000,1.000000,0.000000,-1.000000,-9.000000
1295588.356559,8.000000,6.000000,0.000000,4.000000,-2.000000,-2.000000,-4.000000,0.000000
1295588.378948,-4.000000,-2.000000,-1.000000,-2.000000,-2.000000,-1.000000,8.000000,17.000000
1295588.378972,-2.000000,-2.000000,2.000000,-3.000000,0.000000,1.000000,-3.000000,-4.000000
1295588.386394,1.000000,3.000000,-7.000000,1.000000,2.000000,0.000000,0.000000,-4.000000
1295588.386404,-2.000000,-3.000000,1.000000,1.000000,-3.000000,-2.000000,-3.000000,-1.000000
1295588.416215,-5.000000,-9.000000,-6.000000,-3.000000,-1.000000,-1.000000,-3.000000,-5.000000
1295588.416229,-3.000000,3.000000,-1.000000,-2.000000,-3.000000,-4.000000,0.000000,-33.000000
1295588.416725,0.000000,1.000000,1.000000,0.000000,2.000000,-4.000000,-4.000000,19.000000
1295588.416737,-1.000000,-12.000000,-4.000000,-5.000000,-3.000000,-3.000000,-1.000000,11.000000
1295588.417985,0.000000,5.000000,-3.000000,-2.000000,-1.000000,-4.000000,-1.000000,-5.000000
1295588.417994,-6.000000,6.000000,2.000000,4.000000,-2.000000,0.000000,1.000000,2.000000
1295588.419053,1.000000,-7.000000,-3.000000,-6.000000,-3.000000,-4.000000,-4.000000,-1.000000
1295588.419115,4.000000,-5.000000,-5.000000,-7.000000,-4.000000,1.000000,1.000000,15.000000
1295588.453754,0.000000,6.000000,1.000000,6.000000,4.000000,2.000000,2.000000,1.000000
1295588.453769,-3.000000,-6.000000,2.000000,1.000000,-3.000000,-1.000000,-5.000000,-2.000000
1295588.454431,-2.000000,-2.000000,0.000000,-3.000000,-1.000000,1.000000,2.000000,1.000000
1295588.454458,0.000000,2.000000,1.000000,1.000000,1.000000,2.000000,-5.000000,29.000000
1295588.455928,4.000000,5.000000,0.000000,1.000000,0.000000,-3.000000,7.000000,25.000000
1295588.455961,-12.000000,-13.000000,-10.000000,-9.000000,-5.000000,-5.000000,-13.000000,24.000000
1295588.461208,-17.000000,-2.000000,3.000000,0.000000,0.000000,-2.000000,0.000000,-7.000000
1295588.461222,23.000000,10.000000,1.000000,5.000000,2.000000,2.000000,2.000000,10.000000
1295588.468759,-6.000000,-8.000000,-2.000000,-3.000000,-4.000000,-5.000000,-3.000000,2.000000
1295588.468769,10.000000,2.000000,-5.000000,-7.000000,-2.000000,-1.000000,-2.000000,-3.000000
1295588.484068,8.000000,7.000000,1.000000,4.000000,0.000000,2.000000,5.000000,19.000000
1295588.484078,-4.000000,-2.000000,2.000000,-4.000000,-1.000000,-2.000000,2.000000,2.000000
1295588.506417,-8.000000,-8.000000,0.000000,-4.000000,-2.000000,-4.000000,-6.000000,-4.000000
1295588.506430,2.000000,5.000000,2.000000,-1.000000,1.000000,-2.000000,1.000000,9.000000
1295588.536815,-2.000000,-2.000000,-2.000000,0.000000,-2.000000,-1.000000,2.000000,3.000000
1295588.536825,-3.000000,-7.000000,-6.000000,-6.000000,-4.000000,-5.000000,-4.000000,-1.000000
1295588.544465,2.000000,2.000000,1.000000,1.000000,-3.000000,-1.000000,-1.000000,-2.000000
1295588.544552,5.000000,-1.000000,-4.000000,5.000000,-1.000000,-1.000000,0.000000,-4.000000
1295588.574776,-5.000000,-6.000000,-2.000000,-3.000000,-3.000000,-1.000000,-5.000000,-21.000000
1295588.574786,2.000000,-1.000000,1.000000,-3.000000,-1.000000,-3.000000,-2.000000,-3.000000
1295588.575079,1.000000,7.000000,4.000000,4.000000,2.000000,0.000000,2.000000,5.000000
1295588.575091,-1.000000,1.000000,3.000000,-3.000000,0.000000,-3.000000,3.000000,2.000000
1295588.576292,0.000000,-5.000000,-7.000000,-6.000000,-1.000000,-3.000000,-4.000000,3.000000
1295588.576300,-23.000000,2.000000,0.000000,1.000000,0.000000,0.000000,-3.000000,-3.000000
1295588.576880,9.000000,2.000000,0.000000,1.000000,-2.000000,1.000000,2.000000,-23.000000
1295588.576888,-3.000000,-12.000000,-5.000000,-9.000000,-7.000000,-6.000000,-7.000000,16.000000
1295588.582448,-4.000000,9.000000,-2.000000,3.000000,1.000000,0.000000,8.000000,-12.000000
1295588.582462,1.000000,-8.000000,-6.000000,0.000000,-6.000000,3.000000,0.000000,-4.000000
1295588.596479,2.000000,-4.000000,-3.000000,-4.000000,-3.000000,-1.000000,-4.000000,4.000000
1295588.596500,-2.000000,6.000000,3.000000,1.000000,0.000000,-3.000000,-4.000000,-1.000000
1295588.619154,-2.000000,-3.000000,-2.000000,2.000000,0.000000,-4.000000,-1.000000,-6.000000
1295588.619164,2.000000,-8.000000,0.000000,-4.000000,-2.000000,-5.000000,-3.000000,3.000000
1295588.626833,-4.000000,-1.000000,2.000000,0.000000,-1.000000,-1.000000,0.000000,-4.000000
1295588.626843,11.000000,7.000000,2.000000,3.000000,-3.000000,1.000000,5.000000,12.000000
1295588.649076,-6.000000,-11.000000,-2.000000,-4.000000,-1.000000,0.000000,-4.000000,-23.000000
1295588.649087,6.000000,3.000000,5.000000,-1.000000,-2.000000,-2.000000,-1.000000,10.000000
1295588.656454,3.000000,8.000000,6.000000,8.000000,2.000000,-1.000000,3.000000,8.000000
1295588.656470,-1.000000,-8.000000,-5.000000,-1.000000,-5.000000,2.000000,-3.000000,-1.000000
1295588.693969,-2.000000,-5.000000,-4.000000,-6.000000,-3.000000,-3.000000,-4.000000,-3.000000
1295588.693979,2.000000,5.000000,0.000000,2.000000,4.000000,0.000000,0.000000,1.000000
1295588.701261,-3.000000,-3.000000,-4.000000,3.000000,-1.000000,-2.000000,-2.000000,-2.000000
1295588.701272,-6.000000,-10.000000,-3.000000,-7.000000,-3.000000,-5.000000,-6.000000,-18.000000
1295588.702306,1.000000,-1.000000,2.000000,-3.000000,1.000000,0.000000,0.000000,6.000000
1295588.702314,-6.000000,1.000000,0.000000,0.000000,-2.000000,0.000000,-1.000000,-7.000000
1295588.702954,-3.000000,-10.000000,-9.000000,-4.000000,-4.000000,-1.000000,-1.000000,-4.000000
1295588.702962,-3.000000,1.000000,-2.000000,-1.000000,1.000000,-2.000000,-3.000000,-4.000000
1295588.704473,-4.000000,6.000000,4.000000,4.000000,0.000000,0.000000,1.000000,11.000000
1295588.704481,21.000000,0.000000,-4.000000,-2.000000,-3.000000,-3.000000,-3.000000,4.000000
1295588.731982,0.000000,0.000000,-2.000000,-3.000000,3.000000,0.000000,-5.000000,-1.000000
1295588.732000,13.000000,4.000000,3.000000,3.000000,0.000000,1.000000,3.000000,-5.000000
1295588.746422,-18.000000,-10.000000,-1.000000,-6.000000,-1.000000,-8.000000,-4.000000,-25.000000
1295588.746439,2.000000,2.000000,1.000000,1.000000,-5.000000,-2.000000,-4.000000,2.000000
1295588.761346,1.000000,7.000000,1.000000,6.000000,2.000000,2.000000,2.000000,3.000000
1295588.761374,5.000000,-1.000000,-6.000000,-4.000000,-1.000000,-5.000000,-2.000000,7.000000
1295588.762428,3.000000,-4.000000,-1.000000,-2.000000,-4.000000,1.000000,-3.000000,0.000000
1295588.762436,-4.000000,5.000000,-2.000000,2.000000,5.000000,4.000000,2.000000,-2.000000
1295588.763227,1.000000,-2.000000,-3.000000,-1.000000,-2.000000,1.000000,5.000000,-1.000000
1295588.763257,-1.000000,-9.000000,-4.000000,-4.000000,-1.000000,-1.000000,-4.000000,-4.000000
1295588.764676,1.000000,-1.000000,1.000000,0.000000,-4.000000,-1.000000,1.000000,13.000000
1295588.764703,-33.000000,2.000000,-1.000000,3.000000,0.000000,2.000000,-2.000000,-25.000000
1295588.769094,-3.000000,-12.000000,-7.000000,-5.000000,-3.000000,-5.000000,-4.000000,0.000000
1295588.769127,1.000000,3.000000,0.000000,0.000000,1.000000,-1.000000,-1.000000,0.000000
1295588.814414,8.000000,5.000000,0.000000,2.000000,-1.000000,0.000000,2.000000,18.000000
1295588.814441,-2.000000,-5.000000,1.000000,2.000000,-3.000000,0.000000,-3.000000,-5.000000
1295588.815111,0.000000,-8.000000,-3.000000,-3.000000,-3.000000,-4.000000,-9.000000,-1.000000
1295588.815119,1.000000,9.000000,5.000000,5.000000,3.000000,1.000000,-2.000000,-25.000000
1295588.816463,4.000000,-1.000000,-6.000000,-4.000000,-4.000000,-2.000000,-3.000000,0.000000
1295588.816495,-4.000000,-6.000000,-1.000000,-5.000000,0.000000,-2.000000,3.000000,-2.000000
1295588.817604,2.000000,0.000000,0.000000,-2.000000,-2.000000,-5.000000,-8.000000,2.000000
1295588.817630,-2.000000,2.000000,1.000000,3.000000,2.000000,0.000000,0.000000,-4.000000
1295588.822191,8.000000,-4.000000,-4.000000,-9.000000,-2.000000,-3.000000,3.000000,18.000000
1295588.822218,6.000000,-1.000000,1.000000,1.000000,-3.000000,-1.000000,-1.000000,-6.000000
1295588.836356,-7.000000,4.000000,1.000000,4.000000,1.000000,1.000000,-3.000000,-15.000000
1295588.836367,2.000000,-5.000000,-8.000000,-4.000000,-1.000000,2.000000,3.000000,27.000000
1295588.851750,-1.000000,-5.000000,-2.000000,-2.000000,-1.000000,1.000000,5.000000,5.000000
1295588.851762,4.000000,4.000000,1.000000,4.000000,1.000000,2.000000,-2.000000,-7.000000
1295588.859224,-1.000000,0.000000,2.000000,0.000000,-4.000000,0.000000,4.000000,11.000000
1295588.859236,5.000000,-8.000000,0.000000,-8.000000,0.000000,0.000000,-8.000000,-4.000000
1295588.897068,-33.000000,1.000000,0.000000,-1.000000,-3.000000,-2.000000,0.000000,-17.000000
1295588.897078,1.000000,0.000000,-3.000000,1.000000,-1.000000,1.000000,-8.000000,-17.000000
1295588.904168,7.000000,-9.000000,-4.000000,-5.000000,-2.000000,-1.000000,-3.000000,11.000000
1295588.904180,1.000000,-1.000000,-3.000000,0.000000,-3.000000,0.000000,-1.000000,-2.000000
1295588.905033,3.000000,5.000000,1.000000,2.000000,0.000000,0.000000,4.000000,6.000000
1295588.905041,0.000000,-3.000000,1.000000,1.000000,-2.000000,0.000000,5.000000,2.000000
1295588.905557,1.000000,-3.000000,0.000000,-4.000000,0.000000,-1.000000,-3.000000,13.000000
1295588.905683,5.000000,9.000000,5.000000,4.000000,3.000000,8.000000,8.000000,-4.000000
1295588.907522,-1.000000,-1.000000,-1.000000,-3.000000,-2.000000,-1.000000,-3.000000,-5.000000
1295588.907532,-5.000000,-8.000000,-2.000000,-5.000000,-3.000000,3.000000,-1.000000,-5.000000
1295588.911447,-3.000000,1.000000,3.000000,1.000000,-1.000000,1.000000,-1.000000,-7.000000
1295588.911455,-3.000000,-2.000000,-6.000000,-3.000000,-1.000000,-1.000000,0.000000,-3.000000
1295588.927019,8.000000,-6.000000,-2.000000,-4.000000,-3.000000,-3.000000,-3.000000,3.000000
1295588.927035,0.000000,4.000000,4.000000,3.000000,4.000000,7.000000,6.000000,20.000000
1295588.933814,-2.000000,-1.000000,-4.000000,3.000000,2.000000,-1.000000,-3.000000,-37.000000
1295588.933824,-4.000000,0.000000,1.000000,-3.000000,-2.000000,-3.000000,-5.000000,-6.000000
1295588.942263,-2.000000,-1.000000,3.000000,-1.000000,2.000000,2.000000,-1.000000,-5.000000
1295588.942274,1.000000,5.000000,1.000000,4.000000,4.000000,2.000000,2.000000,0.000000
1295588.973036,4.000000,0.000000,-8.000000,-5.000000,-3.000000,0.000000,2.000000,15.000000
1295588.973065,5.000000,-5.000000,1.000000,0.000000,-4.000000,-2.000000,4.000000,10.000000
1295589.009149,2.000000,-1.000000,-4.000000,-1.000000,-3.000000,-4.000000,-7.000000,32.000000
1295589.009179,1.000000,-1.000000,1.000000,3.000000,-1.000000,3.000000,1.000000,4.000000
1295589.016619,-1.000000,-6.000000,-4.000000,-5.000000,-3.000000,0.000000,-1.000000,0.000000
1295589.016644,-1.000000,1.000000,0.000000,-7.000000,-1.000000,-2.000000,-3.000000,2.000000
1295589.024385,-3.000000,7.000000,1.000000,3.000000,-2.000000,-2.000000,-7.000000,0.000000
1295589.024394,-6.000000,0.000000,-4.000000,0.000000,-1.000000,-2.000000,-1.000000,1.000000
1295589.024859,7.000000,-2.000000,-2.000000,-2.000000,-3.000000,-2.000000,0.000000,4.000000
1295589.024868,-2.000000,7.000000,-2.000000,5.000000,3.000000,2.000000,-1.000000,-2.000000
1295589.026207,3.000000,7.000000,0.000000,3.000000,-3.000000,0.000000,-2.000000,-3.000000
1295589.026224,0.000000,2.000000,1.000000,0.000000,-3.000000,-2.000000,0.000000,13.000000
1295589.039229,4.000000,6.000000,4.000000,2.000000,1.000000,0.000000,5.000000,11.000000
1295589.039350,3.000000,-5.000000,-2.000000,-7.000000,-5.000000,-1.000000,-3.000000,8.000000
1295589.040276,4.000000,-1.000000,1.000000,-3.000000,3.000000,0.000000,-2.000000,5.000000
1295589.040285,0.000000,-1.000000,-9.000000,5.000000,-2.000000,-3.000000,4.000000,10.000000
1295589.054566,2.000000,-3.000000,-3.000000,-5.000000,-2.000000,-3.000000,-2.000000,2.000000
1295589.054578,-3.000000,-5.000000,0.000000,-6.000000,0.000000,-7.000000,-11.000000,4.000000
1295589.061937,-5.000000,2.000000,3.000000,2.000000,6.000000,1.000000,-6.000000,-13.000000
1295589.061947,-7.000000,-1.000000,2.000000,-2.000000,0.000000,0.000000,4.000000,4.000000
1295589.076412,7.000000,-10.000000,-8.000000,-4.000000,-2.000000,-3.000000,-3.000000,-8.000000
1295589.076422,-5.000000,-2.000000,1.000000,-1.000000,2.000000,2.000000,-2.000000,-9.000000
1295589.091696,0.000000,2.000000,3.000000,3.000000,-1.000000,-2.000000,1.000000,-6.000000
1295589.091706,-4.000000,-6.000000,-3.000000,-9.000000,-4.000000,-4.000000,-2.000000,-1.000000
1295589.099418,-4.000000,-3.000000,-2.000000,-4.000000,0.000000,-1.000000,-2.000000,-9.000000
1295589.099430,-1.000000,5.000000,4.000000,5.000000,1.000000,1.000000,0.000000,-7.000000
1295589.136882,-11.000000,-2.000000,-1.000000,-2.000000,0.000000,-1.000000,-2.000000,-30.000000
1295589.136895,-6.000000,-9.000000,-6.000000,-7.000000,-2.000000,-4.000000,-6.000000,-3.000000
1295589.151702,1.000000,2.000000,-3.000000,0.000000,-1.000000,3.000000,2.000000,4.000000
1295589.151791,8.000000,-1.000000,-2.000000,-1.000000,-1.000000,0.000000,5.000000,24.000000
1295589.152466,-5.000000,-9.000000,-4.000000,-9.000000,-1.000000,-4.000000,-9.000000,-4.000000
1295589.152486,2.000000,-1.000000,1.000000,-5.000000,-4.000000,-2.000000,0.000000,1.000000
1295589.166190,2.000000,6.000000,0.000000,5.000000,-1.000000,3.000000,5.000000,6.000000
1295589.166201,-7.000000,-7.000000,-1.000000,-1.000000,-2.000000,-2.000000,-2.000000,-16.000000
1295589.167420,1.000000,3.000000,-3.000000,-3.000000,-4.000000,-1.000000,-1.000000,9.000000
1295589.167430,2.000000,6.000000,0.000000,2.000000,1.000000,-2.000000,-1.000000,-3.000000
1295589.168048,-6.000000,-5.000000,-3.000000,0.000000,-4.000000,0.000000,1.000000,-3.000000
1295589.168080,-5.000000,-6.000000,-3.000000,-6.000000,-3.000000,-5.000000,-8.000000,16.000000
1295589.169550,-3.000000,7.000000,2.000000,7.000000,7.000000,3.000000,-1.000000,-27.000000
1295589.169558,-1.000000,1.000000,-6.000000,-7.000000,-2.000000,-1.000000,-1.000000,-1.000000
1295589.173821,-2.000000,-4.000000,-1.000000,-10.000000,-3.000000,-1.000000,0.000000,3.000000
1295589.173828,-3.000000,-2.000000,2.000000,2.000000,-1.000000,-2.000000,0.000000,4.000000
1295589.182401,24.000000,4.000000,-1.000000,5.000000,-5.000000,-3.000000,-1.000000,-9.000000
1295589.182411,-4.000000,-9.000000,-2.000000,-2.000000,1.000000,0.000000,-3.000000,-2.000000
1295589.203914,7.000000,-1.000000,0.000000,-1.000000,-1.000000,0.000000,-1.000000,5.000000
1295589.203924,4.000000,6.000000,2.000000,1.000000,2.000000,1.000000,2.000000,3.000000
1295589.218819,-10.000000,-1.000000,4.000000,1.000000,-1.000000,-3.000000,-4.000000,-4.000000
1295589.218842,5.000000,-4.000000,-4.000000,-7.000000,-1.000000,-4.000000,1.000000,8.000000
1295589.249040,2.000000,6.000000,0.000000,1.000000,-2.000000,2.000000,-1.000000,-7.000000
1295589.249055,4.000000,-3.000000,1.000000,0.000000,-1.000000,1.000000,0.000000,4.000000
1295589.263919,7.000000,-9.000000,-2.000000,2.000000,-4.000000,0.000000,0.000000,3.000000
1295589.263928,-24.000000,-4.000000,-4.000000,0.000000,2.000000,0.000000,-4.000000,-27.000000
1295589.294018,3.000000,7.000000,3.000000,2.000000,-1.000000,0.000000,5.000000,-2.000000
1295589.294038,-9.000000,-8.000000,-2.000000,-7.000000,-5.000000,-2.000000,-3.000000,-5.000000
1295589.316924,-4.000000,-4.000000,0.000000,-1.000000,-1.000000,-1.000000,-1.000000,-2.000000
1295589.316935,5.000000,3.000000,4.000000,5.000000,3.000000,5.000000,-1.000000,-11.000000
1295589.317490,-3.000000,-1.000000,-1.000000,-1.000000,-1.000000,0.000000,2.000000,-2.000000
1295589.317499,-3.000000,-5.000000,-7.000000,-9.000000,-1.000000,-2.000000,1.000000,-4.000000
1295589.318813,-13.000000,-12.000000,-4.000000,-8.000000,-2.000000,0.000000,-6.000000,5.000000
1295589.318823,3.000000,-1.000000,-1.000000,3.000000,1.000000,-1.000000,4.000000,5.000000
1295589.324626,0.000000,-7.000000,-1.000000,-4.000000,-4.000000,-3.000000,-1.000000,-1.000000
1295589.324637,-4.000000,1.000000,1.000000,-2.000000,-3.000000,1.000000,-1.000000,-4.000000
1295589.332114,4.000000,4.000000,0.000000,-1.000000,-5.000000,-1.000000,1.000000,3.000000
1295589.332127,-7.000000,-9.000000,-2.000000,-3.000000,-4.000000,0.000000,-3.000000,2.000000
1295589.339585,-2.000000,-1.000000,-3.000000,-1.000000,0.000000,-1.000000,-1.000000,-23.000000
1295589.339595,11.000000,2.000000,-9.000000,-2.000000,-2.000000,0.000000,1.000000,-3.000000
1295589.354371,-27.000000,-7.000000,0.000000,-2.000000,0.000000,-3.000000,-5.000000,-15.000000
1295589.354400,3.000000,0.000000,-1.000000,-3.000000,-1.000000,0.000000,3.000000,7.000000
1295589.369622,-4.000000,7.000000,6.000000,5.000000,3.000000,3.000000,0.000000,-8.000000
1295589.369636,-6.000000,0.000000,-3.000000,-1.000000,-4.000000,-2.000000,1.000000,1.000000
1295589.370308,-5.000000,-9.000000,-2.000000,-6.000000,-3.000000,-3.000000,-3.000000,-8.000000
1295589.370317,-7.000000,-2.000000,1.000000,0.000000,0.000000,0.000000,3.000000,-7.000000
1295589.443902,-3.000000,0.000000,-1.000000,0.000000,-1.000000,3.000000,0.000000,6.000000
1295589.443926,-4.000000,-9.000000,-4.000000,-5.000000,-2.000000,-4.000000,0.000000,-3.000000
1295589.444302,1.000000,1.000000,-1.000000,0.000000,-1.000000,3.000000,-1.000000,0.000000
1295589.444324,4.000000,8.000000,3.000000,4.000000,-1.000000,2.000000,1.000000,-4.000000
1295589.445604,-2.000000,-3.000000,-1.000000,-2.000000,-3.000000,-3.000000,3.000000,1.000000
1295589.445622,-3.000000,-1.000000,0.000000,2.000000,3.000000,-1.000000,0.000000,-2.000000
1295589.446304,-1.000000,7.000000,1.000000,6.000000,-1.000000,-2.000000,-3.000000,-13.000000
1295589.446313,6.000000,-2.000000,-1.000000,-5.000000,-1.000000,0.000000,1.000000,19.000000
1295589.447842,-37.000000,-2.000000,0.000000,-3.000000,0.000000,-1.000000,2.000000,-17.000000
1295589.447854,3.000000,-5.000000,-1.000000,-6.000000,-6.000000,0.000000,-3.000000,-14.000000
1295589.451296,11.000000,-2.000000,0.000000,-3.000000,0.000000,-2.000000,-3.000000,-17.000000
1295589.451318,-3.000000,0.000000,-3.000000,-5.000000,1.000000,0.000000,-4.000000,1.000000
1295589.481268,0.000000,3.000000,2.000000,6.000000,2.000000,-1.000000,2.000000,-1.000000
1295589.481283,-3.000000,-4.000000,-3.000000,1.000000,2.000000,-1.000000,1.000000,-4.000000
1295589.481958,3.000000,-7.000000,-1.000000,-6.000000,-5.000000,-3.000000,-1.000000,-4.000000
1295589.481983,-4.000000,1.000000,-1.000000,-1.000000,2.000000,0.000000,-2.000000,-5.000000
1295589.483459,4.000000,0.000000,-3.000000,-3.000000,-1.000000,-2.000000,-1.000000,9.000000
1295589.483473,0.000000,-6.000000,-2.000000,-8.000000,-1.000000,0.000000,-1.000000,-3.000000
1295589.497008,-4.000000,3.000000,2.000000,1.000000,2.000000,-2.000000,6.000000,3.000000
1295589.497037,6.000000,6.000000,-4.000000,2.000000,0.000000,-1.000000,-9.000000,-17.000000
1295589.504729,8.000000,-6.000000,-4.000000,-5.000000,-5.000000,-4.000000,-9.000000,1.000000
1295589.504739,-3.000000,-2.000000,1.000000,-1.000000,2.000000,-1.000000,3.000000,-17.000000
1295589.526511,0.000000,3.000000,4.000000,4.000000,1.000000,-2.000000,1.000000,1.000000
1295589.526522,14.000000,1.000000,-1.000000,0.000000,1.000000,-3.000000,1.000000,13.000000
1295589.541333,0.000000,-8.000000,1.000000,-6.000000,-3.000000,-3.000000,-4.000000,-6.000000
1295589.541343,0.000000,-3.000000,-3.000000,-1.000000,0.000000,-2.000000,-2.000000,1.000000
1295589.564363,-1.000000,2.000000,0.000000,-1.000000,-1.000000,-3.000000,-1.000000,-3.000000
1295589.564393,1.000000,-10.000000,-5.000000,-6.000000,-3.000000,-3.000000,-2.000000,1.000000
1295589.572124,-13.000000,-4.000000,3.000000,-2.000000,-2.000000,0.000000,-3.000000,-2.000000
1295589.572151,0.000000,5.000000,3.000000,4.000000,-1.000000,3.000000,3.000000,-4.000000
1295589.572477,5.000000,-3.000000,-1.000000,-2.000000,-3.000000,-1.000000,0.000000,6.000000
1295589.572498,2.000000,3.000000,0.000000,-4.000000,-4.000000,-4.000000,-1.000000,0.000000
1295589.573831,-1.000000,4.000000,-3.000000,3.000000,2.000000,0.000000,2.000000,3.000000
1295589.573873,0.000000,-2.000000,-1.000000,4.000000,-2.000000,2.000000,3.000000,15.000000
1295589.574638,-8.000000,-7.000000,-4.000000,-3.000000,1.000000,-4.000000,-14.000000,-20.000000
1295589.574664,-2.000000,1.000000,1.000000,2.000000,1.000000,2.000000,10.000000,3.000000
1295589.595512,6.000000,3.000000,-1.000000,0.000000,-3.000000,-2.000000,-7.000000,-17.000000
1295589.595665,5.000000,5.000000,-7.000000,0.000000,1.000000,1.000000,5.000000,4.000000
1295589.595911,-2.000000,2.000000,-5.000000,-7.000000,-1.000000,2.000000,1.000000,-6.000000
1295589.595921,1.000000,-7.000000,-3.000000,-6.000000,-3.000000,-3.000000,-1.000000,19.000000
1295589.602207,2.000000,-2.000000,-3.000000,0.000000,0.000000,-1.000000,0.000000,4.000000
1295589.602224,-12.000000,-7.000000,1.000000,0.000000,0.000000,-1.000000,-1.000000,-17.000000
1295589.616846,3.000000,7.000000,-5.000000,2.000000,3.000000,0.000000,-1.000000,9.000000
1295589.616864,0.000000,-3.000000,0.000000,-4.000000,-3.000000,1.000000,2.000000,-4.000000
1295589.654204,-7.000000,-5.000000,0.000000,-2.000000,-2.000000,-1.000000,-4.000000,-4.000000
1295589.654233,4.000000,4.000000,3.000000,6.000000,1.000000,1.000000,1.000000,17.000000
1295589.661501,-4.000000,-4.000000,0.000000,0.000000,-3.000000,0.000000,-3.000000,-25.000000
1295589.661529,-4.000000,-7.000000,-3.000000,-4.000000,0.000000,-3.000000,-3.000000,0.000000
1295589.683872,1.000000,1.000000,-2.000000,0.000000,1.000000,0.000000,-4.000000,3.000000
1295589.683893,0.000000,4.000000,-4.000000,2.000000,4.000000,4.000000,1.000000,2.000000
1295589.691547,-7.000000,-4.000000,2.000000,-4.000000,-3.000000,-4.000000,-2.000000,-11.000000
1295589.691558,3.000000,3.000000,3.000000,-1.000000,1.000000,-1.000000,-3.000000,-17.000000
1295589.706944,10.000000,6.000000,-2.000000,6.000000,-1.000000,-1.000000,4.000000,10.000000
1295589.706955,-9.000000,-7.000000,-4.000000,1.000000,-1.000000,3.000000,-2.000000,-11.000000
1295589.721319,4.000000,-6.000000,-2.000000,-7.000000,-1.000000,0.000000,1.000000,-7.000000
1295589.721337,3.000000,2.000000,-1.000000,0.000000,0.000000,-2.000000,2.000000,1.000000
1295589.722594,2.000000,1.000000,1.000000,1.000000,-2.000000,0.000000,-3.000000,-1.000000
1295589.722623,-1.000000,4.000000,-4.000000,0.000000,0.000000,-1.000000,-1.000000,11.000000
1295589.723743,-7.000000,-6.000000,-2.000000,-6.000000,-4.000000,-3.000000,-6.000000,-17.000000
1295589.723753,0.000000,3.000000,1.000000,-2.000000,-1.000000,-4.000000,-1.000000,2.000000
1295589.724571,-3.000000,2.000000,-4.000000,0.000000,-1.000000,2.000000,0.000000,7.000000
1295589.724591,3.000000,-2.000000,-1.000000,0.000000,1.000000,-2.000000,0.000000,-2.000000
1295589.737297,-22.000000,-1.000000,0.000000,0.000000,0.000000,2.000000,-3.000000,-24.000000
1295589.737308,3.000000,-2.000000,3.000000,0.000000,-1.000000,-2.000000,3.000000,-4.000000
1295589.766323,-6.000000,-1.000000,-5.000000,-3.000000,-1.000000,-3.000000,-3.000000,-14.000000
1295589.766333,8.000000,7.000000,2.000000,7.000000,-1.000000,-3.000000,3.000000,-3.000000
1295589.773831,7.000000,-1.000000,-2.000000,-3.000000,-3.000000,-2.000000,-4.000000,0.000000
1295589.773841,-4.000000,3.000000,-1.000000,-3.000000,-3.000000,1.000000,9.000000,-1.000000
1295589.811321,4.000000,6.000000,5.000000,5.000000,0.000000,2.000000,-2.000000,12.000000
1295589.811331,-2.000000,-2.000000,2.000000,-2.000000,-1.000000,-2.000000,1.000000,5.000000
1295589.818783,-4.000000,-3.000000,-1.000000,-3.000000,0.000000,-1.000000,-1.000000,-3.000000
1295589.818793,0.000000,6.000000,3.000000,2.000000,3.000000,3.000000,4.000000,0.000000
1295589.856507,8.000000,3.000000,2.000000,0.000000,1.000000,-2.000000,1.000000,4.000000
1295589.856526,-1.000000,-8.000000,-7.000000,-10.000000,-4.000000,-1.000000,1.000000,-2.000000
1295589.856824,-5.000000,0.000000,-4.000000,1.000000,-1.000000,1.000000,0.000000,-5.000000
1295589.856840,-4.000000,1.000000,1.000000,2.000000,-3.000000,1.000000,-1.000000,-8.000000
1295589.858660,7.000000,-3.000000,-6.000000,-4.000000,-2.000000,1.000000,2.000000,29.000000
1295589.858679,1.000000,4.000000,1.000000,2.000000,-1.000000,0.000000,-4.000000,-5.000000
1295589.859622,-5.000000,-3.000000,-1.000000,3.000000,-2.000000,-1.000000,2.000000,1.000000
1295589.859630,-2.000000,-7.000000,1.000000,-6.000000,-2.000000,-3.000000,0.000000,2.000000
1295589.879325,0.000000,7.000000,1.000000,4.000000,-1.000000,1.000000,0.000000,-4.000000
1295589.879354,-6.000000,-2.000000,-3.000000,0.000000,0.000000,-4.000000,-4.000000,-8.000000
1295589.886910,1.000000,-1.000000,0.000000,0.000000,0.000000,1.000000,-1.000000,1.000000
1295589.886939,-1.000000,3.000000,-2.000000,0.000000,0.000000,0.000000,-2.000000,-11.000000
1295589.908896,1.000000,-1.000000,-2.000000,-1.000000,1.000000,1.000000,7.000000,19.000000
1295589.908909,-8.000000,-10.000000,0.000000,-1.000000,-1.000000,-1.000000,-5.000000,-4.000000
1295589.924184,2.000000,2.000000,-1.000000,0.000000,1.000000,-3.000000,-3.000000,0.000000
1295589.924194,0.000000,4.000000,-3.000000,2.000000,0.000000,4.000000,2.000000,-15.000000
1295589.961490,1.000000,-11.000000,-6.000000,-6.000000,-1.000000,-2.000000,-1.000000,18.000000
1295589.961519,-15.000000,-6.000000,4.000000,0.000000,-2.000000,-1.000000,-2.000000,-20.000000
1295589.968919,21.000000,7.000000,1.000000,5.000000,-3.000000,-1.000000,-2.000000,1.000000
1295589.968937,2.000000,-2.000000,-3.000000,2.000000,2.000000,3.000000,1.000000,3.000000
1295589.991532,-4.000000,-5.000000,-3.000000,-6.000000,-3.000000,2.000000,-1.000000,-2.000000
1295589.991561,0.000000,6.000000,3.000000,2.000000,4.000000,3.000000,0.000000,0.000000
1295589.999093,3.000000,1.000000,-1.000000,2.000000,0.000000,-5.000000,1.000000,11.000000
1295589.999104,-6.000000,-10.000000,-2.000000,-6.000000,-2.000000,-6.000000,-11.000000,17.000000
1295590.013869,4.000000,5.000000,2.000000,3.000000,0.000000,0.000000,-1.000000,2.000000
1295590.013879,0.000000,1.000000,0.000000,-1.000000,-1.000000,2.000000,1.000000,0.000000
1295590.021363,-5.000000,1.000000,3.000000,-5.000000,-1.000000,-2.000000,-6.000000,-9.000000
1295590.021373,6.000000,9.000000,3.000000,4.000000,2.000000,-1.000000,1.000000,3.000000
1295590.044344,5.000000,2.000000,0.000000,0.000000,-1.000000,-5.000000,-2.000000,10.000000
1295590.044355,3.000000,1.000000,3.000000,2.000000,-4.000000,1.000000,-2.000000,3.000000
1295590.052073,-4.000000,-8.000000,-4.000000,-4.000000,-3.000000,-3.000000,-4.000000,-1.000000
1295590.052096,2.000000,1.000000,2.000000,0.000000,0.000000,2.000000,3.000000,10.000000
1295590.073939,-5.000000,3.000000,-7.000000,4.000000,1.000000,3.000000,0.000000,1.000000
1295590.073951,1.000000,-3.000000,-5.000000,-5.000000,-6.000000,-4.000000,-7.000000,-25.000000
1295590.074977,-2.000000,-3.000000,0.000000,-2.000000,1.000000,1.000000,0.000000,0.000000
1295590.074987,-3.000000,-8.000000,-1.000000,-2.000000,-1.000000,-2.000000,-4.000000,-1.000000
1295590.082026,10.000000,-8.000000,0.000000,-4.000000,1.000000,-2.000000,1.000000,4.000000
1295590.082042,0.000000,-2.000000,4.000000,1.000000,2.000000,1.000000,-2.000000,-17.000000
1295590.083206,5.000000,4.000000,-5.000000,-4.000000,-3.000000,1.000000,1.000000,4.000000
1295590.083216,2.000000,-1.000000,1.000000,-2.000000,-3.000000,-4.000000,0.000000,2.000000
1295590.085116,-1.000000,0.000000,-5.000000,-2.000000,1.000000,-1.000000,-1.000000,-1.000000
1295590.085129,-1.000000,-9.000000,-2.000000,-3.000000,-5.000000,-5.000000,-2.000000,0.000000
1295590.096581,2.000000,-3.000000,0.000000,-2.000000,0.000000,-2.000000,2.000000,-5.000000
1295590.096604,-1.000000,-3.000000,1.000000,-1.000000,-2.000000,1.000000,1.000000,-3.000000
1295590.118953,-3.000000,-4.000000,-3.000000,-7.000000,-3.000000,-2.000000,-2.000000,-2.000000
1295590.118963,0.000000,4.000000,-6.000000,-1.000000,-1.000000,0.000000,0.000000,0.000000
1295590.126310,0.000000,4.000000,1.000000,-2.000000,0.000000,-4.000000,-4.000000,14.000000
1295590.126318,12.000000,-5.000000,-2.000000,-3.000000,-1.000000,-2.000000,-4.000000,-9.000000
1295590.156378,-2.000000,3.000000,0.000000,-4.000000,0.000000,0.000000,-4.000000,-17.000000
1295590.156398,4.000000,4.000000,-5.000000,1.000000,0.000000,1.000000,0.000000,16.000000
1295590.164249,5.000000,-4.000000,1.000000,-1.000000,-2.000000,-1.000000,-1.000000,1.000000
1295590.164261,1.000000,-5.000000,1.000000,-5.000000,-3.000000,-1.000000,-2.000000,1.000000
1295590.172165,-6.000000,2.000000,-2.000000,2.000000,-3.000000,-2.000000,0.000000,11.000000
1295590.172175,5.000000,6.000000,3.000000,6.000000,-3.000000,1.000000,0.000000,-1.000000
1295590.172626,2.000000,-11.000000,-7.000000,-5.000000,-2.000000,1.000000,-4.000000,2.000000
1295590.172641,2.000000,0.000000,-2.000000,-3.000000,0.000000,0.000000,2.000000,11.000000
1295590.173812,-4.000000,6.000000,3.000000,6.000000,1.000000,-1.000000,-3.000000,-3.000000
1295590.173822,-1.000000,0.000000,0.000000,-1.000000,-5.000000,1.000000,1.000000,-1.000000
1295590.174654,0.000000,-5.000000,1.000000,-5.000000,-3.000000,-1.000000,-1.000000,-1.000000
1295590.174665,-2.000000,6.000000,1.000000,0.000000,1.000000,3.000000,1.000000,0.000000
1295590.187151,8.000000,-6.000000,-8.000000,-4.000000,-1.000000,-3.000000,-3.000000,-10.000000
1295590.187162,-5.000000,-3.000000,1.000000,-3.000000,0.000000,-1.000000,1.000000,6.000000
1295590.201573,0.000000,5.000000,-6.000000,-2.000000,-2.000000,0.000000,-1.000000,10.000000
1295590.201597,10.000000,-2.000000,0.000000,2.000000,0.000000,2.000000,0.000000,0.000000
1295590.209478,-2.000000,-15.000000,-4.000000,-2.000000,-3.000000,-3.000000,1.000000,-2.000000
1295590.209501,-1.000000,4.000000,-3.000000,-1.000000,0.000000,-5.000000,-4.000000,12.000000
1295590.224062,6.000000,6.000000,-2.000000,0.000000,-1.000000,0.000000,0.000000,-2.000000
1295590.224073,-3.000000,-3.000000,-2.000000,-5.000000,-2.000000,-2.000000,0.000000,1.000000
1295590.246470,-6.000000,-4.000000,-3.000000,-6.000000,1.000000,-1.000000,-2.000000,-8.000000
1295590.246486,5.000000,7.000000,-1.000000,4.000000,-5.000000,-1.000000,-2.000000,5.000000
1295590.276528,7.000000,-4.000000,-2.000000,-1.000000,-3.000000,-4.000000,0.000000,9.000000
1295590.276540,4.000000,-7.000000,2.000000,-5.000000,-2.000000,-1.000000,0.000000,12.000000
1295590.284345,-1.000000,4.000000,1.000000,-1.000000,1.000000,0.000000,-1.000000,-9.000000
1295590.284362,4.000000,-1.000000,-2.000000,-4.000000,1.000000,4.000000,1.000000,2.000000
1295590.284915,-1.000000,-6.000000,-1.000000,-2.000000,-2.000000,-3.000000,-1.000000,2.000000
1295590.284924,-1.000000,-1.000000,-6.000000,-2.000000,-1.000000,-3.000000,0.000000,1.000000
1295590.286293,3.000000,1.000000,0.000000,6.000000,2.000000,0.000000,0.000000,-4.000000
1295590.286314,-2.000000,-6.000000,-4.000000,-5.000000,-3.000000,0.000000,5.000000,-11.000000
1295590.287236,-4.000000,2.000000,-1.000000,-4.000000,1.000000,2.000000,-2.000000,-1.000000
1295590.287245,-10.000000,3.000000,-1.000000,3.000000,-3.000000,0.000000,1.000000,1.000000
1295590.291357,0.000000,3.000000,1.000000,-1.000000,0.000000,2.000000,2.000000,-15.000000
1295590.291367,9.000000,3.000000,-2.000000,3.000000,-1.000000,-1.000000,8.000000,14.000000
1295590.314129,-13.000000,-11.000000,-4.000000,-8.000000,-5.000000,0.000000,-6.000000,-13.000000
1295590.314140,-3.000000,-1.000000,-1.000000,-1.000000,-1.000000,2.000000,2.000000,-6.000000
1295590.314603,6.000000,3.000000,1.000000,4.000000,-2.000000,1.000000,4.000000,2.000000
1295590.314612,-1.000000,-10.000000,-3.000000,-5.000000,-2.000000,-3.000000,1.000000,5.000000
1295590.322280,-5.000000,5.000000,-1.000000,-1.000000,-1.000000,-3.000000,-3.000000,-24.000000
1295590.322291,-1.000000,10.000000,3.000000,3.000000,2.000000,-1.000000,3.000000,-2.000000
1295590.336440,3.000000,0.000000,1.000000,2.000000,2.000000,0.000000,0.000000,1.000000
1295590.336457,-2.000000,-4.000000,-2.000000,-6.000000,-1.000000,-3.000000,0.000000,8.000000
1295590.359216,2.000000,1.000000,-1.000000,1.000000,2.000000,4.000000,1.000000,4.000000
1295590.359228,-1.000000,0.000000,0.000000,1.000000,0.000000,-1.000000,-2.000000,-5.000000
1295590.366729,-6.000000,-8.000000,-4.000000,-6.000000,0.000000,-1.000000,-2.000000,-2.000000
1295590.366742,-3.000000,1.000000,0.000000,0.000000,5.000000,0.000000,-4.000000,-24.000000
1295590.404080,4.000000,2.000000,3.000000,-1.000000,-2.000000,-2.000000,1.000000,9.000000
1295590.404090,-6.000000,-4.000000,-2.000000,-6.000000,-5.000000,-5.000000,-5.000000,0.000000
1295590.426361,-5.000000,-6.000000,-2.000000,-4.000000,-1.000000,0.000000,-4.000000,-4.000000
1295590.426380,11.000000,9.000000,1.000000,3.000000,1.000000,1.000000,3.000000,1.000000
1295590.427438,-27.000000,-4.000000,1.000000,0.000000,0.000000,-2.000000,1.000000,3.000000
1295590.427457,6.000000,-2.000000,-4.000000,-5.000000,-5.000000,-2.000000,-3.000000,6.000000
1295590.428097,-15.000000,2.000000,1.000000,4.000000,-3.000000,1.000000,-3.000000,-26.000000
1295590.428105,2.000000,1.000000,-2.000000,2.000000,4.000000,0.000000,5.000000,9.000000
1295590.429353,1.000000,0.000000,-5.000000,4.000000,-2.000000,-1.000000,-2.000000,-3.000000
1295590.429362,-3.000000,-5.000000,-4.000000,-5.000000,-3.000000,-3.000000,2.000000,-3.000000
1295590.430172,-1.000000,-2.000000,0.000000,1.000000,1.000000,0.000000,-2.000000,1.000000
1295590.430181,-2.000000,7.000000,2.000000,3.000000,0.000000,-2.000000,1.000000,-4.000000
1295590.433824,-4.000000,-5.000000,-4.000000,-4.000000,1.000000,-2.000000,0.000000,-1.000000
1295590.433833,-5.000000,-6.000000,-2.000000,-4.000000,-2.000000,-2.000000,-3.000000,5.000000
1295590.449069,10.000000,5.000000,3.000000,3.000000,3.000000,0.000000,-2.000000,-1.000000
1295590.449082,-9.000000,-5.000000,-2.000000,-5.000000,0.000000,-1.000000,-3.000000,0.000000
1295590.463927,-2.000000,-8.000000,-3.000000,-4.000000,-1.000000,0.000000,3.000000,-7.000000
1295590.463944,-1.000000,0.000000,3.000000,1.000000,-2.000000,-1.000000,2.000000,-1.000000
1295590.486359,0.000000,4.000000,1.000000,-3.000000,0.000000,-3.000000,1.000000,9.000000
1295590.486369,-32.000000,-14.000000,-8.000000,-8.000000,-4.000000,-8.000000,-15.000000,-50.000000
1295590.501956,-7.000000,-1.000000,0.000000,0.000000,-3.000000,-1.000000,0.000000,4.000000
1295590.502007,0.000000,5.000000,-1.000000,5.000000,0.000000,4.000000,-1.000000,2.000000
1295590.502818,-4.000000,-3.000000,-1.000000,-4.000000,0.000000,-1.000000,-4.000000,-9.000000
1295590.502825,5.000000,-1.000000,-1.000000,1.000000,-1.000000,-2.000000,0.000000,5.000000
1295590.516531,-15.000000,4.000000,0.000000,3.000000,0.000000,3.000000,-4.000000,-23.000000
1295590.516542,2.000000,-3.000000,-3.000000,-1.000000,-3.000000,-3.000000,0.000000,0.000000
1295590.554113,-4.000000,-5.000000,0.000000,-6.000000,-3.000000,-5.000000,-4.000000,3.000000
1295590.554123,3.000000,2.000000,-1.000000,0.000000,-1.000000,-1.000000,-6.000000,-1.000000
1295590.561750,-4.000000,6.000000,0.000000,1.000000,-2.000000,-1.000000,3.000000,-7.000000
1295590.561787,2.000000,-6.000000,-3.000000,-4.000000,-2.000000,-2.000000,1.000000,8.000000
1295590.576427,-2.000000,0.000000,2.000000,2.000000,0.000000,-2.000000,3.000000,-1.000000
1295590.576445,5.000000,8.000000,2.000000,5.000000,1.000000,1.000000,0.000000,7.000000
1295590.591922,-4.000000,-4.000000,-4.000000,-5.000000,-5.000000,-1.000000,-3.000000,-1.000000
1295590.591996,-3.000000,-1.000000,-1.000000,-3.000000,-1.000000,0.000000,-2.000000,-3.000000
1295590.592918,4.000000,5.000000,-1.000000,0.000000,-1.000000,-1.000000,0.000000,7.000000
1295590.592926,6.000000,-1.000000,-1.000000,-3.000000,1.000000,-1.000000,1.000000,-3.000000
1295590.593361,5.000000,5.000000,-2.000000,-2.000000,-2.000000,0.000000,1.000000,0.000000
1295590.593369,1.000000,-7.000000,1.000000,-3.000000,-1.000000,1.000000,-4.000000,1.000000
1295590.593893,-2.000000,0.000000,-1.000000,-2.000000,2.000000,2.000000,-2.000000,-2.000000
1295590.593900,1.000000,2.000000,-1.000000,5.000000,-3.000000,0.000000,2.000000,3.000000
1295590.594726,-7.000000,-3.000000,1.000000,-6.000000,-2.000000,-3.000000,0.000000,-15.000000
1295590.594752,5.000000,-3.000000,-4.000000,-1.000000,1.000000,-4.000000,-1.000000,7.000000
1295590.599190,-11.000000,6.000000,-1.000000,6.000000,1.000000,1.000000,-2.000000,-26.000000
1295590.599219,0.000000,-2.000000,-2.000000,0.000000,1.000000,0.000000,-2.000000,-1.000000
1295590.607025,2.000000,-9.000000,-3.000000,-5.000000,0.000000,-2.000000,-1.000000,7.000000
1295590.607044,6.000000,2.000000,1.000000,-3.000000,-3.000000,-2.000000,0.000000,8.000000
1295590.621491,-2.000000,2.000000,1.000000,3.000000,1.000000,2.000000,-1.000000,-3.000000
1295590.621511,-4.000000,-6.000000,-5.000000,-6.000000,-3.000000,-3.000000,0.000000,-1.000000
1295590.628853,7.000000,0.000000,0.000000,0.000000,1.000000,-5.000000,-2.000000,-7.000000
1295590.628881,6.000000,2.000000,1.000000,2.000000,-1.000000,-4.000000,8.000000,4.000000
1295590.636536,-1.000000,-7.000000,-6.000000,-3.000000,1.000000,3.000000,-2.000000,-4.000000
1295590.636546,6.000000,2.000000,-1.000000,2.000000,0.000000,1.000000,1.000000,5.000000
1295590.644519,3.000000,7.000000,0.000000,2.000000,0.000000,2.000000,-1.000000,3.000000
1295590.644527,0.000000,-5.000000,-1.000000,-1.000000,0.000000,0.000000,0.000000,-1.000000
1295590.673860,-6.000000,-5.000000,-3.000000,-6.000000,-4.000000,-2.000000,-4.000000,-1.000000
1295590.673870,-4.000000,2.000000,2.000000,5.000000,0.000000,0.000000,-3.000000,-8.000000
1295590.675156,-2.000000,3.000000,0.000000,0.000000,1.000000,3.000000,0.000000,6.000000
1295590.675183,-1.000000,-12.000000,-4.000000,-5.000000,-3.000000,-3.000000,0.000000,-4.000000
1295590.676032,-3.000000,2.000000,-1.000000,3.000000,0.000000,3.000000,-1.000000,0.000000
1295590.676058,5.000000,5.000000,4.000000,1.000000,-2.000000,-1.000000,0.000000,12.000000
1295590.689149,-22.000000,-6.000000,-3.000000,0.000000,-3.000000,2.000000,2.000000,-14.000000
1295590.689160,4.000000,1.000000,0.000000,1.000000,-1.000000,-2.000000,-3.000000,14.000000
1295590.704128,6.000000,6.000000,1.000000,3.000000,0.000000,-1.000000,6.000000,12.000000
1295590.704154,-4.000000,-2.000000,-2.000000,-1.000000,0.000000,-1.000000,-7.000000,-9.000000
1295590.718992,8.000000,-5.000000,-4.000000,-4.000000,0.000000,-1.000000,3.000000,16.000000
1295590.719002,-12.000000,3.000000,2.000000,3.000000,3.000000,-1.000000,3.000000,-13.000000
1295590.726848,13.000000,1.000000,0.000000,1.000000,-3.000000,-4.000000,-9.000000,13.000000
1295590.726861,0.000000,-10.000000,-2.000000,-10.000000,-5.000000,-6.000000,-7.000000,-3.000000
1295590.756861,0.000000,1.000000,-1.000000,3.000000,0.000000,0.000000,0.000000,-4.000000
1295590.756871,-2.000000,1.000000,1.000000,5.000000,0.000000,-1.000000,2.000000,-5.000000
1295590.757397,0.000000,-1.000000,7.000000,1.000000,1.000000,-3.000000,3.000000,4.000000
1295590.757406,-5.000000,-2.000000,-3.000000,-5.000000,-1.000000,-3.000000,-4.000000,9.000000
1295590.758762,1.000000,4.000000,2.000000,3.000000,1.000000,2.000000,1.000000,-15.000000
1295590.758778,-3.000000,-2.000000,0.000000,-2.000000,-4.000000,0.000000,-3.000000,-14.000000
1295590.759378,2.000000,-5.000000,-1.000000,-6.000000,-1.000000,-3.000000,-4.000000,1.000000
1295590.759387,-2.000000,3.000000,-4.000000,-1.000000,0.000000,-2.000000,0.000000,-4.000000
1295590.763896,-2.000000,3.000000,2.000000,1.000000,-1.000000,1.000000,3.000000,6.000000
1295590.763957,-6.000000,-10.000000,-2.000000,-4.000000,-2.000000,-4.000000,0.000000,6.000000
1295590.779067,5.000000,1.000000,0.000000,-2.000000,1.000000,-2.000000,-2.000000,-4.000000
1295590.779077,1.000000,2.000000,4.000000,3.000000,1.000000,2.000000,4.000000,5.000000
1295590.794436,14.000000,-3.000000,2.000000,-2.000000,0.000000,-5.000000,-1.000000,7.000000
1295590.794461,-17.000000,-2.000000,-1.000000,-5.000000,-2.000000,-1.000000,-7.000000,-24.000000
1295590.795166,5.000000,4.000000,0.000000,3.000000,-1.000000,3.000000,4.000000,6.000000
1295590.795186,1.000000,-3.000000,1.000000,1.000000,-2.000000,3.000000,0.000000,-4.000000
1295590.816832,-1.000000,-2.000000,-2.000000,-6.000000,-5.000000,-2.000000,2.000000,8.000000
1295590.816845,5.000000,4.000000,0.000000,0.000000,1.000000,4.000000,1.000000,12.000000
1295590.839179,0.000000,-1.000000,-2.000000,0.000000,-1.000000,-3.000000,0.000000,-9.000000
1295590.839240,3.000000,-6.000000,-2.000000,-5.000000,-2.000000,-4.000000,-1.000000,11.000000
1295590.854144,-6.000000,0.000000,-2.000000,-1.000000,-1.000000,1.000000,-4.000000,-36.000000
1295590.854181,2.000000,4.000000,2.000000,3.000000,-3.000000,0.000000,3.000000,9.000000
1295590.861633,0.000000,-2.000000,-3.000000,-3.000000,1.000000,0.000000,-2.000000,-3.000000
1295590.861651,4.000000,-4.000000,-5.000000,-1.000000,-1.000000,-4.000000,-3.000000,0.000000
1295590.876352,1.000000,5.000000,0.000000,4.000000,-1.000000,3.000000,-1.000000,4.000000
1295590.876360,-3.000000,-1.000000,-5.000000,-3.000000,-1.000000,-3.000000,0.000000,-5.000000
1295590.884152,-3.000000,-7.000000,0.000000,-5.000000,-3.000000,0.000000,-2.000000,8.000000
1295590.884163,-5.000000,2.000000,0.000000,5.000000,5.000000,5.000000,5.000000,5.000000
1295590.906547,-3.000000,0.000000,2.000000,4.000000,0.000000,-2.000000,-2.000000,-7.000000
1295590.906558,-2.000000,-5.000000,-5.000000,-4.000000,-3.000000,-4.000000,-4.000000,4.000000
1295590.913846,17.000000,4.000000,1.000000,4.000000,-5.000000,-1.000000,-3.000000,-4.000000
1295590.913878,1.000000,3.000000,1.000000,3.000000,1.000000,1.000000,2.000000,1.000000
1295590.915092,0.000000,-6.000000,-2.000000,-5.000000,0.000000,0.000000,-2.000000,20.000000
1295590.915101,7.000000,-4.000000,-4.000000,-1.000000,-2.000000,-3.000000,-2.000000,-3.000000
1295590.915685,6.000000,6.000000,1.000000,4.000000,3.000000,0.000000,1.000000,1.000000
1295590.915693,5.000000,-1.000000,-1.000000,-3.000000,-3.000000,0.000000,1.000000,9.000000
1295590.916899,0.000000,-6.000000,-3.000000,-3.000000,-4.000000,-5.000000,-1.000000,1.000000
1295590.916908,3.000000,5.000000,3.000000,4.000000,-1.000000,2.000000,3.000000,13.000000
1295590.917765,-1.000000,-2.000000,-3.000000,-2.000000,-1.000000,2.000000,-3.000000,-2.000000
1295590.917774,-1.000000,-8.000000,-3.000000,-6.000000,0.000000,-1.000000,-2.000000,-4.000000
1295590.951550,-4.000000,-2.000000,0.000000,1.000000,0.000000,0.000000,0.000000,4.000000
1295590.951580,7.000000,7.000000,1.000000,3.000000,0.000000,0.000000,1.000000,10.000000
1295590.959058,-1.000000,-6.000000,-6.000000,-4.000000,-3.000000,-1.000000,-4.000000,-1.000000
1295590.959088,-3.000000,-1.000000,-1.000000,-2.000000,0.000000,-3.000000,-5.000000,-5.000000
1295590.981942,7.000000,5.000000,1.000000,5.000000,0.000000,0.000000,3.000000,-2.000000
1295590.981952,-29.000000,-9.000000,-3.000000,-1.000000,-2.000000,-3.000000,-4.000000,-24.000000
1295590.989301,2.000000,-5.000000,0.000000,-3.000000,-2.000000,-3.000000,-1.000000,-1.000000
1295590.989311,-1.000000,9.000000,5.000000,4.000000,1.000000,2.000000,0.000000,1.000000
1295591.003976,1.000000,1.000000,-3.000000,-2.000000,0.000000,-1.000000,2.000000,4.000000
1295591.003987,-5.000000,-7.000000,-3.000000,-3.000000,-1.000000,-2.000000,-4.000000,6.000000
1295591.034000,-6.000000,1.000000,-5.000000,2.000000,-1.000000,0.000000,-2.000000,-4.000000
1295591.034065,0.000000,5.000000,2.000000,8.000000,1.000000,0.000000,2.000000,5.000000
1295591.041921,-1.000000,-11.000000,-6.000000,-9.000000,-7.000000,-2.000000,-4.000000,3.000000
1295591.041949,2.000000,0.000000,-1.000000,-2.000000,2.000000,-3.000000,-2.000000,4.000000
1295591.042556,7.000000,9.000000,0.000000,3.000000,-1.000000,0.000000,3.000000,8.000000
1295591.042583,-25.000000,-8.000000,-2.000000,-5.000000,-4.000000,-1.000000,-9.000000,-43.000000
1295591.043242,1.000000,-7.000000,-4.000000,-4.000000,-3.000000,-3.000000,-6.000000,-8.000000
1295591.043249,5.000000,6.000000,1.000000,4.000000,2.000000,-1.000000,1.000000,-2.000000
1295591.056687,2.000000,2.000000,-2.000000,-3.000000,-3.000000,-5.000000,1.000000,1.000000
1295591.056699,-4.000000,-11.000000,-1.000000,-11.000000,-3.000000,-3.000000,-1.000000,-4.000000
1295591.078657,5.000000,9.000000,-1.000000,2.000000,0.000000,-1.000000,1.000000,16.000000
1295591.078675,1.000000,-1.000000,-4.000000,-3.000000,-1.000000,0.000000,-1.000000,-1.000000
1295591.079266,-2.000000,-6.000000,0.000000,-7.000000,-1.000000,-1.000000,-4.000000,-8.000000
1295591.079274,-4.000000,6.000000,0.000000,2.000000,1.000000,1.000000,-1.000000,-7.000000
1295591.080647,3.000000,-1.000000,3.000000,4.000000,-1.000000,-1.000000,2.000000,8.000000
1295591.080668,-2.000000,-7.000000,-6.000000,-9.000000,-3.000000,-4.000000,-7.000000,-8.000000
1295591.081128,-3.000000,2.000000,1.000000,4.000000,1.000000,-1.000000,2.000000,12.000000
1295591.081136,-5.000000,3.000000,5.000000,7.000000,3.000000,4.000000,0.000000,-5.000000
1295591.109144,-4.000000,-5.000000,-3.000000,-5.000000,-6.000000,-3.000000,-1.000000,-1.000000
1295591.109155,26.000000,1.000000,-1.000000,-2.000000,-3.000000,-2.000000,-5.000000,-10.000000
1295591.116913,-2.000000,10.000000,3.000000,2.000000,4.000000,3.000000,-1.000000,-13.000000
1295591.116941,-3.000000,-4.000000,0.000000,0.000000,-1.000000,-5.000000,-7.000000,10.000000
1295591.131252,-6.000000,-4.000000,-5.000000,-4.000000,-3.000000,-3.000000,-5.000000,-9.000000
1295591.131272,-2.000000,4.000000,3.000000,8.000000,3.000000,4.000000,5.000000,-3.000000
1295591.138837,-35.000000,0.000000,-1.000000,0.000000,-2.000000,-2.000000,-4.000000,-19.000000
1295591.138848,2.000000,-6.000000,-1.000000,-5.000000,-1.000000,-5.000000,2.000000,5.000000
1295591.147153,3.000000,-1.000000,-2.000000,0.000000,-3.000000,-4.000000,-3.000000,-5.000000
1295591.147165,-7.000000,3.000000,0.000000,0.000000,-1.000000,-2.000000,-1.000000,-7.000000
1295591.147744,2.000000,-4.000000,-2.000000,-3.000000,-1.000000,-1.000000,1.000000,3.000000
1295591.147754,2.000000,1.000000,-1.000000,-2.000000,2.000000,-2.000000,0.000000,-14.000000
1295591.149341,6.000000,6.000000,0.000000,4.000000,-3.000000,-3.000000,1.000000,28.000000
1295591.149354,-3.000000,-1.000000,-1.000000,-3.000000,-3.000000,-3.000000,-6.000000,-29.000000
1295591.154235,2.000000,-4.000000,-1.000000,-4.000000,-2.000000,-3.000000,0.000000,-2.000000
1295591.154248,5.000000,5.000000,-1.000000,4.000000,2.000000,0.000000,0.000000,-3.000000
1295591.168869,-2.000000,-3.000000,-2.000000,-2.000000,-2.000000,0.000000,-3.000000,-11.000000
1295591.168879,3.000000,-3.000000,-5.000000,-4.000000,-3.000000,-5.000000,4.000000,7.000000
1295591.176317,-3.000000,0.000000,-2.000000,1.000000,-1.000000,-1.000000,3.000000,9.000000
1295591.176327,-5.000000,4.000000,1.000000,4.000000,0.000000,0.000000,-3.000000,-8.000000
1295591.199188,3.000000,-5.000000,-6.000000,-8.000000,-3.000000,-2.000000,-1.000000,6.000000
1295591.199198,0.000000,1.000000,-2.000000,-1.000000,-2.000000,-1.000000,5.000000,12.000000
1295591.221358,4.000000,1.000000,-4.000000,4.000000,-1.000000,3.000000,-6.000000,-3.000000
1295591.221369,2.000000,-1.000000,0.000000,-6.000000,-5.000000,-2.000000,-1.000000,4.000000
1295591.236795,1.000000,-5.000000,-2.000000,-4.000000,-4.000000,-2.000000,-1.000000,4.000000
1295591.236823,-5.000000,5.000000,1.000000,4.000000,3.000000,2.000000,4.000000,0.000000
1295591.244234,-6.000000,3.000000,0.000000,-1.000000,-4.000000,-3.000000,-3.000000,1.000000
1295591.244263,1.000000,-10.000000,-2.000000,-4.000000,0.000000,-3.000000,1.000000,8.000000
1295591.266422,-5.000000,2.000000,4.000000,1.000000,1.000000,1.000000,-2.000000,-23.000000
1295591.266432,-3.000000,1.000000,-1.000000,3.000000,2.000000,2.000000,1.000000,-4.000000
1295591.273892,-2.000000,-9.000000,-3.000000,-6.000000,-4.000000,0.000000,-2.000000,-4.000000
1295591.273902,-1.000000,-2.000000,-2.000000,3.000000,2.000000,0.000000,0.000000,6.000000
1295591.297258,-4.000000,7.000000,-1.000000,1.000000,0.000000,4.000000,-2.000000,-20.000000
1295591.297289,0.000000,-4.000000,0.000000,1.000000,1.000000,-1.000000,-1.000000,0.000000
1295591.311230,-8.000000,-2.000000,0.000000,0.000000,0.000000,1.000000,-3.000000,-5.000000
1295591.311241,1.000000,6.000000,2.000000,2.000000,-3.000000,1.000000,3.000000,1.000000
1295591.312342,2.000000,-2.000000,0.000000,0.000000,2.000000,3.000000,-1.000000,-3.000000
1295591.312351,0.000000,-3.000000,-4.000000,0.000000,-3.000000,-5.000000,4.000000,-4.000000
1295591.313727,-3.000000,-6.000000,-3.000000,-3.000000,-4.000000,-8.000000,-8.000000,21.000000
1295591.313755,2.000000,2.000000,1.000000,-2.000000,-1.000000,-1.000000,-1.000000,-3.000000
1295591.314618,0.000000,-3.000000,0.000000,3.000000,2.000000,-1.000000,-1.000000,2.000000
1295591.314630,0.000000,-4.000000,-5.000000,0.000000,2.000000,-1.000000,-2.000000,2.000000
1295591.318773,-4.000000,-3.000000,-3.000000,0.000000,-1.000000,-1.000000,-2.000000,-4.000000
1295591.318782,-2.000000,-8.000000,-4.000000,-4.000000,-4.000000,0.000000,-3.000000,2.000000
1295591.334112,-2.000000,1.000000,-3.000000,-1.000000,-3.000000,-2.000000,-3.000000,-16.000000
1295591.334122,-3.000000,3.000000,-4.000000,0.000000,-1.000000,-1.000000,0.000000,-8.000000
1295591.349184,-2.000000,-11.000000,-4.000000,-7.000000,0.000000,-2.000000,-2.000000,10.000000
1295591.349195,2.000000,4.000000,0.000000,-3.000000,-2.000000,-1.000000,2.000000,-5.000000
1295591.350219,3.000000,6.000000,-1.000000,5.000000,-1.000000,2.000000,0.000000,-3.000000
1295591.350227,-3.000000,-9.000000,-7.000000,-3.000000,-5.000000,-1.000000,-4.000000,-2.000000
1295591.356701,0.000000,1.000000,-1.000000,-6.000000,-2.000000,-2.000000,-2.000000,9.000000
1295591.356712,3.000000,6.000000,7.000000,7.000000,1.000000,0.000000,-2.000000,-7.000000
1295591.371408,-33.000000,-8.000000,-7.000000,-3.000000,-3.000000,0.000000,0.000000,-6.000000
1295591.371418,-6.000000,-7.000000,0.000000,-8.000000,-3.000000,-5.000000,3.000000,2.000000
1295591.386898,2.000000,7.000000,1.000000,2.000000,1.000000,1.000000,1.000000,1.000000
1295591.386927,9.000000,0.000000,-2.000000,-1.000000,-1.000000,-3.000000,4.000000,5.000000
1295591.394871,-27.000000,-8.000000,-5.000000,-2.000000,-1.000000,-2.000000,-8.000000,-20.000000
1295591.394898,13.000000,0.000000,-3.000000,-6.000000,-3.000000,-5.000000,-3.000000,2.000000
1295591.401820,23.000000,7.000000,0.000000,5.000000,-3.000000,-1.000000,-1.000000,2.000000
1295591.401831,-5.000000,-7.000000,0.000000,-5.000000,-2.000000,0.000000,0.000000,11.000000
1295591.423862,-5.000000,-2.000000,0.000000,-1.000000,-1.000000,1.000000,-4.000000,-21.000000
1295591.423872,-6.000000,5.000000,0.000000,-2.000000,-2.000000,2.000000,-2.000000,-4.000000
1295591.431460,-3.000000,-4.000000,-3.000000,-2.000000,-2.000000,-2.000000,-1.000000,2.000000
1295591.431469,-4.000000,-7.000000,-1.000000,-5.000000,-2.000000,-3.000000,-2.000000,-5.000000
1295591.454115,1.000000,7.000000,1.000000,2.000000,-2.000000,5.000000,-3.000000,14.000000
1295591.454144,-3.000000,0.000000,-1.000000,-4.000000,-1.000000,-1.000000,-3.000000,-21.000000
1295591.469853,1.000000,-7.000000,-5.000000,-8.000000,-4.000000,-4.000000,0.000000,0.000000
1295591.469886,1.000000,0.000000,2.000000,0.000000,0.000000,-1.000000,0.000000,-5.000000
1295591.492859,6.000000,5.000000,0.000000,6.000000,2.000000,4.000000,1.000000,23.000000
1295591.492892,2.000000,-4.000000,-3.000000,-4.000000,-2.000000,-1.000000,6.000000,14.000000
1295591.508331,5.000000,1.000000,-2.000000,-8.000000,-2.000000,-3.000000,-6.000000,-7.000000
1295591.508369,4.000000,2.000000,0.000000,3.000000,-3.000000,-1.000000,-2.000000,-15.000000
1295591.517228,13.000000,9.000000,3.000000,4.000000,1.000000,0.000000,1.000000,0.000000
1295591.517770,-6.000000,1.000000,1.000000,-1.000000,-1.000000,-2.000000,0.000000,1.000000
1295591.518590,1.000000,1.000000,-2.000000,1.000000,-1.000000,-1.000000,-2.000000,2.000000
1295591.518677,-3.000000,-6.000000,-1.000000,-3.000000,0.000000,0.000000,-5.000000,-2.000000
1295591.519325,3.000000,-9.000000,-1.000000,-4.000000,-3.000000,-3.000000,-1.000000,5.000000
1295591.519355,-3.000000,2.000000,-1.000000,2.000000,2.000000,-1.000000,-4.000000,0.000000
1295591.519839,-3.000000,5.000000,0.000000,1.000000,0.000000,2.000000,1.000000,-5.000000
1295591.519872,8.000000,-6.000000,1.000000,-2.000000,-3.000000,-2.000000,5.000000,16.000000
1295591.522404,-1.000000,-4.000000,0.000000,0.000000,-3.000000,-3.000000,0.000000,8.000000
1295591.522443,-2.000000,-1.000000,-1.000000,-5.000000,-2.000000,-3.000000,0.000000,7.000000
1295591.544240,1.000000,1.000000,3.000000,2.000000,2.000000,3.000000,1.000000,14.000000
1295591.544261,9.000000,-2.000000,-2.000000,-4.000000,-1.000000,0.000000,-1.000000,3.000000
1295591.551957,-13.000000,-9.000000,-6.000000,-7.000000,-1.000000,-2.000000,-3.000000,-10.000000
1295591.551977,-1.000000,1.000000,0.000000,0.000000,1.000000,-1.000000,-4.000000,-7.000000
1295591.582019,6.000000,6.000000,-1.000000,1.000000,3.000000,2.000000,1.000000,1.000000
1295591.582066,-8.000000,-10.000000,-5.000000,-4.000000,-3.000000,2.000000,-1.000000,-5.000000
1295591.588762,-1.000000,3.000000,0.000000,-2.000000,1.000000,-3.000000,-1.000000,16.000000
1295591.588772,-7.000000,6.000000,-2.000000,3.000000,2.000000,-1.000000,1.000000,6.000000
1295591.589833,5.000000,-1.000000,-1.000000,1.000000,-2.000000,-1.000000,-2.000000,1.000000
1295591.589843,-16.000000,-6.000000,-1.000000,-5.000000,0.000000,-3.000000,-4.000000,-4.000000
1295591.590624,12.000000,2.000000,4.000000,7.000000,2.000000,2.000000,2.000000,-2.000000
1295591.590634,11.000000,-1.000000,-1.000000,2.000000,-3.000000,0.000000,0.000000,6.000000
1295591.592391,-12.000000,-10.000000,-1.000000,-3.000000,-1.000000,-2.000000,-8.000000,-24.000000
1295591.592400,8.000000,6.000000,1.000000,1.000000,-1.000000,0.000000,3.000000,23.000000
1295591.596169,-1.000000,2.000000,0.000000,3.000000,4.000000,4.000000,10.000000,-6.000000
1295591.596186,0.000000,-11.000000,-4.000000,-4.000000,-4.000000,-5.000000,-16.000000,8.000000
1295591.626599,-2.000000,-2.000000,0.000000,0.000000,-3.000000,-2.000000,-1.000000,-4.000000
1295591.626609,1.000000,10.000000,1.000000,3.000000,4.000000,0.000000,3.000000,-3.000000
1295591.634280,1.000000,-5.000000,-4.000000,-4.000000,-1.000000,-2.000000,1.000000,-4.000000
1295591.634290,-4.000000,-2.000000,0.000000,-6.000000,-2.000000,-2.000000,-2.000000,2.000000
1295591.635113,0.000000,9.000000,-1.000000,4.000000,1.000000,1.000000,2.000000,-17.000000
1295591.635121,5.000000,0.000000,-3.000000,-2.000000,-3.000000,0.000000,-3.000000,-14.000000
1295591.665125,1.000000,-9.000000,-6.000000,-5.000000,-1.000000,-4.000000,-3.000000,-5.000000
1295591.665159,-1.000000,2.000000,1.000000,2.000000,1.000000,0.000000,-1.000000,0.000000
1295591.672781,2.000000,5.000000,0.000000,1.000000,0.000000,1.000000,2.000000,4.000000
1295591.672825,-2.000000,-6.000000,-2.000000,-8.000000,-2.000000,-1.000000,-4.000000,2.000000
1295591.702597,-3.000000,2.000000,-3.000000,-1.000000,1.000000,-1.000000,-4.000000,-1.000000
1295591.702628,2.000000,8.000000,1.000000,3.000000,-1.000000,0.000000,1.000000,-3.000000
1295591.709919,18.000000,-7.000000,-6.000000,1.000000,-1.000000,0.000000,4.000000,8.000000
1295591.709941,8.000000,-4.000000,-2.000000,-4.000000,5.000000,0.000000,0.000000,7.000000
1295591.746581,-5.000000,2.000000,-2.000000,-1.000000,1.000000,-2.000000,-3.000000,-18.000000
1295591.746595,8.000000,2.000000,-1.000000,-1.000000,-3.000000,-2.000000,1.000000,6.000000
1295591.747156,1.000000,-6.000000,0.000000,-1.000000,-1.000000,-3.000000,-5.000000,-22.000000
1295591.747170,-2.000000,-1.000000,0.000000,0.000000,-1.000000,2.000000,2.000000,-3.000000
1295591.748485,0.000000,-4.000000,-4.000000,0.000000,1.000000,-1.000000,-7.000000,11.000000
1295591.748546,0.000000,-8.000000,-2.000000,-7.000000,-4.000000,-1.000000,-2.000000,0.000000
1295591.749491,-2.000000,-3.000000,-1.000000,0.000000,0.000000,0.000000,-2.000000,-3.000000
1295591.749503,-4.000000,-4.000000,-8.000000,-8.000000,0.000000,0.000000,2.000000,1.000000
1295591.750537,-5.000000,2.000000,3.000000,6.000000,0.000000,2.000000,1.000000,-4.000000
1295591.750551,-1.000000,3.000000,2.000000,3.000000,-3.000000,0.000000,-3.000000,1.000000
1295591.783846,4.000000,2.000000,4.000000,1.000000,-1.000000,2.000000,1.000000,9.000000
1295591.783858,0.000000,5.000000,-1.000000,6.000000,0.000000,2.000000,1.000000,-4.000000
1295591.791371,5.000000,1.000000,-6.000000,-5.000000,-2.000000,-3.000000,-1.000000,5.000000
1295591.791381,5.000000,-1.000000,0.000000,0.000000,-3.000000,1.000000,-1.000000,9.000000
1295591.814270,-5.000000,3.000000,4.000000,1.000000,0.000000,0.000000,1.000000,5.000000
1295591.814302,-5.000000,-7.000000,-6.000000,-3.000000,-3.000000,-3.000000,1.000000,-4.000000
1295591.821639,-5.000000,-4.000000,4.000000,-8.000000,-2.000000,-4.000000,-4.000000,1.000000
1295591.821649,-1.000000,8.000000,2.000000,6.000000,3.000000,0.000000,6.000000,9.000000
1295591.836634,-7.000000,-7.000000,-3.000000,3.000000,-1.000000,2.000000,-2.000000,7.000000
1295591.836645,-7.000000,-7.000000,0.000000,-7.000000,-4.000000,-3.000000,0.000000,0.000000
1295591.844136,-4.000000,-3.000000,0.000000,-3.000000,-4.000000,-3.000000,-2.000000,-24.000000
1295591.844165,-2.000000,1.000000,-5.000000,1.000000,0.000000,-2.000000,1.000000,12.000000
1295591.874141,-7.000000,-2.000000,5.000000,4.000000,-4.000000,1.000000,-1.000000,-20.000000
1295591.874171,-35.000000,-8.000000,-3.000000,-2.000000,0.000000,-4.000000,-5.000000,-14.000000
1295591.903868,1.000000,3.000000,5.000000,4.000000,3.000000,3.000000,-1.000000,0.000000
1295591.903883,0.000000,2.000000,-3.000000,-4.000000,-4.000000,-1.000000,1.000000,-2.000000
1295591.904959,-31.000000,-5.000000,-2.000000,-2.000000,-1.000000,-2.000000,-1.000000,-22.000000
1295591.904969,-12.000000,-3.000000,1.000000,-4.000000,-1.000000,-3.000000,3.000000,6.000000
1295591.906357,-2.000000,-2.000000,-4.000000,0.000000,-1.000000,1.000000,-3.000000,-9.000000
1295591.906377,3.000000,5.000000,-2.000000,3.000000,-1.000000,1.000000,7.000000,22.000000
1295591.906858,-5.000000,-1.000000,1.000000,0.000000,0.000000,-5.000000,-10.000000,-5.000000
1295591.906866,4.000000,-1.000000,1.000000,-2.000000,-1.000000,-1.000000,-5.000000,-9.000000
1295591.907724,-2.000000,-8.000000,-4.000000,-2.000000,-3.000000,-5.000000,-3.000000,7.000000
1295591.907743,3.000000,4.000000,4.000000,1.000000,3.000000,2.000000,1.000000,0.000000
1295591.911317,0.000000,1.000000,2.000000,0.000000,1.000000,-1.000000,-1.000000,6.000000
1295591.911344,4.000000,3.000000,1.000000,2.000000,-2.000000,-1.000000,1.000000,1.000000
1295591.927237,-4.000000,-7.000000,-1.000000,-4.000000,-3.000000,0.000000,0.000000,-4.000000
1295591.927245,-3.000000,1.000000,-1.000000,-6.000000,0.000000,-6.000000,1.000000,-1.000000
1295591.941907,-1.000000,6.000000,0.000000,4.000000,1.000000,2.000000,-1.000000,-4.000000
1295591.941997,5.000000,-4.000000,-2.000000,2.000000,-3.000000,-2.000000,5.000000,21.000000
1295591.942947,-26.000000,-8.000000,-1.000000,-4.000000,-2.000000,-2.000000,-8.000000,-30.000000
1295591.942974,6.000000,5.000000,1.000000,-3.000000,-1.000000,-1.000000,3.000000,12.000000
1295591.948890,1.000000,1.000000,-4.000000,0.000000,0.000000,-2.000000,3.000000,-6.000000
1295591.948900,-11.000000,-8.000000,-5.000000,-8.000000,-6.000000,-5.000000,-6.000000,4.000000
1295591.957020,14.000000,1.000000,1.000000,4.000000,2.000000,0.000000,4.000000,7.000000
1295591.957031,6.000000,5.000000,2.000000,-1.000000,3.000000,1.000000,-2.000000,-10.000000
1295591.979513,-30.000000,-10.000000,-5.000000,-5.000000,-2.000000,-3.000000,-2.000000,-14.000000
1295591.979541,-4.000000,-2.000000,0.000000,-3.000000,0.000000,1.000000,1.000000,-1.000000
1295591.980507,7.000000,4.000000,6.000000,4.000000,0.000000,0.000000,3.000000,0.000000
1295591.980538,-1.000000,2.000000,-3.000000,1.000000,0.000000,0.000000,-2.000000,-3.000000
1295591.986602,-4.000000,-6.000000,-3.000000,-4.000000,-5.000000,-1.000000,-3.000000,6.000000
1295591.986632,2.000000,-1.000000,2.000000,1.000000,3.000000,0.000000,-5.000000,-19.000000
1295592.024129,2.000000,-3.000000,-2.000000,3.000000,1.000000,-2.000000,0.000000,5.000000
1295592.024140,0.000000,-5.000000,0.000000,-7.000000,-5.000000,-4.000000,-2.000000,16.000000
