# participant_id: P2
# gesture: baseline
# trial_number: 1
# stream_name: Myo_EMG
# stream_type: emg
# timestamp: 20260420_131038
# samples: 5642
# duration_sec: 32.363
# nominal_sample_rate: 200.0
# effective_sample_rate: 174.30
#
timestamp,emg_1,emg_2,emg_3,emg_4,emg_5,emg_6,emg_7,emg_8
1295328.721256,5.000000,17.000000,3.000000,17.000000,14.000000,19.000000,12.000000,-13.000000
1295328.721266,1.000000,-11.000000,-8.000000,-8.000000,-5.000000,-11.000000,2.000000,1.000000
1295328.728796,-1.000000,-7.000000,0.000000,-12.000000,-11.000000,-19.000000,-13.000000,4.000000
1295328.728807,-8.000000,-1.000000,-6.000000,6.000000,8.000000,9.000000,1.000000,-8.000000
1295328.743989,-2.000000,-4.000000,7.000000,-9.000000,-1.000000,4.000000,4.000000,-5.000000
1295328.743999,2.000000,-17.000000,-5.000000,-17.000000,-12.000000,-27.000000,-15.000000,11.000000
1295328.744606,1.000000,6.000000,3.000000,3.000000,2.000000,4.000000,0.000000,5.000000
1295328.744617,4.000000,0.000000,-15.000000,5.000000,4.000000,14.000000,15.000000,-9.000000
1295328.746267,-5.000000,-8.000000,-7.000000,-14.000000,-10.000000,-11.000000,-7.000000,-8.000000
1295328.746275,-3.000000,5.000000,2.000000,7.000000,1.000000,-3.000000,1.000000,14.000000
1295328.751036,-6.000000,18.000000,6.000000,8.000000,18.000000,23.000000,15.000000,-5.000000
1295328.751045,6.000000,-6.000000,3.000000,0.000000,-3.000000,-3.000000,1.000000,4.000000
1295328.766486,-3.000000,-6.000000,9.000000,-6.000000,-11.000000,-19.000000,-17.000000,-1.000000
1295328.766515,4.000000,6.000000,-12.000000,7.000000,5.000000,6.000000,-1.000000,-12.000000
1295328.796197,3.000000,-6.000000,-23.000000,-12.000000,2.000000,1.000000,7.000000,4.000000
1295328.796209,4.000000,-15.000000,18.000000,-12.000000,-14.000000,-25.000000,-12.000000,11.000000
1295328.803862,-1.000000,10.000000,-12.000000,6.000000,2.000000,2.000000,1.000000,-9.000000
1295328.803871,2.000000,9.000000,4.000000,8.000000,10.000000,12.000000,10.000000,-9.000000
1295328.804578,-19.000000,-15.000000,-1.000000,-13.000000,-8.000000,-14.000000,-12.000000,-12.000000
1295328.804586,0.000000,0.000000,-3.000000,12.000000,0.000000,-1.000000,-6.000000,1.000000
1295328.806001,-3.000000,13.000000,2.000000,11.000000,8.000000,20.000000,14.000000,-14.000000
1295328.806010,1.000000,-11.000000,-7.000000,-8.000000,-11.000000,-5.000000,-1.000000,-1.000000
1295328.811145,-4.000000,0.000000,9.000000,-3.000000,-6.000000,-17.000000,-11.000000,1.000000
1295328.811154,-7.000000,8.000000,9.000000,17.000000,10.000000,8.000000,2.000000,-8.000000
1295328.840847,1.000000,-7.000000,-3.000000,-6.000000,-4.000000,3.000000,1.000000,0.000000
1295328.840857,4.000000,-14.000000,-13.000000,-27.000000,-16.000000,-22.000000,-16.000000,7.000000
1295328.856183,-5.000000,5.000000,17.000000,8.000000,2.000000,5.000000,3.000000,-5.000000
1295328.856211,4.000000,3.000000,3.000000,2.000000,3.000000,16.000000,11.000000,-7.000000
1295328.886023,0.000000,-2.000000,2.000000,-6.000000,-7.000000,-7.000000,-4.000000,1.000000
1295328.886043,-3.000000,-1.000000,-15.000000,4.000000,3.000000,-5.000000,-8.000000,0.000000
1295328.901428,-5.000000,13.000000,1.000000,13.000000,13.000000,18.000000,13.000000,-12.000000
1295328.901457,1.000000,-8.000000,-23.000000,-14.000000,-2.000000,-3.000000,-6.000000,3.000000
1295328.916267,-1.000000,-5.000000,-2.000000,-6.000000,-3.000000,-17.000000,-15.000000,7.000000
1295328.916278,4.000000,13.000000,21.000000,21.000000,8.000000,14.000000,5.000000,-7.000000
1295328.923530,0.000000,-8.000000,-24.000000,-19.000000,-4.000000,-3.000000,1.000000,-4.000000
1295328.923572,-7.000000,-10.000000,-17.000000,-17.000000,-16.000000,-17.000000,-18.000000,8.000000
1295328.925433,-1.000000,-7.000000,-10.000000,-7.000000,-11.000000,-12.000000,-9.000000,13.000000
1295328.925442,-5.000000,11.000000,7.000000,10.000000,11.000000,9.000000,3.000000,-5.000000
1295328.946030,1.000000,6.000000,2.000000,10.000000,6.000000,6.000000,7.000000,0.000000
1295328.946060,4.000000,-2.000000,1.000000,-7.000000,3.000000,11.000000,8.000000,1.000000
1295328.961134,-4.000000,-20.000000,-9.000000,-20.000000,-10.000000,-19.000000,-11.000000,2.000000
1295328.961146,-4.000000,8.000000,12.000000,5.000000,0.000000,0.000000,-3.000000,-6.000000
1295328.983745,0.000000,14.000000,-5.000000,19.000000,10.000000,23.000000,15.000000,-11.000000
1295328.983769,-1.000000,-7.000000,2.000000,-10.000000,-7.000000,-7.000000,-6.000000,-5.000000
1295328.998760,1.000000,1.000000,-5.000000,-1.000000,-1.000000,-11.000000,-12.000000,8.000000
1295328.998783,-1.000000,21.000000,15.000000,11.000000,12.000000,11.000000,6.000000,-5.000000
1295329.006027,3.000000,-9.000000,-19.000000,-4.000000,-3.000000,-4.000000,2.000000,-2.000000
1295329.006036,-1.000000,-10.000000,-3.000000,-11.000000,-9.000000,-19.000000,-12.000000,16.000000
1295329.021765,4.000000,2.000000,0.000000,4.000000,2.000000,8.000000,1.000000,-5.000000
1295329.021775,-5.000000,6.000000,-3.000000,0.000000,7.000000,15.000000,11.000000,-9.000000
1295329.022139,-1.000000,-15.000000,-8.000000,-20.000000,-8.000000,-15.000000,-8.000000,12.000000
1295329.022166,-2.000000,6.000000,9.000000,7.000000,3.000000,-2.000000,-3.000000,-14.000000
1295329.023726,-5.000000,-1.000000,12.000000,-1.000000,-5.000000,-12.000000,-12.000000,5.000000
1295329.023745,3.000000,10.000000,2.000000,12.000000,10.000000,17.000000,10.000000,-2.000000
1295329.025103,0.000000,-7.000000,-3.000000,-5.000000,-6.000000,-5.000000,-1.000000,-8.000000
1295329.025120,-1.000000,-13.000000,-1.000000,-15.000000,-10.000000,-22.000000,-18.000000,5.000000
1295329.029147,2.000000,5.000000,-7.000000,1.000000,8.000000,4.000000,2.000000,-3.000000
1295329.029185,-4.000000,5.000000,11.000000,4.000000,5.000000,10.000000,10.000000,-8.000000
1295329.036892,6.000000,-19.000000,-6.000000,-23.000000,-17.000000,-17.000000,-12.000000,12.000000
1295329.036921,-15.000000,-1.000000,-11.000000,3.000000,2.000000,3.000000,-7.000000,-15.000000
1295329.058598,1.000000,5.000000,6.000000,12.000000,7.000000,15.000000,10.000000,-11.000000
1295329.058608,-3.000000,-3.000000,-18.000000,-7.000000,-9.000000,-9.000000,-1.000000,2.000000
1295329.081111,-1.000000,-1.000000,7.000000,3.000000,-4.000000,-11.000000,-11.000000,-1.000000
1295329.081122,-3.000000,11.000000,3.000000,16.000000,9.000000,15.000000,9.000000,-7.000000
1295329.111207,1.000000,-9.000000,2.000000,-6.000000,-4.000000,0.000000,0.000000,-4.000000
1295329.111219,-4.000000,-8.000000,-13.000000,-9.000000,-7.000000,-20.000000,-15.000000,10.000000
1295329.126234,11.000000,4.000000,6.000000,9.000000,9.000000,7.000000,3.000000,-3.000000
1295329.126245,0.000000,-4.000000,-16.000000,-3.000000,0.000000,10.000000,9.000000,-3.000000
1295329.148694,0.000000,-20.000000,-5.000000,-18.000000,-17.000000,-25.000000,-11.000000,4.000000
1295329.148706,-4.000000,1.000000,-13.000000,2.000000,6.000000,3.000000,-7.000000,-6.000000
1295329.149667,-2.000000,11.000000,-5.000000,13.000000,9.000000,23.000000,12.000000,-10.000000
1295329.149677,-6.000000,-10.000000,3.000000,-6.000000,-2.000000,-3.000000,-6.000000,-3.000000
1295329.150230,-1.000000,1.000000,5.000000,1.000000,-4.000000,-8.000000,-13.000000,-4.000000
1295329.150238,-3.000000,10.000000,3.000000,17.000000,10.000000,19.000000,12.000000,-2.000000
1295329.150880,1.000000,3.000000,-2.000000,8.000000,4.000000,6.000000,-1.000000,-3.000000
1295329.150888,4.000000,-5.000000,2.000000,2.000000,0.000000,10.000000,7.000000,-4.000000
1295329.152412,-4.000000,-18.000000,-8.000000,-25.000000,-21.000000,-23.000000,-17.000000,-7.000000
1295329.152420,-3.000000,5.000000,15.000000,8.000000,4.000000,-1.000000,0.000000,3.000000
1295329.156623,-3.000000,-6.000000,-1.000000,-2.000000,-6.000000,-9.000000,-12.000000,0.000000
1295329.156631,-1.000000,21.000000,3.000000,16.000000,15.000000,20.000000,18.000000,3.000000
1295329.193827,-5.000000,-6.000000,-5.000000,-3.000000,-4.000000,-3.000000,-1.000000,-1.000000
1295329.193840,-2.000000,-12.000000,-18.000000,-19.000000,-17.000000,-22.000000,-16.000000,9.000000
1295329.209127,-1.000000,7.000000,6.000000,5.000000,3.000000,5.000000,0.000000,-7.000000
1295329.209140,-1.000000,-5.000000,5.000000,0.000000,0.000000,7.000000,7.000000,-5.000000
1295329.232293,-3.000000,-22.000000,15.000000,-23.000000,-13.000000,-26.000000,-15.000000,4.000000
1295329.232323,-4.000000,11.000000,-4.000000,8.000000,5.000000,7.000000,1.000000,3.000000
1295329.269567,-4.000000,7.000000,6.000000,9.000000,11.000000,17.000000,15.000000,-11.000000
1295329.269584,3.000000,-10.000000,-1.000000,-18.000000,-6.000000,-9.000000,-4.000000,3.000000
1295329.276434,-23.000000,-3.000000,12.000000,4.000000,-4.000000,-10.000000,-9.000000,-7.000000
1295329.276452,4.000000,19.000000,5.000000,29.000000,17.000000,24.000000,18.000000,-1.000000
1295329.298814,-6.000000,-7.000000,-9.000000,-12.000000,-5.000000,-5.000000,-4.000000,1.000000
1295329.298846,-1.000000,-12.000000,-13.000000,-11.000000,-12.000000,-20.000000,-19.000000,6.000000
1295329.299301,5.000000,7.000000,-6.000000,4.000000,4.000000,6.000000,0.000000,2.000000
1295329.299384,1.000000,2.000000,12.000000,-4.000000,-2.000000,9.000000,9.000000,0.000000
1295329.299804,-3.000000,7.000000,-3.000000,9.000000,9.000000,19.000000,14.000000,-8.000000
1295329.299816,-2.000000,-6.000000,11.000000,-3.000000,-6.000000,-10.000000,-4.000000,4.000000
1295329.300804,-3.000000,-21.000000,1.000000,-23.000000,-15.000000,-24.000000,-19.000000,8.000000
1295329.300831,-3.000000,7.000000,-4.000000,1.000000,1.000000,2.000000,-3.000000,-2.000000
1295329.302525,2.000000,5.000000,4.000000,9.000000,11.000000,17.000000,16.000000,-9.000000
1295329.302534,1.000000,-11.000000,3.000000,-5.000000,-1.000000,-9.000000,-8.000000,8.000000
1295329.305884,-4.000000,0.000000,2.000000,-2.000000,-2.000000,-11.000000,-8.000000,-2.000000
1295329.305893,2.000000,13.000000,2.000000,22.000000,14.000000,24.000000,15.000000,-4.000000
1295329.321055,-1.000000,-5.000000,-6.000000,-9.000000,-4.000000,-5.000000,-4.000000,-5.000000
1295329.321065,-2.000000,-7.000000,7.000000,-7.000000,-6.000000,-18.000000,-16.000000,11.000000
1295329.343781,-1.000000,8.000000,-3.000000,10.000000,6.000000,11.000000,6.000000,2.000000
1295329.343815,-4.000000,-6.000000,-28.000000,-2.000000,-4.000000,3.000000,5.000000,-10.000000
1295329.351627,3.000000,-23.000000,12.000000,-15.000000,-12.000000,-21.000000,-20.000000,12.000000
1295329.351691,2.000000,8.000000,3.000000,9.000000,6.000000,6.000000,0.000000,-2.000000
1295329.352428,4.000000,6.000000,-1.000000,8.000000,8.000000,18.000000,15.000000,-7.000000
1295329.352475,-2.000000,-5.000000,7.000000,-10.000000,-7.000000,-8.000000,-6.000000,11.000000
1295329.359408,-1.000000,1.000000,5.000000,10.000000,5.000000,-3.000000,-3.000000,-14.000000
1295329.359423,0.000000,13.000000,-1.000000,16.000000,13.000000,22.000000,15.000000,-14.000000
1295329.373713,0.000000,-9.000000,-8.000000,-8.000000,-10.000000,-9.000000,-5.000000,-3.000000
1295329.373723,3.000000,-6.000000,-2.000000,-9.000000,-9.000000,-19.000000,-14.000000,11.000000
1295329.396504,2.000000,10.000000,14.000000,11.000000,5.000000,7.000000,5.000000,-1.000000
1295329.396554,1.000000,-12.000000,-13.000000,-13.000000,-2.000000,-2.000000,2.000000,-3.000000
1295329.411146,-5.000000,-13.000000,-13.000000,-19.000000,-13.000000,-23.000000,-17.000000,-1.000000
1295329.411170,-1.000000,12.000000,26.000000,6.000000,2.000000,5.000000,0.000000,-1.000000
1295329.433792,0.000000,9.000000,19.000000,7.000000,6.000000,17.000000,17.000000,-14.000000
1295329.433803,-1.000000,-15.000000,-9.000000,-13.000000,-13.000000,-11.000000,-6.000000,1.000000
1295329.441164,-5.000000,8.000000,-4.000000,4.000000,6.000000,-3.000000,-6.000000,-1.000000
1295329.441182,-1.000000,15.000000,1.000000,15.000000,18.000000,27.000000,15.000000,-12.000000
1295329.463985,2.000000,-8.000000,-4.000000,-5.000000,-10.000000,-6.000000,-1.000000,0.000000
1295329.464020,1.000000,0.000000,15.000000,4.000000,-5.000000,-16.000000,-14.000000,3.000000
1295329.471381,-17.000000,-5.000000,-18.000000,0.000000,3.000000,8.000000,0.000000,-23.000000
1295329.471398,9.000000,-3.000000,4.000000,-1.000000,-3.000000,4.000000,4.000000,2.000000
1295329.509254,-5.000000,-15.000000,-5.000000,-15.000000,-11.000000,-22.000000,-15.000000,7.000000
1295329.509278,2.000000,-1.000000,-7.000000,0.000000,-1.000000,0.000000,-1.000000,-3.000000
1295329.509535,1.000000,2.000000,-9.000000,1.000000,5.000000,15.000000,12.000000,-5.000000
1295329.509550,1.000000,-12.000000,-9.000000,-22.000000,-11.000000,-10.000000,-6.000000,1.000000
1295329.516477,-5.000000,-5.000000,1.000000,-10.000000,-10.000000,-5.000000,-2.000000,0.000000
1295329.516493,-3.000000,-6.000000,6.000000,0.000000,-10.000000,-16.000000,-17.000000,5.000000
1295329.553508,-2.000000,-10.000000,-3.000000,-15.000000,-15.000000,-21.000000,-19.000000,7.000000
1295329.553524,2.000000,2.000000,-11.000000,6.000000,7.000000,8.000000,2.000000,1.000000
1295329.576848,9.000000,-7.000000,-2.000000,-5.000000,-6.000000,-8.000000,-5.000000,-2.000000
1295329.576875,3.000000,-1.000000,0.000000,-7.000000,-7.000000,-19.000000,-9.000000,-2.000000
1295329.577407,-1.000000,8.000000,-5.000000,9.000000,8.000000,12.000000,6.000000,-2.000000
1295329.577432,1.000000,-4.000000,-2.000000,1.000000,-3.000000,-2.000000,6.000000,-1.000000
1295329.584343,-1.000000,7.000000,5.000000,8.000000,3.000000,0.000000,4.000000,0.000000
1295329.584371,-1.000000,10.000000,-9.000000,7.000000,8.000000,22.000000,15.000000,-10.000000
1295329.584810,0.000000,-4.000000,-5.000000,-11.000000,-6.000000,-6.000000,0.000000,1.000000
1295329.584836,-2.000000,-4.000000,13.000000,-4.000000,-4.000000,-14.000000,-12.000000,-1.000000
1295329.591632,-1.000000,-13.000000,-17.000000,-16.000000,-14.000000,-19.000000,-13.000000,16.000000
1295329.591649,-1.000000,9.000000,21.000000,10.000000,7.000000,4.000000,0.000000,-5.000000
1295329.599906,0.000000,-1.000000,-6.000000,4.000000,3.000000,10.000000,5.000000,-9.000000
1295329.599927,-5.000000,-16.000000,-7.000000,-21.000000,-9.000000,-14.000000,-10.000000,9.000000
1295329.614364,0.000000,7.000000,5.000000,7.000000,-1.000000,0.000000,1.000000,1.000000
1295329.614535,-2.000000,5.000000,-14.000000,4.000000,12.000000,23.000000,16.000000,-12.000000
1295329.629303,-2.000000,-13.000000,-22.000000,-11.000000,-10.000000,-9.000000,-8.000000,1.000000
1295329.629317,-3.000000,0.000000,-1.000000,0.000000,-6.000000,-14.000000,-12.000000,3.000000
1295329.636185,-3.000000,15.000000,3.000000,20.000000,16.000000,14.000000,8.000000,-6.000000
1295329.636199,-2.000000,-11.000000,-11.000000,-13.000000,-7.000000,-3.000000,0.000000,3.000000
1295329.666218,-1.000000,-5.000000,28.000000,-12.000000,-10.000000,-17.000000,-17.000000,2.000000
1295329.666250,-4.000000,0.000000,-40.000000,2.000000,3.000000,5.000000,-4.000000,-1.000000
1295329.673509,6.000000,-5.000000,2.000000,2.000000,-1.000000,12.000000,13.000000,-5.000000
1295329.673519,1.000000,-15.000000,-7.000000,-21.000000,-15.000000,-19.000000,-13.000000,5.000000
1295329.703529,3.000000,9.000000,21.000000,7.000000,6.000000,2.000000,-2.000000,-1.000000
1295329.703540,1.000000,6.000000,-11.000000,11.000000,9.000000,20.000000,13.000000,-6.000000
1295329.703961,-2.000000,-7.000000,6.000000,-5.000000,-5.000000,-6.000000,-6.000000,-10.000000
1295329.703982,3.000000,0.000000,7.000000,1.000000,2.000000,-10.000000,-10.000000,8.000000
1295329.705302,1.000000,14.000000,5.000000,21.000000,10.000000,17.000000,10.000000,8.000000
1295329.705318,1.000000,-9.000000,-9.000000,-8.000000,-7.000000,-4.000000,2.000000,-1.000000
1295329.705840,1.000000,-15.000000,-9.000000,-4.000000,-9.000000,-15.000000,-17.000000,10.000000
1295329.705879,-1.000000,8.000000,15.000000,4.000000,5.000000,5.000000,8.000000,4.000000
1295329.707346,-3.000000,-6.000000,-15.000000,7.000000,5.000000,9.000000,8.000000,-1.000000
1295329.707361,-1.000000,-15.000000,3.000000,-21.000000,-13.000000,-19.000000,-11.000000,5.000000
1295329.710903,6.000000,4.000000,-5.000000,9.000000,4.000000,4.000000,-4.000000,1.000000
1295329.710925,-5.000000,12.000000,4.000000,11.000000,7.000000,18.000000,16.000000,-3.000000
1295329.719282,-3.000000,-2.000000,11.000000,-11.000000,0.000000,-7.000000,-4.000000,-1.000000
1295329.719291,-1.000000,4.000000,11.000000,9.000000,-1.000000,-10.000000,-9.000000,3.000000
1295329.741171,-1.000000,21.000000,8.000000,21.000000,11.000000,20.000000,10.000000,-8.000000
1295329.741219,4.000000,-1.000000,-2.000000,-9.000000,-5.000000,-5.000000,2.000000,5.000000
1295329.742432,-2.000000,-12.000000,11.000000,-7.000000,-9.000000,-25.000000,-16.000000,5.000000
1295329.742442,-5.000000,11.000000,-14.000000,12.000000,5.000000,6.000000,3.000000,-7.000000
1295329.748673,0.000000,-1.000000,19.000000,-4.000000,1.000000,9.000000,9.000000,-4.000000
1295329.748696,-4.000000,-23.000000,-17.000000,-24.000000,-15.000000,-23.000000,-18.000000,8.000000
1295329.763869,0.000000,10.000000,1.000000,6.000000,6.000000,5.000000,-1.000000,-3.000000
1295329.763881,-4.000000,11.000000,7.000000,14.000000,13.000000,22.000000,15.000000,-10.000000
1295329.786128,3.000000,-8.000000,-10.000000,-12.000000,-8.000000,-8.000000,-1.000000,8.000000
1295329.786207,-3.000000,5.000000,23.000000,1.000000,-3.000000,-9.000000,-11.000000,-7.000000
1295329.823785,-2.000000,26.000000,4.000000,22.000000,14.000000,26.000000,15.000000,-6.000000
1295329.823797,3.000000,-10.000000,-12.000000,-8.000000,-4.000000,1.000000,2.000000,3.000000
1295329.824289,2.000000,-6.000000,-7.000000,-12.000000,-12.000000,-20.000000,-14.000000,7.000000
1295329.824297,-1.000000,8.000000,6.000000,9.000000,8.000000,6.000000,3.000000,1.000000
1295329.825580,-5.000000,1.000000,-9.000000,-3.000000,8.000000,9.000000,9.000000,-3.000000
1295329.825596,6.000000,-16.000000,22.000000,-23.000000,-16.000000,-20.000000,-17.000000,4.000000
1295329.826418,-8.000000,0.000000,-28.000000,2.000000,3.000000,0.000000,-4.000000,-9.000000
1295329.826446,-4.000000,4.000000,4.000000,15.000000,12.000000,21.000000,20.000000,-3.000000
1295329.827386,3.000000,-6.000000,-4.000000,-18.000000,-10.000000,-12.000000,-9.000000,4.000000
1295329.827395,3.000000,2.000000,12.000000,9.000000,2.000000,-6.000000,-6.000000,1.000000
1295329.831195,-4.000000,21.000000,1.000000,17.000000,14.000000,20.000000,13.000000,-9.000000
1295329.831313,3.000000,2.000000,14.000000,-4.000000,-3.000000,-5.000000,2.000000,-1.000000
1295329.839031,5.000000,-15.000000,-20.000000,-16.000000,-11.000000,-21.000000,-20.000000,11.000000
1295329.839040,1.000000,13.000000,7.000000,10.000000,9.000000,9.000000,2.000000,-6.000000
1295329.853462,4.000000,-6.000000,-3.000000,-6.000000,1.000000,5.000000,6.000000,-6.000000
1295329.853474,0.000000,-22.000000,-10.000000,-22.000000,-15.000000,-24.000000,-11.000000,27.000000
1295329.861374,-6.000000,4.000000,12.000000,10.000000,6.000000,3.000000,3.000000,-9.000000
1295329.861387,-4.000000,6.000000,5.000000,11.000000,15.000000,19.000000,13.000000,-11.000000
1295329.868876,0.000000,-8.000000,-14.000000,-8.000000,-8.000000,-10.000000,-4.000000,-1.000000
1295329.868888,-2.000000,10.000000,29.000000,17.000000,5.000000,0.000000,-2.000000,15.000000
1295329.883625,-3.000000,15.000000,-21.000000,13.000000,13.000000,19.000000,10.000000,-10.000000
1295329.883635,4.000000,-9.000000,9.000000,-11.000000,-6.000000,-7.000000,0.000000,-3.000000
1295329.898622,2.000000,-12.000000,-29.000000,-19.000000,-9.000000,-22.000000,-14.000000,7.000000
1295329.898634,-4.000000,8.000000,13.000000,4.000000,5.000000,9.000000,6.000000,0.000000
1295329.913879,4.000000,-9.000000,-3.000000,0.000000,-3.000000,8.000000,2.000000,-2.000000
1295329.913891,1.000000,-20.000000,6.000000,-25.000000,-21.000000,-19.000000,-17.000000,11.000000
1295329.921164,0.000000,4.000000,-9.000000,6.000000,2.000000,1.000000,3.000000,-5.000000
1295329.921176,-4.000000,12.000000,11.000000,8.000000,6.000000,17.000000,10.000000,-12.000000
1295329.943886,0.000000,-8.000000,-6.000000,-10.000000,-6.000000,-10.000000,1.000000,13.000000
1295329.943913,-6.000000,5.000000,3.000000,5.000000,3.000000,-3.000000,-7.000000,-2.000000
1295329.944464,-3.000000,13.000000,-5.000000,19.000000,11.000000,19.000000,12.000000,-12.000000
1295329.944490,3.000000,-8.000000,-21.000000,-12.000000,-5.000000,-3.000000,-2.000000,1.000000
1295329.946100,-3.000000,-7.000000,6.000000,-4.000000,-5.000000,-22.000000,-17.000000,13.000000
1295329.946107,-3.000000,9.000000,6.000000,4.000000,4.000000,8.000000,3.000000,1.000000
1295329.951327,5.000000,-5.000000,-4.000000,-4.000000,1.000000,5.000000,8.000000,-7.000000
1295329.951337,-5.000000,-22.000000,0.000000,-23.000000,-14.000000,-28.000000,-18.000000,2.000000
1295329.966738,3.000000,8.000000,10.000000,7.000000,3.000000,3.000000,0.000000,-2.000000
1295329.966766,-2.000000,13.000000,-4.000000,3.000000,10.000000,16.000000,16.000000,-8.000000
1295329.981085,6.000000,-6.000000,-3.000000,-5.000000,-6.000000,-11.000000,-5.000000,2.000000
1295329.981102,1.000000,4.000000,-1.000000,2.000000,-1.000000,-7.000000,-7.000000,3.000000
1295329.982241,-1.000000,18.000000,-6.000000,15.000000,12.000000,19.000000,15.000000,-10.000000
1295329.982250,-2.000000,-5.000000,13.000000,-6.000000,-1.000000,-5.000000,0.000000,3.000000
1295329.988515,-1.000000,-6.000000,4.000000,-4.000000,-5.000000,-19.000000,-14.000000,7.000000
1295329.988537,2.000000,6.000000,-12.000000,6.000000,5.000000,12.000000,8.000000,-6.000000
1295330.003803,2.000000,-1.000000,11.000000,-5.000000,-2.000000,9.000000,6.000000,3.000000
1295330.003813,3.000000,-16.000000,-22.000000,-17.000000,-14.000000,-22.000000,-19.000000,9.000000
1295330.018711,5.000000,12.000000,11.000000,6.000000,3.000000,1.000000,2.000000,-1.000000
1295330.018735,3.000000,3.000000,2.000000,10.000000,9.000000,16.000000,13.000000,-6.000000
1295330.019776,0.000000,-11.000000,-3.000000,-10.000000,-6.000000,-7.000000,-7.000000,4.000000
1295330.019793,3.000000,5.000000,1.000000,5.000000,3.000000,-3.000000,-3.000000,-2.000000
1295330.033513,-5.000000,15.000000,1.000000,19.000000,14.000000,20.000000,15.000000,-11.000000
1295330.033523,6.000000,0.000000,8.000000,-7.000000,-5.000000,-10.000000,-6.000000,1.000000
1295330.071043,-7.000000,-9.000000,-4.000000,-10.000000,-9.000000,-21.000000,-15.000000,6.000000
1295330.071077,-1.000000,8.000000,-4.000000,9.000000,8.000000,10.000000,7.000000,-5.000000
1295330.078877,-3.000000,-5.000000,0.000000,-10.000000,-5.000000,2.000000,1.000000,-1.000000
1295330.078887,-2.000000,-17.000000,-12.000000,-19.000000,-11.000000,-26.000000,-20.000000,8.000000
1295330.108850,-4.000000,4.000000,1.000000,7.000000,2.000000,6.000000,-1.000000,-3.000000
1295330.108862,4.000000,7.000000,19.000000,7.000000,7.000000,18.000000,10.000000,-9.000000
1295330.116147,-4.000000,-14.000000,-12.000000,-11.000000,-10.000000,-11.000000,-8.000000,5.000000
1295330.116156,0.000000,13.000000,0.000000,3.000000,1.000000,1.000000,-5.000000,-2.000000
1295330.131864,0.000000,16.000000,-2.000000,17.000000,15.000000,22.000000,15.000000,-6.000000
1295330.131892,-1.000000,-5.000000,1.000000,-10.000000,-8.000000,-6.000000,-3.000000,-1.000000
1295330.132400,-7.000000,-11.000000,0.000000,-5.000000,-6.000000,-18.000000,-17.000000,-1.000000
1295330.132426,-1.000000,12.000000,4.000000,15.000000,9.000000,7.000000,7.000000,3.000000
1295330.134141,0.000000,-14.000000,6.000000,-15.000000,-3.000000,-16.000000,-7.000000,6.000000
1295330.134149,-2.000000,8.000000,-4.000000,6.000000,4.000000,2.000000,-3.000000,5.000000
1295330.138317,-1.000000,13.000000,18.000000,13.000000,7.000000,17.000000,15.000000,-14.000000
1295330.138327,-1.000000,-11.000000,-6.000000,-11.000000,-6.000000,-7.000000,-4.000000,4.000000
1295330.140150,-3.000000,0.000000,3.000000,-2.000000,-4.000000,-13.000000,-13.000000,5.000000
1295330.140161,-1.000000,2.000000,-15.000000,8.000000,8.000000,12.000000,6.000000,-6.000000
1295330.183799,-3.000000,-7.000000,11.000000,-8.000000,-5.000000,0.000000,2.000000,0.000000
1295330.183812,-6.000000,-17.000000,0.000000,-14.000000,-14.000000,-23.000000,-19.000000,7.000000
1295330.184731,3.000000,2.000000,8.000000,6.000000,3.000000,4.000000,4.000000,-3.000000
1295330.184741,1.000000,3.000000,5.000000,-1.000000,4.000000,12.000000,13.000000,-7.000000
1295330.185219,-6.000000,-14.000000,-3.000000,-19.000000,-12.000000,-13.000000,-9.000000,2.000000
1295330.185229,0.000000,8.000000,16.000000,7.000000,5.000000,-2.000000,-4.000000,-9.000000
1295330.187222,3.000000,14.000000,4.000000,13.000000,11.000000,21.000000,15.000000,-5.000000
1295330.187234,4.000000,-7.000000,6.000000,-3.000000,-6.000000,-11.000000,-4.000000,2.000000
1295330.191388,0.000000,-3.000000,-21.000000,-7.000000,1.000000,-14.000000,-14.000000,6.000000
1295330.191403,6.000000,10.000000,6.000000,17.000000,4.000000,11.000000,9.000000,5.000000
1295330.243886,1.000000,-8.000000,-5.000000,-9.000000,-3.000000,-2.000000,3.000000,-3.000000
1295330.243900,-4.000000,-10.000000,-1.000000,-14.000000,-14.000000,-19.000000,-15.000000,6.000000
1295330.258678,3.000000,8.000000,0.000000,2.000000,2.000000,6.000000,2.000000,-2.000000
1295330.258688,3.000000,1.000000,14.000000,-3.000000,4.000000,8.000000,7.000000,-8.000000
1295330.274138,-5.000000,-17.000000,-18.000000,-17.000000,-14.000000,-19.000000,-7.000000,15.000000
1295330.274149,3.000000,7.000000,5.000000,9.000000,5.000000,0.000000,-2.000000,-1.000000
1295330.281418,-1.000000,11.000000,-1.000000,10.000000,10.000000,22.000000,14.000000,-10.000000
1295330.281447,0.000000,-5.000000,-4.000000,-7.000000,-4.000000,-6.000000,-1.000000,9.000000
1295330.303563,0.000000,2.000000,5.000000,3.000000,-3.000000,-11.000000,-13.000000,-14.000000
1295330.303582,3.000000,12.000000,-8.000000,18.000000,9.000000,12.000000,10.000000,0.000000
1295330.311762,-3.000000,-21.000000,-10.000000,-23.000000,-13.000000,-25.000000,-14.000000,6.000000
1295330.311784,1.000000,7.000000,6.000000,6.000000,1.000000,1.000000,-3.000000,-4.000000
1295330.312273,3.000000,7.000000,-1.000000,7.000000,6.000000,20.000000,15.000000,-6.000000
1295330.312300,-3.000000,-9.000000,5.000000,-4.000000,-11.000000,-9.000000,-4.000000,2.000000
1295330.312948,-1.000000,1.000000,-7.000000,4.000000,-7.000000,-8.000000,-8.000000,4.000000
1295330.312963,2.000000,18.000000,-9.000000,20.000000,15.000000,19.000000,13.000000,-6.000000
1295330.314407,-3.000000,3.000000,-19.000000,0.000000,2.000000,4.000000,4.000000,-2.000000
1295330.314417,3.000000,-2.000000,10.000000,0.000000,4.000000,11.000000,13.000000,-3.000000
1295330.318431,6.000000,-13.000000,2.000000,-24.000000,-17.000000,-18.000000,-13.000000,6.000000
1295330.318440,-3.000000,11.000000,1.000000,13.000000,3.000000,6.000000,-2.000000,-2.000000
1295330.341542,3.000000,7.000000,-3.000000,10.000000,10.000000,18.000000,11.000000,-9.000000
1295330.341561,-3.000000,-4.000000,-14.000000,-7.000000,-7.000000,-9.000000,-4.000000,0.000000
1295330.378894,-3.000000,2.000000,19.000000,5.000000,2.000000,-7.000000,-7.000000,4.000000
1295330.378906,-1.000000,16.000000,-9.000000,29.000000,15.000000,18.000000,11.000000,-5.000000
1295330.386179,-4.000000,-11.000000,-4.000000,-8.000000,-5.000000,-5.000000,0.000000,1.000000
1295330.386191,-10.000000,-9.000000,-3.000000,-8.000000,-10.000000,-21.000000,-18.000000,2.000000
1295330.409238,-4.000000,12.000000,2.000000,7.000000,7.000000,5.000000,-2.000000,-10.000000
1295330.409259,-1.000000,-9.000000,-8.000000,-8.000000,-5.000000,5.000000,11.000000,2.000000
1295330.409902,-4.000000,-20.000000,3.000000,-27.000000,-14.000000,-22.000000,-14.000000,7.000000
1295330.409928,-4.000000,3.000000,-1.000000,1.000000,-1.000000,6.000000,-6.000000,-5.000000
1295330.410930,2.000000,9.000000,4.000000,12.000000,5.000000,16.000000,11.000000,0.000000
1295330.410956,5.000000,-5.000000,-15.000000,-12.000000,-4.000000,-6.000000,-2.000000,12.000000
1295330.411631,-3.000000,6.000000,19.000000,7.000000,0.000000,-9.000000,-8.000000,-10.000000
1295330.411657,0.000000,17.000000,-2.000000,24.000000,14.000000,22.000000,12.000000,-10.000000
1295330.412597,-4.000000,5.000000,7.000000,8.000000,4.000000,10.000000,3.000000,-2.000000
1295330.412622,1.000000,-7.000000,-10.000000,-8.000000,-5.000000,9.000000,11.000000,-3.000000
1295330.423783,-2.000000,-22.000000,4.000000,-22.000000,-15.000000,-22.000000,-14.000000,6.000000
1295330.423794,-2.000000,6.000000,5.000000,9.000000,8.000000,2.000000,3.000000,4.000000
1295330.431277,-1.000000,10.000000,8.000000,8.000000,9.000000,16.000000,12.000000,-12.000000
1295330.431306,3.000000,-8.000000,-1.000000,-7.000000,-8.000000,-8.000000,-4.000000,3.000000
1295330.461368,-4.000000,0.000000,-1.000000,2.000000,1.000000,-5.000000,-7.000000,1.000000
1295330.461398,-7.000000,17.000000,-1.000000,19.000000,15.000000,19.000000,9.000000,-21.000000
1295330.468805,3.000000,-10.000000,-7.000000,-12.000000,-2.000000,-3.000000,2.000000,5.000000
1295330.468816,-3.000000,-11.000000,15.000000,-9.000000,-14.000000,-25.000000,-19.000000,5.000000
1295330.498586,-4.000000,-1.000000,-15.000000,4.000000,5.000000,7.000000,5.000000,-4.000000
1295330.498597,3.000000,-6.000000,16.000000,-6.000000,1.000000,7.000000,6.000000,-4.000000
1295330.506164,1.000000,-16.000000,1.000000,-18.000000,-15.000000,-23.000000,-17.000000,8.000000
1295330.506176,3.000000,0.000000,-16.000000,1.000000,2.000000,4.000000,2.000000,-2.000000
1295330.536110,0.000000,7.000000,-2.000000,7.000000,9.000000,21.000000,17.000000,-8.000000
1295330.536131,-2.000000,-12.000000,-9.000000,-13.000000,-5.000000,-7.000000,-6.000000,-5.000000
1295330.536537,2.000000,2.000000,9.000000,8.000000,-2.000000,-5.000000,-5.000000,1.000000
1295330.536554,2.000000,19.000000,0.000000,18.000000,13.000000,20.000000,14.000000,-7.000000
1295330.537631,4.000000,16.000000,32.000000,10.000000,4.000000,3.000000,2.000000,-3.000000
1295330.537639,-4.000000,-11.000000,-45.000000,-10.000000,1.000000,2.000000,3.000000,-7.000000
1295330.539090,-1.000000,-22.000000,8.000000,-20.000000,-13.000000,-21.000000,-9.000000,16.000000
1295330.539110,2.000000,7.000000,-7.000000,12.000000,4.000000,5.000000,0.000000,-1.000000
1295330.543485,2.000000,5.000000,3.000000,7.000000,3.000000,-3.000000,-4.000000,-2.000000
1295330.543510,-3.000000,13.000000,4.000000,20.000000,11.000000,25.000000,11.000000,-10.000000
1295330.551508,5.000000,-5.000000,-4.000000,-3.000000,-2.000000,-1.000000,3.000000,7.000000
1295330.551518,-1.000000,-8.000000,-6.000000,-9.000000,-8.000000,-20.000000,-14.000000,3.000000
1295330.581319,4.000000,8.000000,-7.000000,3.000000,6.000000,9.000000,3.000000,1.000000
1295330.581334,-4.000000,-3.000000,-9.000000,11.000000,-2.000000,6.000000,4.000000,-4.000000
1295330.588857,0.000000,-20.000000,-9.000000,-19.000000,-11.000000,-20.000000,-18.000000,12.000000
1295330.588871,-3.000000,5.000000,2.000000,1.000000,8.000000,7.000000,1.000000,0.000000
1295330.656443,-1.000000,6.000000,10.000000,1.000000,5.000000,14.000000,12.000000,-10.000000
1295330.656453,0.000000,-9.000000,-7.000000,-11.000000,-9.000000,-10.000000,-3.000000,6.000000
1295330.671042,-2.000000,8.000000,2.000000,9.000000,4.000000,2.000000,-4.000000,2.000000
1295330.671053,2.000000,15.000000,1.000000,11.000000,11.000000,17.000000,16.000000,-6.000000
1295330.693908,1.000000,-8.000000,-4.000000,-9.000000,-4.000000,-1.000000,1.000000,4.000000
1295330.693937,-3.000000,-5.000000,-4.000000,-11.000000,-12.000000,-16.000000,-15.000000,8.000000
1295330.701390,-2.000000,7.000000,10.000000,7.000000,8.000000,11.000000,6.000000,-7.000000
1295330.701419,-1.000000,-4.000000,-8.000000,-8.000000,-3.000000,2.000000,4.000000,-4.000000
1295330.724454,0.000000,8.000000,0.000000,11.000000,5.000000,1.000000,-6.000000,-1.000000
1295330.724481,1.000000,9.000000,-5.000000,15.000000,13.000000,19.000000,16.000000,-11.000000
1295330.740068,2.000000,-3.000000,-16.000000,-1.000000,5.000000,13.000000,12.000000,-7.000000
1295330.740232,1.000000,-12.000000,-3.000000,-9.000000,-8.000000,-9.000000,-10.000000,6.000000
1295330.740336,-1.000000,7.000000,18.000000,3.000000,6.000000,0.000000,-4.000000,5.000000
1295330.740345,-11.000000,9.000000,-3.000000,9.000000,10.000000,18.000000,12.000000,-22.000000
1295330.740473,-3.000000,-8.000000,1.000000,-5.000000,-4.000000,-6.000000,-3.000000,4.000000
1295330.740489,2.000000,-10.000000,-7.000000,-6.000000,-6.000000,-21.000000,-15.000000,6.000000
1295330.741168,0.000000,7.000000,5.000000,8.000000,10.000000,11.000000,7.000000,-7.000000
1295330.741192,1.000000,-3.000000,8.000000,-5.000000,-8.000000,3.000000,3.000000,-2.000000
1295330.741940,-2.000000,-21.000000,-8.000000,-12.000000,-9.000000,-22.000000,-17.000000,13.000000
1295330.741953,-2.000000,9.000000,1.000000,3.000000,4.000000,8.000000,1.000000,-4.000000
1295330.746157,-9.000000,2.000000,-3.000000,3.000000,4.000000,3.000000,-6.000000,-11.000000
1295330.746171,8.000000,15.000000,15.000000,12.000000,12.000000,22.000000,19.000000,2.000000
1295330.761343,-2.000000,-14.000000,16.000000,-5.000000,-5.000000,-11.000000,-5.000000,5.000000
1295330.761359,-6.000000,-5.000000,-9.000000,-3.000000,-4.000000,-13.000000,-14.000000,3.000000
1295330.776571,-1.000000,9.000000,10.000000,16.000000,5.000000,7.000000,8.000000,-6.000000
1295330.776694,0.000000,-9.000000,-8.000000,-10.000000,-8.000000,0.000000,4.000000,-1.000000
1295330.776995,1.000000,-14.000000,-5.000000,-16.000000,-15.000000,-23.000000,-17.000000,6.000000
1295330.777009,1.000000,8.000000,8.000000,-1.000000,4.000000,7.000000,4.000000,-4.000000
1295330.783843,-5.000000,-3.000000,-8.000000,5.000000,5.000000,7.000000,11.000000,-8.000000
1295330.783859,-1.000000,-10.000000,4.000000,-24.000000,-11.000000,-13.000000,-11.000000,7.000000
1295330.799016,0.000000,1.000000,1.000000,12.000000,3.000000,-3.000000,-6.000000,-7.000000
1295330.799031,3.000000,12.000000,3.000000,6.000000,11.000000,25.000000,17.000000,-8.000000
1295330.813818,1.000000,-9.000000,5.000000,-2.000000,-5.000000,-7.000000,-3.000000,3.000000
1295330.813841,-2.000000,-3.000000,-3.000000,-4.000000,-10.000000,-15.000000,-14.000000,0.000000
1295330.814660,3.000000,11.000000,5.000000,13.000000,7.000000,13.000000,7.000000,6.000000
1295330.814673,2.000000,-5.000000,-1.000000,-6.000000,-2.000000,-3.000000,-3.000000,-5.000000
1295330.821033,2.000000,-15.000000,-7.000000,-13.000000,-13.000000,-21.000000,-16.000000,8.000000
1295330.821050,3.000000,6.000000,8.000000,11.000000,5.000000,8.000000,1.000000,-1.000000
1295330.851650,4.000000,0.000000,-3.000000,4.000000,5.000000,10.000000,12.000000,-4.000000
1295330.851677,1.000000,-17.000000,-2.000000,-19.000000,-15.000000,-15.000000,-12.000000,6.000000
1295330.866043,-4.000000,6.000000,-4.000000,2.000000,0.000000,-5.000000,-4.000000,-5.000000
1295330.866053,5.000000,11.000000,11.000000,8.000000,11.000000,23.000000,15.000000,-5.000000
1295330.888816,-1.000000,-8.000000,-11.000000,-7.000000,-4.000000,-8.000000,-6.000000,4.000000
1295330.888828,1.000000,-2.000000,10.000000,0.000000,-3.000000,-7.000000,-11.000000,3.000000
1295330.903677,3.000000,12.000000,6.000000,18.000000,12.000000,16.000000,10.000000,-10.000000
1295330.903687,-3.000000,-3.000000,12.000000,-8.000000,-2.000000,-4.000000,-1.000000,1.000000
1295330.911084,-2.000000,-12.000000,-17.000000,-11.000000,-12.000000,-25.000000,-22.000000,10.000000
1295330.911106,-4.000000,4.000000,-7.000000,2.000000,3.000000,10.000000,3.000000,-2.000000
1295330.912092,3.000000,2.000000,6.000000,4.000000,0.000000,13.000000,12.000000,1.000000
1295330.912131,-6.000000,-19.000000,-6.000000,-23.000000,-12.000000,-21.000000,-13.000000,-5.000000
1295330.912683,2.000000,3.000000,-4.000000,7.000000,5.000000,3.000000,-2.000000,5.000000
1295330.912690,2.000000,5.000000,-13.000000,8.000000,11.000000,15.000000,15.000000,-9.000000
1295330.913308,-2.000000,-5.000000,2.000000,-5.000000,-6.000000,-9.000000,-2.000000,4.000000
1295330.913333,-3.000000,5.000000,5.000000,6.000000,-4.000000,-13.000000,-11.000000,2.000000
1295330.918491,-3.000000,14.000000,-6.000000,17.000000,11.000000,21.000000,7.000000,-1.000000
1295330.918501,2.000000,-5.000000,14.000000,-6.000000,0.000000,0.000000,2.000000,-3.000000
1295330.933784,7.000000,-10.000000,3.000000,-16.000000,-11.000000,-20.000000,-19.000000,9.000000
1295330.933797,-4.000000,4.000000,1.000000,5.000000,3.000000,9.000000,-1.000000,-5.000000
1295330.934893,6.000000,-5.000000,2.000000,-7.000000,3.000000,10.000000,8.000000,-9.000000
1295330.934903,0.000000,-20.000000,-6.000000,-22.000000,-18.000000,-23.000000,-13.000000,13.000000
1295330.941365,-3.000000,4.000000,-3.000000,3.000000,7.000000,2.000000,-2.000000,-6.000000
1295330.941380,-1.000000,8.000000,4.000000,17.000000,6.000000,17.000000,16.000000,-7.000000
1295330.978836,-1.000000,-7.000000,1.000000,-10.000000,-5.000000,-7.000000,-2.000000,-3.000000
1295330.978847,-2.000000,0.000000,5.000000,4.000000,2.000000,-5.000000,-7.000000,3.000000
1295330.986216,1.000000,19.000000,4.000000,25.000000,11.000000,20.000000,15.000000,-9.000000
1295330.986229,-2.000000,-6.000000,9.000000,-5.000000,-4.000000,-6.000000,-5.000000,1.000000
1295331.016946,-2.000000,-7.000000,-4.000000,-13.000000,-11.000000,-21.000000,-17.000000,10.000000
1295331.016955,-9.000000,4.000000,3.000000,10.000000,2.000000,8.000000,0.000000,-10.000000
1295331.017350,-1.000000,1.000000,-2.000000,4.000000,2.000000,7.000000,12.000000,-8.000000
1295331.017358,-2.000000,-23.000000,-2.000000,-25.000000,-17.000000,-21.000000,-12.000000,8.000000
1295331.018373,-1.000000,9.000000,5.000000,13.000000,4.000000,2.000000,1.000000,11.000000
1295331.018381,3.000000,8.000000,-11.000000,6.000000,8.000000,18.000000,17.000000,-7.000000
1295331.019031,-1.000000,-6.000000,0.000000,-7.000000,-5.000000,-6.000000,-4.000000,-1.000000
1295331.019039,-7.000000,-2.000000,-8.000000,2.000000,-1.000000,-8.000000,-10.000000,1.000000
1295331.023369,0.000000,-10.000000,-1.000000,-13.000000,-14.000000,-18.000000,-16.000000,6.000000
1295331.023378,-4.000000,6.000000,-3.000000,8.000000,6.000000,9.000000,3.000000,-2.000000
1295331.053850,-1.000000,-1.000000,-10.000000,-9.000000,-2.000000,8.000000,6.000000,-8.000000
1295331.053859,1.000000,-24.000000,-22.000000,-28.000000,-23.000000,-22.000000,-17.000000,7.000000
1295331.054404,-1.000000,11.000000,16.000000,5.000000,8.000000,5.000000,1.000000,2.000000
1295331.054412,-3.000000,6.000000,4.000000,8.000000,8.000000,14.000000,14.000000,-12.000000
1295331.055945,0.000000,-4.000000,-6.000000,-12.000000,-7.000000,-9.000000,-6.000000,3.000000
1295331.055953,2.000000,5.000000,-1.000000,5.000000,1.000000,-7.000000,-7.000000,6.000000
1295331.061125,-3.000000,21.000000,7.000000,25.000000,20.000000,25.000000,13.000000,-13.000000
1295331.061152,1.000000,-8.000000,-6.000000,-6.000000,-5.000000,1.000000,-2.000000,0.000000
1295331.091143,6.000000,-7.000000,-1.000000,-13.000000,-9.000000,-16.000000,-12.000000,4.000000
1295331.091167,-3.000000,7.000000,12.000000,-1.000000,2.000000,5.000000,2.000000,-4.000000
1295331.098787,-2.000000,-7.000000,-5.000000,-7.000000,-1.000000,4.000000,3.000000,-3.000000
1295331.098842,0.000000,-25.000000,1.000000,-28.000000,-20.000000,-27.000000,-18.000000,17.000000
1295331.113593,1.000000,-1.000000,-22.000000,3.000000,2.000000,2.000000,-1.000000,4.000000
1295331.113604,0.000000,1.000000,16.000000,7.000000,5.000000,16.000000,12.000000,-9.000000
1295331.128553,-3.000000,-11.000000,-19.000000,-8.000000,-7.000000,-10.000000,-8.000000,4.000000
1295331.128590,-3.000000,8.000000,21.000000,8.000000,5.000000,-5.000000,-9.000000,1.000000
1295331.129775,-6.000000,11.000000,-8.000000,18.000000,10.000000,18.000000,12.000000,-13.000000
1295331.129803,-1.000000,-8.000000,-3.000000,-3.000000,-4.000000,-3.000000,1.000000,0.000000
1295331.130654,-6.000000,-10.000000,-2.000000,-9.000000,-11.000000,-22.000000,-14.000000,7.000000
1295331.130667,3.000000,1.000000,-4.000000,10.000000,6.000000,7.000000,5.000000,-4.000000
1295331.143838,0.000000,-3.000000,2.000000,0.000000,-6.000000,0.000000,2.000000,-1.000000
1295331.143857,-1.000000,-17.000000,1.000000,-20.000000,-17.000000,-28.000000,-16.000000,6.000000
1295331.144216,2.000000,5.000000,-2.000000,9.000000,4.000000,2.000000,-1.000000,-5.000000
1295331.144238,-1.000000,1.000000,-18.000000,3.000000,2.000000,15.000000,13.000000,-13.000000
1295331.174151,-1.000000,-12.000000,-6.000000,-11.000000,-7.000000,-11.000000,-5.000000,8.000000
1295331.174162,5.000000,2.000000,-11.000000,4.000000,-5.000000,0.000000,-5.000000,2.000000
1295331.174977,-1.000000,14.000000,5.000000,17.000000,13.000000,22.000000,11.000000,-12.000000
1295331.174988,-4.000000,-12.000000,-7.000000,-5.000000,-7.000000,-4.000000,1.000000,20.000000
1295331.176192,1.000000,-9.000000,-6.000000,-8.000000,-5.000000,-19.000000,-16.000000,-7.000000
1295331.176220,-5.000000,4.000000,-10.000000,-1.000000,4.000000,5.000000,2.000000,-6.000000
1295331.181068,-2.000000,-8.000000,3.000000,-3.000000,2.000000,6.000000,0.000000,-19.000000
1295331.181078,0.000000,-21.000000,-11.000000,-21.000000,-19.000000,-24.000000,-11.000000,35.000000
1295331.218560,-1.000000,5.000000,-1.000000,9.000000,4.000000,6.000000,1.000000,-7.000000
1295331.218568,6.000000,6.000000,-1.000000,11.000000,8.000000,17.000000,14.000000,-5.000000
1295331.226754,3.000000,-9.000000,4.000000,-14.000000,-9.000000,-11.000000,-6.000000,4.000000
1295331.226783,-7.000000,-2.000000,-15.000000,4.000000,-1.000000,-4.000000,-6.000000,-2.000000
1295331.248816,-1.000000,8.000000,6.000000,18.000000,10.000000,19.000000,13.000000,-9.000000
1295331.248828,0.000000,-7.000000,-12.000000,-17.000000,-6.000000,-4.000000,2.000000,1.000000
1295331.256302,-4.000000,-3.000000,18.000000,-11.000000,-13.000000,-21.000000,-16.000000,5.000000
1295331.256315,1.000000,1.000000,4.000000,3.000000,5.000000,9.000000,3.000000,-2.000000
1295331.264206,2.000000,-3.000000,0.000000,-6.000000,-2.000000,5.000000,4.000000,0.000000
1295331.264217,1.000000,-14.000000,-6.000000,-15.000000,-13.000000,-23.000000,-17.000000,6.000000
1295331.264713,-2.000000,5.000000,-12.000000,4.000000,6.000000,5.000000,2.000000,-2.000000
1295331.264728,2.000000,-5.000000,-1.000000,4.000000,7.000000,13.000000,10.000000,-5.000000
1295331.265971,1.000000,-7.000000,0.000000,-18.000000,-9.000000,-14.000000,-8.000000,-2.000000
1295331.265981,-5.000000,5.000000,-3.000000,14.000000,2.000000,0.000000,-5.000000,-3.000000
1295331.266758,1.000000,13.000000,5.000000,15.000000,11.000000,20.000000,13.000000,-8.000000
1295331.266768,-1.000000,-3.000000,-3.000000,-12.000000,-7.000000,-8.000000,-4.000000,4.000000
1295331.293488,-3.000000,-6.000000,3.000000,-7.000000,-12.000000,-18.000000,-15.000000,5.000000
1295331.293516,1.000000,9.000000,1.000000,12.000000,4.000000,5.000000,6.000000,-6.000000
1295331.294259,-2.000000,-5.000000,-5.000000,-9.000000,-3.000000,5.000000,4.000000,3.000000
1295331.294286,-3.000000,-19.000000,-1.000000,-17.000000,-14.000000,-25.000000,-18.000000,6.000000
1295331.295432,1.000000,10.000000,0.000000,5.000000,2.000000,4.000000,2.000000,0.000000
1295331.295457,-3.000000,13.000000,-3.000000,8.000000,6.000000,13.000000,13.000000,-11.000000
1295331.301380,-4.000000,-12.000000,2.000000,-14.000000,-12.000000,-13.000000,-8.000000,8.000000
1295331.301408,-2.000000,11.000000,-3.000000,8.000000,6.000000,1.000000,-4.000000,-8.000000
1295331.323677,1.000000,12.000000,6.000000,12.000000,12.000000,22.000000,16.000000,-8.000000
1295331.323687,-5.000000,0.000000,-8.000000,-3.000000,-4.000000,0.000000,2.000000,1.000000
1295331.331153,-6.000000,-2.000000,35.000000,1.000000,-6.000000,-10.000000,-10.000000,5.000000
1295331.331173,2.000000,11.000000,-3.000000,13.000000,8.000000,16.000000,7.000000,-3.000000
1295331.353633,0.000000,-8.000000,-5.000000,-5.000000,0.000000,3.000000,1.000000,-3.000000
1295331.353643,-3.000000,-11.000000,-6.000000,-19.000000,-12.000000,-21.000000,-14.000000,5.000000
1295331.368984,-2.000000,8.000000,2.000000,8.000000,3.000000,3.000000,2.000000,-6.000000
1295331.369015,-5.000000,1.000000,9.000000,-2.000000,3.000000,13.000000,8.000000,-10.000000
1295331.383458,3.000000,-18.000000,-11.000000,-11.000000,-10.000000,-16.000000,-9.000000,9.000000
1295331.383486,-3.000000,7.000000,0.000000,9.000000,0.000000,2.000000,0.000000,1.000000
1295331.391223,-13.000000,10.000000,-3.000000,12.000000,8.000000,18.000000,11.000000,-22.000000
1295331.391236,-2.000000,0.000000,55.000000,2.000000,-1.000000,-2.000000,4.000000,9.000000
1295331.413560,-1.000000,-12.000000,-23.000000,-10.000000,-10.000000,-16.000000,-13.000000,4.000000
1295331.413652,-5.000000,11.000000,5.000000,14.000000,7.000000,9.000000,7.000000,-5.000000
1295331.413922,4.000000,-9.000000,-5.000000,-10.000000,-4.000000,-4.000000,2.000000,-8.000000
1295331.413930,0.000000,-8.000000,-4.000000,-14.000000,-13.000000,-24.000000,-16.000000,8.000000
1295331.415324,0.000000,1.000000,-5.000000,9.000000,6.000000,6.000000,0.000000,-5.000000
1295331.415340,-3.000000,1.000000,6.000000,1.000000,1.000000,4.000000,9.000000,-5.000000
1295331.415920,-6.000000,-15.000000,1.000000,-15.000000,-9.000000,-18.000000,-11.000000,-2.000000
1295331.415950,3.000000,1.000000,-4.000000,8.000000,3.000000,-1.000000,-4.000000,-6.000000
1295331.420939,0.000000,-1.000000,-2.000000,0.000000,-10.000000,-11.000000,-15.000000,4.000000
1295331.420951,1.000000,15.000000,11.000000,11.000000,9.000000,19.000000,11.000000,-9.000000
1295331.458668,-3.000000,-9.000000,17.000000,-6.000000,-6.000000,0.000000,0.000000,1.000000
1295331.458681,-4.000000,-19.000000,-40.000000,-17.000000,-13.000000,-23.000000,-18.000000,9.000000
1295331.466270,-4.000000,2.000000,8.000000,8.000000,7.000000,8.000000,2.000000,-9.000000
1295331.466310,-3.000000,-4.000000,-3.000000,-2.000000,3.000000,14.000000,6.000000,-9.000000
1295331.488564,2.000000,-19.000000,1.000000,-17.000000,-11.000000,-13.000000,-12.000000,5.000000
1295331.488574,-2.000000,9.000000,-3.000000,10.000000,3.000000,3.000000,-4.000000,-2.000000
1295331.488950,-2.000000,9.000000,0.000000,7.000000,13.000000,15.000000,11.000000,-10.000000
1295331.488957,-3.000000,-9.000000,0.000000,-6.000000,0.000000,-4.000000,2.000000,10.000000
1295331.490163,1.000000,-5.000000,-3.000000,-2.000000,-3.000000,-11.000000,-12.000000,-4.000000
1295331.490172,3.000000,16.000000,0.000000,19.000000,8.000000,14.000000,11.000000,-6.000000
1295331.491310,5.000000,-2.000000,14.000000,-2.000000,-5.000000,-1.000000,3.000000,6.000000
1295331.491321,2.000000,-13.000000,-6.000000,-11.000000,-12.000000,-21.000000,-17.000000,10.000000
1295331.496695,-2.000000,16.000000,9.000000,8.000000,3.000000,5.000000,2.000000,-3.000000
1295331.496702,1.000000,-6.000000,-5.000000,-3.000000,3.000000,12.000000,6.000000,-5.000000
1295331.503817,-1.000000,-17.000000,4.000000,-17.000000,-12.000000,-20.000000,-14.000000,4.000000
1295331.503827,-13.000000,2.000000,-10.000000,7.000000,2.000000,3.000000,2.000000,7.000000
1295331.519376,1.000000,7.000000,5.000000,11.000000,7.000000,20.000000,13.000000,-8.000000
1295331.519405,2.000000,-8.000000,-4.000000,-6.000000,-9.000000,-9.000000,-1.000000,5.000000
1295331.525948,-4.000000,1.000000,6.000000,9.000000,-1.000000,-11.000000,-12.000000,4.000000
1295331.525958,-7.000000,15.000000,6.000000,22.000000,14.000000,18.000000,10.000000,-7.000000
1295331.534153,-3.000000,-5.000000,7.000000,-5.000000,-5.000000,0.000000,3.000000,-6.000000
1295331.534198,3.000000,-13.000000,-2.000000,-11.000000,-8.000000,-22.000000,-13.000000,7.000000
1295331.571345,0.000000,4.000000,-6.000000,6.000000,7.000000,8.000000,3.000000,-1.000000
1295331.571357,4.000000,0.000000,8.000000,1.000000,4.000000,8.000000,9.000000,-3.000000
1295331.594703,-3.000000,-22.000000,-18.000000,-22.000000,-14.000000,-23.000000,-15.000000,7.000000
1295331.594749,-4.000000,6.000000,7.000000,9.000000,4.000000,-2.000000,-7.000000,-2.000000
1295331.616909,0.000000,11.000000,-2.000000,12.000000,7.000000,18.000000,15.000000,-8.000000
1295331.616935,1.000000,-4.000000,14.000000,-7.000000,-6.000000,-7.000000,-4.000000,3.000000
1295331.646926,-7.000000,-2.000000,-13.000000,0.000000,-1.000000,-9.000000,-10.000000,2.000000
1295331.646954,1.000000,14.000000,3.000000,20.000000,11.000000,22.000000,15.000000,-7.000000
1295331.654542,-1.000000,-13.000000,-2.000000,-8.000000,-3.000000,-8.000000,-5.000000,-2.000000
1295331.654567,-4.000000,-12.000000,-5.000000,-10.000000,-12.000000,-20.000000,-15.000000,13.000000
1295331.656029,3.000000,13.000000,16.000000,7.000000,5.000000,4.000000,2.000000,-4.000000
1295331.656105,0.000000,0.000000,-5.000000,-3.000000,1.000000,4.000000,12.000000,-4.000000
1295331.657314,-3.000000,-24.000000,0.000000,-22.000000,-12.000000,-19.000000,-13.000000,13.000000
1295331.657372,-1.000000,9.000000,1.000000,8.000000,4.000000,5.000000,-3.000000,-3.000000
1295331.683826,-5.000000,6.000000,1.000000,11.000000,11.000000,6.000000,5.000000,-4.000000
1295331.683919,-1.000000,-1.000000,9.000000,-5.000000,-3.000000,4.000000,3.000000,-7.000000
1295331.691416,4.000000,11.000000,-9.000000,14.000000,8.000000,17.000000,14.000000,-6.000000
1295331.691431,0.000000,-10.000000,4.000000,-5.000000,-10.000000,-9.000000,-4.000000,1.000000
1295331.721074,0.000000,1.000000,-16.000000,1.000000,-1.000000,-4.000000,-9.000000,1.000000
1295331.721084,-4.000000,15.000000,12.000000,20.000000,19.000000,22.000000,16.000000,-11.000000
1295331.728780,0.000000,-9.000000,-10.000000,-12.000000,-7.000000,-7.000000,-1.000000,0.000000
1295331.728810,-2.000000,0.000000,5.000000,-13.000000,-7.000000,-17.000000,-12.000000,5.000000
1295331.729962,-2.000000,8.000000,-5.000000,4.000000,3.000000,5.000000,8.000000,-3.000000
1295331.729989,-2.000000,-4.000000,12.000000,-4.000000,2.000000,5.000000,4.000000,-4.000000
1295331.730421,-5.000000,-24.000000,-22.000000,-23.000000,-15.000000,-24.000000,-15.000000,8.000000
1295331.730448,4.000000,9.000000,5.000000,12.000000,7.000000,3.000000,0.000000,1.000000
1295331.731472,-1.000000,8.000000,-8.000000,6.000000,5.000000,16.000000,11.000000,-7.000000
1295331.731480,-2.000000,-10.000000,-6.000000,-9.000000,-9.000000,-7.000000,-7.000000,3.000000
1295331.732504,0.000000,0.000000,-18.000000,0.000000,-3.000000,-5.000000,-8.000000,-1.000000
1295331.732525,-1.000000,15.000000,19.000000,27.000000,17.000000,23.000000,14.000000,-11.000000
1295331.736750,-5.000000,-5.000000,-2.000000,-10.000000,-4.000000,-6.000000,1.000000,6.000000
1295331.736777,-2.000000,-12.000000,-23.000000,-11.000000,-13.000000,-18.000000,-18.000000,5.000000
1295331.743737,-6.000000,7.000000,-5.000000,9.000000,6.000000,6.000000,3.000000,-5.000000
1295331.743756,-6.000000,-2.000000,2.000000,1.000000,-1.000000,1.000000,7.000000,-1.000000
1295331.766544,5.000000,-14.000000,-8.000000,-22.000000,-16.000000,-18.000000,-18.000000,-3.000000
1295331.766553,0.000000,12.000000,6.000000,3.000000,-3.000000,0.000000,-3.000000,-1.000000
1295331.767437,3.000000,2.000000,0.000000,7.000000,7.000000,12.000000,12.000000,-8.000000
1295331.767459,0.000000,-5.000000,9.000000,-5.000000,-8.000000,-11.000000,-7.000000,1.000000
1295331.781072,0.000000,12.000000,10.000000,-3.000000,-5.000000,-3.000000,-5.000000,7.000000
1295331.781082,-10.000000,13.000000,-5.000000,16.000000,15.000000,23.000000,11.000000,-21.000000
1295331.796169,-4.000000,-7.000000,3.000000,-5.000000,-6.000000,0.000000,-2.000000,1.000000
1295331.796180,-1.000000,-2.000000,-4.000000,-8.000000,-10.000000,-19.000000,-12.000000,10.000000
1295331.811507,6.000000,10.000000,6.000000,13.000000,1.000000,10.000000,6.000000,-1.000000
1295331.811524,-1.000000,-2.000000,-4.000000,-5.000000,-1.000000,4.000000,7.000000,-3.000000
1295331.818674,-6.000000,-15.000000,-9.000000,-15.000000,-12.000000,-21.000000,-14.000000,14.000000
1295331.818684,0.000000,1.000000,3.000000,9.000000,4.000000,2.000000,0.000000,-5.000000
1295331.819814,-5.000000,1.000000,-2.000000,5.000000,10.000000,16.000000,10.000000,-10.000000
1295331.819822,-1.000000,-7.000000,16.000000,-13.000000,-12.000000,-10.000000,-8.000000,1.000000
1295331.833704,-3.000000,4.000000,6.000000,5.000000,0.000000,-1.000000,-5.000000,1.000000
1295331.833754,1.000000,14.000000,4.000000,17.000000,14.000000,20.000000,14.000000,-10.000000
1295331.848353,-4.000000,-14.000000,-15.000000,-9.000000,-7.000000,-4.000000,-1.000000,-2.000000
1295331.848383,-4.000000,-1.000000,-6.000000,-5.000000,-9.000000,-14.000000,-10.000000,8.000000
1295331.849027,3.000000,5.000000,-2.000000,9.000000,7.000000,5.000000,2.000000,-7.000000
1295331.849035,-1.000000,-3.000000,-2.000000,-5.000000,-1.000000,2.000000,7.000000,3.000000
1295331.856998,1.000000,-17.000000,1.000000,-11.000000,-11.000000,-19.000000,-15.000000,2.000000
1295331.857011,-6.000000,3.000000,-9.000000,7.000000,2.000000,7.000000,1.000000,-3.000000
1295331.871237,-3.000000,12.000000,12.000000,9.000000,3.000000,15.000000,12.000000,-5.000000
1295331.871249,2.000000,-9.000000,-8.000000,-16.000000,-6.000000,-13.000000,-9.000000,5.000000
1295331.886465,-6.000000,7.000000,4.000000,8.000000,1.000000,0.000000,-6.000000,-3.000000
1295331.886494,7.000000,22.000000,9.000000,11.000000,10.000000,20.000000,17.000000,-3.000000
1295331.887464,-6.000000,-2.000000,-3.000000,-9.000000,-5.000000,-5.000000,-2.000000,-4.000000
1295331.887479,1.000000,0.000000,7.000000,-10.000000,-9.000000,-17.000000,-14.000000,7.000000
1295331.908797,-4.000000,5.000000,-7.000000,11.000000,12.000000,10.000000,4.000000,-6.000000
1295331.908807,-2.000000,-8.000000,-3.000000,-10.000000,-8.000000,2.000000,2.000000,0.000000
1295331.924164,1.000000,-14.000000,3.000000,-14.000000,-15.000000,-21.000000,-15.000000,5.000000
1295331.924195,-7.000000,3.000000,7.000000,-1.000000,5.000000,6.000000,6.000000,-1.000000
1295331.938487,1.000000,-1.000000,-12.000000,4.000000,6.000000,16.000000,9.000000,-7.000000
1295331.938497,1.000000,-10.000000,14.000000,-11.000000,-11.000000,-13.000000,-11.000000,5.000000
1295331.961391,2.000000,10.000000,1.000000,11.000000,5.000000,-1.000000,-2.000000,-1.000000
1295331.961419,0.000000,9.000000,2.000000,13.000000,9.000000,20.000000,14.000000,-13.000000
1295331.976152,-5.000000,-8.000000,1.000000,-7.000000,-5.000000,-3.000000,-3.000000,1.000000
1295331.976168,-3.000000,-1.000000,-22.000000,-2.000000,-7.000000,-13.000000,-14.000000,2.000000
1295332.006605,3.000000,19.000000,13.000000,12.000000,7.000000,8.000000,5.000000,-8.000000
1295332.006615,-1.000000,-9.000000,-6.000000,-5.000000,-4.000000,1.000000,5.000000,-2.000000
1295332.044077,-6.000000,-15.000000,-5.000000,-17.000000,-12.000000,-20.000000,-12.000000,7.000000
1295332.044090,0.000000,3.000000,4.000000,0.000000,7.000000,7.000000,-1.000000,-3.000000
1295332.044615,-3.000000,1.000000,-5.000000,-2.000000,0.000000,10.000000,8.000000,-4.000000
1295332.044623,1.000000,-17.000000,-20.000000,-15.000000,-10.000000,-16.000000,-10.000000,4.000000
1295332.045790,-5.000000,-7.000000,5.000000,-14.000000,-7.000000,-5.000000,-4.000000,-7.000000
1295332.045801,1.000000,-1.000000,4.000000,-10.000000,-8.000000,-12.000000,-11.000000,10.000000
1295332.047435,-7.000000,6.000000,10.000000,6.000000,5.000000,2.000000,-1.000000,0.000000
1295332.047443,0.000000,8.000000,0.000000,13.000000,7.000000,18.000000,15.000000,-6.000000
1295332.058961,-2.000000,-8.000000,8.000000,-15.000000,-16.000000,-15.000000,-16.000000,7.000000
1295332.058975,-2.000000,11.000000,18.000000,9.000000,1.000000,4.000000,3.000000,-2.000000
1295332.066420,-1.000000,0.000000,2.000000,6.000000,6.000000,13.000000,12.000000,-3.000000
1295332.066436,-2.000000,-12.000000,1.000000,-14.000000,-12.000000,-22.000000,-11.000000,5.000000
1295332.074341,-1.000000,3.000000,-7.000000,7.000000,7.000000,1.000000,-1.000000,-3.000000
1295332.074358,2.000000,9.000000,9.000000,10.000000,10.000000,20.000000,10.000000,-9.000000
1295332.089136,2.000000,-5.000000,-5.000000,-8.000000,-7.000000,-6.000000,-7.000000,2.000000
1295332.089166,-4.000000,2.000000,3.000000,0.000000,-6.000000,-7.000000,-7.000000,3.000000
1295332.096829,1.000000,14.000000,5.000000,22.000000,11.000000,17.000000,10.000000,-3.000000
1295332.096839,-4.000000,-8.000000,0.000000,-6.000000,-8.000000,1.000000,5.000000,2.000000
1295332.111126,3.000000,-13.000000,0.000000,-9.000000,-11.000000,-19.000000,-13.000000,6.000000
1295332.111147,-6.000000,1.000000,-6.000000,10.000000,9.000000,4.000000,0.000000,-2.000000
1295332.126006,0.000000,0.000000,4.000000,1.000000,-1.000000,7.000000,8.000000,-6.000000
1295332.126029,-1.000000,-14.000000,3.000000,-22.000000,-15.000000,-20.000000,-14.000000,6.000000
1295332.133816,-3.000000,4.000000,-7.000000,3.000000,-2.000000,-1.000000,-1.000000,4.000000
1295332.133827,-4.000000,1.000000,-14.000000,8.000000,14.000000,20.000000,14.000000,-12.000000
1295332.170953,0.000000,-4.000000,-1.000000,-10.000000,-7.000000,-8.000000,-1.000000,0.000000
1295332.170963,-6.000000,7.000000,5.000000,3.000000,0.000000,-11.000000,-10.000000,-9.000000
1295332.186160,3.000000,19.000000,-8.000000,16.000000,11.000000,16.000000,11.000000,10.000000
1295332.186172,0.000000,-14.000000,-13.000000,-14.000000,-8.000000,-4.000000,0.000000,-3.000000
1295332.201510,2.000000,-13.000000,7.000000,-18.000000,-18.000000,-21.000000,-14.000000,6.000000
1295332.201525,-2.000000,9.000000,13.000000,6.000000,0.000000,6.000000,1.000000,-6.000000
1295332.202136,-3.000000,-2.000000,-11.000000,-2.000000,3.000000,8.000000,10.000000,-1.000000
1295332.202147,2.000000,-17.000000,13.000000,-22.000000,-17.000000,-24.000000,-15.000000,9.000000
1295332.203471,-6.000000,1.000000,-18.000000,6.000000,3.000000,4.000000,-5.000000,-7.000000
1295332.203482,-5.000000,7.000000,1.000000,11.000000,9.000000,21.000000,13.000000,-8.000000
1295332.204290,-2.000000,-4.000000,14.000000,-3.000000,-4.000000,-4.000000,-1.000000,3.000000
1295332.204300,-5.000000,2.000000,-5.000000,-3.000000,-4.000000,-9.000000,-10.000000,6.000000
1295332.208637,-4.000000,-9.000000,-4.000000,-13.000000,-10.000000,-23.000000,-15.000000,6.000000
1295332.208660,3.000000,9.000000,-1.000000,4.000000,3.000000,6.000000,3.000000,-10.000000
1295332.217110,-1.000000,-3.000000,-10.000000,-8.000000,3.000000,10.000000,10.000000,-5.000000
1295332.217130,1.000000,-18.000000,4.000000,-19.000000,-9.000000,-20.000000,-15.000000,0.000000
1295332.239532,0.000000,11.000000,9.000000,13.000000,4.000000,4.000000,3.000000,11.000000
1295332.239553,5.000000,12.000000,9.000000,17.000000,9.000000,20.000000,12.000000,-11.000000
1295332.240465,2.000000,-2.000000,5.000000,-2.000000,-7.000000,-10.000000,-7.000000,4.000000
1295332.240484,2.000000,5.000000,5.000000,2.000000,-4.000000,-13.000000,-9.000000,-2.000000
1295332.246641,-2.000000,22.000000,17.000000,26.000000,17.000000,25.000000,15.000000,-7.000000
1295332.246663,-1.000000,-4.000000,-4.000000,-4.000000,-3.000000,-6.000000,-3.000000,-1.000000
1295332.283624,-1.000000,-9.000000,7.000000,-9.000000,-6.000000,-18.000000,-15.000000,6.000000
1295332.283637,-1.000000,7.000000,-3.000000,8.000000,8.000000,5.000000,4.000000,0.000000
1295332.321177,1.000000,-1.000000,-13.000000,0.000000,2.000000,6.000000,9.000000,-3.000000
1295332.321226,-3.000000,-17.000000,9.000000,-21.000000,-17.000000,-23.000000,-12.000000,7.000000
1295332.322311,-4.000000,-3.000000,-17.000000,4.000000,0.000000,0.000000,-3.000000,-5.000000
1295332.322346,-1.000000,4.000000,-4.000000,12.000000,9.000000,18.000000,15.000000,-7.000000
1295332.323047,-4.000000,-7.000000,12.000000,0.000000,-3.000000,-10.000000,-5.000000,1.000000
1295332.323056,2.000000,7.000000,-1.000000,2.000000,-3.000000,-5.000000,-8.000000,1.000000
1295332.324251,-2.000000,14.000000,-5.000000,15.000000,14.000000,18.000000,15.000000,-12.000000
1295332.324281,-1.000000,-8.000000,-9.000000,-9.000000,-4.000000,-3.000000,-2.000000,2.000000
1295332.328761,-5.000000,7.000000,15.000000,6.000000,3.000000,0.000000,2.000000,-3.000000
1295332.328771,0.000000,9.000000,8.000000,10.000000,5.000000,17.000000,12.000000,-12.000000
1295332.337080,5.000000,-6.000000,-7.000000,-11.000000,-5.000000,-11.000000,-4.000000,3.000000
1295332.337089,3.000000,2.000000,14.000000,11.000000,1.000000,-5.000000,-8.000000,21.000000
1295332.350904,2.000000,11.000000,-5.000000,20.000000,13.000000,22.000000,15.000000,-17.000000
1295332.350914,-5.000000,-3.000000,9.000000,-5.000000,-3.000000,-5.000000,-5.000000,2.000000
1295332.358492,-4.000000,-9.000000,-10.000000,-10.000000,-10.000000,-18.000000,-13.000000,9.000000
1295332.358503,0.000000,3.000000,3.000000,11.000000,-1.000000,2.000000,2.000000,-3.000000
1295332.366071,2.000000,-3.000000,12.000000,1.000000,-2.000000,4.000000,7.000000,0.000000
1295332.366081,-1.000000,-18.000000,-11.000000,-20.000000,-16.000000,-23.000000,-15.000000,10.000000
1295332.388618,-1.000000,3.000000,15.000000,5.000000,7.000000,6.000000,-1.000000,-4.000000
1295332.388640,-1.000000,7.000000,8.000000,12.000000,2.000000,16.000000,10.000000,-7.000000
1295332.404076,-6.000000,-10.000000,3.000000,-8.000000,-9.000000,-6.000000,-5.000000,1.000000
1295332.404096,-1.000000,8.000000,2.000000,7.000000,0.000000,-3.000000,-4.000000,2.000000
1295332.441323,4.000000,15.000000,0.000000,14.000000,13.000000,19.000000,11.000000,-11.000000
1295332.441419,-3.000000,-7.000000,-11.000000,-16.000000,-8.000000,-5.000000,-3.000000,-1.000000
1295332.441671,3.000000,-2.000000,27.000000,-4.000000,-7.000000,-17.000000,-14.000000,8.000000
1295332.441683,-1.000000,2.000000,-23.000000,6.000000,1.000000,6.000000,2.000000,-7.000000
1295332.442806,0.000000,-2.000000,-1.000000,-7.000000,-1.000000,5.000000,6.000000,2.000000
1295332.442823,-4.000000,-17.000000,-9.000000,-19.000000,-20.000000,-24.000000,-19.000000,3.000000
1295332.443569,4.000000,4.000000,7.000000,13.000000,5.000000,3.000000,-1.000000,-6.000000
1295332.443581,4.000000,7.000000,-5.000000,1.000000,1.000000,15.000000,11.000000,-1.000000
1295332.444970,-1.000000,-11.000000,4.000000,-8.000000,-12.000000,-14.000000,-7.000000,2.000000
1295332.444982,-2.000000,4.000000,-1.000000,9.000000,3.000000,-4.000000,-6.000000,6.000000
1295332.448575,-6.000000,16.000000,20.000000,19.000000,14.000000,23.000000,15.000000,-11.000000
1295332.448634,1.000000,-9.000000,-10.000000,-9.000000,-5.000000,-3.000000,0.000000,2.000000
1295332.464447,-1.000000,-3.000000,12.000000,2.000000,-7.000000,-17.000000,-13.000000,6.000000
1295332.464460,2.000000,10.000000,16.000000,12.000000,6.000000,5.000000,1.000000,-5.000000
1295332.478728,-1.000000,-3.000000,-7.000000,-8.000000,-3.000000,-2.000000,5.000000,0.000000
1295332.478742,-5.000000,-20.000000,-27.000000,-18.000000,-20.000000,-23.000000,-13.000000,7.000000
1295332.493649,-1.000000,12.000000,22.000000,11.000000,6.000000,4.000000,-1.000000,0.000000
1295332.493678,3.000000,4.000000,-1.000000,6.000000,1.000000,13.000000,11.000000,-3.000000
1295332.516322,-4.000000,-13.000000,-3.000000,-15.000000,-8.000000,-15.000000,-7.000000,2.000000
1295332.516337,-2.000000,7.000000,4.000000,3.000000,3.000000,-2.000000,-3.000000,-1.000000
1295332.531115,1.000000,10.000000,7.000000,18.000000,9.000000,21.000000,11.000000,-9.000000
1295332.531129,0.000000,-6.000000,-11.000000,-11.000000,1.000000,-3.000000,-3.000000,2.000000
1295332.561391,0.000000,-8.000000,-5.000000,-2.000000,-6.000000,-16.000000,-16.000000,6.000000
1295332.561407,3.000000,13.000000,17.000000,11.000000,6.000000,14.000000,8.000000,-7.000000
1295332.562283,-3.000000,-5.000000,16.000000,-9.000000,-8.000000,-1.000000,5.000000,9.000000
1295332.562295,-4.000000,-13.000000,-11.000000,-16.000000,-14.000000,-21.000000,-12.000000,8.000000
1295332.562810,6.000000,9.000000,-8.000000,-1.000000,4.000000,3.000000,1.000000,-6.000000
1295332.562822,6.000000,2.000000,0.000000,10.000000,6.000000,13.000000,12.000000,-13.000000
1295332.564175,-1.000000,-14.000000,2.000000,-11.000000,-9.000000,-14.000000,-11.000000,7.000000
1295332.564187,4.000000,9.000000,1.000000,6.000000,0.000000,-4.000000,-6.000000,-1.000000
1295332.564998,-6.000000,9.000000,-3.000000,16.000000,11.000000,16.000000,12.000000,-7.000000
1295332.565009,-5.000000,-6.000000,5.000000,-3.000000,-7.000000,-5.000000,-1.000000,1.000000
1295332.568568,-5.000000,-6.000000,8.000000,-14.000000,-9.000000,-2.000000,2.000000,-1.000000
1295332.568581,2.000000,-13.000000,5.000000,-8.000000,-12.000000,-20.000000,-18.000000,6.000000
1295332.598961,-1.000000,9.000000,-27.000000,1.000000,2.000000,2.000000,0.000000,-3.000000
1295332.598975,2.000000,4.000000,-5.000000,7.000000,2.000000,7.000000,9.000000,1.000000
1295332.606355,-6.000000,-10.000000,-3.000000,-22.000000,-12.000000,-16.000000,-12.000000,4.000000
1295332.606370,-5.000000,6.000000,0.000000,8.000000,5.000000,3.000000,1.000000,-2.000000
1295332.621291,-1.000000,12.000000,13.000000,15.000000,10.000000,15.000000,13.000000,-6.000000
1295332.621304,-1.000000,-9.000000,-14.000000,-11.000000,-5.000000,-4.000000,1.000000,8.000000
1295332.628681,-1.000000,-3.000000,4.000000,-1.000000,-5.000000,-10.000000,-14.000000,-11.000000
1295332.628708,-4.000000,11.000000,7.000000,19.000000,9.000000,12.000000,14.000000,11.000000
1295332.643688,0.000000,-13.000000,-10.000000,-11.000000,-1.000000,-4.000000,1.000000,-7.000000
1295332.643702,-6.000000,-17.000000,-14.000000,-13.000000,-13.000000,-24.000000,-11.000000,9.000000
1295332.651474,-3.000000,6.000000,25.000000,2.000000,5.000000,4.000000,1.000000,-1.000000
1295332.651488,2.000000,-4.000000,-18.000000,-3.000000,5.000000,9.000000,8.000000,-9.000000
1295332.681172,-5.000000,-21.000000,-4.000000,-24.000000,-15.000000,-18.000000,-10.000000,1.000000
1295332.681187,4.000000,10.000000,4.000000,4.000000,1.000000,0.000000,-3.000000,1.000000
1295332.688498,-4.000000,7.000000,1.000000,15.000000,17.000000,17.000000,14.000000,-8.000000
1295332.688510,1.000000,-13.000000,-13.000000,-13.000000,-6.000000,-12.000000,-6.000000,-4.000000
1295332.689929,-3.000000,-5.000000,-7.000000,-7.000000,-8.000000,-8.000000,-11.000000,5.000000
1295332.689941,-4.000000,19.000000,10.000000,23.000000,11.000000,14.000000,11.000000,-5.000000
1295332.690480,-5.000000,-14.000000,-11.000000,-7.000000,-11.000000,-4.000000,0.000000,1.000000
1295332.690491,2.000000,-11.000000,-4.000000,-15.000000,-11.000000,-21.000000,-13.000000,8.000000
1295332.692076,0.000000,7.000000,-3.000000,7.000000,4.000000,5.000000,3.000000,-4.000000
1295332.692089,-2.000000,-2.000000,17.000000,2.000000,4.000000,9.000000,8.000000,-6.000000
1295332.704432,2.000000,8.000000,8.000000,13.000000,11.000000,16.000000,10.000000,-10.000000
1295332.704445,3.000000,-9.000000,-21.000000,-11.000000,-7.000000,-8.000000,-1.000000,5.000000
1295332.711120,3.000000,3.000000,-13.000000,0.000000,-1.000000,-11.000000,-12.000000,-2.000000
1295332.711134,-3.000000,17.000000,-4.000000,25.000000,12.000000,16.000000,12.000000,-9.000000
1295332.726147,0.000000,-8.000000,3.000000,-1.000000,-6.000000,-3.000000,1.000000,1.000000
1295332.726160,-1.000000,-12.000000,2.000000,-12.000000,-13.000000,-20.000000,-15.000000,8.000000
1295332.763857,-2.000000,5.000000,11.000000,7.000000,4.000000,6.000000,0.000000,-6.000000
1295332.763883,2.000000,2.000000,-8.000000,-1.000000,-2.000000,13.000000,8.000000,-3.000000
1295332.778752,-6.000000,-21.000000,-9.000000,-26.000000,-21.000000,-25.000000,-16.000000,5.000000
1295332.778766,1.000000,6.000000,-3.000000,1.000000,4.000000,2.000000,0.000000,1.000000
1295332.793837,0.000000,11.000000,13.000000,7.000000,6.000000,15.000000,13.000000,-6.000000
1295332.793851,-4.000000,-15.000000,-10.000000,-8.000000,-8.000000,-8.000000,-8.000000,0.000000
1295332.794736,3.000000,5.000000,10.000000,2.000000,2.000000,-7.000000,-8.000000,-1.000000
1295332.794748,-5.000000,20.000000,-4.000000,28.000000,15.000000,19.000000,12.000000,-6.000000
1295332.795337,-1.000000,-9.000000,-22.000000,-18.000000,-7.000000,-8.000000,-1.000000,0.000000
1295332.795349,-7.000000,-10.000000,5.000000,-11.000000,-7.000000,-16.000000,-17.000000,5.000000
1295332.795979,-2.000000,8.000000,1.000000,5.000000,6.000000,7.000000,1.000000,-4.000000
1295332.795995,-1.000000,-6.000000,-6.000000,-1.000000,-1.000000,8.000000,7.000000,-4.000000
1295332.796657,-1.000000,-13.000000,-4.000000,-25.000000,-17.000000,-25.000000,-15.000000,5.000000
1295332.796668,-4.000000,3.000000,4.000000,5.000000,4.000000,4.000000,-5.000000,-3.000000
1295332.801094,0.000000,7.000000,-11.000000,7.000000,9.000000,22.000000,13.000000,-9.000000
1295332.801107,3.000000,-9.000000,6.000000,-6.000000,-8.000000,-4.000000,-5.000000,5.000000
1295332.808807,-2.000000,7.000000,2.000000,1.000000,3.000000,-9.000000,-10.000000,0.000000
1295332.808820,-3.000000,18.000000,4.000000,22.000000,18.000000,22.000000,13.000000,-10.000000
1295332.823761,-4.000000,-8.000000,-10.000000,-6.000000,-5.000000,-9.000000,-3.000000,-2.000000
1295332.823780,0.000000,-5.000000,4.000000,-12.000000,-11.000000,-20.000000,-19.000000,8.000000
1295332.831164,-2.000000,2.000000,-3.000000,7.000000,7.000000,5.000000,-1.000000,-6.000000
1295332.831178,0.000000,-8.000000,-2.000000,-2.000000,3.000000,4.000000,7.000000,-5.000000
1295332.846477,-6.000000,-21.000000,-15.000000,-32.000000,-15.000000,-23.000000,-12.000000,11.000000
1295332.846492,-3.000000,10.000000,15.000000,13.000000,4.000000,5.000000,-3.000000,-3.000000
1295332.861176,1.000000,3.000000,-6.000000,10.000000,6.000000,15.000000,10.000000,-8.000000
1295332.861190,-4.000000,-8.000000,2.000000,-6.000000,-4.000000,-6.000000,-6.000000,1.000000
1295332.883892,-1.000000,10.000000,5.000000,1.000000,2.000000,-7.000000,-5.000000,1.000000
1295332.883907,-2.000000,19.000000,5.000000,24.000000,16.000000,23.000000,12.000000,4.000000
1295332.891445,-2.000000,-5.000000,-6.000000,-6.000000,-5.000000,-3.000000,4.000000,9.000000
1295332.891460,-6.000000,-9.000000,12.000000,-10.000000,-9.000000,-17.000000,-16.000000,-9.000000
1295332.913689,-6.000000,6.000000,-9.000000,11.000000,7.000000,7.000000,4.000000,-8.000000
1295332.913709,-3.000000,-1.000000,-2.000000,-4.000000,0.000000,5.000000,3.000000,1.000000
1295332.928770,1.000000,-23.000000,3.000000,-19.000000,-13.000000,-22.000000,-14.000000,11.000000
1295332.928781,-6.000000,9.000000,-3.000000,3.000000,8.000000,0.000000,-3.000000,0.000000
1295332.929695,2.000000,9.000000,-5.000000,12.000000,5.000000,18.000000,13.000000,-11.000000
1295332.929705,-2.000000,-8.000000,-7.000000,-7.000000,-5.000000,-6.000000,-6.000000,-4.000000
1295332.930214,-6.000000,-1.000000,-13.000000,2.000000,-5.000000,-4.000000,-10.000000,1.000000
1295332.930222,-2.000000,18.000000,12.000000,17.000000,15.000000,23.000000,16.000000,-11.000000
1295332.932151,2.000000,-1.000000,-2.000000,0.000000,-6.000000,-6.000000,0.000000,-3.000000
1295332.932161,-4.000000,-5.000000,-15.000000,-10.000000,-12.000000,-21.000000,-19.000000,9.000000
1295332.958684,-1.000000,-23.000000,-6.000000,-22.000000,-19.000000,-21.000000,-14.000000,6.000000
1295332.958694,-2.000000,8.000000,10.000000,8.000000,7.000000,2.000000,-4.000000,-3.000000
1295332.966303,0.000000,5.000000,-4.000000,7.000000,6.000000,17.000000,10.000000,-11.000000
1295332.966313,0.000000,-8.000000,-9.000000,-13.000000,-4.000000,-8.000000,-3.000000,-10.000000
1295332.996337,1.000000,6.000000,15.000000,8.000000,3.000000,-6.000000,0.000000,7.000000
1295332.996354,3.000000,18.000000,3.000000,19.000000,15.000000,20.000000,16.000000,-13.000000
1295333.003578,-5.000000,-8.000000,-9.000000,-7.000000,-10.000000,-3.000000,-1.000000,4.000000
1295333.003587,-3.000000,-7.000000,6.000000,-7.000000,-8.000000,-17.000000,-18.000000,-8.000000
1295333.034252,0.000000,-6.000000,-20.000000,6.000000,5.000000,3.000000,7.000000,3.000000
1295333.034280,1.000000,-6.000000,-6.000000,-12.000000,-5.000000,-1.000000,2.000000,0.000000
1295333.034824,-8.000000,-20.000000,-3.000000,-24.000000,-12.000000,-22.000000,-19.000000,7.000000
1295333.034832,0.000000,8.000000,9.000000,3.000000,3.000000,4.000000,-1.000000,-11.000000
1295333.035937,2.000000,2.000000,-1.000000,2.000000,5.000000,9.000000,11.000000,-2.000000
1295333.035964,-1.000000,-9.000000,-5.000000,-6.000000,-7.000000,-8.000000,-6.000000,-3.000000
1295333.036623,-2.000000,0.000000,-2.000000,10.000000,3.000000,-3.000000,-7.000000,2.000000
1295333.036649,0.000000,10.000000,-7.000000,12.000000,10.000000,20.000000,12.000000,-5.000000
1295333.037817,0.000000,-1.000000,11.000000,-9.000000,-4.000000,-6.000000,1.000000,5.000000
1295333.037825,-5.000000,-6.000000,-13.000000,-13.000000,-8.000000,-17.000000,-16.000000,4.000000
1295333.041439,-8.000000,-21.000000,2.000000,-17.000000,-14.000000,-24.000000,-15.000000,7.000000
1295333.041463,-4.000000,0.000000,-10.000000,3.000000,6.000000,7.000000,1.000000,1.000000
1295333.048428,0.000000,4.000000,7.000000,10.000000,6.000000,14.000000,12.000000,-6.000000
1295333.048437,2.000000,-7.000000,4.000000,-15.000000,-5.000000,-10.000000,-10.000000,2.000000
1295333.078606,1.000000,6.000000,2.000000,11.000000,-1.000000,-4.000000,-5.000000,0.000000
1295333.078617,2.000000,17.000000,3.000000,13.000000,13.000000,20.000000,19.000000,-9.000000
1295333.086338,2.000000,-7.000000,-2.000000,-13.000000,-4.000000,-5.000000,-4.000000,-1.000000
1295333.086349,3.000000,0.000000,12.000000,1.000000,-6.000000,-14.000000,-12.000000,10.000000
1295333.123547,-5.000000,9.000000,4.000000,11.000000,8.000000,10.000000,5.000000,-6.000000
1295333.123558,0.000000,-4.000000,-6.000000,-11.000000,-7.000000,3.000000,1.000000,0.000000
1295333.146186,-6.000000,-16.000000,-6.000000,-17.000000,-14.000000,-22.000000,-15.000000,8.000000
1295333.146197,-8.000000,10.000000,9.000000,9.000000,6.000000,1.000000,-1.000000,-10.000000
1295333.161085,4.000000,3.000000,-1.000000,4.000000,5.000000,12.000000,11.000000,-1.000000
1295333.161102,-2.000000,-16.000000,-13.000000,-21.000000,-10.000000,-18.000000,-10.000000,2.000000
1295333.168764,2.000000,3.000000,-18.000000,2.000000,-1.000000,-5.000000,-6.000000,-3.000000
1295333.168777,-1.000000,8.000000,10.000000,15.000000,15.000000,17.000000,15.000000,-10.000000
1295333.169689,-6.000000,8.000000,-3.000000,17.000000,12.000000,11.000000,7.000000,-4.000000
1295333.169704,-1.000000,-8.000000,-4.000000,-13.000000,-6.000000,-5.000000,3.000000,-1.000000
1295333.170272,-1.000000,-18.000000,-1.000000,-14.000000,-16.000000,-24.000000,-16.000000,7.000000
1295333.170282,3.000000,4.000000,2.000000,0.000000,3.000000,9.000000,4.000000,-1.000000
1295333.170921,-4.000000,-1.000000,-11.000000,8.000000,2.000000,-5.000000,-3.000000,-5.000000
1295333.170931,-3.000000,14.000000,16.000000,13.000000,11.000000,20.000000,8.000000,-14.000000
1295333.171791,2.000000,-10.000000,-29.000000,-12.000000,-8.000000,-6.000000,-3.000000,2.000000
1295333.171801,-5.000000,2.000000,-14.000000,-4.000000,-5.000000,-14.000000,-17.000000,5.000000
1295333.183889,2.000000,6.000000,-1.000000,13.000000,5.000000,14.000000,7.000000,-8.000000
1295333.183902,3.000000,-10.000000,-21.000000,-9.000000,-4.000000,0.000000,5.000000,-1.000000
1295333.191139,1.000000,-7.000000,-4.000000,-12.000000,-14.000000,-23.000000,-15.000000,7.000000
1295333.191152,-7.000000,4.000000,-9.000000,2.000000,0.000000,4.000000,1.000000,-2.000000
1295333.205936,-5.000000,0.000000,3.000000,3.000000,3.000000,10.000000,6.000000,-8.000000
1295333.205945,-4.000000,-14.000000,-10.000000,-14.000000,-8.000000,-15.000000,-8.000000,5.000000
1295333.221301,10.000000,9.000000,39.000000,14.000000,2.000000,-1.000000,3.000000,2.000000
1295333.221312,-4.000000,3.000000,-24.000000,11.000000,9.000000,17.000000,10.000000,-12.000000
1295333.236099,-3.000000,-8.000000,1.000000,-6.000000,-5.000000,-6.000000,0.000000,5.000000
1295333.236110,-2.000000,-2.000000,-8.000000,4.000000,-4.000000,-12.000000,-12.000000,9.000000
1295333.243568,-1.000000,16.000000,11.000000,18.000000,10.000000,15.000000,10.000000,-7.000000
1295333.243578,-2.000000,-4.000000,7.000000,-1.000000,2.000000,4.000000,6.000000,6.000000
1295333.281105,0.000000,-14.000000,-19.000000,-11.000000,-13.000000,-19.000000,-14.000000,6.000000
1295333.281134,-2.000000,4.000000,0.000000,2.000000,6.000000,7.000000,-3.000000,-10.000000
1295333.311078,-4.000000,1.000000,3.000000,3.000000,1.000000,10.000000,7.000000,-11.000000
1295333.311088,-2.000000,-22.000000,-7.000000,-23.000000,-14.000000,-18.000000,-8.000000,10.000000
1295333.326137,-2.000000,9.000000,14.000000,9.000000,3.000000,1.000000,-6.000000,-1.000000
1295333.326155,-2.000000,10.000000,11.000000,7.000000,10.000000,18.000000,11.000000,-18.000000
1295333.326585,-2.000000,-6.000000,-3.000000,-7.000000,-7.000000,-6.000000,-4.000000,4.000000
1295333.326604,-4.000000,2.000000,-5.000000,1.000000,-2.000000,-10.000000,-8.000000,5.000000
1295333.327797,-5.000000,-8.000000,0.000000,-15.000000,-10.000000,-21.000000,-14.000000,9.000000
1295333.327807,1.000000,10.000000,13.000000,9.000000,3.000000,3.000000,2.000000,-4.000000
1295333.329275,1.000000,20.000000,19.000000,27.000000,15.000000,22.000000,14.000000,7.000000
1295333.329282,-1.000000,-11.000000,-3.000000,-6.000000,-5.000000,-3.000000,-2.000000,-6.000000
1295333.349150,3.000000,-8.000000,-25.000000,-18.000000,-9.000000,-17.000000,-17.000000,4.000000
1295333.349178,-2.000000,5.000000,-8.000000,4.000000,0.000000,5.000000,0.000000,-4.000000
1295333.349825,4.000000,0.000000,-2.000000,-1.000000,1.000000,10.000000,8.000000,0.000000
1295333.349833,-1.000000,-17.000000,-3.000000,-21.000000,-15.000000,-20.000000,-18.000000,4.000000
1295333.363700,-1.000000,6.000000,1.000000,8.000000,5.000000,6.000000,2.000000,12.000000
1295333.363710,-5.000000,-1.000000,-15.000000,1.000000,8.000000,13.000000,10.000000,-17.000000
1295333.393657,0.000000,-7.000000,-3.000000,-10.000000,-5.000000,-6.000000,-2.000000,6.000000
1295333.393669,-4.000000,1.000000,-2.000000,1.000000,-5.000000,-9.000000,-11.000000,3.000000
1295333.394635,-1.000000,21.000000,13.000000,25.000000,12.000000,16.000000,13.000000,-8.000000
1295333.394644,1.000000,-10.000000,3.000000,-10.000000,-1.000000,-6.000000,1.000000,3.000000
1295333.395136,-3.000000,-10.000000,6.000000,-10.000000,-11.000000,-16.000000,-17.000000,5.000000
1295333.395144,-1.000000,2.000000,3.000000,8.000000,2.000000,2.000000,0.000000,-6.000000
1295333.401268,2.000000,0.000000,8.000000,-4.000000,2.000000,8.000000,7.000000,-1.000000
1295333.401279,-3.000000,-14.000000,4.000000,-18.000000,-15.000000,-18.000000,-14.000000,4.000000
1295333.431426,1.000000,8.000000,13.000000,9.000000,2.000000,6.000000,0.000000,-2.000000
1295333.431454,-4.000000,9.000000,-9.000000,13.000000,10.000000,20.000000,12.000000,-11.000000
1295333.447308,-2.000000,-10.000000,5.000000,-2.000000,-3.000000,-13.000000,-6.000000,-1.000000
1295333.447337,8.000000,4.000000,12.000000,8.000000,1.000000,-6.000000,-7.000000,3.000000
1295333.462084,-2.000000,15.000000,-10.000000,8.000000,10.000000,16.000000,14.000000,-13.000000
1295333.462113,-5.000000,0.000000,11.000000,-2.000000,-5.000000,-5.000000,-2.000000,-4.000000
1295333.477367,-1.000000,-6.000000,-2.000000,-10.000000,-3.000000,-17.000000,-12.000000,4.000000
1295333.477408,-6.000000,1.000000,-1.000000,5.000000,3.000000,6.000000,1.000000,-6.000000
1295333.484499,2.000000,-5.000000,-7.000000,-5.000000,2.000000,2.000000,5.000000,-5.000000
1295333.484693,-2.000000,-18.000000,-4.000000,-15.000000,-18.000000,-22.000000,-15.000000,7.000000
1295333.514996,-5.000000,6.000000,-7.000000,0.000000,6.000000,2.000000,0.000000,-1.000000
1295333.515882,-3.000000,9.000000,0.000000,14.000000,5.000000,14.000000,12.000000,-7.000000
1295333.518047,-2.000000,-10.000000,-11.000000,-6.000000,-4.000000,-8.000000,-5.000000,-2.000000
1295333.518084,3.000000,3.000000,1.000000,2.000000,-3.000000,-6.000000,-9.000000,5.000000
1295333.519092,2.000000,20.000000,-7.000000,23.000000,16.000000,17.000000,12.000000,-10.000000
1295333.519121,-3.000000,-6.000000,15.000000,-12.000000,-10.000000,-5.000000,0.000000,0.000000
1295333.519301,2.000000,-3.000000,-5.000000,-5.000000,-6.000000,4.000000,6.000000,-4.000000
1295333.519350,-4.000000,-18.000000,-14.000000,-22.000000,-16.000000,-23.000000,-16.000000,-3.000000
1295333.519729,-3.000000,-10.000000,-11.000000,-14.000000,-6.000000,-13.000000,-14.000000,2.000000
1295333.519757,-6.000000,7.000000,4.000000,5.000000,7.000000,7.000000,-2.000000,-9.000000
1295333.520595,4.000000,5.000000,2.000000,4.000000,-1.000000,4.000000,1.000000,5.000000
1295333.520623,-5.000000,6.000000,22.000000,9.000000,3.000000,17.000000,13.000000,-16.000000
1295333.521963,10.000000,-8.000000,-19.000000,-3.000000,-8.000000,-14.000000,-3.000000,4.000000
1295333.521994,0.000000,3.000000,-3.000000,4.000000,1.000000,-6.000000,-10.000000,4.000000
1295333.552368,-7.000000,18.000000,1.000000,22.000000,19.000000,22.000000,12.000000,-9.000000
1295333.552398,0.000000,-7.000000,5.000000,1.000000,-3.000000,-5.000000,0.000000,-5.000000
1295333.589291,1.000000,-7.000000,1.000000,-10.000000,-12.000000,-21.000000,-16.000000,4.000000
1295333.589307,-3.000000,5.000000,-2.000000,7.000000,6.000000,8.000000,3.000000,-4.000000
1295333.596341,1.000000,-4.000000,7.000000,-5.000000,0.000000,7.000000,7.000000,2.000000
1295333.596356,-5.000000,-12.000000,10.000000,-22.000000,-19.000000,-22.000000,-13.000000,13.000000
1295333.611033,1.000000,9.000000,20.000000,15.000000,7.000000,4.000000,2.000000,-2.000000
1295333.611084,7.000000,4.000000,-3.000000,7.000000,6.000000,18.000000,12.000000,-6.000000
1295333.611561,-2.000000,-9.000000,-3.000000,-8.000000,-6.000000,-7.000000,-7.000000,-8.000000
1295333.611574,-5.000000,5.000000,-1.000000,6.000000,5.000000,-5.000000,-7.000000,10.000000
1295333.626888,0.000000,17.000000,17.000000,12.000000,14.000000,23.000000,15.000000,-3.000000
1295333.626903,1.000000,-7.000000,-13.000000,-9.000000,-3.000000,-6.000000,0.000000,-1.000000
1295333.627249,0.000000,-10.000000,-4.000000,-13.000000,-5.000000,1.000000,7.000000,3.000000
1295333.627263,0.000000,-13.000000,6.000000,-16.000000,-17.000000,-26.000000,-21.000000,5.000000
1295333.628020,-2.000000,-2.000000,-24.000000,3.000000,9.000000,5.000000,-2.000000,-9.000000
1295333.628032,5.000000,8.000000,13.000000,6.000000,3.000000,14.000000,12.000000,-8.000000
1295333.628808,-5.000000,-16.000000,-23.000000,-14.000000,-7.000000,-15.000000,-8.000000,4.000000
1295333.628823,-1.000000,4.000000,20.000000,14.000000,5.000000,1.000000,-2.000000,5.000000
1295333.633865,-1.000000,13.000000,-5.000000,15.000000,12.000000,19.000000,14.000000,-12.000000
1295333.633892,6.000000,-7.000000,-9.000000,-11.000000,-4.000000,-4.000000,0.000000,1.000000
1295333.641905,0.000000,-12.000000,-3.000000,-9.000000,-6.000000,-19.000000,-14.000000,4.000000
1295333.641928,-1.000000,9.000000,8.000000,15.000000,8.000000,10.000000,2.000000,-8.000000
1295333.663592,-3.000000,-8.000000,1.000000,-10.000000,-5.000000,1.000000,1.000000,-3.000000
1295333.663602,-1.000000,-11.000000,-3.000000,-17.000000,-14.000000,-20.000000,-13.000000,10.000000
1295333.678563,3.000000,7.000000,0.000000,7.000000,6.000000,5.000000,0.000000,-5.000000
1295333.678573,-1.000000,-1.000000,-15.000000,5.000000,5.000000,12.000000,11.000000,4.000000
1295333.686061,-5.000000,-18.000000,-12.000000,-21.000000,-9.000000,-19.000000,-12.000000,-13.000000
1295333.686089,-1.000000,8.000000,-12.000000,2.000000,3.000000,-1.000000,0.000000,5.000000
1295333.715931,5.000000,12.000000,7.000000,20.000000,10.000000,19.000000,12.000000,-17.000000
1295333.715962,1.000000,-7.000000,-1.000000,-5.000000,-3.000000,-4.000000,4.000000,9.000000
1295333.723448,-4.000000,-5.000000,-2.000000,-10.000000,-6.000000,-15.000000,-9.000000,2.000000
1295333.723458,3.000000,9.000000,11.000000,10.000000,6.000000,8.000000,5.000000,-4.000000
1295333.746018,2.000000,-1.000000,7.000000,-11.000000,-10.000000,-3.000000,0.000000,0.000000
1295333.746030,-3.000000,-15.000000,5.000000,-18.000000,-12.000000,-17.000000,-19.000000,5.000000
1295333.746423,-4.000000,4.000000,4.000000,6.000000,8.000000,5.000000,8.000000,11.000000
1295333.746433,3.000000,8.000000,2.000000,0.000000,4.000000,15.000000,10.000000,-11.000000
1295333.747737,3.000000,-12.000000,-3.000000,-13.000000,-9.000000,-12.000000,-11.000000,3.000000
1295333.747747,2.000000,9.000000,1.000000,4.000000,2.000000,-2.000000,-7.000000,-3.000000
1295333.748477,-1.000000,11.000000,7.000000,9.000000,10.000000,19.000000,12.000000,-9.000000
1295333.748487,-2.000000,-3.000000,3.000000,-2.000000,-4.000000,-5.000000,-3.000000,1.000000
1295333.749262,-8.000000,-6.000000,-22.000000,-4.000000,-4.000000,-10.000000,-11.000000,6.000000
1295333.749271,3.000000,16.000000,22.000000,14.000000,5.000000,10.000000,6.000000,-5.000000
1295333.753497,3.000000,0.000000,-19.000000,-9.000000,-6.000000,-6.000000,-1.000000,-3.000000
1295333.753511,2.000000,-6.000000,13.000000,-13.000000,-12.000000,-21.000000,-15.000000,3.000000
1295333.761112,-6.000000,0.000000,-3.000000,5.000000,3.000000,0.000000,6.000000,4.000000
1295333.761135,3.000000,0.000000,-10.000000,-2.000000,3.000000,11.000000,11.000000,-15.000000
1295333.791303,1.000000,-13.000000,0.000000,-19.000000,-12.000000,-10.000000,-12.000000,11.000000
1295333.791316,3.000000,7.000000,5.000000,12.000000,6.000000,3.000000,-3.000000,-5.000000
1295333.806914,1.000000,13.000000,8.000000,18.000000,14.000000,23.000000,14.000000,-6.000000
1295333.806943,2.000000,-4.000000,0.000000,-10.000000,-6.000000,-11.000000,-6.000000,-3.000000
1295333.829713,5.000000,-6.000000,-20.000000,-11.000000,-11.000000,-17.000000,-11.000000,10.000000
1295333.829771,-3.000000,18.000000,14.000000,13.000000,15.000000,10.000000,7.000000,-9.000000
1295333.839522,-1.000000,-7.000000,-25.000000,-18.000000,-6.000000,-4.000000,1.000000,-4.000000
1295333.839577,-6.000000,-10.000000,13.000000,-10.000000,-12.000000,-17.000000,-15.000000,8.000000
1295333.840009,1.000000,8.000000,3.000000,12.000000,6.000000,6.000000,-4.000000,-5.000000
1295333.840039,3.000000,5.000000,0.000000,6.000000,4.000000,13.000000,13.000000,-2.000000
1295333.840666,5.000000,-14.000000,-3.000000,-19.000000,-13.000000,-16.000000,-9.000000,1.000000
1295333.840690,-1.000000,6.000000,-1.000000,3.000000,-1.000000,0.000000,-5.000000,-4.000000
1295333.841481,-3.000000,17.000000,16.000000,12.000000,7.000000,17.000000,13.000000,-14.000000
1295333.841508,-8.000000,-20.000000,-23.000000,-13.000000,-7.000000,-12.000000,-6.000000,-2.000000
1295333.866606,-3.000000,2.000000,-17.000000,-7.000000,-4.000000,-7.000000,-10.000000,11.000000
1295333.866645,-1.000000,17.000000,9.000000,20.000000,10.000000,17.000000,6.000000,-12.000000
1295333.867152,-1.000000,-6.000000,2.000000,-6.000000,-1.000000,-3.000000,2.000000,8.000000
1295333.867189,-2.000000,-13.000000,-33.000000,-21.000000,-9.000000,-24.000000,-13.000000,10.000000
1295333.868297,-1.000000,14.000000,19.000000,11.000000,8.000000,7.000000,0.000000,-3.000000
1295333.868325,0.000000,0.000000,-1.000000,-2.000000,3.000000,13.000000,7.000000,-5.000000
1295333.874072,-6.000000,-18.000000,-8.000000,-26.000000,-12.000000,-19.000000,-15.000000,-1.000000
1295333.874090,-2.000000,11.000000,20.000000,3.000000,-3.000000,-1.000000,-2.000000,-1.000000
1295333.904128,-3.000000,0.000000,-12.000000,10.000000,9.000000,16.000000,9.000000,-10.000000
1295333.904153,-2.000000,-4.000000,-2.000000,-8.000000,-3.000000,-1.000000,-5.000000,4.000000
1295333.911395,2.000000,3.000000,2.000000,1.000000,-2.000000,-12.000000,-12.000000,-6.000000
1295333.911416,1.000000,14.000000,-8.000000,7.000000,9.000000,13.000000,13.000000,2.000000
1295333.925977,6.000000,-3.000000,6.000000,-6.000000,-5.000000,-1.000000,2.000000,5.000000
1295333.925987,5.000000,-6.000000,5.000000,-11.000000,-11.000000,-21.000000,-15.000000,7.000000
1295333.941072,-2.000000,5.000000,1.000000,3.000000,4.000000,4.000000,0.000000,-6.000000
1295333.941083,0.000000,3.000000,-3.000000,-6.000000,0.000000,11.000000,11.000000,-5.000000
1295333.956619,-1.000000,-14.000000,-2.000000,-22.000000,-15.000000,-18.000000,-10.000000,-4.000000
1295333.956665,-5.000000,6.000000,0.000000,8.000000,4.000000,6.000000,-3.000000,0.000000
1295333.987715,-3.000000,9.000000,2.000000,13.000000,12.000000,15.000000,17.000000,-3.000000
1295333.987771,-3.000000,-14.000000,-1.000000,-11.000000,-4.000000,-9.000000,-1.000000,4.000000
1295333.990270,-6.000000,-6.000000,-5.000000,-8.000000,-5.000000,-4.000000,1.000000,-2.000000
1295333.990761,-1.000000,-15.000000,0.000000,-17.000000,-9.000000,-16.000000,-19.000000,2.000000
1295333.991487,-3.000000,-5.000000,16.000000,6.000000,-5.000000,-11.000000,-10.000000,2.000000
1295333.991514,4.000000,18.000000,11.000000,24.000000,17.000000,19.000000,6.000000,-8.000000
1295333.991659,0.000000,10.000000,10.000000,9.000000,5.000000,5.000000,3.000000,1.000000
1295333.991674,3.000000,-1.000000,0.000000,-2.000000,3.000000,10.000000,9.000000,-5.000000
1295333.991991,-3.000000,-30.000000,-19.000000,-26.000000,-18.000000,-24.000000,-10.000000,7.000000
1295333.992007,-2.000000,11.000000,17.000000,3.000000,4.000000,3.000000,-3.000000,-1.000000
1295333.994410,-3.000000,4.000000,2.000000,2.000000,-3.000000,-9.000000,-7.000000,5.000000
1295333.994440,4.000000,15.000000,-7.000000,16.000000,10.000000,18.000000,9.000000,-13.000000
1295334.002793,2.000000,-14.000000,-17.000000,-6.000000,-8.000000,-8.000000,1.000000,-1.000000
1295334.002828,-5.000000,-8.000000,2.000000,-12.000000,-11.000000,-18.000000,-17.000000,2.000000
1295334.016451,-3.000000,6.000000,2.000000,10.000000,6.000000,9.000000,7.000000,3.000000
1295334.016471,-2.000000,-5.000000,-1.000000,-7.000000,2.000000,8.000000,6.000000,2.000000
1295334.031383,-3.000000,-17.000000,2.000000,-20.000000,-17.000000,-20.000000,-15.000000,-2.000000
1295334.031405,3.000000,4.000000,4.000000,6.000000,2.000000,0.000000,-1.000000,0.000000
1295334.053638,-3.000000,0.000000,-25.000000,7.000000,3.000000,14.000000,10.000000,-10.000000
1295334.053665,2.000000,-7.000000,10.000000,-11.000000,-3.000000,-4.000000,-4.000000,0.000000
1295334.068856,-5.000000,-1.000000,-5.000000,-1.000000,-4.000000,-11.000000,-5.000000,10.000000
1295334.068869,4.000000,20.000000,6.000000,21.000000,12.000000,17.000000,9.000000,-10.000000
1295334.106132,-19.000000,-7.000000,9.000000,-9.000000,-8.000000,-6.000000,1.000000,-10.000000
1295334.106145,2.000000,-5.000000,6.000000,-8.000000,-10.000000,-20.000000,-18.000000,4.000000
1295334.106464,-2.000000,4.000000,-1.000000,9.000000,4.000000,4.000000,2.000000,-6.000000
1295334.106473,-1.000000,-3.000000,-4.000000,-6.000000,2.000000,4.000000,6.000000,1.000000
1295334.107791,-6.000000,-23.000000,-5.000000,-26.000000,-16.000000,-21.000000,-17.000000,5.000000
1295334.107806,-1.000000,8.000000,5.000000,8.000000,3.000000,5.000000,2.000000,1.000000
1295334.108391,2.000000,7.000000,-6.000000,13.000000,7.000000,16.000000,12.000000,-10.000000
1295334.108401,-3.000000,-8.000000,-2.000000,-5.000000,-8.000000,-17.000000,-6.000000,5.000000
1295334.110012,-3.000000,-1.000000,-5.000000,-2.000000,-3.000000,-4.000000,-8.000000,-2.000000
1295334.110022,-3.000000,20.000000,11.000000,20.000000,12.000000,22.000000,13.000000,-5.000000
1295334.114246,-2.000000,4.000000,1.000000,5.000000,2.000000,5.000000,5.000000,4.000000
1295334.114257,0.000000,-2.000000,8.000000,3.000000,0.000000,4.000000,4.000000,-9.000000
1295334.128768,-5.000000,-22.000000,-7.000000,-19.000000,-16.000000,-26.000000,-18.000000,13.000000
1295334.128790,0.000000,3.000000,10.000000,9.000000,2.000000,2.000000,-4.000000,-2.000000
1295334.151360,1.000000,4.000000,0.000000,5.000000,6.000000,16.000000,12.000000,-8.000000
1295334.151374,1.000000,-10.000000,10.000000,-12.000000,-5.000000,-9.000000,-7.000000,4.000000
1295334.158924,0.000000,7.000000,-22.000000,4.000000,5.000000,-6.000000,-5.000000,1.000000
1295334.158938,2.000000,13.000000,8.000000,19.000000,9.000000,18.000000,10.000000,-7.000000
1295334.181027,0.000000,-8.000000,-10.000000,-6.000000,-3.000000,-3.000000,-1.000000,1.000000
1295334.181040,-2.000000,-12.000000,-3.000000,-9.000000,-8.000000,-16.000000,-14.000000,4.000000
1295334.188591,-5.000000,8.000000,24.000000,6.000000,4.000000,6.000000,0.000000,-6.000000
1295334.188603,0.000000,-9.000000,-7.000000,-2.000000,-6.000000,5.000000,5.000000,8.000000
1295334.203942,-3.000000,-10.000000,-3.000000,-19.000000,-14.000000,-21.000000,-12.000000,7.000000
1295334.203955,1.000000,8.000000,2.000000,1.000000,1.000000,3.000000,-3.000000,-4.000000
1295334.226279,5.000000,6.000000,-10.000000,8.000000,6.000000,13.000000,11.000000,-16.000000
1295334.226293,2.000000,-1.000000,23.000000,-5.000000,-7.000000,-10.000000,-4.000000,9.000000
1295334.233973,-1.000000,4.000000,3.000000,10.000000,-1.000000,-4.000000,-6.000000,-2.000000
1295334.233984,-3.000000,11.000000,-4.000000,16.000000,10.000000,19.000000,13.000000,-13.000000
1295334.234674,2.000000,-6.000000,-15.000000,-15.000000,-6.000000,-6.000000,2.000000,2.000000
1295334.234695,-2.000000,-4.000000,19.000000,0.000000,-5.000000,-17.000000,-16.000000,7.000000
1295334.235906,-4.000000,8.000000,-4.000000,8.000000,7.000000,11.000000,6.000000,4.000000
1295334.235918,-10.000000,-9.000000,-7.000000,-7.000000,-2.000000,1.000000,5.000000,-9.000000
1295334.236865,2.000000,-19.000000,-5.000000,-20.000000,-14.000000,-21.000000,-17.000000,12.000000
1295334.236880,5.000000,8.000000,-1.000000,6.000000,3.000000,2.000000,3.000000,5.000000
1295334.263694,-4.000000,4.000000,-4.000000,6.000000,0.000000,-6.000000,-8.000000,-5.000000
1295334.263707,-2.000000,14.000000,5.000000,11.000000,11.000000,19.000000,11.000000,-6.000000
1295334.278760,-2.000000,-8.000000,2.000000,-7.000000,-6.000000,-5.000000,-1.000000,1.000000
1295334.278773,-1.000000,-5.000000,-10.000000,3.000000,-9.000000,-15.000000,-17.000000,1.000000
1295334.293789,2.000000,13.000000,15.000000,13.000000,7.000000,7.000000,4.000000,-3.000000
1295334.293800,-3.000000,-9.000000,-22.000000,-15.000000,-9.000000,1.000000,5.000000,-7.000000
1295334.309346,-2.000000,-12.000000,3.000000,-18.000000,-17.000000,-22.000000,-13.000000,11.000000
1295334.309374,-7.000000,6.000000,-9.000000,8.000000,-1.000000,5.000000,-3.000000,-9.000000
1295334.316397,-2.000000,7.000000,0.000000,3.000000,0.000000,13.000000,14.000000,-5.000000
1295334.316684,-4.000000,-9.000000,-4.000000,-14.000000,-7.000000,-11.000000,-7.000000,4.000000
1295334.317363,-6.000000,9.000000,7.000000,2.000000,2.000000,-2.000000,-6.000000,-2.000000
1295334.317394,-2.000000,7.000000,-11.000000,7.000000,6.000000,19.000000,10.000000,-4.000000
1295334.317750,-3.000000,-12.000000,2.000000,-3.000000,-8.000000,-5.000000,-2.000000,-1.000000
1295334.317777,-5.000000,-4.000000,-1.000000,-8.000000,-4.000000,-15.000000,-16.000000,7.000000
1295334.319643,-1.000000,8.000000,0.000000,17.000000,6.000000,10.000000,4.000000,-1.000000
1295334.319693,2.000000,-8.000000,-10.000000,-12.000000,-2.000000,0.000000,6.000000,-5.000000
1295334.346177,-7.000000,-12.000000,9.000000,-18.000000,-12.000000,-22.000000,-16.000000,4.000000
1295334.346188,-4.000000,0.000000,-10.000000,8.000000,2.000000,6.000000,4.000000,-1.000000
1295334.347123,-1.000000,3.000000,-3.000000,4.000000,5.000000,10.000000,7.000000,-11.000000
1295334.347132,-3.000000,-13.000000,-12.000000,-20.000000,-9.000000,-14.000000,-13.000000,0.000000
1295334.347872,-3.000000,8.000000,0.000000,10.000000,4.000000,2.000000,-6.000000,-5.000000
1295334.347880,4.000000,13.000000,3.000000,14.000000,14.000000,18.000000,16.000000,-10.000000
1295334.354491,-3.000000,-6.000000,0.000000,0.000000,-4.000000,-4.000000,-4.000000,1.000000
1295334.354501,-6.000000,-2.000000,0.000000,1.000000,-5.000000,-10.000000,-11.000000,5.000000
1295334.384063,0.000000,10.000000,1.000000,15.000000,9.000000,11.000000,7.000000,-6.000000
1295334.384074,-4.000000,-4.000000,8.000000,-16.000000,-2.000000,0.000000,4.000000,0.000000
1295334.406593,0.000000,-12.000000,3.000000,-13.000000,-14.000000,-19.000000,-14.000000,6.000000
1295334.406622,-5.000000,7.000000,5.000000,10.000000,1.000000,6.000000,-1.000000,-6.000000
1295334.421176,-1.000000,4.000000,-1.000000,-2.000000,1.000000,11.000000,10.000000,-5.000000
1295334.421201,-5.000000,-26.000000,-5.000000,-18.000000,-16.000000,-18.000000,-16.000000,5.000000
1295334.429212,1.000000,11.000000,7.000000,10.000000,3.000000,0.000000,-5.000000,-2.000000
1295334.429221,-4.000000,11.000000,-7.000000,3.000000,10.000000,20.000000,14.000000,-11.000000
1295334.429719,-1.000000,-3.000000,-2.000000,-10.000000,-7.000000,-5.000000,-3.000000,-2.000000
1295334.429731,-1.000000,-4.000000,-1.000000,-4.000000,-3.000000,-15.000000,-11.000000,12.000000
1295334.430777,-1.000000,12.000000,5.000000,16.000000,13.000000,13.000000,7.000000,-18.000000
1295334.430785,6.000000,-4.000000,-3.000000,-5.000000,-7.000000,-2.000000,0.000000,5.000000
1295334.431701,-23.000000,-11.000000,-6.000000,-17.000000,-13.000000,-18.000000,-15.000000,0.000000
1295334.431710,-3.000000,7.000000,6.000000,8.000000,5.000000,7.000000,0.000000,-1.000000
1295334.437081,-1.000000,-3.000000,0.000000,5.000000,0.000000,10.000000,7.000000,-5.000000
1295334.437092,-2.000000,-13.000000,-2.000000,-19.000000,-10.000000,-11.000000,-9.000000,5.000000
1295334.443792,-1.000000,14.000000,35.000000,9.000000,2.000000,1.000000,-5.000000,-2.000000
1295334.443802,2.000000,12.000000,-21.000000,8.000000,5.000000,12.000000,13.000000,-8.000000
1295334.459150,1.000000,8.000000,-2.000000,-10.000000,-5.000000,-8.000000,2.000000,4.000000
1295334.459179,2.000000,-5.000000,3.000000,3.000000,-4.000000,-10.000000,-11.000000,-4.000000
1295334.465846,-4.000000,17.000000,8.000000,20.000000,11.000000,14.000000,11.000000,-4.000000
1295334.465863,-8.000000,-7.000000,-4.000000,-8.000000,-8.000000,-2.000000,4.000000,1.000000
1295334.474352,-4.000000,-15.000000,7.000000,-8.000000,-14.000000,-17.000000,-15.000000,7.000000
1295334.474361,-7.000000,0.000000,-6.000000,5.000000,8.000000,11.000000,3.000000,-1.000000
1295334.481305,-2.000000,3.000000,4.000000,-2.000000,1.000000,11.000000,8.000000,-5.000000
1295334.481316,-3.000000,-20.000000,-8.000000,-17.000000,-16.000000,-20.000000,-13.000000,6.000000
1295334.503504,0.000000,5.000000,-2.000000,3.000000,4.000000,4.000000,-1.000000,-3.000000
1295334.503541,-5.000000,10.000000,-3.000000,8.000000,12.000000,21.000000,15.000000,-7.000000
1295334.504184,-1.000000,-11.000000,-1.000000,-8.000000,-7.000000,-9.000000,-1.000000,4.000000
1295334.504192,-4.000000,-5.000000,6.000000,1.000000,-2.000000,-6.000000,-6.000000,8.000000
1295334.541394,-5.000000,16.000000,-2.000000,22.000000,13.000000,16.000000,6.000000,-30.000000
1295334.541408,2.000000,-7.000000,-8.000000,-15.000000,-10.000000,-2.000000,-1.000000,-2.000000
1295334.548747,2.000000,-8.000000,7.000000,-15.000000,-8.000000,-18.000000,-15.000000,13.000000
1295334.548825,1.000000,4.000000,2.000000,2.000000,4.000000,3.000000,0.000000,-8.000000
1295334.571135,-2.000000,-8.000000,2.000000,1.000000,0.000000,8.000000,6.000000,3.000000
1295334.571147,-3.000000,-17.000000,-15.000000,-29.000000,-15.000000,-22.000000,-14.000000,7.000000
1295334.578820,2.000000,10.000000,22.000000,7.000000,0.000000,-1.000000,-7.000000,-4.000000
1295334.578831,-1.000000,12.000000,-21.000000,12.000000,8.000000,19.000000,17.000000,-5.000000
1295334.593737,0.000000,-4.000000,14.000000,-11.000000,-6.000000,-7.000000,-4.000000,-4.000000
1295334.593772,0.000000,3.000000,15.000000,3.000000,-2.000000,-9.000000,-12.000000,4.000000
1295334.608450,1.000000,15.000000,4.000000,19.000000,12.000000,17.000000,11.000000,-12.000000
1295334.608479,1.000000,-8.000000,0.000000,-2.000000,-8.000000,-4.000000,2.000000,1.000000
1295334.631383,3.000000,-10.000000,-17.000000,-10.000000,-9.000000,-17.000000,-13.000000,9.000000
1295334.631396,2.000000,3.000000,-6.000000,7.000000,4.000000,4.000000,3.000000,-2.000000
1295334.662045,-2.000000,-2.000000,6.000000,0.000000,0.000000,6.000000,8.000000,-7.000000
1295334.662452,0.000000,-20.000000,-12.000000,-26.000000,-15.000000,-20.000000,-12.000000,7.000000
1295334.664714,0.000000,-5.000000,11.000000,-13.000000,-5.000000,-8.000000,-2.000000,2.000000
1295334.664781,-1.000000,-3.000000,-13.000000,5.000000,-1.000000,-7.000000,-8.000000,3.000000
1295334.666177,1.000000,22.000000,-6.000000,15.000000,9.000000,22.000000,10.000000,-9.000000
1295334.666206,-4.000000,-8.000000,-2.000000,-8.000000,-7.000000,-9.000000,2.000000,7.000000
1295334.667713,-4.000000,5.000000,-13.000000,3.000000,4.000000,1.000000,-3.000000,-6.000000
1295334.667738,5.000000,2.000000,-13.000000,5.000000,7.000000,18.000000,17.000000,-3.000000
1295334.705969,1.000000,-5.000000,5.000000,-8.000000,-4.000000,-16.000000,-12.000000,7.000000
1295334.705980,2.000000,5.000000,-5.000000,5.000000,7.000000,9.000000,3.000000,-6.000000
1295334.713802,4.000000,-3.000000,-6.000000,-6.000000,-3.000000,6.000000,7.000000,-5.000000
1295334.713812,1.000000,-14.000000,-5.000000,-18.000000,-18.000000,-23.000000,-17.000000,6.000000
1295334.736016,0.000000,4.000000,-13.000000,3.000000,6.000000,7.000000,-2.000000,-1.000000
1295334.736033,0.000000,10.000000,8.000000,5.000000,2.000000,10.000000,14.000000,2.000000
1295334.743620,2.000000,-9.000000,-17.000000,-7.000000,-3.000000,-7.000000,-7.000000,-15.000000
1295334.743643,1.000000,9.000000,-1.000000,11.000000,0.000000,-5.000000,-4.000000,10.000000
1295334.781162,-4.000000,17.000000,14.000000,20.000000,14.000000,20.000000,13.000000,-5.000000
1295334.781184,-3.000000,-3.000000,2.000000,-5.000000,-7.000000,-4.000000,-2.000000,-14.000000
1295334.788497,-3.000000,-7.000000,5.000000,-10.000000,-12.000000,-19.000000,-14.000000,13.000000
1295334.788510,-1.000000,7.000000,-11.000000,4.000000,5.000000,8.000000,1.000000,-5.000000
1295334.833564,4.000000,9.000000,15.000000,0.000000,3.000000,3.000000,-1.000000,-1.000000
1295334.833584,-2.000000,8.000000,24.000000,11.000000,3.000000,10.000000,11.000000,-10.000000
1295334.856113,0.000000,7.000000,-7.000000,12.000000,11.000000,15.000000,14.000000,-9.000000
1295334.856123,3.000000,-4.000000,-8.000000,-11.000000,-7.000000,-4.000000,1.000000,3.000000
1295334.871240,3.000000,6.000000,-7.000000,8.000000,-1.000000,7.000000,-4.000000,0.000000
1295334.871253,-6.000000,7.000000,-15.000000,6.000000,7.000000,19.000000,9.000000,-3.000000
1295334.885978,-3.000000,-9.000000,-3.000000,-14.000000,-12.000000,-11.000000,-9.000000,-8.000000
1295334.886002,-3.000000,1.000000,6.000000,13.000000,0.000000,-8.000000,-11.000000,1.000000
1295334.908818,-1.000000,3.000000,6.000000,6.000000,7.000000,5.000000,-1.000000,-2.000000
1295334.908829,-2.000000,-2.000000,-1.000000,0.000000,1.000000,12.000000,13.000000,-6.000000
1295334.909651,0.000000,9.000000,-1.000000,7.000000,7.000000,23.000000,13.000000,-8.000000
1295334.909659,-4.000000,-10.000000,-26.000000,-10.000000,-3.000000,-5.000000,-1.000000,5.000000
1295334.911319,-1.000000,-6.000000,3.000000,-12.000000,-5.000000,-3.000000,1.000000,-5.000000
1295334.911347,3.000000,-13.000000,-2.000000,-15.000000,-11.000000,-25.000000,-18.000000,5.000000
1295334.923626,-3.000000,9.000000,4.000000,13.000000,11.000000,19.000000,15.000000,-10.000000
1295334.923659,0.000000,-9.000000,-9.000000,-8.000000,-4.000000,-4.000000,-5.000000,3.000000
1295334.938700,-2.000000,-6.000000,1.000000,-5.000000,-6.000000,-12.000000,-12.000000,5.000000
1295334.938712,-4.000000,8.000000,-7.000000,14.000000,8.000000,8.000000,8.000000,-7.000000
1295334.976148,-3.000000,-5.000000,-10.000000,-10.000000,-4.000000,0.000000,6.000000,-2.000000
1295334.976177,0.000000,-18.000000,-3.000000,-12.000000,-13.000000,-20.000000,-18.000000,6.000000
1295334.983821,1.000000,4.000000,-12.000000,2.000000,3.000000,7.000000,1.000000,-2.000000
1295334.983831,1.000000,0.000000,0.000000,4.000000,5.000000,11.000000,11.000000,-6.000000
1295334.998694,-4.000000,-7.000000,-4.000000,-13.000000,-9.000000,-15.000000,-10.000000,3.000000
1295334.998705,-3.000000,3.000000,-13.000000,4.000000,2.000000,-3.000000,-1.000000,3.000000
1295335.013799,2.000000,10.000000,5.000000,15.000000,11.000000,21.000000,12.000000,-1.000000
1295335.013941,3.000000,-4.000000,-5.000000,-4.000000,-3.000000,-6.000000,-2.000000,1.000000
1295335.014541,0.000000,2.000000,-15.000000,-10.000000,-7.000000,-14.000000,-10.000000,11.000000
1295335.014549,-5.000000,15.000000,26.000000,20.000000,11.000000,14.000000,6.000000,-2.000000
1295335.015949,-6.000000,-16.000000,9.000000,-13.000000,-11.000000,-14.000000,-7.000000,5.000000
1295335.015966,3.000000,1.000000,-3.000000,-3.000000,3.000000,-1.000000,-3.000000,-3.000000
1295335.017303,-7.000000,10.000000,-5.000000,17.000000,10.000000,19.000000,13.000000,-9.000000
1295335.017317,-3.000000,-4.000000,11.000000,-13.000000,-11.000000,-11.000000,-5.000000,0.000000
1295335.020987,-4.000000,0.000000,-6.000000,-2.000000,-1.000000,-12.000000,-8.000000,7.000000
1295335.020997,-1.000000,22.000000,10.000000,20.000000,12.000000,17.000000,6.000000,-7.000000
1295335.066199,-4.000000,-11.000000,-2.000000,-13.000000,-6.000000,-3.000000,2.000000,-4.000000
1295335.066214,6.000000,-15.000000,-3.000000,-14.000000,-12.000000,-20.000000,-12.000000,10.000000
1295335.073897,-8.000000,4.000000,-10.000000,3.000000,2.000000,2.000000,-7.000000,-21.000000
1295335.073926,2.000000,-5.000000,-11.000000,1.000000,4.000000,12.000000,15.000000,6.000000
1295335.103709,-5.000000,-24.000000,9.000000,-23.000000,-17.000000,-18.000000,-11.000000,5.000000
1295335.103734,-6.000000,4.000000,-35.000000,0.000000,2.000000,-4.000000,-6.000000,4.000000
1295335.110894,-4.000000,14.000000,15.000000,10.000000,11.000000,18.000000,18.000000,-5.000000
1295335.110904,0.000000,-13.000000,-1.000000,-9.000000,-6.000000,-6.000000,0.000000,-2.000000
1295335.126950,-4.000000,4.000000,9.000000,6.000000,-2.000000,-10.000000,-9.000000,5.000000
1295335.126980,1.000000,12.000000,-21.000000,14.000000,13.000000,16.000000,4.000000,-4.000000
1295335.127423,-5.000000,-16.000000,-2.000000,-8.000000,-8.000000,-3.000000,2.000000,-5.000000
1295335.127518,2.000000,-10.000000,2.000000,-14.000000,-14.000000,-18.000000,-16.000000,7.000000
1295335.129720,-2.000000,3.000000,-9.000000,-2.000000,-2.000000,-4.000000,-12.000000,1.000000
1295335.129731,0.000000,13.000000,8.000000,18.000000,10.000000,19.000000,12.000000,-9.000000
1295335.134330,-5.000000,-8.000000,-3.000000,-11.000000,-9.000000,1.000000,-1.000000,0.000000
1295335.134339,-3.000000,-11.000000,-6.000000,-8.000000,-8.000000,-19.000000,-12.000000,6.000000
1295335.141286,-3.000000,10.000000,-2.000000,5.000000,-1.000000,1.000000,0.000000,-8.000000
1295335.141296,4.000000,-1.000000,7.000000,0.000000,5.000000,9.000000,4.000000,-4.000000
1295335.179181,4.000000,-13.000000,-5.000000,-22.000000,-17.000000,-23.000000,-11.000000,18.000000
1295335.179206,-1.000000,2.000000,3.000000,5.000000,0.000000,-1.000000,0.000000,-17.000000
1295335.186449,3.000000,2.000000,-4.000000,10.000000,9.000000,17.000000,14.000000,-7.000000
1295335.186464,1.000000,-10.000000,5.000000,-7.000000,-8.000000,-10.000000,-5.000000,-11.000000
1295335.224001,3.000000,6.000000,1.000000,2.000000,-1.000000,-7.000000,-9.000000,10.000000
1295335.224015,1.000000,18.000000,4.000000,18.000000,10.000000,18.000000,11.000000,-8.000000
1295335.253740,0.000000,-2.000000,6.000000,-9.000000,-4.000000,-6.000000,-2.000000,0.000000
1295335.253754,0.000000,-12.000000,-13.000000,-11.000000,-8.000000,-19.000000,-14.000000,13.000000
1295335.261682,4.000000,3.000000,3.000000,1.000000,-2.000000,4.000000,-2.000000,-4.000000
1295335.261707,5.000000,4.000000,0.000000,-5.000000,1.000000,8.000000,9.000000,0.000000
1295335.262326,-1.000000,-19.000000,2.000000,-19.000000,-15.000000,-20.000000,-13.000000,8.000000
1295335.262345,1.000000,8.000000,4.000000,9.000000,1.000000,2.000000,1.000000,1.000000
1295335.264476,-1.000000,9.000000,-3.000000,5.000000,3.000000,6.000000,4.000000,-7.000000
1295335.264510,5.000000,-6.000000,0.000000,-4.000000,-2.000000,6.000000,7.000000,-2.000000
1295335.276067,2.000000,-1.000000,-2.000000,3.000000,-3.000000,-5.000000,-4.000000,-3.000000
1295335.276101,1.000000,14.000000,23.000000,22.000000,13.000000,17.000000,10.000000,-14.000000
1295335.291325,-3.000000,-9.000000,-8.000000,-14.000000,-7.000000,-6.000000,-2.000000,-2.000000
1295335.291336,3.000000,-6.000000,2.000000,-10.000000,-11.000000,-20.000000,-14.000000,10.000000
1295335.306264,-2.000000,6.000000,-2.000000,7.000000,5.000000,7.000000,4.000000,-4.000000
1295335.306276,-4.000000,-7.000000,12.000000,-9.000000,-2.000000,3.000000,7.000000,-10.000000
1295335.321083,1.000000,-17.000000,-6.000000,-17.000000,-15.000000,-19.000000,-12.000000,12.000000
1295335.321094,1.000000,4.000000,13.000000,11.000000,2.000000,3.000000,-1.000000,-1.000000
1295335.336320,-1.000000,5.000000,1.000000,15.000000,11.000000,16.000000,12.000000,-7.000000
1295335.336350,2.000000,-4.000000,9.000000,-10.000000,-6.000000,-9.000000,-7.000000,15.000000
1295335.343826,0.000000,7.000000,5.000000,12.000000,1.000000,-1.000000,0.000000,5.000000
1295335.343837,-1.000000,18.000000,5.000000,19.000000,13.000000,19.000000,11.000000,-11.000000
1295335.373950,-1.000000,-13.000000,-14.000000,-8.000000,-7.000000,-1.000000,4.000000,-2.000000
1295335.373964,-5.000000,-6.000000,7.000000,-9.000000,-4.000000,-15.000000,-12.000000,18.000000
1295335.374431,1.000000,8.000000,17.000000,9.000000,5.000000,6.000000,2.000000,-7.000000
1295335.374448,5.000000,-8.000000,-25.000000,-11.000000,-3.000000,1.000000,2.000000,-4.000000
1295335.375498,-1.000000,-18.000000,17.000000,-13.000000,-11.000000,-19.000000,-18.000000,4.000000
1295335.375518,-7.000000,4.000000,-2.000000,-4.000000,2.000000,3.000000,0.000000,1.000000
1295335.376326,0.000000,12.000000,5.000000,8.000000,4.000000,12.000000,14.000000,-2.000000
1295335.376349,-4.000000,-5.000000,-10.000000,-15.000000,-10.000000,-10.000000,-3.000000,1.000000
1295335.377497,-8.000000,7.000000,-8.000000,10.000000,5.000000,-2.000000,-7.000000,-3.000000
1295335.377510,3.000000,14.000000,11.000000,11.000000,4.000000,17.000000,15.000000,2.000000
1295335.389110,1.000000,-7.000000,-21.000000,-8.000000,-9.000000,-4.000000,1.000000,9.000000
1295335.389131,2.000000,-4.000000,-12.000000,-9.000000,-7.000000,-16.000000,-16.000000,0.000000
1295335.403766,-9.000000,11.000000,6.000000,17.000000,4.000000,10.000000,4.000000,-1.000000
1295335.403794,0.000000,-6.000000,1.000000,-9.000000,-3.000000,2.000000,6.000000,1.000000
1295335.404598,1.000000,-13.000000,-1.000000,-14.000000,-14.000000,-22.000000,-17.000000,8.000000
1295335.404611,0.000000,3.000000,0.000000,0.000000,0.000000,3.000000,-2.000000,-1.000000
1295335.418667,1.000000,5.000000,7.000000,3.000000,5.000000,12.000000,13.000000,-8.000000
1295335.418681,-1.000000,-12.000000,-13.000000,-17.000000,-8.000000,-12.000000,-6.000000,4.000000
1295335.426381,-4.000000,6.000000,-2.000000,2.000000,1.000000,-5.000000,-3.000000,-1.000000
1295335.426449,-4.000000,15.000000,-2.000000,20.000000,19.000000,20.000000,10.000000,-10.000000
1295335.463716,0.000000,-10.000000,-17.000000,-18.000000,-7.000000,-8.000000,-6.000000,6.000000
1295335.463730,0.000000,-10.000000,1.000000,-4.000000,-6.000000,-14.000000,-14.000000,8.000000
1295335.479070,-4.000000,8.000000,14.000000,7.000000,9.000000,9.000000,2.000000,2.000000
1295335.479092,-3.000000,-6.000000,-8.000000,-8.000000,-5.000000,-1.000000,0.000000,-18.000000
1295335.501135,-1.000000,-23.000000,-21.000000,-23.000000,-14.000000,-19.000000,-16.000000,10.000000
1295335.501158,3.000000,13.000000,8.000000,9.000000,8.000000,4.000000,-1.000000,0.000000
1295335.501578,3.000000,-1.000000,-11.000000,0.000000,2.000000,9.000000,7.000000,-10.000000
1295335.501586,0.000000,-14.000000,-13.000000,-15.000000,-9.000000,-13.000000,-4.000000,17.000000
1295335.502731,-3.000000,7.000000,11.000000,10.000000,5.000000,-1.000000,-4.000000,2.000000
1295335.502755,2.000000,12.000000,-3.000000,10.000000,10.000000,19.000000,14.000000,-14.000000
1295335.503627,-9.000000,-15.000000,-13.000000,-9.000000,-9.000000,-11.000000,-5.000000,-3.000000
1295335.503648,-6.000000,-7.000000,-7.000000,-8.000000,-14.000000,-15.000000,-14.000000,-2.000000
1295335.531194,-2.000000,-11.000000,6.000000,-11.000000,-15.000000,-18.000000,-14.000000,9.000000
1295335.531222,-3.000000,9.000000,6.000000,5.000000,5.000000,1.000000,-3.000000,0.000000
1295335.568569,-2.000000,3.000000,2.000000,7.000000,5.000000,9.000000,14.000000,-5.000000
1295335.568578,-1.000000,-12.000000,-6.000000,-18.000000,-13.000000,-11.000000,-7.000000,5.000000
1295335.576374,-1.000000,0.000000,-2.000000,4.000000,0.000000,-4.000000,-2.000000,1.000000
1295335.576385,-2.000000,10.000000,-3.000000,12.000000,10.000000,18.000000,11.000000,-7.000000
1295335.593271,-3.000000,-4.000000,7.000000,-5.000000,-5.000000,-8.000000,0.000000,11.000000
1295335.593307,-2.000000,-7.000000,-6.000000,-4.000000,-8.000000,-15.000000,-11.000000,-12.000000
1295335.606923,-4.000000,10.000000,-5.000000,18.000000,9.000000,12.000000,5.000000,-1.000000
1295335.606948,-1.000000,-6.000000,27.000000,-4.000000,-3.000000,-1.000000,9.000000,5.000000
1295335.615291,2.000000,6.000000,20.000000,7.000000,-1.000000,10.000000,10.000000,-10.000000
1295335.615310,1.000000,-17.000000,-14.000000,-23.000000,-10.000000,-12.000000,-5.000000,15.000000
1295335.616488,-3.000000,-5.000000,-2.000000,-8.000000,-5.000000,-7.000000,0.000000,2.000000
1295335.616509,-1.000000,1.000000,-10.000000,-1.000000,-2.000000,-9.000000,-11.000000,0.000000
1295335.617921,0.000000,15.000000,24.000000,15.000000,8.000000,17.000000,9.000000,0.000000
1295335.618240,0.000000,-10.000000,-13.000000,-7.000000,-2.000000,1.000000,1.000000,0.000000
1295335.618546,6.000000,-14.000000,-7.000000,-15.000000,-14.000000,-21.000000,-16.000000,6.000000
1295335.618570,-6.000000,6.000000,11.000000,12.000000,2.000000,4.000000,2.000000,-7.000000
1295335.651356,2.000000,3.000000,-3.000000,8.000000,1.000000,2.000000,-5.000000,1.000000
1295335.651384,-1.000000,3.000000,-5.000000,8.000000,8.000000,20.000000,17.000000,0.000000
1295335.665972,-3.000000,-4.000000,-5.000000,0.000000,-3.000000,-5.000000,-4.000000,0.000000
1295335.666001,-3.000000,5.000000,5.000000,-2.000000,-7.000000,-14.000000,-8.000000,9.000000
1295335.681255,-4.000000,14.000000,-9.000000,6.000000,6.000000,16.000000,9.000000,-4.000000
1295335.681265,4.000000,-3.000000,20.000000,-3.000000,-3.000000,1.000000,2.000000,1.000000
1295335.696208,-7.000000,-14.000000,-34.000000,-13.000000,-12.000000,-21.000000,-17.000000,8.000000
1295335.696239,-9.000000,10.000000,15.000000,5.000000,2.000000,7.000000,2.000000,-16.000000
1295335.703547,4.000000,-5.000000,5.000000,-3.000000,-1.000000,9.000000,5.000000,0.000000
1295335.703557,1.000000,-24.000000,-12.000000,-21.000000,-17.000000,-20.000000,-11.000000,6.000000
1295335.726187,-4.000000,7.000000,9.000000,3.000000,6.000000,4.000000,-2.000000,-4.000000
1295335.726197,-3.000000,11.000000,9.000000,7.000000,9.000000,18.000000,10.000000,-15.000000
1295335.733566,-2.000000,-9.000000,-2.000000,-10.000000,-4.000000,-5.000000,-1.000000,2.000000
1295335.733576,-2.000000,8.000000,13.000000,1.000000,0.000000,-13.000000,-13.000000,3.000000
1295335.741101,2.000000,15.000000,1.000000,20.000000,11.000000,18.000000,9.000000,-1.000000
1295335.741124,2.000000,-14.000000,-12.000000,-9.000000,-2.000000,-3.000000,3.000000,-2.000000
1295335.741456,1.000000,-10.000000,-8.000000,-18.000000,-12.000000,-21.000000,-17.000000,5.000000
1295335.741532,1.000000,7.000000,2.000000,8.000000,6.000000,7.000000,1.000000,-3.000000
1295335.742659,-5.000000,-3.000000,6.000000,0.000000,-1.000000,5.000000,6.000000,-6.000000
1295335.742667,4.000000,-18.000000,-12.000000,-19.000000,-14.000000,-17.000000,-13.000000,4.000000
1295335.743319,-2.000000,8.000000,-4.000000,-2.000000,3.000000,0.000000,-3.000000,8.000000
1295335.743348,0.000000,10.000000,4.000000,13.000000,4.000000,16.000000,15.000000,-26.000000
1295335.771230,7.000000,19.000000,-5.000000,19.000000,14.000000,19.000000,9.000000,-6.000000
1295335.771243,-2.000000,-4.000000,7.000000,-3.000000,0.000000,1.000000,-1.000000,1.000000
1295335.793680,5.000000,-10.000000,1.000000,-13.000000,-13.000000,-18.000000,-16.000000,6.000000
1295335.793693,-3.000000,7.000000,-13.000000,8.000000,7.000000,7.000000,0.000000,-11.000000
1295335.808694,3.000000,6.000000,15.000000,-2.000000,0.000000,7.000000,10.000000,2.000000
1295335.808707,-4.000000,-21.000000,-22.000000,-24.000000,-17.000000,-20.000000,-12.000000,-1.000000
1295335.823819,3.000000,11.000000,-8.000000,7.000000,1.000000,2.000000,1.000000,-1.000000
1295335.823835,0.000000,13.000000,4.000000,8.000000,13.000000,14.000000,10.000000,-13.000000
1295335.846056,2.000000,-6.000000,0.000000,-10.000000,-11.000000,-9.000000,-5.000000,5.000000
1295335.846085,-4.000000,-1.000000,2.000000,6.000000,-1.000000,-5.000000,-8.000000,-2.000000
1295335.861323,-7.000000,18.000000,2.000000,25.000000,13.000000,19.000000,11.000000,-6.000000
1295335.861334,0.000000,-15.000000,-14.000000,-6.000000,-3.000000,-1.000000,-1.000000,8.000000
1295335.883593,7.000000,-8.000000,0.000000,-13.000000,-9.000000,-19.000000,-14.000000,9.000000
1295335.883603,-5.000000,4.000000,9.000000,4.000000,3.000000,3.000000,2.000000,-3.000000
1295335.890979,1.000000,11.000000,2.000000,4.000000,5.000000,1.000000,-2.000000,5.000000
1295335.891006,-4.000000,8.000000,-2.000000,8.000000,9.000000,15.000000,10.000000,-16.000000
1295335.899361,-3.000000,-12.000000,-2.000000,-4.000000,-4.000000,-12.000000,1.000000,8.000000
1295335.899388,1.000000,10.000000,6.000000,3.000000,3.000000,-6.000000,-10.000000,1.000000
1295335.899796,-5.000000,-6.000000,-5.000000,-9.000000,-1.000000,2.000000,1.000000,-2.000000
1295335.899804,-4.000000,-19.000000,-10.000000,-22.000000,-15.000000,-24.000000,-12.000000,9.000000
1295335.900916,-1.000000,-9.000000,1.000000,-12.000000,-8.000000,-11.000000,-5.000000,-5.000000
1295335.900925,0.000000,2.000000,-4.000000,2.000000,-1.000000,-5.000000,-5.000000,0.000000
1295335.901777,8.000000,22.000000,8.000000,11.000000,11.000000,23.000000,14.000000,-4.000000
1295335.901785,-1.000000,-11.000000,-35.000000,-12.000000,-6.000000,-7.000000,0.000000,-1.000000
1295335.928418,2.000000,-7.000000,14.000000,-7.000000,-6.000000,-15.000000,-17.000000,4.000000
1295335.928433,-4.000000,2.000000,-1.000000,7.000000,5.000000,9.000000,3.000000,-3.000000
1295335.929542,0.000000,-8.000000,5.000000,1.000000,-4.000000,2.000000,2.000000,-2.000000
1295335.929570,-2.000000,-15.000000,4.000000,-22.000000,-11.000000,-19.000000,-13.000000,11.000000
1295335.930096,-8.000000,-1.000000,-9.000000,7.000000,1.000000,1.000000,-1.000000,-1.000000
1295335.930123,-2.000000,4.000000,-3.000000,2.000000,7.000000,15.000000,13.000000,-6.000000
1295335.936006,-1.000000,-9.000000,-16.000000,-12.000000,-11.000000,-10.000000,-7.000000,-2.000000
1295335.936038,0.000000,5.000000,2.000000,9.000000,5.000000,-4.000000,-8.000000,0.000000
1295335.943780,3.000000,13.000000,1.000000,16.000000,13.000000,20.000000,13.000000,-4.000000
1295335.943791,-1.000000,-11.000000,4.000000,-10.000000,-3.000000,-3.000000,-3.000000,-1.000000
1295335.959307,-4.000000,-5.000000,0.000000,-12.000000,-13.000000,-15.000000,-14.000000,-5.000000
1295335.959316,5.000000,3.000000,1.000000,5.000000,2.000000,9.000000,2.000000,7.000000
1295335.966135,0.000000,-5.000000,4.000000,-9.000000,2.000000,3.000000,3.000000,-2.000000
1295335.966195,-3.000000,-14.000000,-12.000000,-19.000000,-13.000000,-17.000000,-10.000000,7.000000
1295335.974126,2.000000,8.000000,1.000000,4.000000,-1.000000,1.000000,2.000000,-5.000000
1295335.974147,-1.000000,6.000000,3.000000,5.000000,7.000000,13.000000,12.000000,-11.000000
1295335.996369,1.000000,-7.000000,-10.000000,-16.000000,-8.000000,-9.000000,-8.000000,4.000000
1295335.996382,-2.000000,3.000000,4.000000,9.000000,2.000000,-6.000000,-8.000000,1.000000
1295336.018656,-1.000000,12.000000,-17.000000,13.000000,14.000000,16.000000,13.000000,-10.000000
1295336.018666,10.000000,-3.000000,-12.000000,-14.000000,-9.000000,-5.000000,-3.000000,3.000000
1295336.048791,2.000000,-6.000000,8.000000,-4.000000,-10.000000,-17.000000,-16.000000,8.000000
1295336.048802,-21.000000,2.000000,6.000000,5.000000,2.000000,7.000000,2.000000,-18.000000
1295336.070878,-5.000000,-7.000000,-12.000000,-21.000000,-10.000000,-1.000000,-1.000000,2.000000
1295336.070889,2.000000,-12.000000,6.000000,-15.000000,-17.000000,-26.000000,-16.000000,9.000000
1295336.086455,-3.000000,5.000000,-16.000000,-1.000000,1.000000,0.000000,3.000000,15.000000
1295336.086615,3.000000,7.000000,0.000000,4.000000,7.000000,15.000000,13.000000,15.000000
1295336.087336,-5.000000,-13.000000,-3.000000,-12.000000,-14.000000,-12.000000,-20.000000,-47.000000
1295336.087345,-1.000000,10.000000,-4.000000,5.000000,2.000000,-4.000000,-6.000000,-4.000000
1295336.087692,-1.000000,10.000000,11.000000,18.000000,13.000000,19.000000,14.000000,-6.000000
1295336.087699,-3.000000,-9.000000,14.000000,0.000000,-11.000000,-5.000000,-4.000000,3.000000
1295336.088341,2.000000,-10.000000,-18.000000,-6.000000,1.000000,2.000000,5.000000,-5.000000
1295336.088349,-1.000000,-11.000000,29.000000,-16.000000,-12.000000,-21.000000,-14.000000,8.000000
