# participant_id: P2
# gesture: soft
# trial_number: 2
# stream_name: Myo_EMG
# stream_type: emg
# timestamp: 20260420_131719
# samples: 5312
# duration_sec: 30.483
# nominal_sample_rate: 200.0
# effective_sample_rate: 174.23
#
timestamp,emg_1,emg_2,emg_3,emg_4,emg_5,emg_6,emg_7,emg_8
1295730.984465,25.000000,-6.000000,-33.000000,-56.000000,-6.000000,5.000000,-22.000000,4.000000
1295730.984494,-27.000000,15.000000,-5.000000,12.000000,-42.000000,-16.000000,-1.000000,-11.000000
1295731.006723,1.000000,25.000000,-6.000000,-9.000000,2.000000,-4.000000,2.000000,-7.000000
1295731.006744,3.000000,-35.000000,-27.000000,-22.000000,-8.000000,-6.000000,-1.000000,8.000000
1295731.021599,-21.000000,35.000000,24.000000,-29.000000,0.000000,4.000000,0.000000,-3.000000
1295731.021609,1.000000,-15.000000,-18.000000,-13.000000,3.000000,8.000000,3.000000,0.000000
1295731.029238,-8.000000,-2.000000,18.000000,-19.000000,-8.000000,-9.000000,-10.000000,-7.000000
1295731.029248,32.000000,34.000000,17.000000,13.000000,44.000000,28.000000,13.000000,22.000000
1295731.051614,-13.000000,-35.000000,-62.000000,-59.000000,-75.000000,-27.000000,-8.000000,-9.000000
1295731.051633,-1.000000,35.000000,15.000000,22.000000,10.000000,2.000000,-36.000000,-16.000000
1295731.052077,-4.000000,-33.000000,-21.000000,-36.000000,-10.000000,-5.000000,25.000000,6.000000
1295731.052282,3.000000,32.000000,82.000000,127.000000,37.000000,20.000000,16.000000,10.000000
1295731.053318,19.000000,8.000000,9.000000,3.000000,-8.000000,-10.000000,-30.000000,0.000000
1295731.053327,11.000000,4.000000,-8.000000,4.000000,0.000000,4.000000,31.000000,7.000000
1295731.054695,-17.000000,14.000000,-8.000000,-14.000000,-4.000000,-5.000000,-11.000000,-9.000000
1295731.054711,21.000000,-5.000000,-24.000000,-15.000000,-3.000000,-1.000000,-7.000000,-1.000000
1295731.055567,-6.000000,2.000000,21.000000,56.000000,14.000000,2.000000,20.000000,9.000000
1295731.055576,21.000000,27.000000,23.000000,3.000000,-13.000000,-15.000000,-22.000000,-20.000000
1295731.089340,21.000000,41.000000,13.000000,24.000000,4.000000,14.000000,-1.000000,22.000000
1295731.089368,-35.000000,-36.000000,-8.000000,-32.000000,-9.000000,-6.000000,-9.000000,-12.000000
1295731.097158,29.000000,-54.000000,-9.000000,39.000000,10.000000,-6.000000,-4.000000,-10.000000
1295731.097200,-33.000000,6.000000,-5.000000,-2.000000,-3.000000,0.000000,0.000000,-8.000000
1295731.111584,1.000000,-31.000000,-18.000000,-20.000000,-1.000000,2.000000,6.000000,-5.000000
1295731.111607,13.000000,13.000000,7.000000,27.000000,8.000000,3.000000,1.000000,12.000000
1295731.119146,-12.000000,-5.000000,0.000000,-13.000000,7.000000,0.000000,-10.000000,-6.000000
1295731.119156,-25.000000,9.000000,-13.000000,-16.000000,-37.000000,-20.000000,-7.000000,-12.000000
1295731.135514,4.000000,4.000000,14.000000,20.000000,8.000000,4.000000,9.000000,4.000000
1295731.135527,9.000000,30.000000,-2.000000,-7.000000,-4.000000,-1.000000,-13.000000,2.000000
1295731.141834,-9.000000,-12.000000,-16.000000,-21.000000,-11.000000,-3.000000,-3.000000,-7.000000
1295731.141968,10.000000,19.000000,-2.000000,-20.000000,-1.000000,-7.000000,0.000000,3.000000
1295731.142840,-21.000000,-67.000000,-24.000000,-31.000000,-12.000000,-4.000000,-11.000000,-14.000000
1295731.142850,9.000000,12.000000,21.000000,24.000000,-3.000000,6.000000,11.000000,12.000000
1295731.143614,-7.000000,2.000000,2.000000,5.000000,-11.000000,-6.000000,-3.000000,-1.000000
1295731.143627,-22.000000,-43.000000,-2.000000,17.000000,12.000000,4.000000,-10.000000,-5.000000
1295731.144891,24.000000,37.000000,4.000000,-27.000000,-9.000000,0.000000,26.000000,6.000000
1295731.144901,-2.000000,-2.000000,-9.000000,-15.000000,-8.000000,0.000000,8.000000,0.000000
1295731.156503,-3.000000,11.000000,-23.000000,-3.000000,-2.000000,-7.000000,-30.000000,-6.000000
1295731.156513,19.000000,-3.000000,35.000000,30.000000,7.000000,2.000000,19.000000,8.000000
1295731.171947,-41.000000,0.000000,-1.000000,5.000000,5.000000,7.000000,-7.000000,-7.000000
1295731.171979,41.000000,18.000000,0.000000,13.000000,3.000000,1.000000,-3.000000,10.000000
1295731.172632,-4.000000,-6.000000,0.000000,-30.000000,-2.000000,-1.000000,9.000000,4.000000
1295731.172639,-23.000000,-33.000000,-24.000000,-28.000000,-7.000000,-4.000000,-13.000000,-9.000000
1295731.186991,2.000000,-3.000000,8.000000,55.000000,12.000000,2.000000,5.000000,-3.000000
1295731.187013,-11.000000,-3.000000,-8.000000,-1.000000,1.000000,3.000000,3.000000,-1.000000
1295731.209271,9.000000,8.000000,27.000000,24.000000,-5.000000,-1.000000,-1.000000,1.000000
1295731.209283,-4.000000,-24.000000,-5.000000,21.000000,8.000000,3.000000,18.000000,6.000000
1295731.231752,1.000000,-4.000000,-17.000000,-8.000000,7.000000,0.000000,-9.000000,-7.000000
1295731.231764,7.000000,23.000000,22.000000,-13.000000,-6.000000,6.000000,-6.000000,-1.000000
1295731.246755,22.000000,36.000000,11.000000,17.000000,7.000000,4.000000,4.000000,-2.000000
1295731.246765,-28.000000,24.000000,8.000000,11.000000,-8.000000,-6.000000,-26.000000,-17.000000
1295731.261734,-31.000000,2.000000,-6.000000,35.000000,19.000000,3.000000,29.000000,11.000000
1295731.261744,-1.000000,-32.000000,-25.000000,0.000000,0.000000,-7.000000,1.000000,4.000000
1295731.284124,7.000000,45.000000,22.000000,-51.000000,-7.000000,-2.000000,-19.000000,-8.000000
1295731.284165,4.000000,3.000000,-12.000000,7.000000,-1.000000,1.000000,-4.000000,-9.000000
1295731.285055,1.000000,-34.000000,-40.000000,-82.000000,-16.000000,-2.000000,-6.000000,5.000000
1295731.285064,-3.000000,-7.000000,31.000000,61.000000,26.000000,11.000000,-9.000000,-2.000000
1295731.285811,-1.000000,13.000000,-21.000000,-35.000000,-12.000000,-4.000000,9.000000,3.000000
1295731.285828,20.000000,25.000000,22.000000,22.000000,16.000000,14.000000,8.000000,12.000000
1295731.287120,-34.000000,-19.000000,-11.000000,-11.000000,-11.000000,-6.000000,17.000000,-3.000000
1295731.287130,-26.000000,-93.000000,-18.000000,13.000000,14.000000,8.000000,-6.000000,-10.000000
1295731.287954,2.000000,7.000000,-14.000000,-52.000000,-24.000000,-12.000000,-22.000000,-12.000000
1295731.287982,2.000000,-20.000000,-3.000000,6.000000,5.000000,-6.000000,3.000000,9.000000
1295731.307172,31.000000,38.000000,-24.000000,-31.000000,-6.000000,-5.000000,-12.000000,-1.000000
1295731.307183,-46.000000,-76.000000,9.000000,29.000000,18.000000,14.000000,7.000000,-3.000000
1295731.336464,30.000000,37.000000,6.000000,5.000000,-4.000000,9.000000,20.000000,10.000000
1295731.336475,-19.000000,-15.000000,0.000000,-3.000000,-3.000000,-4.000000,-13.000000,-12.000000
1295731.344305,11.000000,-3.000000,-14.000000,25.000000,-13.000000,-22.000000,-7.000000,2.000000
1295731.344326,4.000000,15.000000,1.000000,-41.000000,1.000000,3.000000,-53.000000,0.000000
1295731.374158,14.000000,38.000000,4.000000,35.000000,22.000000,14.000000,83.000000,18.000000
1295731.374206,-41.000000,-41.000000,1.000000,15.000000,0.000000,-5.000000,-25.000000,-25.000000
1295731.381647,-12.000000,-35.000000,9.000000,63.000000,9.000000,-12.000000,-68.000000,-12.000000
1295731.381657,11.000000,73.000000,26.000000,10.000000,7.000000,7.000000,124.000000,36.000000
1295731.404394,15.000000,-55.000000,-3.000000,6.000000,18.000000,12.000000,45.000000,10.000000
1295731.404405,-4.000000,6.000000,3.000000,-12.000000,-18.000000,-9.000000,-32.000000,-8.000000
1295731.411975,6.000000,-16.000000,-8.000000,-31.000000,-10.000000,-5.000000,-21.000000,-13.000000
1295731.412004,-30.000000,-1.000000,-3.000000,-9.000000,-5.000000,-5.000000,-86.000000,-25.000000
1295731.456831,-22.000000,-14.000000,-8.000000,-15.000000,-23.000000,-19.000000,-21.000000,-6.000000
1295731.456842,15.000000,-6.000000,17.000000,10.000000,1.000000,3.000000,0.000000,-3.000000
1295731.486732,30.000000,32.000000,1.000000,-8.000000,7.000000,19.000000,64.000000,16.000000
1295731.486742,-12.000000,-28.000000,3.000000,-6.000000,-12.000000,-20.000000,-66.000000,-21.000000
1295731.494225,-14.000000,-8.000000,3.000000,4.000000,-7.000000,-10.000000,-9.000000,7.000000
1295731.494237,1.000000,-6.000000,-3.000000,5.000000,2.000000,9.000000,2.000000,-6.000000
1295731.495166,1.000000,17.000000,24.000000,19.000000,13.000000,-5.000000,-90.000000,-19.000000
1295731.495175,1.000000,-16.000000,-22.000000,-29.000000,-12.000000,-4.000000,51.000000,2.000000
1295731.495764,-69.000000,-34.000000,6.000000,-21.000000,-17.000000,-2.000000,49.000000,-6.000000
1295731.495772,2.000000,41.000000,0.000000,12.000000,16.000000,3.000000,-33.000000,-9.000000
1295731.496412,-7.000000,4.000000,2.000000,-5.000000,0.000000,-5.000000,-38.000000,-9.000000
1295731.496420,6.000000,23.000000,-7.000000,-13.000000,-7.000000,-18.000000,-15.000000,-9.000000
1295731.497218,-7.000000,-18.000000,-9.000000,-4.000000,1.000000,-1.000000,-1.000000,-3.000000
1295731.497226,4.000000,-23.000000,4.000000,-47.000000,-10.000000,1.000000,-10.000000,-5.000000
1295731.509931,1.000000,23.000000,13.000000,22.000000,3.000000,-1.000000,-1.000000,0.000000
1295731.509956,7.000000,-1.000000,-2.000000,8.000000,-1.000000,-7.000000,-13.000000,-8.000000
1295731.524002,9.000000,27.000000,4.000000,-50.000000,-9.000000,6.000000,-9.000000,-1.000000
1295731.524016,0.000000,16.000000,2.000000,33.000000,13.000000,5.000000,3.000000,-3.000000
1295731.525308,5.000000,0.000000,-2.000000,-21.000000,-10.000000,-6.000000,-4.000000,6.000000
1295731.525330,-11.000000,-38.000000,-16.000000,-19.000000,5.000000,1.000000,1.000000,0.000000
1295731.539206,-6.000000,2.000000,-1.000000,2.000000,2.000000,4.000000,-35.000000,-3.000000
1295731.539217,-3.000000,11.000000,-1.000000,2.000000,6.000000,-13.000000,39.000000,-4.000000
1295731.561680,19.000000,2.000000,-16.000000,-8.000000,-6.000000,-3.000000,15.000000,6.000000
1295731.561690,9.000000,0.000000,8.000000,-14.000000,-2.000000,-1.000000,-2.000000,-9.000000
1295731.569233,-44.000000,6.000000,-1.000000,-5.000000,-8.000000,-5.000000,-47.000000,-7.000000
1295731.569243,-8.000000,4.000000,-2.000000,-8.000000,0.000000,5.000000,29.000000,2.000000
1295731.606641,13.000000,8.000000,-13.000000,-13.000000,-3.000000,-6.000000,-15.000000,-3.000000
1295731.606652,15.000000,48.000000,25.000000,25.000000,11.000000,11.000000,-17.000000,-1.000000
1295731.614102,-7.000000,-11.000000,3.000000,-12.000000,-4.000000,5.000000,-1.000000,-9.000000
1295731.614112,23.000000,-15.000000,-22.000000,-17.000000,-5.000000,-10.000000,5.000000,14.000000
1295731.644250,-16.000000,-5.000000,9.000000,24.000000,-10.000000,-6.000000,7.000000,6.000000
1295731.644262,5.000000,4.000000,-20.000000,-33.000000,-9.000000,6.000000,4.000000,-2.000000
1295731.644877,6.000000,-26.000000,17.000000,91.000000,42.000000,8.000000,6.000000,-3.000000
1295731.644886,0.000000,33.000000,25.000000,30.000000,-17.000000,-21.000000,-77.000000,-20.000000
1295731.645821,0.000000,-6.000000,-14.000000,13.000000,10.000000,-4.000000,57.000000,12.000000
1295731.645843,7.000000,-17.000000,-1.000000,-5.000000,-8.000000,-2.000000,-12.000000,-2.000000
1295731.647109,10.000000,10.000000,2.000000,7.000000,9.000000,8.000000,-3.000000,7.000000
1295731.647118,20.000000,17.000000,-8.000000,-11.000000,-15.000000,-11.000000,9.000000,3.000000
1295731.647998,-19.000000,18.000000,-15.000000,-14.000000,-4.000000,1.000000,-15.000000,-8.000000
1295731.648007,-11.000000,-33.000000,-6.000000,0.000000,-1.000000,-5.000000,-9.000000,-14.000000
1295731.659013,-24.000000,-17.000000,-18.000000,-24.000000,-19.000000,-9.000000,-19.000000,-11.000000
1295731.659023,-3.000000,9.000000,-2.000000,-7.000000,-4.000000,4.000000,26.000000,-2.000000
1295731.674336,-15.000000,-4.000000,-13.000000,-7.000000,-14.000000,-9.000000,-18.000000,-10.000000
1295731.674366,-2.000000,-15.000000,-40.000000,-59.000000,-13.000000,-11.000000,-39.000000,-4.000000
1295731.681995,2.000000,38.000000,69.000000,78.000000,22.000000,18.000000,18.000000,14.000000
1295731.682023,14.000000,-17.000000,-24.000000,-12.000000,-7.000000,-6.000000,70.000000,-2.000000
1295731.696813,-41.000000,-8.000000,5.000000,3.000000,1.000000,-5.000000,-94.000000,-15.000000
1295731.696845,34.000000,4.000000,-20.000000,-38.000000,-16.000000,2.000000,85.000000,18.000000
1295731.711590,8.000000,-20.000000,0.000000,40.000000,18.000000,-7.000000,-61.000000,-2.000000
1295731.711600,-82.000000,6.000000,19.000000,16.000000,8.000000,-7.000000,-8.000000,-25.000000
1295731.726961,90.000000,14.000000,-13.000000,3.000000,-13.000000,-24.000000,-128.000000,-21.000000
1295731.726972,8.000000,13.000000,-14.000000,-29.000000,-9.000000,24.000000,127.000000,47.000000
1295731.734416,-22.000000,-12.000000,-14.000000,3.000000,3.000000,13.000000,-4.000000,10.000000
1295731.734426,-1.000000,43.000000,33.000000,13.000000,-2.000000,11.000000,-43.000000,-28.000000
1295731.764533,-34.000000,-10.000000,-8.000000,6.000000,8.000000,-21.000000,-46.000000,-16.000000
1295731.764543,0.000000,-53.000000,-2.000000,0.000000,-3.000000,-7.000000,-27.000000,15.000000
1295731.765062,26.000000,14.000000,22.000000,55.000000,37.000000,34.000000,68.000000,8.000000
1295731.765070,-11.000000,-9.000000,-35.000000,-13.000000,-53.000000,-39.000000,-6.000000,-3.000000
1295731.766314,-39.000000,-39.000000,-12.000000,-51.000000,-8.000000,-3.000000,-11.000000,-3.000000
1295731.766322,-32.000000,-8.000000,11.000000,27.000000,4.000000,-4.000000,-67.000000,-19.000000
1295731.766940,13.000000,39.000000,-1.000000,25.000000,12.000000,13.000000,-5.000000,-11.000000
1295731.766947,-35.000000,-38.000000,-11.000000,-22.000000,-4.000000,1.000000,46.000000,8.000000
1295731.786863,-29.000000,-7.000000,-7.000000,-3.000000,-4.000000,-7.000000,127.000000,23.000000
1295731.786892,-3.000000,-35.000000,-34.000000,-43.000000,-13.000000,0.000000,-9.000000,13.000000
1295731.808987,26.000000,31.000000,38.000000,32.000000,3.000000,8.000000,-4.000000,3.000000
1295731.808996,-8.000000,9.000000,-22.000000,-23.000000,-10.000000,-12.000000,-23.000000,-23.000000
1295731.839636,8.000000,6.000000,2.000000,-3.000000,0.000000,5.000000,13.000000,6.000000
1295731.839651,2.000000,-16.000000,-13.000000,-3.000000,-8.000000,-7.000000,-22.000000,-12.000000
1295731.846595,-8.000000,7.000000,0.000000,31.000000,4.000000,-3.000000,-1.000000,-2.000000
1295731.846606,-5.000000,-16.000000,2.000000,-48.000000,-25.000000,-4.000000,9.000000,1.000000
1295731.854456,-44.000000,-104.000000,-15.000000,-29.000000,-10.000000,0.000000,-1.000000,-10.000000
1295731.854479,7.000000,-42.000000,-5.000000,8.000000,12.000000,3.000000,2.000000,9.000000
1295731.855110,-2.000000,8.000000,3.000000,-31.000000,-14.000000,-16.000000,-29.000000,-28.000000
1295731.855128,-11.000000,-5.000000,-18.000000,1.000000,7.000000,-1.000000,-40.000000,17.000000
1295731.856667,31.000000,-10.000000,-4.000000,12.000000,-6.000000,-7.000000,116.000000,23.000000
1295731.856694,-21.000000,5.000000,13.000000,5.000000,2.000000,-1.000000,-18.000000,3.000000
1295731.884327,15.000000,18.000000,-17.000000,-11.000000,-17.000000,-6.000000,-24.000000,-11.000000
1295731.884374,-28.000000,-24.000000,2.000000,7.000000,5.000000,8.000000,-5.000000,-2.000000
1295731.884883,30.000000,24.000000,17.000000,32.000000,9.000000,5.000000,30.000000,16.000000
1295731.884898,-30.000000,-23.000000,0.000000,12.000000,16.000000,2.000000,-11.000000,1.000000
1295731.886085,-19.000000,9.000000,10.000000,16.000000,-5.000000,-3.000000,-14.000000,-6.000000
1295731.886095,-17.000000,0.000000,-10.000000,3.000000,-5.000000,0.000000,-4.000000,-9.000000
1295731.886843,-4.000000,14.000000,1.000000,0.000000,6.000000,-4.000000,-7.000000,3.000000
1295731.886851,-22.000000,-77.000000,-3.000000,11.000000,7.000000,10.000000,8.000000,3.000000
1295731.929244,-13.000000,-2.000000,-4.000000,10.000000,-3.000000,-12.000000,-15.000000,-14.000000
1295731.929267,-4.000000,-20.000000,-7.000000,20.000000,11.000000,4.000000,26.000000,19.000000
1295731.936833,-50.000000,8.000000,-7.000000,-20.000000,-8.000000,-7.000000,-5.000000,-4.000000
1295731.936843,-16.000000,29.000000,11.000000,19.000000,-1.000000,-1.000000,-14.000000,-17.000000
1295731.959297,-5.000000,1.000000,-18.000000,-14.000000,4.000000,14.000000,-26.000000,-1.000000
1295731.959307,-5.000000,-29.000000,19.000000,20.000000,7.000000,0.000000,39.000000,5.000000
1295731.966877,15.000000,23.000000,6.000000,-4.000000,10.000000,12.000000,22.000000,21.000000
1295731.966887,13.000000,-15.000000,-17.000000,-21.000000,-23.000000,-9.000000,-4.000000,-5.000000
1295731.989218,-21.000000,11.000000,14.000000,3.000000,11.000000,9.000000,-11.000000,-7.000000
1295731.989238,10.000000,18.000000,-4.000000,6.000000,10.000000,-3.000000,-19.000000,-4.000000
1295732.004449,-11.000000,-26.000000,-23.000000,-18.000000,-15.000000,-11.000000,-34.000000,-21.000000
1295732.004462,20.000000,36.000000,16.000000,29.000000,13.000000,13.000000,15.000000,14.000000
1295732.041584,-8.000000,-8.000000,-10.000000,-40.000000,-1.000000,6.000000,-5.000000,-2.000000
1295732.041602,6.000000,-22.000000,7.000000,55.000000,1.000000,-11.000000,-7.000000,-13.000000
1295732.056711,25.000000,19.000000,1.000000,-3.000000,-4.000000,-2.000000,24.000000,15.000000
1295732.056740,-12.000000,-27.000000,-18.000000,-18.000000,0.000000,1.000000,-53.000000,-8.000000
1295732.079185,-18.000000,-14.000000,13.000000,2.000000,2.000000,5.000000,9.000000,-5.000000
1295732.079196,2.000000,-11.000000,-8.000000,-43.000000,-14.000000,6.000000,-3.000000,1.000000
1295732.086453,-3.000000,11.000000,14.000000,32.000000,13.000000,12.000000,59.000000,24.000000
1295732.086467,21.000000,12.000000,-12.000000,12.000000,-8.000000,-13.000000,-26.000000,-4.000000
1295732.087886,-11.000000,-30.000000,0.000000,-8.000000,-12.000000,-8.000000,-5.000000,-6.000000
1295732.087913,-20.000000,-30.000000,-10.000000,-10.000000,-6.000000,-6.000000,-16.000000,-5.000000
1295732.088992,-25.000000,-15.000000,10.000000,25.000000,8.000000,0.000000,-33.000000,-23.000000
1295732.089040,6.000000,20.000000,-8.000000,-21.000000,-24.000000,-30.000000,30.000000,7.000000
1295732.102386,-28.000000,-72.000000,-13.000000,-8.000000,2.000000,5.000000,-18.000000,-19.000000
1295732.102395,-3.000000,-3.000000,1.000000,6.000000,8.000000,2.000000,-13.000000,-7.000000
1295732.117292,-2.000000,6.000000,0.000000,-14.000000,-15.000000,-5.000000,-47.000000,-7.000000
1295732.117301,36.000000,0.000000,3.000000,10.000000,-35.000000,-16.000000,38.000000,13.000000
1295732.118058,0.000000,-25.000000,-13.000000,-4.000000,13.000000,14.000000,19.000000,8.000000
1295732.118094,-12.000000,24.000000,-8.000000,-30.000000,-18.000000,-10.000000,-33.000000,-17.000000
1295732.124119,-1.000000,3.000000,14.000000,-24.000000,-8.000000,-1.000000,6.000000,-3.000000
1295732.124145,-34.000000,-29.000000,1.000000,10.000000,10.000000,-4.000000,23.000000,4.000000
1295732.168993,-5.000000,-8.000000,-6.000000,-16.000000,-9.000000,-10.000000,-16.000000,0.000000
1295732.169003,25.000000,1.000000,-8.000000,-3.000000,12.000000,7.000000,0.000000,-1.000000
1295732.199480,-37.000000,4.000000,-13.000000,-6.000000,-23.000000,-11.000000,-44.000000,-13.000000
1295732.199495,28.000000,5.000000,4.000000,-10.000000,9.000000,27.000000,97.000000,25.000000
1295732.207227,-23.000000,-94.000000,5.000000,9.000000,3.000000,1.000000,52.000000,15.000000
1295732.207245,-8.000000,13.000000,6.000000,-8.000000,0.000000,-13.000000,-29.000000,-12.000000
1295732.208166,0.000000,3.000000,2.000000,-7.000000,-11.000000,-5.000000,-21.000000,-11.000000
1295732.208202,-28.000000,-55.000000,-37.000000,-61.000000,-27.000000,-16.000000,-99.000000,-29.000000
1295732.209450,4.000000,67.000000,40.000000,90.000000,31.000000,25.000000,127.000000,29.000000
1295732.209460,-15.000000,-48.000000,-16.000000,-20.000000,1.000000,5.000000,-16.000000,5.000000
1295732.229513,5.000000,5.000000,6.000000,18.000000,8.000000,0.000000,-29.000000,4.000000
1295732.229523,3.000000,-14.000000,-16.000000,-4.000000,6.000000,10.000000,15.000000,2.000000
1295732.230269,3.000000,10.000000,-15.000000,2.000000,-7.000000,-18.000000,-104.000000,-24.000000
1295732.230277,24.000000,32.000000,29.000000,46.000000,8.000000,-6.000000,84.000000,18.000000
1295732.237466,19.000000,-13.000000,-15.000000,-17.000000,2.000000,8.000000,19.000000,12.000000
1295732.237477,-18.000000,-11.000000,25.000000,76.000000,25.000000,6.000000,-8.000000,-8.000000
1295732.251781,5.000000,17.000000,-3.000000,-18.000000,-7.000000,-6.000000,-14.000000,-6.000000
1295732.251793,-5.000000,-16.000000,-15.000000,-8.000000,1.000000,-4.000000,-14.000000,-6.000000
1295732.289460,20.000000,-12.000000,-12.000000,-49.000000,-16.000000,2.000000,-4.000000,-3.000000
1295732.289472,-30.000000,21.000000,22.000000,28.000000,-3.000000,-17.000000,-49.000000,-11.000000
1295732.319142,13.000000,10.000000,8.000000,24.000000,8.000000,-4.000000,24.000000,-4.000000
1295732.319165,-5.000000,33.000000,18.000000,21.000000,5.000000,10.000000,-44.000000,-5.000000
1295732.356819,23.000000,-42.000000,-16.000000,-14.000000,-2.000000,-5.000000,107.000000,34.000000
1295732.356830,16.000000,34.000000,14.000000,4.000000,6.000000,7.000000,-13.000000,7.000000
1295732.364322,-8.000000,3.000000,-14.000000,-37.000000,-20.000000,-5.000000,-24.000000,-13.000000
1295732.364333,-20.000000,-2.000000,-4.000000,-5.000000,-1.000000,1.000000,9.000000,-4.000000
1295732.372263,18.000000,21.000000,-27.000000,-5.000000,7.000000,7.000000,-27.000000,-5.000000
1295732.372276,0.000000,-9.000000,69.000000,25.000000,-3.000000,-6.000000,6.000000,10.000000
1295732.372798,29.000000,61.000000,11.000000,24.000000,9.000000,3.000000,42.000000,16.000000
1295732.372806,0.000000,-27.000000,-10.000000,-13.000000,3.000000,-5.000000,-15.000000,-5.000000
1295732.373222,-3.000000,11.000000,-9.000000,-2.000000,-6.000000,-9.000000,-36.000000,-16.000000
1295732.373231,17.000000,4.000000,-8.000000,1.000000,3.000000,10.000000,3.000000,-5.000000
1295732.374923,-7.000000,15.000000,-1.000000,11.000000,5.000000,-7.000000,25.000000,8.000000
1295732.374933,-12.000000,-10.000000,-12.000000,2.000000,14.000000,0.000000,-15.000000,0.000000
1295732.402010,-12.000000,-7.000000,-3.000000,-34.000000,-26.000000,-12.000000,-26.000000,-15.000000
1295732.402024,15.000000,0.000000,4.000000,8.000000,4.000000,6.000000,-20.000000,-5.000000
1295732.409277,-25.000000,-9.000000,-30.000000,-38.000000,-16.000000,-7.000000,-4.000000,-8.000000
1295732.409290,27.000000,6.000000,32.000000,58.000000,15.000000,10.000000,-33.000000,5.000000
1295732.424281,2.000000,9.000000,-20.000000,-18.000000,3.000000,8.000000,49.000000,1.000000
1295732.424330,-23.000000,-7.000000,-3.000000,0.000000,-28.000000,-7.000000,-11.000000,-1.000000
1295732.447168,59.000000,51.000000,31.000000,47.000000,24.000000,19.000000,38.000000,26.000000
1295732.447286,-19.000000,-3.000000,-4.000000,-6.000000,-2.000000,-7.000000,-35.000000,-17.000000
1295732.448100,-3.000000,-35.000000,-21.000000,-30.000000,-26.000000,-15.000000,7.000000,0.000000
1295732.448118,-5.000000,-8.000000,10.000000,-1.000000,4.000000,9.000000,43.000000,6.000000
1295732.448579,20.000000,39.000000,-11.000000,-25.000000,-3.000000,2.000000,-42.000000,-5.000000
1295732.448609,-12.000000,-19.000000,11.000000,11.000000,-2.000000,-2.000000,13.000000,8.000000
1295732.450059,-4.000000,43.000000,0.000000,-1.000000,-4.000000,-6.000000,-3.000000,-8.000000
1295732.450083,9.000000,3.000000,4.000000,-23.000000,15.000000,8.000000,-6.000000,-6.000000
1295732.477057,16.000000,13.000000,-17.000000,-32.000000,-8.000000,-4.000000,-20.000000,-10.000000
1295732.477065,9.000000,-16.000000,11.000000,35.000000,22.000000,20.000000,-19.000000,4.000000
1295732.477670,-12.000000,-1.000000,-16.000000,-9.000000,-6.000000,-4.000000,30.000000,8.000000
1295732.477679,-3.000000,-72.000000,-30.000000,-21.000000,-9.000000,-2.000000,4.000000,-2.000000
1295732.479177,-30.000000,-1.000000,26.000000,-2.000000,-1.000000,1.000000,-16.000000,-5.000000
1295732.479185,26.000000,-5.000000,-31.000000,-5.000000,-6.000000,-10.000000,-5.000000,8.000000
1295732.506810,-19.000000,-51.000000,8.000000,-38.000000,-12.000000,1.000000,-17.000000,-11.000000
1295732.506821,-13.000000,21.000000,4.000000,26.000000,4.000000,2.000000,43.000000,3.000000
1295732.521706,1.000000,-14.000000,-25.000000,-19.000000,1.000000,5.000000,47.000000,13.000000
1295732.521731,-12.000000,-25.000000,11.000000,-4.000000,20.000000,6.000000,-38.000000,-9.000000
1295732.559086,20.000000,39.000000,0.000000,-3.000000,-31.000000,-20.000000,3.000000,-2.000000
1295732.559105,31.000000,11.000000,-5.000000,1.000000,1.000000,-4.000000,0.000000,3.000000
1295732.560141,-63.000000,-6.000000,-25.000000,-29.000000,-3.000000,-1.000000,-11.000000,-7.000000
1295732.560150,27.000000,12.000000,40.000000,32.000000,14.000000,11.000000,-6.000000,4.000000
1295732.560670,-9.000000,-21.000000,-18.000000,-15.000000,-17.000000,-15.000000,3.000000,-2.000000
1295732.560679,4.000000,11.000000,2.000000,7.000000,5.000000,-1.000000,13.000000,-3.000000
1295732.562077,13.000000,48.000000,-1.000000,-8.000000,-3.000000,-5.000000,-27.000000,-11.000000
1295732.562087,1.000000,-6.000000,-18.000000,11.000000,6.000000,13.000000,16.000000,7.000000
1295732.562884,16.000000,17.000000,20.000000,8.000000,-17.000000,-3.000000,12.000000,16.000000
1295732.562892,-32.000000,-74.000000,-1.000000,-11.000000,6.000000,9.000000,0.000000,-2.000000
1295732.566448,16.000000,29.000000,2.000000,-21.000000,-4.000000,7.000000,17.000000,7.000000
1295732.566456,9.000000,-28.000000,-12.000000,-36.000000,-28.000000,-23.000000,-53.000000,-14.000000
1295732.582626,-12.000000,-7.000000,-5.000000,0.000000,5.000000,3.000000,12.000000,0.000000
1295732.582653,-10.000000,-35.000000,-11.000000,11.000000,15.000000,18.000000,-6.000000,1.000000
1295732.596595,53.000000,60.000000,23.000000,-30.000000,-21.000000,-23.000000,17.000000,9.000000
1295732.596606,-33.000000,-33.000000,-4.000000,-10.000000,-3.000000,-14.000000,-20.000000,-9.000000
1295732.649076,11.000000,-13.000000,-9.000000,12.000000,7.000000,9.000000,23.000000,3.000000
1295732.649100,8.000000,30.000000,-8.000000,-5.000000,-5.000000,3.000000,-2.000000,6.000000
1295732.656637,-10.000000,-3.000000,-7.000000,-12.000000,3.000000,4.000000,-16.000000,-11.000000
1295732.656660,-19.000000,-17.000000,9.000000,48.000000,17.000000,-6.000000,-16.000000,-17.000000
1295732.679544,18.000000,8.000000,-18.000000,-22.000000,-4.000000,3.000000,1.000000,8.000000
1295732.679554,13.000000,8.000000,17.000000,9.000000,3.000000,3.000000,19.000000,5.000000
1295732.686547,-25.000000,0.000000,10.000000,26.000000,10.000000,-3.000000,-8.000000,-8.000000
1295732.686568,-16.000000,-45.000000,-8.000000,3.000000,-1.000000,-8.000000,-15.000000,-8.000000
1295732.717330,3.000000,13.000000,-4.000000,-2.000000,7.000000,10.000000,-12.000000,13.000000
1295732.717340,7.000000,15.000000,21.000000,11.000000,9.000000,6.000000,3.000000,-5.000000
1295732.717803,3.000000,21.000000,20.000000,70.000000,11.000000,1.000000,-22.000000,-1.000000
1295732.717817,-35.000000,-26.000000,-3.000000,19.000000,1.000000,-12.000000,-40.000000,-10.000000
1295732.718997,-10.000000,40.000000,5.000000,16.000000,-5.000000,-1.000000,15.000000,1.000000
1295732.719007,-13.000000,-54.000000,-21.000000,-29.000000,-2.000000,-3.000000,-28.000000,-11.000000
1295732.720664,-29.000000,-12.000000,0.000000,-21.000000,-17.000000,-7.000000,20.000000,-7.000000
1295732.720674,6.000000,43.000000,-4.000000,16.000000,7.000000,-1.000000,-17.000000,1.000000
1295732.739205,-4.000000,-12.000000,-2.000000,-4.000000,-10.000000,-19.000000,-30.000000,-21.000000
1295732.739216,11.000000,8.000000,21.000000,30.000000,5.000000,-3.000000,-57.000000,2.000000
1295732.761992,34.000000,21.000000,19.000000,8.000000,-5.000000,-2.000000,46.000000,22.000000
1295732.762020,6.000000,4.000000,-9.000000,-11.000000,7.000000,11.000000,23.000000,3.000000
1295732.769277,-49.000000,-49.000000,-10.000000,-9.000000,-18.000000,-9.000000,-22.000000,-21.000000
1295732.769305,28.000000,18.000000,8.000000,5.000000,-8.000000,-9.000000,-53.000000,-12.000000
1295732.791684,-14.000000,-51.000000,-4.000000,11.000000,9.000000,9.000000,17.000000,4.000000
1295732.791704,4.000000,-9.000000,-11.000000,-12.000000,8.000000,13.000000,68.000000,17.000000
1295732.799072,13.000000,-10.000000,6.000000,14.000000,-11.000000,-17.000000,-38.000000,-5.000000
1295732.799081,-16.000000,-3.000000,-6.000000,-17.000000,-9.000000,-6.000000,7.000000,-2.000000
1295732.800043,-7.000000,22.000000,-7.000000,38.000000,12.000000,7.000000,16.000000,1.000000
1295732.800051,-25.000000,-38.000000,19.000000,-34.000000,0.000000,8.000000,-38.000000,-10.000000
1295732.800714,8.000000,-4.000000,-3.000000,-15.000000,-30.000000,-29.000000,-25.000000,-15.000000
1295732.800722,6.000000,10.000000,-1.000000,-15.000000,6.000000,4.000000,-4.000000,-1.000000
1295732.802346,-8.000000,-19.000000,-39.000000,-33.000000,-12.000000,2.000000,6.000000,0.000000
1295732.802354,-5.000000,-23.000000,36.000000,65.000000,26.000000,18.000000,17.000000,5.000000
1295732.806543,-26.000000,49.000000,-7.000000,-19.000000,-30.000000,-23.000000,-7.000000,-2.000000
1295732.806551,7.000000,-45.000000,7.000000,22.000000,4.000000,1.000000,-8.000000,-1.000000
1295732.836689,-1.000000,-16.000000,-28.000000,-44.000000,-11.000000,-8.000000,-15.000000,-12.000000
1295732.836715,1.000000,7.000000,22.000000,66.000000,32.000000,13.000000,32.000000,6.000000
1295732.837091,17.000000,7.000000,-7.000000,-18.000000,-13.000000,-9.000000,-19.000000,1.000000
1295732.837103,-6.000000,-4.000000,-15.000000,-15.000000,4.000000,-1.000000,29.000000,8.000000
1295732.838437,-19.000000,-17.000000,13.000000,5.000000,-10.000000,-11.000000,-52.000000,-14.000000
1295732.838459,-16.000000,19.000000,-8.000000,7.000000,9.000000,-9.000000,8.000000,-10.000000
1295732.859392,7.000000,-27.000000,1.000000,28.000000,12.000000,4.000000,-10.000000,5.000000
1295732.859403,-14.000000,-78.000000,-22.000000,-12.000000,-4.000000,-3.000000,45.000000,2.000000
1295732.881705,-17.000000,-46.000000,9.000000,-20.000000,5.000000,12.000000,-2.000000,-9.000000
1295732.881739,-5.000000,6.000000,-14.000000,-15.000000,-25.000000,-16.000000,-10.000000,3.000000
1295732.896948,42.000000,61.000000,8.000000,-18.000000,4.000000,11.000000,18.000000,19.000000
1295732.896960,-29.000000,-17.000000,-3.000000,-7.000000,0.000000,0.000000,-14.000000,-13.000000
1295732.919075,-19.000000,2.000000,1.000000,-13.000000,-11.000000,-1.000000,-37.000000,-14.000000
1295732.919085,6.000000,4.000000,18.000000,33.000000,17.000000,-1.000000,47.000000,-2.000000
1295732.926590,-5.000000,-9.000000,-16.000000,-22.000000,-17.000000,-13.000000,-20.000000,-3.000000
1295732.926600,33.000000,37.000000,2.000000,12.000000,9.000000,-1.000000,-43.000000,3.000000
1295732.949391,21.000000,37.000000,5.000000,-13.000000,0.000000,10.000000,74.000000,13.000000
1295732.949405,-43.000000,-14.000000,-10.000000,37.000000,18.000000,-2.000000,-55.000000,-13.000000
1295732.949749,23.000000,47.000000,11.000000,17.000000,1.000000,-7.000000,-61.000000,-24.000000
1295732.949758,0.000000,-2.000000,-21.000000,-34.000000,1.000000,8.000000,75.000000,30.000000
1295732.950795,29.000000,12.000000,-21.000000,-20.000000,-3.000000,-13.000000,-36.000000,-13.000000
1295732.950805,-22.000000,-54.000000,-1.000000,17.000000,0.000000,-18.000000,-6.000000,-11.000000
1295732.952140,31.000000,25.000000,-10.000000,-11.000000,4.000000,-1.000000,50.000000,32.000000
1295732.952150,-64.000000,-22.000000,14.000000,38.000000,28.000000,42.000000,92.000000,-7.000000
1295732.952984,7.000000,-17.000000,-15.000000,-13.000000,-12.000000,-20.000000,-128.000000,-51.000000
1295732.952994,39.000000,37.000000,-7.000000,-7.000000,-11.000000,-23.000000,0.000000,24.000000
1295732.957659,11.000000,-23.000000,7.000000,35.000000,24.000000,27.000000,127.000000,96.000000
1295732.957671,-25.000000,-9.000000,-14.000000,-22.000000,-11.000000,-1.000000,-45.000000,-6.000000
1295732.971827,30.000000,-27.000000,-6.000000,2.000000,2.000000,4.000000,-56.000000,-31.000000
1295732.971845,-50.000000,-63.000000,-29.000000,-38.000000,-26.000000,-13.000000,-57.000000,-27.000000
1295732.986606,32.000000,0.000000,-6.000000,-22.000000,-4.000000,-15.000000,-44.000000,-13.000000
1295732.986615,20.000000,33.000000,5.000000,-14.000000,-5.000000,-5.000000,-11.000000,-7.000000
1295732.994381,3.000000,13.000000,-4.000000,32.000000,12.000000,2.000000,-1.000000,-1.000000
1295732.994392,10.000000,-16.000000,-3.000000,-5.000000,-11.000000,-3.000000,9.000000,-3.000000
1295733.016587,-5.000000,7.000000,-19.000000,-56.000000,-9.000000,-3.000000,15.000000,4.000000
1295733.016597,-13.000000,22.000000,5.000000,43.000000,22.000000,6.000000,-24.000000,-4.000000
1295733.023893,8.000000,-7.000000,14.000000,13.000000,-5.000000,4.000000,6.000000,1.000000
1295733.023908,-8.000000,-32.000000,7.000000,25.000000,4.000000,-3.000000,28.000000,2.000000
1295733.031488,10.000000,11.000000,-4.000000,-7.000000,11.000000,16.000000,25.000000,17.000000
1295733.031499,-27.000000,-52.000000,-33.000000,-40.000000,-28.000000,-33.000000,-37.000000,-18.000000
1295733.032146,15.000000,32.000000,29.000000,36.000000,13.000000,4.000000,-42.000000,1.000000
1295733.032156,45.000000,-20.000000,-4.000000,-13.000000,12.000000,17.000000,83.000000,26.000000
1295733.040088,-59.000000,-40.000000,-11.000000,-31.000000,-27.000000,-20.000000,-63.000000,-29.000000
1295733.040102,6.000000,0.000000,-6.000000,-14.000000,-5.000000,8.000000,-9.000000,3.000000
1295733.046966,11.000000,31.000000,-19.000000,7.000000,10.000000,2.000000,42.000000,8.000000
1295733.046979,43.000000,7.000000,-4.000000,8.000000,1.000000,-8.000000,-40.000000,0.000000
1295733.062237,-51.000000,-14.000000,3.000000,-3.000000,10.000000,12.000000,3.000000,1.000000
1295733.062246,-22.000000,-1.000000,-21.000000,-33.000000,-35.000000,-30.000000,-40.000000,-21.000000
1295733.068976,3.000000,12.000000,23.000000,-3.000000,-3.000000,12.000000,-26.000000,-5.000000
1295733.068990,20.000000,15.000000,1.000000,4.000000,10.000000,2.000000,97.000000,29.000000
1295733.077092,-5.000000,-41.000000,-27.000000,-20.000000,0.000000,-6.000000,-50.000000,5.000000
1295733.077101,8.000000,43.000000,24.000000,27.000000,3.000000,-1.000000,-20.000000,-9.000000
1295733.099485,-16.000000,-12.000000,-10.000000,-40.000000,-5.000000,-1.000000,11.000000,8.000000
1295733.099513,23.000000,13.000000,-1.000000,-4.000000,-6.000000,3.000000,44.000000,10.000000
1295733.121719,-7.000000,0.000000,-12.000000,1.000000,3.000000,-1.000000,-22.000000,-14.000000
1295733.121797,-42.000000,-84.000000,-24.000000,-10.000000,-2.000000,-4.000000,-49.000000,-21.000000
1295733.136759,27.000000,53.000000,-4.000000,-11.000000,-1.000000,-1.000000,33.000000,8.000000
1295733.136768,-27.000000,-79.000000,-19.000000,11.000000,2.000000,-12.000000,6.000000,-10.000000
1295733.159150,31.000000,27.000000,21.000000,15.000000,8.000000,8.000000,3.000000,12.000000
1295733.159178,-23.000000,17.000000,7.000000,-22.000000,10.000000,7.000000,2.000000,-1.000000
1295733.166656,11.000000,-24.000000,-18.000000,-21.000000,-14.000000,-17.000000,-7.000000,-2.000000
1295733.166674,-3.000000,19.000000,4.000000,3.000000,10.000000,8.000000,-53.000000,-9.000000
1295733.189799,-1.000000,-10.000000,-5.000000,6.000000,-2.000000,8.000000,77.000000,7.000000
1295733.189825,8.000000,15.000000,8.000000,-2.000000,-14.000000,-29.000000,-64.000000,-6.000000
1295733.190560,1.000000,28.000000,8.000000,25.000000,7.000000,6.000000,51.000000,13.000000
1295733.190571,9.000000,10.000000,-10.000000,-16.000000,3.000000,10.000000,-25.000000,-2.000000
1295733.191911,-6.000000,5.000000,-23.000000,-21.000000,-14.000000,-1.000000,-4.000000,0.000000
1295733.191939,7.000000,12.000000,9.000000,-18.000000,0.000000,-6.000000,6.000000,-8.000000
1295733.193102,-13.000000,-31.000000,-11.000000,2.000000,-7.000000,0.000000,-24.000000,-2.000000
1295733.193129,14.000000,3.000000,0.000000,-20.000000,8.000000,-15.000000,34.000000,-8.000000
1295733.204158,14.000000,23.000000,11.000000,9.000000,10.000000,0.000000,-36.000000,-2.000000
1295733.204176,-23.000000,-45.000000,-13.000000,-21.000000,-2.000000,6.000000,7.000000,-2.000000
1295733.211708,-3.000000,5.000000,1.000000,13.000000,2.000000,-6.000000,4.000000,-5.000000
1295733.211729,7.000000,-39.000000,-3.000000,-22.000000,6.000000,7.000000,22.000000,18.000000
1295733.234251,5.000000,94.000000,24.000000,-5.000000,0.000000,1.000000,-5.000000,-4.000000
1295733.234262,-1.000000,-12.000000,-7.000000,6.000000,2.000000,2.000000,-7.000000,-4.000000
1295733.241879,-40.000000,-27.000000,-16.000000,-28.000000,-14.000000,-10.000000,-30.000000,-16.000000
1295733.241891,18.000000,13.000000,16.000000,32.000000,3.000000,-4.000000,5.000000,0.000000
1295733.256651,-1.000000,8.000000,-5.000000,-5.000000,-8.000000,1.000000,12.000000,-1.000000
1295733.256676,12.000000,-42.000000,-13.000000,-9.000000,-7.000000,-10.000000,12.000000,8.000000
1295733.271641,-2.000000,42.000000,2.000000,-28.000000,-13.000000,-6.000000,-7.000000,-6.000000
1295733.271650,11.000000,4.000000,-4.000000,10.000000,-2.000000,-4.000000,-66.000000,-25.000000
1295733.309199,-17.000000,12.000000,7.000000,-17.000000,-7.000000,9.000000,82.000000,33.000000
1295733.309210,20.000000,-6.000000,15.000000,33.000000,18.000000,13.000000,10.000000,14.000000
1295733.317677,12.000000,20.000000,2.000000,-7.000000,-20.000000,-14.000000,-37.000000,-10.000000
1295733.317704,-13.000000,6.000000,3.000000,-17.000000,-1.000000,-3.000000,-5.000000,-3.000000
1295733.339831,16.000000,25.000000,24.000000,36.000000,12.000000,2.000000,-18.000000,-3.000000
1295733.339950,-4.000000,-37.000000,-28.000000,-55.000000,-15.000000,-1.000000,18.000000,10.000000
1295733.354630,0.000000,4.000000,38.000000,43.000000,19.000000,7.000000,39.000000,16.000000
1295733.354647,40.000000,5.000000,-31.000000,-9.000000,-5.000000,-6.000000,-29.000000,-11.000000
1295733.376850,-4.000000,20.000000,35.000000,60.000000,17.000000,5.000000,-9.000000,-5.000000
1295733.376869,0.000000,5.000000,-12.000000,-30.000000,-8.000000,-1.000000,1.000000,4.000000
1295733.391629,-19.000000,-42.000000,4.000000,0.000000,4.000000,-7.000000,-1.000000,-9.000000
1295733.391653,-9.000000,-74.000000,5.000000,13.000000,1.000000,2.000000,-3.000000,14.000000
1295733.391972,5.000000,1.000000,-4.000000,-5.000000,6.000000,0.000000,40.000000,12.000000
1295733.391994,-2.000000,-34.000000,-27.000000,-24.000000,-33.000000,-19.000000,-67.000000,-25.000000
1295733.392579,0.000000,-47.000000,-3.000000,-16.000000,-1.000000,3.000000,-47.000000,-15.000000
1295733.392600,-4.000000,28.000000,-13.000000,-7.000000,-13.000000,-3.000000,6.000000,3.000000
1295733.393406,-12.000000,-7.000000,-4.000000,25.000000,-7.000000,-4.000000,7.000000,-11.000000
1295733.393423,-19.000000,14.000000,30.000000,-23.000000,3.000000,2.000000,6.000000,-2.000000
1295733.393924,27.000000,11.000000,-1.000000,-19.000000,3.000000,12.000000,8.000000,21.000000
1295733.393939,21.000000,16.000000,1.000000,5.000000,7.000000,1.000000,-56.000000,-9.000000
1295733.395343,27.000000,50.000000,-4.000000,-22.000000,-10.000000,-16.000000,-8.000000,-2.000000
1295733.395365,-23.000000,-16.000000,-10.000000,-1.000000,1.000000,3.000000,-27.000000,-20.000000
1295733.399689,14.000000,-14.000000,-4.000000,-15.000000,-3.000000,5.000000,5.000000,3.000000
1295733.399700,-1.000000,-8.000000,1.000000,29.000000,10.000000,9.000000,31.000000,8.000000
1295733.429279,-22.000000,2.000000,-7.000000,-27.000000,5.000000,2.000000,-5.000000,-9.000000
1295733.429324,14.000000,29.000000,9.000000,-37.000000,-11.000000,5.000000,-22.000000,7.000000
1295733.430410,22.000000,-8.000000,0.000000,39.000000,6.000000,-10.000000,35.000000,3.000000
1295733.430418,-12.000000,-10.000000,-23.000000,-24.000000,-8.000000,-2.000000,-1.000000,-2.000000
1295733.431214,-16.000000,-24.000000,-4.000000,-4.000000,0.000000,-3.000000,-13.000000,-1.000000
1295733.431221,24.000000,50.000000,3.000000,0.000000,-1.000000,0.000000,-32.000000,-10.000000
1295733.451888,16.000000,-2.000000,22.000000,48.000000,13.000000,16.000000,35.000000,9.000000
1295733.451907,2.000000,20.000000,-1.000000,-10.000000,-3.000000,-3.000000,23.000000,5.000000
1295733.466647,-17.000000,-85.000000,-26.000000,-11.000000,-4.000000,-4.000000,-27.000000,-6.000000
1295733.466657,24.000000,41.000000,17.000000,60.000000,12.000000,7.000000,2.000000,-1.000000
1295733.482042,0.000000,-3.000000,-11.000000,-45.000000,-13.000000,-15.000000,-28.000000,-3.000000
1295733.482055,19.000000,-7.000000,10.000000,62.000000,30.000000,16.000000,10.000000,8.000000
1295733.489484,-54.000000,30.000000,-12.000000,-37.000000,-5.000000,7.000000,24.000000,-15.000000
1295733.489519,24.000000,16.000000,20.000000,54.000000,18.000000,0.000000,-19.000000,-7.000000
1295733.511573,8.000000,-32.000000,-29.000000,-76.000000,-15.000000,-10.000000,-70.000000,-10.000000
1295733.511597,3.000000,33.000000,30.000000,8.000000,-4.000000,-1.000000,73.000000,9.000000
1295733.519307,2.000000,-25.000000,-31.000000,-9.000000,12.000000,22.000000,35.000000,21.000000
1295733.519318,2.000000,1.000000,11.000000,5.000000,-2.000000,-6.000000,-14.000000,12.000000
1295733.549555,-8.000000,-24.000000,2.000000,22.000000,-11.000000,-14.000000,-2.000000,-20.000000
1295733.549575,48.000000,18.000000,2.000000,7.000000,17.000000,6.000000,-54.000000,-3.000000
1295733.550135,-26.000000,0.000000,-7.000000,-7.000000,-8.000000,2.000000,-56.000000,-6.000000
1295733.550143,5.000000,12.000000,-1.000000,-3.000000,11.000000,3.000000,96.000000,8.000000
1295733.556799,9.000000,-38.000000,-11.000000,10.000000,3.000000,4.000000,-38.000000,-4.000000
1295733.556824,7.000000,40.000000,19.000000,34.000000,19.000000,11.000000,-32.000000,-10.000000
1295733.564477,-19.000000,-7.000000,-8.000000,-26.000000,-15.000000,-14.000000,31.000000,15.000000
1295733.564505,7.000000,-8.000000,24.000000,42.000000,19.000000,15.000000,-4.000000,-2.000000
1295733.601531,-3.000000,-52.000000,2.000000,33.000000,2.000000,4.000000,-36.000000,-11.000000
1295733.601554,-24.000000,-80.000000,-14.000000,-10.000000,-12.000000,-6.000000,43.000000,-13.000000
1295733.616848,9.000000,18.000000,6.000000,-1.000000,8.000000,-7.000000,-34.000000,9.000000
1295733.616859,14.000000,24.000000,-4.000000,-13.000000,4.000000,5.000000,29.000000,5.000000
1295733.631555,-17.000000,-28.000000,-1.000000,35.000000,15.000000,9.000000,26.000000,8.000000
1295733.631565,-20.000000,16.000000,-6.000000,-23.000000,-14.000000,-7.000000,-75.000000,-18.000000
1295733.639033,34.000000,5.000000,0.000000,12.000000,21.000000,11.000000,39.000000,6.000000
1295733.639042,-2.000000,0.000000,-33.000000,-39.000000,-46.000000,-20.000000,-14.000000,7.000000
1295733.661902,-19.000000,-67.000000,25.000000,36.000000,10.000000,-9.000000,-16.000000,-6.000000
1295733.661912,3.000000,41.000000,-6.000000,-4.000000,6.000000,5.000000,5.000000,-3.000000
1295733.669196,-5.000000,-2.000000,-40.000000,-38.000000,-22.000000,-22.000000,-37.000000,-15.000000
1295733.669225,18.000000,22.000000,37.000000,38.000000,10.000000,9.000000,33.000000,10.000000
1295733.670263,-11.000000,-37.000000,9.000000,-7.000000,-10.000000,-13.000000,-12.000000,-8.000000
1295733.670290,6.000000,40.000000,7.000000,0.000000,6.000000,11.000000,-6.000000,1.000000
1295733.671582,1.000000,1.000000,-8.000000,-26.000000,-3.000000,-6.000000,18.000000,19.000000
1295733.671609,7.000000,-20.000000,15.000000,42.000000,11.000000,-3.000000,-2.000000,-4.000000
1295733.691609,-12.000000,-5.000000,10.000000,22.000000,7.000000,-1.000000,-78.000000,-11.000000
1295733.691620,-8.000000,19.000000,9.000000,-40.000000,-4.000000,9.000000,76.000000,6.000000
1295733.714471,17.000000,-18.000000,0.000000,27.000000,9.000000,4.000000,20.000000,22.000000
1295733.714491,-2.000000,-15.000000,-2.000000,10.000000,5.000000,-1.000000,-5.000000,1.000000
1295733.744064,3.000000,0.000000,-4.000000,-25.000000,-5.000000,-3.000000,-27.000000,-13.000000
1295733.744074,-12.000000,16.000000,10.000000,24.000000,3.000000,5.000000,14.000000,-9.000000
1295733.744424,-18.000000,-19.000000,-22.000000,-46.000000,-27.000000,-16.000000,-15.000000,-10.000000
1295733.744446,8.000000,-1.000000,4.000000,33.000000,22.000000,13.000000,5.000000,10.000000
1295733.745689,11.000000,37.000000,25.000000,30.000000,5.000000,7.000000,26.000000,3.000000
1295733.745711,-58.000000,-60.000000,-19.000000,-4.000000,-1.000000,-6.000000,-7.000000,-15.000000
1295733.746302,-8.000000,-21.000000,-4.000000,-19.000000,-12.000000,-10.000000,-37.000000,-7.000000
1295733.746310,25.000000,100.000000,-1.000000,6.000000,2.000000,-4.000000,-31.000000,-12.000000
1295733.747832,0.000000,-18.000000,8.000000,15.000000,6.000000,19.000000,55.000000,22.000000
1295733.747840,14.000000,-2.000000,8.000000,16.000000,-3.000000,-9.000000,25.000000,7.000000
1295733.751327,6.000000,-33.000000,-3.000000,-5.000000,-15.000000,-13.000000,-52.000000,-12.000000
1295733.751335,22.000000,5.000000,-7.000000,-6.000000,2.000000,2.000000,-4.000000,-11.000000
1295733.759960,-16.000000,-10.000000,-9.000000,-3.000000,-4.000000,-2.000000,-6.000000,1.000000
1295733.759969,24.000000,7.000000,2.000000,-17.000000,1.000000,8.000000,11.000000,15.000000
1295733.781737,6.000000,22.000000,17.000000,-18.000000,-9.000000,-11.000000,-24.000000,-9.000000
1295733.781757,-9.000000,-28.000000,-6.000000,13.000000,12.000000,6.000000,17.000000,-5.000000
1295733.782831,5.000000,23.000000,-7.000000,2.000000,7.000000,8.000000,-40.000000,-7.000000
1295733.782845,-5.000000,-13.000000,-12.000000,-7.000000,-14.000000,-3.000000,67.000000,1.000000
1295733.789165,-42.000000,-22.000000,-6.000000,-10.000000,-9.000000,-26.000000,-58.000000,-4.000000
1295733.789184,18.000000,17.000000,-14.000000,-25.000000,-11.000000,-4.000000,-14.000000,-4.000000
1295733.804459,-4.000000,-9.000000,46.000000,70.000000,21.000000,14.000000,-8.000000,-3.000000
1295733.804472,7.000000,17.000000,0.000000,21.000000,4.000000,2.000000,19.000000,9.000000
1295733.819074,11.000000,-11.000000,-6.000000,-2.000000,2.000000,1.000000,2.000000,5.000000
1295733.819084,-14.000000,66.000000,-3.000000,-31.000000,-8.000000,-10.000000,-11.000000,-4.000000
1295733.833982,2.000000,38.000000,1.000000,3.000000,5.000000,-5.000000,-7.000000,0.000000
1295733.833992,0.000000,-8.000000,17.000000,0.000000,-16.000000,-2.000000,-36.000000,-11.000000
1295733.849519,6.000000,-4.000000,-11.000000,12.000000,7.000000,5.000000,-22.000000,-5.000000
1295733.849548,6.000000,23.000000,-2.000000,2.000000,-4.000000,6.000000,83.000000,22.000000
1295733.871629,4.000000,22.000000,5.000000,6.000000,12.000000,5.000000,-24.000000,1.000000
1295733.871650,-28.000000,-21.000000,2.000000,16.000000,-4.000000,0.000000,-81.000000,-17.000000
1295733.879036,9.000000,-24.000000,-19.000000,0.000000,-5.000000,-6.000000,105.000000,22.000000
1295733.879045,-4.000000,33.000000,29.000000,7.000000,3.000000,-3.000000,-20.000000,0.000000
1295733.901810,-3.000000,-26.000000,2.000000,3.000000,-10.000000,-13.000000,-43.000000,-20.000000
1295733.901823,10.000000,5.000000,-3.000000,6.000000,3.000000,4.000000,35.000000,1.000000
1295733.909154,-16.000000,-18.000000,-15.000000,-5.000000,8.000000,2.000000,-31.000000,-4.000000
1295733.909183,-11.000000,10.000000,-23.000000,-20.000000,-13.000000,-4.000000,-24.000000,-8.000000
1295733.910192,39.000000,26.000000,39.000000,55.000000,8.000000,2.000000,30.000000,22.000000
1295733.910207,-1.000000,1.000000,-10.000000,-9.000000,1.000000,-5.000000,-1.000000,0.000000
1295733.910767,-6.000000,13.000000,-1.000000,6.000000,-6.000000,-13.000000,-36.000000,-13.000000
1295733.910835,13.000000,3.000000,-14.000000,-9.000000,-11.000000,-3.000000,-24.000000,-7.000000
1295733.912299,29.000000,42.000000,6.000000,21.000000,6.000000,-8.000000,-33.000000,-8.000000
1295733.912308,5.000000,10.000000,13.000000,4.000000,-7.000000,-7.000000,-10.000000,-3.000000
1295733.954285,-5.000000,3.000000,-10.000000,5.000000,4.000000,-2.000000,0.000000,-3.000000
1295733.954309,3.000000,6.000000,8.000000,10.000000,6.000000,12.000000,5.000000,0.000000
1295733.984352,-15.000000,-23.000000,-27.000000,-2.000000,-9.000000,-7.000000,8.000000,-8.000000
1295733.984362,8.000000,-6.000000,23.000000,6.000000,-8.000000,-1.000000,-20.000000,4.000000
1295734.021989,2.000000,-1.000000,0.000000,-13.000000,1.000000,-5.000000,16.000000,0.000000
1295734.022016,-6.000000,-42.000000,-35.000000,-23.000000,-7.000000,-8.000000,-7.000000,-3.000000
1295734.022844,-4.000000,4.000000,21.000000,39.000000,16.000000,6.000000,-1.000000,0.000000
1295734.022873,5.000000,12.000000,-16.000000,-28.000000,-14.000000,-12.000000,-23.000000,-8.000000
1295734.023919,0.000000,-39.000000,11.000000,60.000000,10.000000,-6.000000,-59.000000,-6.000000
1295734.023947,-13.000000,-1.000000,1.000000,-7.000000,-8.000000,10.000000,67.000000,9.000000
1295734.024498,18.000000,33.000000,23.000000,71.000000,31.000000,14.000000,67.000000,15.000000
1295734.024525,-8.000000,-30.000000,-15.000000,5.000000,13.000000,5.000000,-70.000000,5.000000
1295734.025393,7.000000,-14.000000,4.000000,0.000000,10.000000,10.000000,0.000000,2.000000
1295734.025420,-9.000000,0.000000,0.000000,-4.000000,6.000000,8.000000,-18.000000,-10.000000
1295734.028977,10.000000,1.000000,-13.000000,-6.000000,-5.000000,-11.000000,-10.000000,-2.000000
1295734.029004,47.000000,51.000000,2.000000,2.000000,1.000000,-4.000000,-13.000000,9.000000
1295734.044257,-25.000000,-38.000000,-6.000000,-17.000000,6.000000,2.000000,-45.000000,-15.000000
1295734.044267,-23.000000,-37.000000,6.000000,-10.000000,-17.000000,-9.000000,14.000000,-10.000000
1295734.059313,7.000000,45.000000,2.000000,9.000000,5.000000,9.000000,-14.000000,6.000000
1295734.059329,6.000000,27.000000,3.000000,32.000000,16.000000,2.000000,-7.000000,-1.000000
1295734.074230,9.000000,27.000000,18.000000,25.000000,10.000000,-1.000000,30.000000,-7.000000
1295734.074240,-15.000000,-33.000000,-23.000000,-18.000000,-14.000000,-7.000000,-26.000000,-1.000000
1295734.081880,12.000000,6.000000,6.000000,9.000000,4.000000,6.000000,59.000000,19.000000
1295734.081890,-21.000000,-21.000000,2.000000,-2.000000,2.000000,-14.000000,-29.000000,-23.000000
1295734.104045,7.000000,11.000000,-11.000000,-12.000000,-17.000000,-11.000000,-103.000000,-16.000000
1295734.104063,-12.000000,9.000000,4.000000,19.000000,15.000000,10.000000,79.000000,15.000000
1295734.104475,-1.000000,-29.000000,14.000000,13.000000,4.000000,11.000000,16.000000,8.000000
1295734.104484,-3.000000,2.000000,-16.000000,-26.000000,-7.000000,-5.000000,9.000000,-3.000000
1295734.106233,9.000000,25.000000,6.000000,19.000000,1.000000,4.000000,-46.000000,0.000000
1295734.106250,-28.000000,14.000000,-11.000000,-7.000000,11.000000,-14.000000,-10.000000,-27.000000
1295734.111490,-32.000000,-128.000000,-15.000000,-14.000000,-11.000000,-8.000000,27.000000,17.000000
1295734.111506,-2.000000,11.000000,0.000000,2.000000,6.000000,7.000000,-29.000000,1.000000
1295734.134127,-1.000000,19.000000,-9.000000,-23.000000,-8.000000,11.000000,25.000000,-4.000000
1295734.134139,-10.000000,-18.000000,-7.000000,-5.000000,-14.000000,-7.000000,-27.000000,-13.000000
1295734.141499,-1.000000,-36.000000,-3.000000,-3.000000,6.000000,4.000000,-14.000000,3.000000
1295734.141526,-12.000000,14.000000,-11.000000,8.000000,-9.000000,-17.000000,-55.000000,-17.000000
1295734.142950,22.000000,31.000000,2.000000,5.000000,-6.000000,9.000000,70.000000,24.000000
1295734.142958,8.000000,26.000000,14.000000,-7.000000,5.000000,7.000000,34.000000,12.000000
1295734.171846,-13.000000,6.000000,-17.000000,-19.000000,-3.000000,-10.000000,-19.000000,-16.000000
1295734.171857,-3.000000,20.000000,10.000000,11.000000,-6.000000,-1.000000,2.000000,-2.000000
1295734.186796,-4.000000,7.000000,-9.000000,-34.000000,-10.000000,-7.000000,-23.000000,-12.000000
1295734.186807,0.000000,-28.000000,0.000000,6.000000,8.000000,4.000000,-5.000000,4.000000
1295734.194157,-18.000000,-33.000000,-10.000000,-6.000000,-20.000000,-17.000000,5.000000,-4.000000
1295734.194180,20.000000,11.000000,-2.000000,-10.000000,2.000000,4.000000,-96.000000,-12.000000
1295734.231670,-21.000000,25.000000,4.000000,17.000000,6.000000,5.000000,116.000000,17.000000
1295734.231690,25.000000,-34.000000,-3.000000,-1.000000,4.000000,1.000000,-8.000000,10.000000
1295734.232003,-6.000000,32.000000,-6.000000,10.000000,-4.000000,-3.000000,-21.000000,-15.000000
1295734.232030,3.000000,-22.000000,-3.000000,-12.000000,-7.000000,-5.000000,-2.000000,0.000000
1295734.233396,-3.000000,31.000000,-4.000000,-14.000000,1.000000,-4.000000,-64.000000,-14.000000
1295734.233408,-13.000000,-15.000000,10.000000,-24.000000,-22.000000,-7.000000,40.000000,4.000000
1295734.234014,10.000000,25.000000,19.000000,28.000000,18.000000,9.000000,27.000000,10.000000
1295734.234022,28.000000,-4.000000,-35.000000,-52.000000,-20.000000,-9.000000,-11.000000,-5.000000
1295734.262275,-31.000000,-62.000000,1.000000,12.000000,2.000000,-1.000000,-7.000000,-5.000000
1295734.262284,18.000000,10.000000,-7.000000,-9.000000,-8.000000,-6.000000,13.000000,0.000000
1295734.262779,12.000000,11.000000,-13.000000,-17.000000,-10.000000,-6.000000,5.000000,8.000000
1295734.262790,34.000000,44.000000,-20.000000,-12.000000,2.000000,12.000000,9.000000,6.000000
1295734.264596,-13.000000,-14.000000,-4.000000,19.000000,4.000000,-13.000000,-9.000000,-19.000000
1295734.264606,-17.000000,-7.000000,14.000000,7.000000,8.000000,9.000000,-17.000000,3.000000
1295734.277024,8.000000,-10.000000,2.000000,3.000000,6.000000,13.000000,85.000000,15.000000
1295734.277034,4.000000,-5.000000,-3.000000,2.000000,-4.000000,-14.000000,-37.000000,-8.000000
1295734.306834,-14.000000,-5.000000,-6.000000,0.000000,-6.000000,-1.000000,-37.000000,-11.000000
1295734.306846,2.000000,15.000000,17.000000,22.000000,6.000000,6.000000,-19.000000,-8.000000
1295734.314482,15.000000,-4.000000,-5.000000,1.000000,3.000000,-3.000000,31.000000,6.000000
1295734.314495,15.000000,-8.000000,-8.000000,-14.000000,-1.000000,4.000000,16.000000,7.000000
1295734.344037,10.000000,34.000000,-11.000000,3.000000,-6.000000,-4.000000,5.000000,-1.000000
1295734.344047,-51.000000,0.000000,8.000000,17.000000,9.000000,15.000000,-51.000000,-9.000000
1295734.344480,-2.000000,-1.000000,-20.000000,-26.000000,-17.000000,-9.000000,73.000000,17.000000
1295734.344506,21.000000,31.000000,34.000000,64.000000,12.000000,1.000000,9.000000,18.000000
1295734.345815,2.000000,6.000000,8.000000,-12.000000,3.000000,4.000000,-4.000000,-9.000000
1295734.345841,-5.000000,-19.000000,-4.000000,35.000000,7.000000,-8.000000,-16.000000,-16.000000
1295734.346623,34.000000,54.000000,6.000000,-5.000000,-10.000000,-10.000000,-8.000000,13.000000
1295734.346649,-15.000000,6.000000,-11.000000,2.000000,2.000000,1.000000,-11.000000,-7.000000
1295734.351978,18.000000,40.000000,10.000000,12.000000,9.000000,-4.000000,-27.000000,3.000000
1295734.352007,-37.000000,-10.000000,-4.000000,-9.000000,-8.000000,2.000000,57.000000,6.000000
1295734.381615,9.000000,3.000000,-5.000000,5.000000,9.000000,6.000000,-46.000000,-9.000000
1295734.381630,-8.000000,-14.000000,-16.000000,-21.000000,-17.000000,-9.000000,-13.000000,-2.000000
1295734.382029,13.000000,18.000000,-7.000000,-19.000000,-1.000000,12.000000,34.000000,10.000000
1295734.382037,-27.000000,-93.000000,17.000000,65.000000,24.000000,7.000000,21.000000,1.000000
1295734.383547,-4.000000,3.000000,-3.000000,-14.000000,-10.000000,-13.000000,-50.000000,-11.000000
1295734.383556,7.000000,72.000000,0.000000,-11.000000,-5.000000,6.000000,25.000000,-3.000000
1295734.396972,0.000000,-6.000000,-5.000000,-10.000000,-1.000000,3.000000,26.000000,2.000000
1295734.397001,0.000000,-16.000000,-6.000000,20.000000,3.000000,-6.000000,-53.000000,-9.000000
1295734.434193,6.000000,9.000000,2.000000,11.000000,1.000000,8.000000,38.000000,18.000000
1295734.434217,-20.000000,-2.000000,-12.000000,-8.000000,7.000000,-1.000000,-43.000000,-33.000000
1295734.449470,28.000000,-8.000000,5.000000,0.000000,-18.000000,-13.000000,21.000000,13.000000
1295734.449483,-2.000000,24.000000,-1.000000,-15.000000,4.000000,16.000000,59.000000,22.000000
1295734.457272,-12.000000,23.000000,6.000000,20.000000,0.000000,6.000000,-22.000000,-11.000000
1295734.457291,2.000000,-40.000000,-2.000000,-4.000000,-8.000000,-11.000000,-18.000000,-5.000000
1295734.457854,8.000000,34.000000,-22.000000,1.000000,-14.000000,-12.000000,-46.000000,-16.000000
1295734.457866,18.000000,45.000000,43.000000,46.000000,13.000000,11.000000,9.000000,5.000000
1295734.459195,-23.000000,-81.000000,-13.000000,3.000000,5.000000,7.000000,3.000000,-3.000000
1295734.459206,-6.000000,3.000000,-19.000000,-50.000000,-7.000000,10.000000,40.000000,4.000000
1295734.460017,22.000000,35.000000,12.000000,27.000000,3.000000,-5.000000,12.000000,8.000000
1295734.460028,-44.000000,-70.000000,-15.000000,-3.000000,-1.000000,-6.000000,-9.000000,-4.000000
1295734.464365,2.000000,0.000000,-6.000000,-19.000000,-7.000000,-15.000000,-20.000000,-13.000000
1295734.464377,12.000000,7.000000,-19.000000,9.000000,-4.000000,-3.000000,-23.000000,-20.000000
1295734.471740,-17.000000,6.000000,22.000000,-20.000000,-14.000000,-3.000000,-21.000000,4.000000
1295734.471760,-7.000000,14.000000,7.000000,6.000000,10.000000,7.000000,-17.000000,1.000000
1295734.486573,24.000000,12.000000,8.000000,17.000000,28.000000,16.000000,105.000000,24.000000
1295734.486600,-19.000000,-24.000000,-11.000000,-2.000000,-20.000000,-19.000000,-34.000000,-4.000000
1295734.501991,4.000000,28.000000,-29.000000,-18.000000,-7.000000,-6.000000,-24.000000,-12.000000
1295734.502021,8.000000,-22.000000,13.000000,8.000000,9.000000,9.000000,-2.000000,1.000000
1295734.503185,4.000000,-7.000000,-19.000000,-14.000000,-7.000000,4.000000,10.000000,1.000000
1295734.503211,-17.000000,28.000000,-6.000000,-16.000000,-1.000000,0.000000,-4.000000,-9.000000
1295734.531936,0.000000,0.000000,34.000000,58.000000,21.000000,6.000000,-7.000000,8.000000
1295734.531948,12.000000,15.000000,0.000000,23.000000,14.000000,2.000000,16.000000,1.000000
1295734.546651,-1.000000,43.000000,-5.000000,-15.000000,-10.000000,-6.000000,-6.000000,-4.000000
1295734.546679,-6.000000,-11.000000,-7.000000,-10.000000,-6.000000,2.000000,-3.000000,-9.000000
1295734.591724,4.000000,9.000000,-3.000000,-7.000000,-10.000000,-8.000000,13.000000,7.000000
1295734.591734,-5.000000,-10.000000,13.000000,-24.000000,-9.000000,4.000000,17.000000,8.000000
1295734.621991,15.000000,36.000000,15.000000,55.000000,21.000000,0.000000,-4.000000,-5.000000
1295734.622015,10.000000,22.000000,3.000000,-8.000000,-1.000000,2.000000,-54.000000,-17.000000
1295734.629239,-34.000000,-38.000000,-24.000000,-36.000000,15.000000,11.000000,44.000000,1.000000
1295734.629251,11.000000,25.000000,22.000000,26.000000,6.000000,-1.000000,22.000000,11.000000
1295734.666575,27.000000,82.000000,6.000000,-20.000000,4.000000,3.000000,-16.000000,8.000000
1295734.666586,0.000000,8.000000,11.000000,5.000000,5.000000,9.000000,6.000000,-2.000000
1295734.696856,-4.000000,-18.000000,-16.000000,-11.000000,4.000000,8.000000,-2.000000,-6.000000
1295734.696880,2.000000,-28.000000,1.000000,-11.000000,6.000000,-3.000000,-57.000000,-20.000000
1295734.704156,-9.000000,22.000000,11.000000,24.000000,9.000000,18.000000,45.000000,6.000000
1295734.704171,-7.000000,11.000000,-15.000000,-43.000000,-20.000000,-15.000000,-15.000000,-9.000000
1295734.711625,-25.000000,-28.000000,-15.000000,-5.000000,-3.000000,14.000000,42.000000,14.000000
1295734.711675,19.000000,23.000000,13.000000,23.000000,7.000000,-2.000000,-76.000000,-14.000000
1295734.712542,-18.000000,-49.000000,-38.000000,-36.000000,-16.000000,-2.000000,45.000000,-1.000000
1295734.712551,18.000000,36.000000,28.000000,37.000000,6.000000,-17.000000,-3.000000,9.000000
1295734.713197,3.000000,7.000000,6.000000,5.000000,0.000000,5.000000,-19.000000,1.000000
1295734.713206,0.000000,-33.000000,-13.000000,-6.000000,-10.000000,-8.000000,5.000000,-11.000000
1295734.714005,-7.000000,23.000000,3.000000,14.000000,5.000000,7.000000,18.000000,0.000000
1295734.714013,18.000000,63.000000,10.000000,-9.000000,0.000000,8.000000,32.000000,10.000000
1295734.714790,-21.000000,-38.000000,1.000000,-52.000000,-31.000000,-35.000000,-47.000000,-6.000000
1295734.714798,29.000000,-27.000000,0.000000,14.000000,4.000000,2.000000,2.000000,21.000000
1295734.727391,0.000000,10.000000,-8.000000,-3.000000,-2.000000,1.000000,-9.000000,-18.000000
1295734.727400,-22.000000,-30.000000,-3.000000,1.000000,6.000000,9.000000,-12.000000,-9.000000
1295734.734195,10.000000,-3.000000,-19.000000,-22.000000,-15.000000,-1.000000,14.000000,13.000000
1295734.734206,-13.000000,49.000000,23.000000,9.000000,4.000000,8.000000,14.000000,-2.000000
1295734.741696,2.000000,9.000000,-19.000000,-31.000000,3.000000,-1.000000,-10.000000,-3.000000
1295734.741706,-14.000000,-19.000000,15.000000,22.000000,-2.000000,-6.000000,-6.000000,-9.000000
1295734.764074,-11.000000,-46.000000,-12.000000,-22.000000,-3.000000,-3.000000,7.000000,-3.000000
1295734.764084,-16.000000,27.000000,11.000000,27.000000,14.000000,-2.000000,3.000000,-8.000000
1295734.786790,16.000000,16.000000,0.000000,-4.000000,-4.000000,-19.000000,-99.000000,-10.000000
1295734.786818,-16.000000,-6.000000,-12.000000,-16.000000,-8.000000,4.000000,88.000000,3.000000
1295734.801703,4.000000,-17.000000,13.000000,-24.000000,-3.000000,9.000000,-17.000000,15.000000
1295734.801717,-12.000000,-20.000000,-4.000000,-3.000000,1.000000,1.000000,42.000000,1.000000
1295734.817316,-13.000000,6.000000,-6.000000,-13.000000,2.000000,-4.000000,-4.000000,-5.000000
1295734.817326,16.000000,-1.000000,-1.000000,3.000000,-5.000000,-8.000000,-8.000000,-6.000000
1295734.817827,28.000000,12.000000,-2.000000,-13.000000,-7.000000,-18.000000,-39.000000,2.000000
1295734.817841,16.000000,-6.000000,0.000000,5.000000,11.000000,11.000000,20.000000,6.000000
1295734.818969,-1.000000,4.000000,-15.000000,-36.000000,-3.000000,4.000000,-14.000000,-7.000000
1295734.818979,-10.000000,-6.000000,8.000000,14.000000,3.000000,-6.000000,12.000000,7.000000
1295734.819831,8.000000,-11.000000,6.000000,13.000000,9.000000,4.000000,-2.000000,0.000000
1295734.819841,25.000000,53.000000,4.000000,30.000000,12.000000,10.000000,-4.000000,-2.000000
1295734.824485,-24.000000,-67.000000,2.000000,6.000000,0.000000,-2.000000,-31.000000,-12.000000
1295734.824497,18.000000,-7.000000,-16.000000,-29.000000,-8.000000,-11.000000,-31.000000,8.000000
1295734.839223,11.000000,-1.000000,-15.000000,-8.000000,2.000000,-2.000000,88.000000,25.000000
1295734.839233,-10.000000,-15.000000,16.000000,30.000000,10.000000,5.000000,-23.000000,1.000000
1295734.854131,-1.000000,-3.000000,-7.000000,-4.000000,-3.000000,0.000000,-8.000000,-4.000000
1295734.854153,3.000000,44.000000,-8.000000,-9.000000,-4.000000,4.000000,-24.000000,-13.000000
1295734.861995,5.000000,31.000000,17.000000,24.000000,-2.000000,-10.000000,4.000000,-1.000000
1295734.862023,-42.000000,-39.000000,-8.000000,-3.000000,4.000000,7.000000,36.000000,13.000000
1295734.891690,31.000000,36.000000,16.000000,13.000000,-3.000000,-7.000000,-65.000000,-5.000000
1295734.891700,12.000000,7.000000,1.000000,-17.000000,-22.000000,-6.000000,48.000000,5.000000
1295734.899078,-23.000000,-34.000000,-15.000000,1.000000,1.000000,3.000000,-1.000000,0.000000
1295734.899096,1.000000,16.000000,-19.000000,-11.000000,0.000000,-9.000000,-32.000000,-13.000000
1295734.914408,6.000000,11.000000,7.000000,13.000000,1.000000,0.000000,-4.000000,-14.000000
1295734.914418,18.000000,-39.000000,1.000000,-30.000000,-11.000000,7.000000,21.000000,35.000000
1295734.929891,-28.000000,10.000000,-9.000000,-41.000000,-6.000000,8.000000,60.000000,2.000000
1295734.929925,-4.000000,12.000000,16.000000,37.000000,12.000000,5.000000,-19.000000,-6.000000
1295734.945548,-36.000000,-5.000000,-4.000000,-2.000000,-5.000000,-12.000000,-22.000000,-25.000000
1295734.945580,3.000000,4.000000,-9.000000,-6.000000,-4.000000,1.000000,-19.000000,0.000000
1295734.953987,-6.000000,-19.000000,-12.000000,1.000000,9.000000,9.000000,22.000000,10.000000
1295734.954057,8.000000,13.000000,6.000000,-8.000000,-8.000000,1.000000,8.000000,2.000000
1295734.974835,1.000000,-12.000000,-10.000000,-9.000000,-8.000000,1.000000,9.000000,0.000000
1295734.975048,-15.000000,-23.000000,12.000000,9.000000,-1.000000,-18.000000,-74.000000,-24.000000
1295734.976122,-27.000000,-107.000000,-51.000000,-14.000000,4.000000,4.000000,15.000000,-15.000000
1295734.976142,-3.000000,28.000000,24.000000,28.000000,-9.000000,-1.000000,6.000000,3.000000
1295734.982056,47.000000,97.000000,21.000000,1.000000,1.000000,0.000000,4.000000,5.000000
1295734.982086,-60.000000,-25.000000,-4.000000,-10.000000,1.000000,5.000000,-10.000000,-13.000000
1295734.989358,-3.000000,-11.000000,0.000000,2.000000,-4.000000,-13.000000,-13.000000,-9.000000
1295734.989371,10.000000,-5.000000,-5.000000,-3.000000,18.000000,9.000000,-27.000000,-3.000000
1295735.011839,23.000000,16.000000,-5.000000,-13.000000,2.000000,8.000000,64.000000,21.000000
1295735.011865,8.000000,-12.000000,-15.000000,-6.000000,1.000000,-1.000000,-28.000000,-2.000000
1295735.041788,-12.000000,-6.000000,-21.000000,-16.000000,-7.000000,-12.000000,-19.000000,-29.000000
1295735.041799,1.000000,27.000000,13.000000,6.000000,-5.000000,-1.000000,-45.000000,-5.000000
1295735.056679,-7.000000,-15.000000,-12.000000,-13.000000,-11.000000,-3.000000,73.000000,27.000000
1295735.056689,33.000000,49.000000,26.000000,50.000000,23.000000,8.000000,-18.000000,1.000000
1295735.057582,13.000000,3.000000,-6.000000,-18.000000,-4.000000,-8.000000,-18.000000,-9.000000
1295735.057590,-41.000000,-92.000000,-16.000000,-17.000000,-3.000000,-3.000000,-44.000000,-25.000000
1295735.058225,12.000000,11.000000,-3.000000,7.000000,12.000000,1.000000,11.000000,5.000000
1295735.058233,11.000000,2.000000,-18.000000,-33.000000,-6.000000,-8.000000,14.000000,16.000000
1295735.059633,1.000000,-8.000000,-15.000000,-12.000000,7.000000,4.000000,1.000000,-1.000000
1295735.059641,-14.000000,-61.000000,-28.000000,-7.000000,-3.000000,-12.000000,-37.000000,-5.000000
1295735.064159,-22.000000,18.000000,3.000000,0.000000,5.000000,1.000000,38.000000,4.000000
1295735.064186,9.000000,-2.000000,-1.000000,-17.000000,-8.000000,0.000000,-1.000000,2.000000
1295735.086593,-1.000000,-12.000000,-9.000000,-14.000000,-6.000000,-1.000000,-4.000000,1.000000
1295735.086622,-7.000000,-81.000000,16.000000,31.000000,-5.000000,-9.000000,-17.000000,-9.000000
1295735.094182,-44.000000,-40.000000,-20.000000,4.000000,0.000000,2.000000,-21.000000,-10.000000
1295735.094193,20.000000,58.000000,19.000000,6.000000,10.000000,5.000000,1.000000,-13.000000
1295735.131740,5.000000,-13.000000,-17.000000,-24.000000,-10.000000,-11.000000,-1.000000,4.000000
1295735.131756,-17.000000,8.000000,13.000000,35.000000,16.000000,2.000000,8.000000,-2.000000
1295735.146727,26.000000,21.000000,8.000000,2.000000,-5.000000,-8.000000,-23.000000,3.000000
1295735.146739,-21.000000,-48.000000,-28.000000,-31.000000,-12.000000,-11.000000,-1.000000,-9.000000
1295735.148002,8.000000,43.000000,11.000000,33.000000,12.000000,6.000000,18.000000,5.000000
1295735.148022,-3.000000,14.000000,23.000000,31.000000,9.000000,1.000000,-6.000000,-4.000000
1295735.148514,9.000000,-15.000000,4.000000,7.000000,-3.000000,-2.000000,-11.000000,-5.000000
1295735.148524,-12.000000,10.000000,-10.000000,-5.000000,0.000000,-1.000000,-44.000000,-7.000000
1295735.154249,-1.000000,-27.000000,8.000000,-15.000000,0.000000,2.000000,25.000000,2.000000
1295735.154264,-29.000000,-71.000000,-7.000000,-1.000000,-7.000000,-13.000000,15.000000,-5.000000
1295735.169072,-5.000000,-38.000000,-9.000000,-7.000000,1.000000,0.000000,14.000000,-2.000000
1295735.169082,4.000000,-7.000000,2.000000,8.000000,15.000000,6.000000,-33.000000,-10.000000
1295735.176529,-2.000000,-6.000000,-7.000000,2.000000,-15.000000,-18.000000,-21.000000,-9.000000
1295735.176538,-30.000000,-82.000000,-15.000000,-3.000000,0.000000,-1.000000,-24.000000,-6.000000
1295735.191970,20.000000,58.000000,7.000000,10.000000,-2.000000,-16.000000,39.000000,5.000000
1295735.191999,-15.000000,-62.000000,-22.000000,-16.000000,0.000000,-7.000000,-29.000000,-5.000000
1295735.206941,4.000000,20.000000,14.000000,1.000000,-8.000000,7.000000,5.000000,-13.000000
1295735.206969,-19.000000,1.000000,-11.000000,-1.000000,9.000000,7.000000,3.000000,7.000000
1295735.221504,-6.000000,-5.000000,-14.000000,-18.000000,-4.000000,3.000000,12.000000,5.000000
1295735.221525,10.000000,25.000000,-2.000000,-3.000000,-1.000000,-8.000000,-21.000000,-5.000000
1295735.229051,7.000000,15.000000,11.000000,18.000000,7.000000,2.000000,-34.000000,-12.000000
1295735.229061,7.000000,-4.000000,0.000000,5.000000,16.000000,10.000000,54.000000,16.000000
1295735.259175,-28.000000,-18.000000,-22.000000,0.000000,-32.000000,-29.000000,-39.000000,-13.000000
1295735.259186,-10.000000,-6.000000,3.000000,-26.000000,-11.000000,1.000000,-22.000000,0.000000
1295735.266693,-3.000000,-65.000000,-24.000000,-25.000000,-3.000000,1.000000,16.000000,-7.000000
1295735.266741,-23.000000,-19.000000,-5.000000,3.000000,-1.000000,-6.000000,31.000000,4.000000
1295735.282042,28.000000,37.000000,2.000000,-11.000000,-6.000000,2.000000,-50.000000,1.000000
1295735.282062,-5.000000,-12.000000,-2.000000,16.000000,-1.000000,13.000000,25.000000,-1.000000
1295735.282656,-14.000000,-15.000000,2.000000,-10.000000,-3.000000,-3.000000,-39.000000,-14.000000
1295735.282666,23.000000,18.000000,13.000000,15.000000,9.000000,1.000000,30.000000,12.000000
1295735.284009,-5.000000,-14.000000,-19.000000,23.000000,5.000000,-5.000000,-14.000000,-3.000000
1295735.284019,7.000000,-4.000000,28.000000,19.000000,10.000000,-1.000000,0.000000,10.000000
1295735.289377,20.000000,1.000000,-4.000000,-10.000000,4.000000,5.000000,-27.000000,-4.000000
1295735.289388,1.000000,1.000000,-9.000000,-10.000000,6.000000,17.000000,56.000000,9.000000
1295735.297501,10.000000,14.000000,0.000000,11.000000,-15.000000,-9.000000,38.000000,25.000000
1295735.297512,20.000000,-1.000000,-3.000000,17.000000,7.000000,-4.000000,-20.000000,-7.000000
1295735.304414,-13.000000,-7.000000,3.000000,-18.000000,1.000000,3.000000,-46.000000,-6.000000
1295735.304439,5.000000,-10.000000,-25.000000,-55.000000,-20.000000,3.000000,10.000000,-14.000000
1295735.341883,10.000000,-1.000000,27.000000,74.000000,38.000000,3.000000,38.000000,26.000000
1295735.341893,-2.000000,-11.000000,7.000000,31.000000,5.000000,8.000000,21.000000,6.000000
1295735.371672,-20.000000,-12.000000,-11.000000,-10.000000,17.000000,7.000000,-15.000000,-7.000000
1295735.371701,38.000000,34.000000,9.000000,-7.000000,-16.000000,-6.000000,-33.000000,-6.000000
1295735.409377,-14.000000,38.000000,3.000000,0.000000,6.000000,14.000000,27.000000,15.000000
1295735.409476,20.000000,50.000000,-11.000000,-2.000000,-2.000000,-4.000000,-4.000000,-8.000000
1295735.409817,-2.000000,-4.000000,-41.000000,-48.000000,-9.000000,-11.000000,-38.000000,-8.000000
1295735.409843,7.000000,42.000000,57.000000,73.000000,14.000000,3.000000,-6.000000,-6.000000
1295735.411063,-14.000000,-44.000000,-16.000000,-11.000000,-10.000000,-15.000000,2.000000,2.000000
1295735.411072,11.000000,16.000000,1.000000,-4.000000,9.000000,7.000000,-74.000000,-13.000000
1295735.411757,-16.000000,-19.000000,-17.000000,-19.000000,-4.000000,-6.000000,101.000000,16.000000
1295735.411818,4.000000,14.000000,13.000000,1.000000,-15.000000,-13.000000,-4.000000,11.000000
1295735.412198,19.000000,1.000000,-12.000000,-9.000000,-1.000000,13.000000,31.000000,17.000000
1295735.412234,4.000000,-34.000000,-16.000000,-6.000000,2.000000,-6.000000,-17.000000,-6.000000
1295735.423914,0.000000,-44.000000,-11.000000,-7.000000,-8.000000,-5.000000,11.000000,2.000000
1295735.423927,-1.000000,0.000000,12.000000,46.000000,16.000000,-6.000000,15.000000,5.000000
1295735.424644,-12.000000,1.000000,-29.000000,-34.000000,-16.000000,-8.000000,-51.000000,-21.000000
1295735.424679,-21.000000,-52.000000,3.000000,6.000000,7.000000,15.000000,44.000000,15.000000
1295735.446960,-3.000000,32.000000,8.000000,6.000000,7.000000,8.000000,-13.000000,-1.000000
1295735.446992,10.000000,-70.000000,-23.000000,-15.000000,-15.000000,-15.000000,3.000000,2.000000
1295735.447705,14.000000,36.000000,21.000000,4.000000,6.000000,-6.000000,-1.000000,2.000000
1295735.447731,-39.000000,-15.000000,-13.000000,0.000000,5.000000,-2.000000,-7.000000,-12.000000
1295735.461968,17.000000,27.000000,19.000000,28.000000,11.000000,7.000000,-38.000000,-7.000000
1295735.461990,-4.000000,-2.000000,-3.000000,-47.000000,-20.000000,2.000000,31.000000,10.000000
1295735.492027,-24.000000,-66.000000,-33.000000,-25.000000,-7.000000,-11.000000,6.000000,-10.000000
1295735.492055,24.000000,48.000000,23.000000,49.000000,21.000000,9.000000,-3.000000,5.000000
1295735.506916,-9.000000,17.000000,-14.000000,-26.000000,-21.000000,-3.000000,6.000000,-7.000000
1295735.506939,-6.000000,-31.000000,-10.000000,-6.000000,-2.000000,-14.000000,-13.000000,-1.000000
1295735.529149,1.000000,9.000000,-4.000000,-3.000000,0.000000,2.000000,-3.000000,-1.000000
1295735.529159,1.000000,24.000000,-4.000000,-5.000000,-7.000000,-4.000000,0.000000,-9.000000
1295735.530063,3.000000,23.000000,3.000000,-9.000000,-3.000000,-3.000000,-6.000000,-5.000000
1295735.530071,-12.000000,-25.000000,-19.000000,-52.000000,-24.000000,-15.000000,-50.000000,-1.000000
1295735.530737,22.000000,5.000000,8.000000,35.000000,14.000000,13.000000,41.000000,11.000000
1295735.530745,35.000000,-37.000000,13.000000,-6.000000,-6.000000,3.000000,42.000000,14.000000
1295735.532024,-16.000000,-6.000000,0.000000,-8.000000,7.000000,8.000000,27.000000,8.000000
1295735.532032,2.000000,22.000000,-15.000000,0.000000,2.000000,1.000000,-11.000000,-6.000000
1295735.532897,-3.000000,-37.000000,-12.000000,-22.000000,-7.000000,-17.000000,-83.000000,-18.000000
1295735.532904,-2.000000,22.000000,3.000000,27.000000,6.000000,8.000000,74.000000,0.000000
1295735.537232,15.000000,-17.000000,-2.000000,-4.000000,11.000000,2.000000,-27.000000,9.000000
1295735.537253,-1.000000,25.000000,-13.000000,-15.000000,-20.000000,-20.000000,-13.000000,-6.000000
1295735.544759,-9.000000,-4.000000,27.000000,41.000000,5.000000,2.000000,-4.000000,-9.000000
1295735.544790,8.000000,-2.000000,1.000000,-5.000000,4.000000,-3.000000,0.000000,3.000000
1295735.560046,-7.000000,-4.000000,-17.000000,-11.000000,-5.000000,9.000000,0.000000,-14.000000
1295735.560056,4.000000,-33.000000,-33.000000,-52.000000,-39.000000,-26.000000,-28.000000,-12.000000
1295735.566478,-3.000000,-64.000000,22.000000,23.000000,6.000000,10.000000,45.000000,10.000000
1295735.566487,5.000000,23.000000,-3.000000,-5.000000,5.000000,14.000000,56.000000,22.000000
1295735.581671,-15.000000,-4.000000,4.000000,43.000000,14.000000,0.000000,-32.000000,-13.000000
1295735.581681,14.000000,-26.000000,-8.000000,-43.000000,-10.000000,-5.000000,-9.000000,3.000000
1295735.589157,37.000000,37.000000,5.000000,-1.000000,-6.000000,-3.000000,-6.000000,0.000000
1295735.589167,-8.000000,4.000000,-13.000000,5.000000,11.000000,11.000000,0.000000,0.000000
1295735.611618,-10.000000,-17.000000,-1.000000,-9.000000,-4.000000,-4.000000,-34.000000,-8.000000
1295735.611629,-27.000000,-90.000000,-29.000000,-12.000000,-1.000000,1.000000,27.000000,-9.000000
1295735.619037,18.000000,27.000000,26.000000,17.000000,-16.000000,-10.000000,23.000000,15.000000
1295735.619047,19.000000,13.000000,4.000000,7.000000,6.000000,9.000000,36.000000,7.000000
1295735.649537,-10.000000,-12.000000,-9.000000,-5.000000,0.000000,-8.000000,-84.000000,-22.000000
1295735.649547,-5.000000,11.000000,13.000000,13.000000,1.000000,-4.000000,39.000000,10.000000
1295735.650161,32.000000,9.000000,-8.000000,-10.000000,2.000000,5.000000,14.000000,7.000000
1295735.650179,0.000000,-4.000000,-14.000000,-7.000000,-9.000000,-17.000000,-16.000000,-4.000000
1295735.651335,8.000000,-35.000000,-5.000000,-24.000000,-3.000000,11.000000,22.000000,8.000000
1295735.651346,1.000000,34.000000,39.000000,83.000000,28.000000,10.000000,-31.000000,-9.000000
1295735.652330,-14.000000,-13.000000,-10.000000,-18.000000,-8.000000,0.000000,30.000000,0.000000
1295735.652340,7.000000,2.000000,2.000000,-2.000000,10.000000,1.000000,-9.000000,-3.000000
1295735.657201,-10.000000,4.000000,-14.000000,-2.000000,-21.000000,-10.000000,1.000000,-8.000000
1295735.657211,-14.000000,-28.000000,-1.000000,-15.000000,-1.000000,1.000000,7.000000,8.000000
1295735.664044,20.000000,25.000000,-13.000000,1.000000,1.000000,-10.000000,-11.000000,-5.000000
1295735.664054,3.000000,-4.000000,-19.000000,-17.000000,-9.000000,1.000000,-1.000000,-11.000000
1295735.694142,20.000000,-1.000000,31.000000,32.000000,-6.000000,-12.000000,-46.000000,-10.000000
1295735.694165,6.000000,-3.000000,2.000000,20.000000,12.000000,20.000000,52.000000,24.000000
1295735.701797,22.000000,62.000000,4.000000,11.000000,10.000000,19.000000,71.000000,16.000000
1295735.701811,-1.000000,-18.000000,0.000000,-14.000000,-10.000000,-6.000000,-50.000000,-10.000000
1295735.724398,4.000000,14.000000,15.000000,-3.000000,-4.000000,-10.000000,-9.000000,2.000000
1295735.724408,-6.000000,-5.000000,-26.000000,-31.000000,-3.000000,-4.000000,-11.000000,-3.000000
1295735.731851,-3.000000,-26.000000,32.000000,64.000000,19.000000,0.000000,-19.000000,-13.000000
1295735.731864,3.000000,35.000000,-2.000000,10.000000,-7.000000,-8.000000,-54.000000,-7.000000
1295735.761520,3.000000,-26.000000,-24.000000,-27.000000,-2.000000,1.000000,72.000000,7.000000
1295735.761544,36.000000,45.000000,-2.000000,-6.000000,9.000000,9.000000,-17.000000,9.000000
1295735.768888,-16.000000,-46.000000,-12.000000,3.000000,-11.000000,-8.000000,11.000000,7.000000
1295735.768897,-20.000000,8.000000,17.000000,27.000000,11.000000,-8.000000,-39.000000,-18.000000
1295735.770126,19.000000,-12.000000,-2.000000,1.000000,2.000000,3.000000,10.000000,4.000000
1295735.770134,-3.000000,8.000000,-1.000000,5.000000,2.000000,5.000000,44.000000,7.000000
1295735.770809,-8.000000,-55.000000,-16.000000,-31.000000,-22.000000,-9.000000,-26.000000,-12.000000
1295735.770818,-3.000000,31.000000,25.000000,21.000000,25.000000,12.000000,-4.000000,2.000000
1295735.772265,-13.000000,7.000000,-15.000000,-19.000000,-21.000000,-21.000000,5.000000,-5.000000
1295735.772274,-4.000000,-4.000000,-10.000000,-12.000000,-9.000000,-13.000000,-19.000000,-4.000000
1295735.772985,16.000000,15.000000,13.000000,3.000000,-2.000000,1.000000,-13.000000,-8.000000
1295735.772993,-6.000000,6.000000,-19.000000,-4.000000,0.000000,1.000000,-5.000000,4.000000
1295735.778033,-4.000000,15.000000,14.000000,0.000000,-11.000000,0.000000,48.000000,0.000000
1295735.778043,-5.000000,2.000000,-2.000000,-13.000000,-5.000000,-6.000000,-35.000000,-11.000000
1295735.784464,-12.000000,-2.000000,-5.000000,4.000000,7.000000,3.000000,7.000000,-7.000000
1295735.784506,2.000000,1.000000,-20.000000,-4.000000,-1.000000,-8.000000,-20.000000,-3.000000
1295735.806573,13.000000,54.000000,24.000000,7.000000,-9.000000,-1.000000,11.000000,11.000000
1295735.806598,-6.000000,-9.000000,-10.000000,-11.000000,-4.000000,0.000000,-15.000000,-1.000000
1295735.814144,-1.000000,-13.000000,-33.000000,-14.000000,6.000000,9.000000,19.000000,-11.000000
1295735.814153,0.000000,-23.000000,10.000000,13.000000,-5.000000,-16.000000,-11.000000,9.000000
1295735.829563,0.000000,7.000000,6.000000,-3.000000,2.000000,7.000000,66.000000,22.000000
1295735.829574,-11.000000,3.000000,-11.000000,-3.000000,2.000000,-5.000000,-12.000000,-13.000000
1295735.836584,-6.000000,-13.000000,-9.000000,-36.000000,-15.000000,-9.000000,-47.000000,-10.000000
1295735.836593,38.000000,20.000000,2.000000,-10.000000,0.000000,5.000000,23.000000,9.000000
1295735.851515,-41.000000,-5.000000,2.000000,22.000000,2.000000,7.000000,-3.000000,-6.000000
1295735.851525,-5.000000,-6.000000,-31.000000,-25.000000,9.000000,2.000000,6.000000,-7.000000
1295735.859502,-11.000000,13.000000,13.000000,26.000000,-12.000000,-13.000000,-7.000000,-3.000000
1295735.859530,27.000000,21.000000,18.000000,55.000000,25.000000,9.000000,22.000000,15.000000
1295735.889300,-7.000000,12.000000,-3.000000,-9.000000,2.000000,2.000000,13.000000,0.000000
1295735.889315,-1.000000,-9.000000,-4.000000,-16.000000,-7.000000,-5.000000,-6.000000,-8.000000
1295735.896424,-9.000000,-19.000000,-16.000000,-43.000000,-8.000000,8.000000,-8.000000,-11.000000
1295735.896444,5.000000,0.000000,-6.000000,-1.000000,-13.000000,-10.000000,6.000000,5.000000
1295735.897642,0.000000,30.000000,4.000000,-8.000000,-2.000000,1.000000,-2.000000,5.000000
1295735.897654,11.000000,9.000000,-7.000000,-6.000000,-5.000000,-4.000000,-13.000000,-4.000000
1295735.898229,13.000000,13.000000,8.000000,-1.000000,6.000000,2.000000,-28.000000,-7.000000
1295735.898251,-35.000000,-38.000000,-4.000000,-12.000000,-3.000000,-2.000000,26.000000,10.000000
1295735.899744,38.000000,36.000000,8.000000,23.000000,3.000000,2.000000,21.000000,11.000000
1295735.899766,-21.000000,-78.000000,-3.000000,-1.000000,1.000000,3.000000,-6.000000,-6.000000
1295735.911955,-39.000000,33.000000,-23.000000,0.000000,-3.000000,-21.000000,-85.000000,-28.000000
1295735.911968,36.000000,27.000000,30.000000,27.000000,11.000000,5.000000,36.000000,19.000000
1295735.934073,-42.000000,-68.000000,-13.000000,-31.000000,-9.000000,3.000000,63.000000,8.000000
1295735.934089,-33.000000,-8.000000,-3.000000,-18.000000,-2.000000,-7.000000,-48.000000,-15.000000
1295735.949822,-15.000000,-15.000000,-7.000000,-8.000000,6.000000,0.000000,-25.000000,-8.000000
1295735.949897,11.000000,17.000000,11.000000,4.000000,-17.000000,-14.000000,-6.000000,-4.000000
1295735.972412,1.000000,21.000000,17.000000,1.000000,1.000000,6.000000,14.000000,2.000000
1295735.972444,-6.000000,-11.000000,3.000000,16.000000,1.000000,-5.000000,-33.000000,-9.000000
1295735.979149,-7.000000,36.000000,-19.000000,-40.000000,-6.000000,1.000000,31.000000,-1.000000
1295735.979159,-1.000000,6.000000,7.000000,-11.000000,-8.000000,-6.000000,-28.000000,-9.000000
1295736.001952,17.000000,-25.000000,-2.000000,30.000000,10.000000,3.000000,22.000000,10.000000
1295736.001965,0.000000,29.000000,-20.000000,-16.000000,-12.000000,-6.000000,-26.000000,-4.000000
1295736.016854,-9.000000,0.000000,17.000000,-9.000000,3.000000,-4.000000,19.000000,-5.000000
1295736.016867,24.000000,32.000000,-5.000000,-32.000000,-3.000000,3.000000,-53.000000,1.000000
1295736.017781,-16.000000,-29.000000,-15.000000,8.000000,-4.000000,-4.000000,100.000000,19.000000
1295736.017831,9.000000,6.000000,-5.000000,-21.000000,-3.000000,-9.000000,-15.000000,2.000000
1295736.018324,-6.000000,2.000000,20.000000,48.000000,15.000000,11.000000,-52.000000,-15.000000
1295736.018346,23.000000,24.000000,8.000000,6.000000,-9.000000,-1.000000,28.000000,10.000000
1295736.020191,20.000000,9.000000,-4.000000,5.000000,1.000000,-2.000000,-16.000000,-11.000000
1295736.020223,-14.000000,3.000000,-3.000000,-33.000000,-3.000000,-2.000000,-25.000000,-14.000000
1295736.046745,11.000000,24.000000,10.000000,-20.000000,-9.000000,-5.000000,-19.000000,-6.000000
1295736.046754,-7.000000,-27.000000,1.000000,28.000000,18.000000,13.000000,17.000000,13.000000
1295736.069223,15.000000,38.000000,10.000000,36.000000,12.000000,8.000000,-3.000000,5.000000
1295736.069235,-18.000000,-32.000000,-24.000000,-26.000000,-17.000000,-14.000000,6.000000,0.000000
1295736.091967,-19.000000,-3.000000,9.000000,38.000000,6.000000,-1.000000,-14.000000,-9.000000
1295736.091996,16.000000,0.000000,9.000000,8.000000,6.000000,4.000000,-26.000000,-17.000000
1295736.114525,6.000000,33.000000,-17.000000,-35.000000,-17.000000,0.000000,8.000000,5.000000
1295736.114541,-19.000000,14.000000,7.000000,8.000000,14.000000,-1.000000,45.000000,13.000000
1295736.115079,-28.000000,-88.000000,-18.000000,-3.000000,-23.000000,-16.000000,-48.000000,-18.000000
1295736.115087,-4.000000,-5.000000,-19.000000,-14.000000,-3.000000,3.000000,-67.000000,-19.000000
1295736.116441,11.000000,-31.000000,7.000000,-14.000000,-14.000000,-7.000000,38.000000,8.000000
1295736.116449,22.000000,32.000000,-2.000000,8.000000,5.000000,1.000000,-12.000000,3.000000
1295736.117040,-39.000000,-27.000000,-14.000000,-29.000000,-15.000000,-10.000000,39.000000,1.000000
1295736.117047,20.000000,65.000000,36.000000,36.000000,0.000000,3.000000,20.000000,-3.000000
1295736.121500,-12.000000,-8.000000,-6.000000,11.000000,1.000000,-7.000000,-54.000000,-5.000000
1295736.121518,-8.000000,-35.000000,10.000000,35.000000,5.000000,-5.000000,11.000000,-5.000000
1295736.129065,9.000000,-1.000000,19.000000,2.000000,10.000000,7.000000,17.000000,2.000000
1295736.129073,-24.000000,-15.000000,-35.000000,-29.000000,-6.000000,0.000000,-22.000000,1.000000
1295736.137580,22.000000,22.000000,35.000000,42.000000,18.000000,15.000000,52.000000,22.000000
1295736.137610,-14.000000,-27.000000,-2.000000,-12.000000,-18.000000,-13.000000,-20.000000,-10.000000
1295736.166950,-14.000000,15.000000,2.000000,-10.000000,-2.000000,-2.000000,-31.000000,-25.000000
1295736.166974,-10.000000,-49.000000,-12.000000,-23.000000,-14.000000,-2.000000,46.000000,20.000000
1295736.196937,27.000000,52.000000,-11.000000,3.000000,6.000000,3.000000,11.000000,13.000000
1295736.196952,-17.000000,-24.000000,22.000000,53.000000,3.000000,1.000000,-17.000000,-12.000000
1295736.204389,0.000000,14.000000,-2.000000,-5.000000,8.000000,1.000000,-90.000000,-20.000000
1295736.204402,6.000000,-3.000000,-14.000000,-14.000000,-16.000000,-6.000000,82.000000,8.000000
1295736.226880,-4.000000,-74.000000,0.000000,2.000000,4.000000,8.000000,10.000000,7.000000
1295736.226894,31.000000,31.000000,7.000000,24.000000,6.000000,8.000000,-6.000000,-8.000000
1295736.241915,-19.000000,5.000000,-6.000000,-18.000000,-21.000000,-49.000000,18.000000,0.000000
1295736.241928,18.000000,-35.000000,-28.000000,-34.000000,-14.000000,-3.000000,-32.000000,4.000000
1295736.242847,8.000000,43.000000,40.000000,27.000000,8.000000,7.000000,7.000000,-5.000000
1295736.242867,-14.000000,-43.000000,-20.000000,-3.000000,-1.000000,8.000000,6.000000,-5.000000
1295736.243379,5.000000,-7.000000,-17.000000,-12.000000,-13.000000,0.000000,-23.000000,-2.000000
1295736.243390,0.000000,40.000000,26.000000,15.000000,8.000000,8.000000,64.000000,21.000000
1295736.244036,-4.000000,0.000000,-3.000000,-22.000000,0.000000,-4.000000,-15.000000,-9.000000
1295736.244046,-37.000000,-16.000000,-19.000000,27.000000,-22.000000,-21.000000,-16.000000,-10.000000
1295736.244716,-11.000000,-60.000000,7.000000,-3.000000,-4.000000,2.000000,-8.000000,-12.000000
1295736.244743,15.000000,12.000000,1.000000,0.000000,-1.000000,1.000000,-28.000000,-5.000000
1295736.245499,-13.000000,5.000000,-10.000000,6.000000,1.000000,0.000000,33.000000,3.000000
1295736.245508,-2.000000,-25.000000,8.000000,-48.000000,-7.000000,-1.000000,25.000000,-7.000000
1295736.249597,-7.000000,23.000000,-5.000000,-12.000000,-8.000000,-6.000000,-40.000000,-10.000000
1295736.249638,22.000000,25.000000,-5.000000,-15.000000,-7.000000,16.000000,-17.000000,10.000000
1295736.286826,2.000000,13.000000,9.000000,57.000000,27.000000,-7.000000,69.000000,17.000000
1295736.286836,-9.000000,-17.000000,13.000000,20.000000,1.000000,-6.000000,-13.000000,-5.000000
1295736.294693,-14.000000,53.000000,3.000000,-2.000000,6.000000,1.000000,-56.000000,-17.000000
1295736.294714,-18.000000,-30.000000,-22.000000,-25.000000,-12.000000,4.000000,-5.000000,3.000000
1295736.331864,-16.000000,-1.000000,6.000000,-8.000000,-8.000000,0.000000,39.000000,7.000000
1295736.331875,23.000000,-9.000000,5.000000,10.000000,17.000000,8.000000,18.000000,9.000000
1295736.339326,-15.000000,10.000000,3.000000,-5.000000,-11.000000,-8.000000,-37.000000,-11.000000
1295736.339337,5.000000,-1.000000,1.000000,-1.000000,-1.000000,-3.000000,6.000000,-3.000000
1295736.361706,-3.000000,-15.000000,-8.000000,-18.000000,-7.000000,-8.000000,0.000000,-4.000000
1295736.361723,0.000000,4.000000,2.000000,1.000000,-3.000000,-6.000000,-48.000000,-8.000000
1295736.369214,19.000000,-4.000000,-14.000000,-10.000000,-7.000000,7.000000,50.000000,11.000000
1295736.369225,-2.000000,-16.000000,-10.000000,-28.000000,-11.000000,-2.000000,3.000000,6.000000
1295736.370315,40.000000,80.000000,25.000000,-27.000000,-13.000000,-19.000000,-66.000000,-11.000000
1295736.370324,-10.000000,-26.000000,0.000000,2.000000,-4.000000,14.000000,17.000000,0.000000
1295736.371169,-12.000000,11.000000,-11.000000,-3.000000,10.000000,1.000000,61.000000,17.000000
1295736.371208,25.000000,32.000000,21.000000,-1.000000,-4.000000,-15.000000,-31.000000,-6.000000
1295736.372288,12.000000,25.000000,-6.000000,20.000000,8.000000,1.000000,-10.000000,-4.000000
1295736.372296,9.000000,45.000000,7.000000,10.000000,-5.000000,-11.000000,-42.000000,-7.000000
1295736.377203,-22.000000,-15.000000,20.000000,24.000000,-26.000000,-9.000000,-3.000000,-11.000000
1295736.377211,-14.000000,17.000000,-13.000000,-17.000000,2.000000,-1.000000,-1.000000,-5.000000
1295736.391747,16.000000,30.000000,-3.000000,-16.000000,-1.000000,-1.000000,31.000000,7.000000
1295736.391767,-6.000000,7.000000,-6.000000,-19.000000,0.000000,-1.000000,-11.000000,-2.000000
1295736.406648,-6.000000,-16.000000,-5.000000,-2.000000,1.000000,-3.000000,-32.000000,-18.000000
1295736.406678,-8.000000,11.000000,-11.000000,-40.000000,-18.000000,-8.000000,-19.000000,3.000000
1295736.414356,-2.000000,15.000000,22.000000,77.000000,24.000000,14.000000,67.000000,18.000000
1295736.414369,-22.000000,-13.000000,-23.000000,-39.000000,0.000000,3.000000,-16.000000,-9.000000
1295736.444417,27.000000,50.000000,20.000000,14.000000,-4.000000,3.000000,-20.000000,1.000000
1295736.444458,-26.000000,-41.000000,-22.000000,-15.000000,-10.000000,-3.000000,5.000000,-6.000000
1295736.451562,18.000000,7.000000,8.000000,15.000000,10.000000,10.000000,33.000000,14.000000
1295736.451571,16.000000,12.000000,9.000000,-10.000000,-8.000000,8.000000,51.000000,12.000000
1295736.481903,-12.000000,0.000000,-12.000000,-15.000000,-9.000000,-11.000000,-53.000000,-13.000000
1295736.481977,18.000000,59.000000,0.000000,-12.000000,4.000000,8.000000,13.000000,7.000000
1295736.489157,-13.000000,-10.000000,-8.000000,9.000000,2.000000,3.000000,9.000000,-8.000000
1295736.489174,-2.000000,-30.000000,1.000000,28.000000,10.000000,3.000000,-3.000000,4.000000
1295736.504698,16.000000,23.000000,13.000000,3.000000,-1.000000,-3.000000,2.000000,4.000000
1295736.504725,-31.000000,-8.000000,-8.000000,4.000000,2.000000,-2.000000,-18.000000,-11.000000
1295736.519494,12.000000,6.000000,-15.000000,-1.000000,-2.000000,4.000000,-20.000000,1.000000
1295736.519503,11.000000,30.000000,42.000000,40.000000,4.000000,-2.000000,53.000000,14.000000
1295736.541751,5.000000,16.000000,1.000000,-2.000000,-7.000000,-2.000000,-9.000000,-2.000000
1295736.541774,27.000000,18.000000,16.000000,31.000000,-1.000000,-2.000000,15.000000,7.000000
1295736.556773,23.000000,49.000000,16.000000,-10.000000,1.000000,11.000000,91.000000,21.000000
1295736.556783,-10.000000,-30.000000,6.000000,42.000000,10.000000,2.000000,-29.000000,-2.000000
1295736.571713,-11.000000,10.000000,-2.000000,-15.000000,0.000000,1.000000,-43.000000,-14.000000
1295736.571724,29.000000,-6.000000,12.000000,-7.000000,-9.000000,-13.000000,10.000000,14.000000
1295736.601701,-6.000000,-8.000000,-14.000000,-13.000000,-8.000000,-12.000000,16.000000,6.000000
1295736.601729,9.000000,17.000000,-11.000000,-13.000000,-2.000000,-3.000000,-10.000000,-3.000000
1295736.602717,-4.000000,-7.000000,-6.000000,-11.000000,-4.000000,-11.000000,-8.000000,-7.000000
1295736.602743,15.000000,74.000000,16.000000,23.000000,-4.000000,2.000000,-60.000000,-6.000000
1295736.604121,17.000000,8.000000,-3.000000,23.000000,4.000000,0.000000,56.000000,2.000000
1295736.604156,-1.000000,-39.000000,-15.000000,-13.000000,-1.000000,-7.000000,-21.000000,-4.000000
1295736.604880,-7.000000,19.000000,-6.000000,-13.000000,-10.000000,-4.000000,-11.000000,-3.000000
1295736.604889,-23.000000,-7.000000,4.000000,-36.000000,-16.000000,-3.000000,6.000000,-10.000000
1295736.605588,-11.000000,-17.000000,28.000000,55.000000,21.000000,17.000000,-35.000000,-4.000000
1295736.605596,37.000000,20.000000,-11.000000,-28.000000,-24.000000,-16.000000,51.000000,19.000000
1295736.608995,10.000000,14.000000,26.000000,55.000000,14.000000,3.000000,-25.000000,-1.000000
1295736.609003,1.000000,-7.000000,-10.000000,-12.000000,-3.000000,7.000000,28.000000,-7.000000
1295736.639510,5.000000,29.000000,-9.000000,-16.000000,-3.000000,-1.000000,10.000000,6.000000
1295736.639557,-14.000000,14.000000,-12.000000,-3.000000,5.000000,2.000000,-26.000000,-6.000000
1295736.646678,-1.000000,-13.000000,7.000000,6.000000,-8.000000,-10.000000,11.000000,-2.000000
1295736.646688,-14.000000,-20.000000,3.000000,24.000000,9.000000,-1.000000,-6.000000,0.000000
1295736.669432,5.000000,0.000000,-10.000000,9.000000,1.000000,-4.000000,-10.000000,-3.000000
1295736.669450,-22.000000,-17.000000,-9.000000,8.000000,8.000000,4.000000,-23.000000,-12.000000
1295736.676837,38.000000,43.000000,57.000000,80.000000,13.000000,3.000000,26.000000,16.000000
1295736.676853,-3.000000,-5.000000,-7.000000,-21.000000,-2.000000,1.000000,6.000000,4.000000
1295736.691665,6.000000,27.000000,-5.000000,-8.000000,2.000000,7.000000,-18.000000,-6.000000
1295736.691684,-12.000000,-32.000000,-22.000000,-32.000000,-9.000000,-7.000000,28.000000,3.000000
1295736.706716,3.000000,24.000000,7.000000,1.000000,0.000000,2.000000,-15.000000,8.000000
1295736.706744,18.000000,42.000000,9.000000,4.000000,-5.000000,-7.000000,24.000000,3.000000
1295736.721860,9.000000,28.000000,2.000000,-8.000000,2.000000,-1.000000,28.000000,1.000000
1295736.721936,-23.000000,-21.000000,-19.000000,-4.000000,-8.000000,2.000000,-18.000000,2.000000
1295736.722101,5.000000,12.000000,4.000000,2.000000,-9.000000,-9.000000,29.000000,-7.000000
1295736.722109,3.000000,18.000000,-5.000000,-7.000000,-3.000000,-4.000000,-13.000000,1.000000
1295736.723434,9.000000,2.000000,-1.000000,12.000000,7.000000,-6.000000,-27.000000,-9.000000
1295736.723446,-86.000000,-53.000000,-37.000000,-23.000000,-8.000000,-9.000000,-16.000000,-20.000000
1295736.724044,0.000000,-5.000000,8.000000,29.000000,4.000000,10.000000,-19.000000,-3.000000
1295736.724053,39.000000,72.000000,30.000000,34.000000,22.000000,23.000000,54.000000,28.000000
1295736.725408,7.000000,-32.000000,-18.000000,-19.000000,-7.000000,-9.000000,-1.000000,6.000000
1295736.725417,-5.000000,5.000000,-13.000000,-8.000000,-2.000000,-6.000000,-23.000000,-20.000000
1295736.729113,-7.000000,-39.000000,-21.000000,-24.000000,-9.000000,-6.000000,0.000000,6.000000
1295736.729124,-9.000000,-54.000000,11.000000,-1.000000,-6.000000,-3.000000,-16.000000,-10.000000
1295736.759320,7.000000,34.000000,-4.000000,-39.000000,-15.000000,-3.000000,28.000000,5.000000
1295736.759350,5.000000,-3.000000,6.000000,36.000000,14.000000,11.000000,6.000000,6.000000
1295736.766652,-7.000000,-11.000000,-12.000000,-10.000000,-3.000000,-7.000000,-25.000000,-13.000000
1295736.766661,23.000000,20.000000,13.000000,22.000000,9.000000,4.000000,-3.000000,7.000000
1295736.796779,-28.000000,-26.000000,-11.000000,-7.000000,0.000000,12.000000,29.000000,3.000000
1295736.796808,1.000000,2.000000,-22.000000,-12.000000,10.000000,-1.000000,-22.000000,-9.000000
1295736.804415,9.000000,9.000000,45.000000,50.000000,8.000000,3.000000,-16.000000,4.000000
1295736.804445,23.000000,59.000000,4.000000,11.000000,5.000000,5.000000,20.000000,1.000000
1295736.834047,-22.000000,-33.000000,-7.000000,-6.000000,-14.000000,-7.000000,18.000000,6.000000
1295736.834057,29.000000,5.000000,-6.000000,-20.000000,-12.000000,-5.000000,-8.000000,2.000000
1295736.834404,-31.000000,-18.000000,-5.000000,8.000000,7.000000,0.000000,-35.000000,-16.000000
1295736.834425,-21.000000,-23.000000,5.000000,9.000000,-7.000000,-9.000000,-29.000000,-13.000000
1295736.835656,9.000000,11.000000,9.000000,31.000000,8.000000,11.000000,88.000000,29.000000
1295736.835677,21.000000,-8.000000,8.000000,6.000000,11.000000,6.000000,3.000000,12.000000
1295736.836381,-57.000000,-1.000000,-6.000000,7.000000,12.000000,-6.000000,-30.000000,-22.000000
1295736.836407,0.000000,-17.000000,-25.000000,-51.000000,-30.000000,-3.000000,-73.000000,-14.000000
1295736.837205,5.000000,19.000000,24.000000,46.000000,17.000000,7.000000,95.000000,13.000000
1295736.837227,13.000000,-17.000000,-15.000000,-55.000000,-7.000000,1.000000,-2.000000,14.000000
1295736.837865,21.000000,34.000000,23.000000,19.000000,9.000000,8.000000,-24.000000,-5.000000
1295736.837886,6.000000,7.000000,-5.000000,18.000000,7.000000,-7.000000,-12.000000,-4.000000
1295736.841464,-36.000000,-32.000000,0.000000,-15.000000,-17.000000,-18.000000,-14.000000,-12.000000
1295736.841485,34.000000,38.000000,-6.000000,-18.000000,-3.000000,-1.000000,-4.000000,5.000000
1295736.849328,-16.000000,4.000000,17.000000,31.000000,11.000000,3.000000,-74.000000,-10.000000
1295736.849356,-4.000000,-25.000000,-8.000000,7.000000,0.000000,8.000000,75.000000,11.000000
1295736.879155,-5.000000,-5.000000,-26.000000,-45.000000,-16.000000,-5.000000,38.000000,13.000000
1295736.879164,23.000000,7.000000,30.000000,36.000000,17.000000,8.000000,-1.000000,4.000000
1295736.886835,4.000000,-6.000000,-3.000000,2.000000,-3.000000,-9.000000,-45.000000,-19.000000
1295736.886846,4.000000,11.000000,-9.000000,3.000000,12.000000,6.000000,-14.000000,-6.000000
1295736.916631,-1.000000,17.000000,-1.000000,5.000000,-3.000000,19.000000,91.000000,28.000000
1295736.916641,-15.000000,-10.000000,13.000000,24.000000,23.000000,10.000000,35.000000,15.000000
1295736.924032,10.000000,5.000000,3.000000,-6.000000,-12.000000,-5.000000,-61.000000,-17.000000
1295736.924059,22.000000,-6.000000,-11.000000,12.000000,8.000000,3.000000,21.000000,12.000000
1295736.925112,-50.000000,-26.000000,-9.000000,-49.000000,-5.000000,-6.000000,-13.000000,-7.000000
1295736.925120,19.000000,4.000000,2.000000,27.000000,-2.000000,-8.000000,-14.000000,-6.000000
1295736.925778,9.000000,8.000000,-12.000000,-30.000000,-13.000000,-7.000000,-22.000000,-11.000000
1295736.925786,6.000000,42.000000,9.000000,-2.000000,5.000000,8.000000,24.000000,6.000000
1295736.931492,-3.000000,-12.000000,-4.000000,-13.000000,-8.000000,0.000000,-4.000000,2.000000
1295736.931500,-11.000000,-11.000000,19.000000,29.000000,8.000000,2.000000,-11.000000,2.000000
1295736.947276,28.000000,35.000000,-6.000000,-4.000000,-3.000000,1.000000,-41.000000,-1.000000
1295736.947299,-32.000000,-12.000000,-14.000000,-32.000000,-11.000000,5.000000,87.000000,-1.000000
1295736.954239,19.000000,35.000000,14.000000,14.000000,7.000000,3.000000,29.000000,6.000000
1295736.954250,10.000000,14.000000,-9.000000,-10.000000,-5.000000,-4.000000,-16.000000,6.000000
1295736.961737,-16.000000,-19.000000,1.000000,-14.000000,-10.000000,3.000000,18.000000,-8.000000
1295736.961748,-22.000000,-30.000000,-12.000000,-3.000000,4.000000,-4.000000,-83.000000,-22.000000
1295736.969085,20.000000,37.000000,30.000000,49.000000,10.000000,-1.000000,67.000000,22.000000
1295736.969095,-8.000000,-63.000000,-15.000000,-20.000000,-15.000000,-10.000000,-31.000000,-7.000000
1295736.991747,14.000000,33.000000,5.000000,1.000000,1.000000,5.000000,26.000000,-6.000000
1295736.991759,-12.000000,-48.000000,10.000000,10.000000,15.000000,8.000000,-11.000000,-3.000000
1295736.999196,11.000000,36.000000,0.000000,8.000000,0.000000,-24.000000,-31.000000,-6.000000
1295736.999227,6.000000,-16.000000,-2.000000,-1.000000,-2.000000,8.000000,7.000000,0.000000
1295737.036796,-11.000000,-4.000000,-14.000000,-19.000000,-7.000000,-4.000000,-48.000000,-9.000000
1295737.036812,8.000000,9.000000,-10.000000,0.000000,0.000000,-6.000000,25.000000,11.000000
1295737.043949,9.000000,12.000000,-2.000000,8.000000,9.000000,9.000000,-8.000000,-3.000000
1295737.043959,-29.000000,-3.000000,4.000000,-20.000000,-4.000000,2.000000,-1.000000,-9.000000
1295737.045248,1.000000,9.000000,-12.000000,23.000000,16.000000,3.000000,-104.000000,-6.000000
1295737.045260,11.000000,7.000000,31.000000,29.000000,16.000000,13.000000,127.000000,19.000000
1295737.045790,35.000000,-1.000000,0.000000,-17.000000,-1.000000,4.000000,-3.000000,14.000000
1295737.045830,-38.000000,-53.000000,-15.000000,-10.000000,-3.000000,-6.000000,-29.000000,-19.000000
1295737.047333,-4.000000,11.000000,-17.000000,-37.000000,-10.000000,-3.000000,-26.000000,-11.000000
1295737.047349,2.000000,-19.000000,16.000000,52.000000,-2.000000,-16.000000,6.000000,4.000000
1295737.059151,22.000000,43.000000,-7.000000,-18.000000,-9.000000,-5.000000,-30.000000,-2.000000
1295737.059171,13.000000,-3.000000,-7.000000,14.000000,5.000000,9.000000,29.000000,2.000000
1295737.066927,-21.000000,-60.000000,-13.000000,-4.000000,-2.000000,-5.000000,-35.000000,0.000000
1295737.066937,26.000000,31.000000,2.000000,-9.000000,6.000000,-2.000000,-7.000000,8.000000
1295737.074412,-34.000000,-86.000000,-8.000000,25.000000,-19.000000,-11.000000,24.000000,-6.000000
1295737.074422,-5.000000,23.000000,5.000000,-22.000000,-3.000000,4.000000,-18.000000,-4.000000
1295737.089281,-16.000000,-45.000000,-3.000000,9.000000,4.000000,-2.000000,16.000000,-8.000000
1295737.089300,18.000000,-16.000000,-10.000000,-18.000000,1.000000,12.000000,-30.000000,8.000000
1295737.096633,-13.000000,-7.000000,-15.000000,11.000000,-1.000000,-1.000000,21.000000,-7.000000
1295737.096643,-10.000000,21.000000,12.000000,-3.000000,-3.000000,2.000000,39.000000,14.000000
1295737.119466,19.000000,10.000000,8.000000,-1.000000,1.000000,-12.000000,-44.000000,1.000000
1295737.119479,-5.000000,15.000000,2.000000,4.000000,0.000000,-9.000000,-20.000000,-4.000000
1295737.126752,12.000000,0.000000,-18.000000,-9.000000,0.000000,-4.000000,-14.000000,-10.000000
1295737.126764,-3.000000,47.000000,-2.000000,-60.000000,-33.000000,-7.000000,-3.000000,-5.000000
1295737.141749,12.000000,20.000000,18.000000,32.000000,26.000000,21.000000,36.000000,12.000000
1295737.141779,-14.000000,-56.000000,-18.000000,-30.000000,-11.000000,-6.000000,-12.000000,0.000000
1295737.149025,16.000000,12.000000,-12.000000,-21.000000,-2.000000,-1.000000,-8.000000,0.000000
1295737.149035,-6.000000,12.000000,1.000000,-15.000000,-9.000000,-8.000000,3.000000,-6.000000
1295737.164054,15.000000,1.000000,2.000000,27.000000,-2.000000,-3.000000,-20.000000,-7.000000
1295737.164071,-23.000000,-1.000000,5.000000,4.000000,7.000000,-1.000000,3.000000,1.000000
1295737.164490,4.000000,-24.000000,-4.000000,2.000000,-1.000000,7.000000,35.000000,24.000000
1295737.164498,6.000000,44.000000,-3.000000,-6.000000,-1.000000,-8.000000,-41.000000,-7.000000
1295737.166050,-14.000000,2.000000,-4.000000,2.000000,-9.000000,-14.000000,48.000000,2.000000
1295737.166059,23.000000,11.000000,2.000000,-4.000000,-7.000000,4.000000,-24.000000,-2.000000
1295737.171824,-10.000000,-5.000000,-1.000000,2.000000,4.000000,-6.000000,-21.000000,-12.000000
1295737.171861,1.000000,10.000000,-12.000000,-18.000000,-10.000000,-13.000000,-17.000000,2.000000
1295737.194150,-6.000000,11.000000,-4.000000,3.000000,11.000000,1.000000,-3.000000,-6.000000
1295737.194169,-23.000000,-36.000000,-8.000000,-22.000000,-6.000000,6.000000,-4.000000,-6.000000
1295737.194531,-7.000000,38.000000,9.000000,19.000000,23.000000,3.000000,-9.000000,2.000000
1295737.194540,5.000000,-45.000000,-12.000000,-1.000000,-26.000000,-21.000000,-57.000000,-9.000000
1295737.201717,-19.000000,-54.000000,-26.000000,-25.000000,5.000000,9.000000,87.000000,8.000000
1295737.201728,-22.000000,-52.000000,21.000000,22.000000,-4.000000,8.000000,25.000000,9.000000
1295737.209435,7.000000,-22.000000,-13.000000,5.000000,6.000000,1.000000,-20.000000,0.000000
1295737.209446,0.000000,33.000000,-11.000000,-17.000000,-14.000000,-18.000000,-22.000000,-14.000000
1295737.231629,14.000000,-3.000000,13.000000,50.000000,28.000000,14.000000,8.000000,-2.000000
1295737.231645,-9.000000,26.000000,18.000000,-17.000000,-14.000000,6.000000,-8.000000,2.000000
1295737.239041,6.000000,-18.000000,0.000000,5.000000,11.000000,4.000000,-26.000000,-3.000000
1295737.239051,-41.000000,-15.000000,-9.000000,-20.000000,-6.000000,1.000000,75.000000,12.000000
1295737.261912,25.000000,23.000000,-15.000000,-20.000000,-1.000000,3.000000,-5.000000,0.000000
1295737.261923,-9.000000,4.000000,14.000000,19.000000,5.000000,6.000000,-27.000000,-10.000000
1295737.284172,-6.000000,4.000000,-8.000000,4.000000,-6.000000,-9.000000,26.000000,-1.000000
1295737.284201,14.000000,-21.000000,-3.000000,22.000000,2.000000,-3.000000,-38.000000,-2.000000
1295737.314277,0.000000,1.000000,-3.000000,-11.000000,4.000000,16.000000,56.000000,16.000000
1295737.314288,-10.000000,48.000000,-4.000000,-19.000000,-6.000000,-23.000000,-30.000000,-20.000000
1295737.321605,-3.000000,-17.000000,-9.000000,-5.000000,-1.000000,0.000000,-12.000000,0.000000
1295737.321616,4.000000,15.000000,18.000000,49.000000,19.000000,15.000000,35.000000,9.000000
1295737.322689,41.000000,-7.000000,-12.000000,-40.000000,-7.000000,0.000000,-12.000000,-5.000000
1295737.322699,6.000000,24.000000,2.000000,5.000000,-4.000000,2.000000,-23.000000,-6.000000
1295737.323318,18.000000,12.000000,-12.000000,-6.000000,-1.000000,5.000000,32.000000,2.000000
1295737.323326,-15.000000,-63.000000,7.000000,19.000000,3.000000,-8.000000,-12.000000,-4.000000
1295737.323937,1.000000,14.000000,11.000000,15.000000,8.000000,-3.000000,-10.000000,-3.000000
1295737.323988,-9.000000,9.000000,7.000000,-11.000000,0.000000,3.000000,-9.000000,-14.000000
1295737.324866,14.000000,-16.000000,-34.000000,-17.000000,-2.000000,-10.000000,-12.000000,0.000000
1295737.324887,15.000000,-28.000000,37.000000,-5.000000,-2.000000,1.000000,35.000000,12.000000
1295737.336388,89.000000,74.000000,-14.000000,-14.000000,3.000000,5.000000,19.000000,17.000000
1295737.336399,-56.000000,-4.000000,24.000000,33.000000,13.000000,4.000000,-18.000000,-15.000000
1295737.359457,-32.000000,6.000000,-8.000000,-6.000000,-6.000000,-4.000000,-64.000000,-22.000000
1295737.359471,-9.000000,17.000000,-1.000000,-19.000000,-4.000000,2.000000,59.000000,10.000000
1295737.366877,-6.000000,14.000000,0.000000,1.000000,-3.000000,-7.000000,-6.000000,6.000000
1295737.366899,24.000000,4.000000,9.000000,25.000000,5.000000,-4.000000,30.000000,16.000000
1295737.404510,-4.000000,-15.000000,-2.000000,-35.000000,-9.000000,1.000000,-19.000000,-9.000000
1295737.404519,19.000000,-8.000000,-5.000000,-16.000000,-6.000000,-19.000000,-50.000000,-30.000000
1295737.411897,-66.000000,-21.000000,7.000000,11.000000,-2.000000,8.000000,-3.000000,4.000000
1295737.411907,14.000000,8.000000,1.000000,-13.000000,-2.000000,7.000000,98.000000,19.000000
1295737.436071,1.000000,-18.000000,-3.000000,23.000000,11.000000,2.000000,-47.000000,-4.000000
1295737.436171,-1.000000,3.000000,-25.000000,-31.000000,-2.000000,5.000000,-15.000000,-12.000000
1295737.437036,3.000000,16.000000,8.000000,-21.000000,-15.000000,-10.000000,36.000000,2.000000
1295737.437202,14.000000,-11.000000,-9.000000,-16.000000,5.000000,-4.000000,1.000000,14.000000
1295737.437972,-9.000000,-38.000000,-14.000000,-25.000000,-14.000000,-3.000000,-32.000000,-19.000000
1295737.437987,11.000000,28.000000,-7.000000,19.000000,8.000000,15.000000,18.000000,18.000000
1295737.438086,9.000000,39.000000,42.000000,19.000000,-17.000000,-6.000000,-47.000000,-1.000000
1295737.438261,-4.000000,-20.000000,-9.000000,2.000000,6.000000,0.000000,94.000000,7.000000
1295737.438670,-9.000000,64.000000,-3.000000,-2.000000,7.000000,0.000000,-17.000000,-4.000000
1295737.438687,18.000000,-27.000000,-21.000000,-16.000000,1.000000,4.000000,-59.000000,-10.000000
1295737.442078,-52.000000,0.000000,14.000000,13.000000,-13.000000,-5.000000,59.000000,8.000000
1295737.442177,-21.000000,-50.000000,-15.000000,-7.000000,9.000000,13.000000,-10.000000,-1.000000
1295737.449142,5.000000,-1.000000,-9.000000,18.000000,7.000000,-2.000000,-19.000000,-4.000000
1295737.449151,22.000000,13.000000,2.000000,4.000000,-5.000000,-2.000000,10.000000,11.000000
1295737.479362,7.000000,4.000000,10.000000,-13.000000,2.000000,0.000000,0.000000,5.000000
1295737.479373,3.000000,0.000000,-12.000000,-6.000000,-3.000000,0.000000,3.000000,3.000000
1295737.486835,-11.000000,9.000000,23.000000,2.000000,12.000000,4.000000,-4.000000,-8.000000
1295737.486851,-7.000000,5.000000,-4.000000,-19.000000,-4.000000,1.000000,-37.000000,-12.000000
1295737.509059,9.000000,7.000000,-4.000000,-5.000000,-1.000000,2.000000,52.000000,15.000000
1295737.509069,-7.000000,2.000000,-5.000000,-5.000000,-16.000000,1.000000,16.000000,2.000000
1295737.516942,4.000000,-1.000000,-16.000000,-31.000000,-10.000000,-8.000000,-2.000000,-4.000000
1295737.516970,-7.000000,17.000000,12.000000,17.000000,1.000000,-2.000000,-70.000000,-17.000000
1295737.539031,4.000000,33.000000,2.000000,29.000000,4.000000,2.000000,38.000000,0.000000
1295737.539041,7.000000,12.000000,0.000000,-7.000000,-1.000000,7.000000,31.000000,4.000000
1295737.554204,-10.000000,-17.000000,-4.000000,1.000000,1.000000,-7.000000,-40.000000,-13.000000
1295737.554220,4.000000,12.000000,-8.000000,2.000000,-9.000000,-7.000000,-8.000000,-7.000000
1295737.555449,4.000000,6.000000,-10.000000,-29.000000,5.000000,12.000000,64.000000,15.000000
1295737.555495,-15.000000,-14.000000,-8.000000,-10.000000,6.000000,5.000000,-25.000000,-9.000000
1295737.561711,-13.000000,-5.000000,10.000000,30.000000,5.000000,-13.000000,-26.000000,5.000000
1295737.561722,7.000000,17.000000,-1.000000,3.000000,2.000000,2.000000,16.000000,10.000000
1295737.599226,4.000000,-19.000000,-43.000000,-42.000000,-15.000000,-16.000000,-30.000000,-12.000000
1295737.599244,12.000000,50.000000,42.000000,47.000000,14.000000,11.000000,22.000000,10.000000
1295737.614395,-26.000000,-82.000000,-15.000000,-13.000000,2.000000,-1.000000,-30.000000,-12.000000
1295737.614406,-2.000000,3.000000,-21.000000,-6.000000,-1.000000,0.000000,-37.000000,-13.000000
1295737.629197,12.000000,36.000000,8.000000,-8.000000,-28.000000,-14.000000,50.000000,1.000000
1295737.629208,-11.000000,-10.000000,-7.000000,-6.000000,9.000000,9.000000,14.000000,8.000000
1295737.636808,-3.000000,-7.000000,-11.000000,-20.000000,-14.000000,-7.000000,-25.000000,-14.000000
1295737.636827,-14.000000,25.000000,17.000000,15.000000,-4.000000,-8.000000,-23.000000,-2.000000
1295737.667036,18.000000,-23.000000,-10.000000,-2.000000,8.000000,3.000000,51.000000,25.000000
1295737.667195,8.000000,19.000000,-12.000000,-5.000000,-4.000000,-13.000000,-24.000000,-14.000000
1295737.667456,1.000000,-5.000000,3.000000,1.000000,9.000000,6.000000,8.000000,10.000000
1295737.667477,23.000000,36.000000,-6.000000,-12.000000,-10.000000,-7.000000,-11.000000,-5.000000
1295737.668333,-16.000000,22.000000,-6.000000,-17.000000,0.000000,0.000000,2.000000,-5.000000
1295737.668359,9.000000,33.000000,11.000000,21.000000,-7.000000,-4.000000,16.000000,4.000000
1295737.669286,-5.000000,-9.000000,-5.000000,33.000000,7.000000,-10.000000,-19.000000,-14.000000
1295737.669296,2.000000,-3.000000,10.000000,-11.000000,12.000000,13.000000,-8.000000,2.000000
1295737.670079,-21.000000,-23.000000,0.000000,-19.000000,-15.000000,-3.000000,67.000000,15.000000
1295737.670095,29.000000,69.000000,22.000000,15.000000,4.000000,-8.000000,-31.000000,-5.000000
1295737.670862,-40.000000,-30.000000,-15.000000,-11.000000,-2.000000,-1.000000,1.000000,-1.000000
1295737.670870,11.000000,7.000000,-12.000000,-9.000000,-3.000000,5.000000,61.000000,23.000000
1295737.674024,-7.000000,-7.000000,13.000000,14.000000,5.000000,-4.000000,-28.000000,-4.000000
1295737.674034,-1.000000,-13.000000,-4.000000,-10.000000,-2.000000,-2.000000,-50.000000,-19.000000
1295737.681576,14.000000,37.000000,-6.000000,13.000000,-2.000000,-8.000000,15.000000,-2.000000
1295737.681586,7.000000,10.000000,10.000000,30.000000,15.000000,15.000000,2.000000,11.000000
1295737.689068,-17.000000,-17.000000,-7.000000,-24.000000,-15.000000,-10.000000,8.000000,-1.000000
1295737.689078,23.000000,59.000000,18.000000,70.000000,35.000000,2.000000,-13.000000,-5.000000
1295737.711997,-31.000000,-65.000000,9.000000,-15.000000,-10.000000,-5.000000,17.000000,3.000000
1295737.712007,-3.000000,-11.000000,-14.000000,-34.000000,-13.000000,-1.000000,6.000000,-2.000000
1295737.719493,11.000000,39.000000,-18.000000,-39.000000,-14.000000,-8.000000,-36.000000,-8.000000
1295737.719527,1.000000,-3.000000,11.000000,50.000000,29.000000,16.000000,15.000000,-4.000000
1295737.749428,-8.000000,8.000000,0.000000,-9.000000,-15.000000,-16.000000,-7.000000,-17.000000
1295737.749441,27.000000,-18.000000,-7.000000,-20.000000,-16.000000,2.000000,1.000000,11.000000
1295737.764246,1.000000,-36.000000,-12.000000,1.000000,9.000000,8.000000,65.000000,20.000000
1295737.764258,-16.000000,36.000000,13.000000,30.000000,-1.000000,-19.000000,-30.000000,-3.000000
1295737.786679,-23.000000,-5.000000,5.000000,-7.000000,-4.000000,-4.000000,-17.000000,-8.000000
1295737.786698,8.000000,-7.000000,-3.000000,6.000000,12.000000,14.000000,-44.000000,-15.000000
1295737.794176,11.000000,54.000000,-11.000000,-15.000000,-7.000000,-5.000000,47.000000,15.000000
1295737.794204,0.000000,-16.000000,29.000000,53.000000,10.000000,0.000000,32.000000,15.000000
1295737.831634,18.000000,-7.000000,-1.000000,-35.000000,-3.000000,-4.000000,-67.000000,-9.000000
1295737.831644,-34.000000,-73.000000,-4.000000,-13.000000,-3.000000,1.000000,43.000000,-14.000000
1295737.832230,-10.000000,-7.000000,-10.000000,21.000000,0.000000,1.000000,-24.000000,-4.000000
1295737.832239,4.000000,-5.000000,16.000000,26.000000,9.000000,2.000000,-14.000000,-5.000000
1295737.838949,-2.000000,-9.000000,-11.000000,-12.000000,-8.000000,2.000000,-8.000000,0.000000
1295737.838976,5.000000,11.000000,-2.000000,-3.000000,-3.000000,0.000000,48.000000,10.000000
1295737.839438,-6.000000,-9.000000,-6.000000,-1.000000,-2.000000,-8.000000,-47.000000,-11.000000
1295737.839460,22.000000,0.000000,-6.000000,1.000000,-5.000000,12.000000,-28.000000,-6.000000
1295737.839997,36.000000,29.000000,-4.000000,-21.000000,-8.000000,-15.000000,84.000000,28.000000
1295737.840018,-15.000000,-25.000000,-3.000000,2.000000,0.000000,-7.000000,-16.000000,2.000000
1295737.840634,12.000000,60.000000,8.000000,-11.000000,-4.000000,-6.000000,-33.000000,-15.000000
1295737.840655,-13.000000,-11.000000,6.000000,7.000000,-9.000000,-3.000000,-9.000000,-5.000000
1295737.842197,-1.000000,-3.000000,-10.000000,-14.000000,-6.000000,-5.000000,-34.000000,0.000000
1295737.842217,21.000000,-9.000000,-2.000000,13.000000,11.000000,16.000000,76.000000,11.000000
1295737.854239,-25.000000,-10.000000,-11.000000,-13.000000,-7.000000,-12.000000,-44.000000,-11.000000
1295737.854254,28.000000,56.000000,-1.000000,-29.000000,-1.000000,-4.000000,-16.000000,-11.000000
1295737.869313,4.000000,-17.000000,19.000000,34.000000,-6.000000,2.000000,50.000000,20.000000
1295737.869352,33.000000,62.000000,26.000000,12.000000,0.000000,-3.000000,7.000000,-3.000000
1295737.876541,-24.000000,-13.000000,-15.000000,-6.000000,3.000000,2.000000,-39.000000,-12.000000
1295737.876551,-2.000000,-8.000000,-7.000000,-24.000000,2.000000,5.000000,-1.000000,-2.000000
1295737.906670,17.000000,12.000000,-26.000000,-38.000000,-21.000000,-4.000000,10.000000,12.000000
1295737.906700,-13.000000,-33.000000,33.000000,34.000000,5.000000,-4.000000,-10.000000,-5.000000
1295737.907142,-2.000000,-16.000000,-16.000000,-16.000000,-5.000000,-1.000000,-10.000000,-5.000000
1295737.907150,-1.000000,17.000000,5.000000,1.000000,-9.000000,-1.000000,7.000000,3.000000
1295737.908664,-4.000000,-7.000000,9.000000,29.000000,1.000000,1.000000,9.000000,0.000000
1295737.908674,8.000000,8.000000,-2.000000,22.000000,-5.000000,-9.000000,-3.000000,-1.000000
1295737.914021,4.000000,13.000000,1.000000,-45.000000,-6.000000,-5.000000,-34.000000,-15.000000
1295737.914039,-11.000000,19.000000,-11.000000,-14.000000,-7.000000,-2.000000,4.000000,-6.000000
1295737.921494,25.000000,10.000000,21.000000,27.000000,22.000000,20.000000,36.000000,21.000000
1295737.921504,-8.000000,-3.000000,-19.000000,-20.000000,-7.000000,-6.000000,-13.000000,-1.000000
1295737.936950,-10.000000,-13.000000,-22.000000,-28.000000,-13.000000,-6.000000,-17.000000,-4.000000
1295737.936979,3.000000,11.000000,39.000000,41.000000,10.000000,4.000000,11.000000,1.000000
1295737.951789,5.000000,-1.000000,-10.000000,14.000000,9.000000,2.000000,10.000000,-1.000000
1295737.951818,3.000000,5.000000,2.000000,-8.000000,-25.000000,-12.000000,-17.000000,-5.000000
1295737.959102,-7.000000,5.000000,-3.000000,-11.000000,-6.000000,0.000000,-17.000000,-11.000000
1295737.959113,-15.000000,-37.000000,8.000000,26.000000,17.000000,14.000000,42.000000,7.000000
1295737.989328,-6.000000,-23.000000,-15.000000,-27.000000,-17.000000,-16.000000,-48.000000,-7.000000
1295737.989340,0.000000,12.000000,2.000000,25.000000,1.000000,-1.000000,15.000000,-5.000000
1295737.989817,34.000000,12.000000,2.000000,8.000000,19.000000,15.000000,-1.000000,-1.000000
1295737.989825,-56.000000,-23.000000,19.000000,46.000000,-7.000000,-17.000000,-3.000000,0.000000
1295737.990991,14.000000,-3.000000,-9.000000,-11.000000,-1.000000,1.000000,53.000000,19.000000
1295737.990999,-1.000000,35.000000,1.000000,-7.000000,-7.000000,-5.000000,-48.000000,-6.000000
1295737.997294,22.000000,10.000000,-20.000000,-14.000000,1.000000,-6.000000,-22.000000,-13.000000
1295737.997329,-13.000000,-19.000000,-17.000000,-3.000000,-21.000000,-13.000000,-39.000000,-10.000000
1295738.026452,17.000000,-4.000000,-10.000000,-35.000000,-6.000000,10.000000,65.000000,14.000000
1295738.026463,12.000000,12.000000,9.000000,24.000000,12.000000,5.000000,-5.000000,2.000000
1295738.026945,2.000000,48.000000,4.000000,-16.000000,-1.000000,8.000000,-41.000000,-21.000000
1295738.026954,-16.000000,-70.000000,-13.000000,-1.000000,4.000000,-3.000000,25.000000,8.000000
1295738.028392,44.000000,21.000000,4.000000,-9.000000,-7.000000,-5.000000,33.000000,20.000000
1295738.028400,-21.000000,28.000000,21.000000,17.000000,13.000000,4.000000,-7.000000,-12.000000
1295738.035117,1.000000,-27.000000,-36.000000,-56.000000,-5.000000,2.000000,-21.000000,-5.000000
1295738.035125,-16.000000,6.000000,13.000000,17.000000,-5.000000,3.000000,-14.000000,-6.000000
1295738.042025,4.000000,-17.000000,1.000000,7.000000,9.000000,7.000000,29.000000,3.000000
1295738.042058,-4.000000,10.000000,22.000000,3.000000,-3.000000,-4.000000,-5.000000,6.000000
1295738.064051,10.000000,-7.000000,-9.000000,0.000000,-7.000000,-3.000000,-28.000000,-2.000000
1295738.064062,6.000000,30.000000,-8.000000,-5.000000,3.000000,-5.000000,10.000000,-10.000000
1295738.071610,-6.000000,-15.000000,-3.000000,-3.000000,-5.000000,5.000000,-33.000000,-5.000000
1295738.071638,14.000000,-18.000000,9.000000,-2.000000,8.000000,12.000000,66.000000,23.000000
1295738.086858,-12.000000,41.000000,-2.000000,-4.000000,-2.000000,-2.000000,4.000000,5.000000
1295738.086887,-12.000000,2.000000,4.000000,-5.000000,-4.000000,0.000000,-26.000000,-16.000000
1295738.101448,16.000000,36.000000,2.000000,8.000000,8.000000,-10.000000,-53.000000,-20.000000
1295738.101458,25.000000,4.000000,-7.000000,-16.000000,-5.000000,5.000000,13.000000,15.000000
1295738.109595,-41.000000,-41.000000,28.000000,46.000000,-1.000000,0.000000,45.000000,-2.000000
1295738.109611,25.000000,53.000000,5.000000,-14.000000,-4.000000,-5.000000,-4.000000,5.000000
1295738.110269,-30.000000,-12.000000,-21.000000,-26.000000,0.000000,5.000000,-50.000000,-18.000000
1295738.110278,36.000000,-2.000000,-5.000000,-17.000000,-11.000000,-2.000000,45.000000,10.000000
1295738.117292,-7.000000,-5.000000,25.000000,54.000000,30.000000,10.000000,19.000000,11.000000
1295738.117305,-3.000000,-54.000000,-26.000000,-8.000000,-26.000000,-28.000000,-22.000000,-20.000000
1295738.124176,-6.000000,27.000000,-15.000000,-17.000000,-12.000000,-8.000000,-48.000000,2.000000
1295738.124185,8.000000,4.000000,16.000000,12.000000,15.000000,16.000000,56.000000,12.000000
1295738.154218,-25.000000,-36.000000,-7.000000,-8.000000,1.000000,-8.000000,-26.000000,-12.000000
1295738.154237,16.000000,45.000000,-8.000000,-26.000000,-10.000000,-3.000000,-41.000000,-2.000000
1295738.170920,17.000000,18.000000,0.000000,12.000000,4.000000,10.000000,59.000000,15.000000
1295738.170950,-15.000000,-23.000000,-13.000000,-14.000000,-5.000000,-5.000000,-7.000000,2.000000
1295738.191942,-1.000000,-10.000000,6.000000,-17.000000,-2.000000,-8.000000,-19.000000,-12.000000
1295738.191957,0.000000,40.000000,9.000000,35.000000,10.000000,-11.000000,-41.000000,-18.000000
1295738.199121,6.000000,-31.000000,-37.000000,-78.000000,-14.000000,-1.000000,19.000000,5.000000
1295738.199138,-40.000000,20.000000,35.000000,44.000000,10.000000,6.000000,52.000000,13.000000
1295738.229440,3.000000,-8.000000,-8.000000,-12.000000,2.000000,-4.000000,-17.000000,-11.000000
1295738.229470,6.000000,-2.000000,-9.000000,-16.000000,-12.000000,-6.000000,-11.000000,-4.000000
1295738.237619,0.000000,-13.000000,-12.000000,-16.000000,-10.000000,6.000000,42.000000,8.000000
