# participant_id: P2
# gesture: soft
# trial_number: 1
# stream_name: Myo_EMG
# stream_type: emg
# timestamp: 20260420_131239
# samples: 5174
# duration_sec: 30.472
# nominal_sample_rate: 200.0
# effective_sample_rate: 169.76
#
timestamp,emg_1,emg_2,emg_3,emg_4,emg_5,emg_6,emg_7,emg_8
1295451.158949,-7.000000,-3.000000,2.000000,-16.000000,-14.000000,-12.000000,-29.000000,-11.000000
1295451.158963,11.000000,10.000000,1.000000,25.000000,11.000000,4.000000,19.000000,-1.000000
1295451.159651,-6.000000,-14.000000,-13.000000,-41.000000,-8.000000,0.000000,16.000000,12.000000
1295451.159659,-48.000000,-37.000000,-33.000000,4.000000,-12.000000,-13.000000,0.000000,-9.000000
1295451.174221,7.000000,13.000000,16.000000,18.000000,23.000000,14.000000,-6.000000,-1.000000
1295451.174231,26.000000,2.000000,-6.000000,13.000000,3.000000,1.000000,13.000000,11.000000
1295451.181298,-9.000000,13.000000,-14.000000,-12.000000,-9.000000,-10.000000,-21.000000,-7.000000
1295451.181309,-8.000000,-44.000000,-40.000000,-20.000000,-14.000000,-22.000000,-21.000000,-12.000000
1295451.218602,18.000000,14.000000,32.000000,52.000000,18.000000,3.000000,-24.000000,-9.000000
1295451.218612,12.000000,1.000000,-26.000000,-41.000000,-11.000000,-7.000000,-29.000000,8.000000
1295451.248870,-36.000000,-22.000000,11.000000,-22.000000,2.000000,6.000000,33.000000,2.000000
1295451.248881,11.000000,34.000000,-9.000000,-43.000000,-16.000000,-7.000000,5.000000,-5.000000
1295451.249792,-15.000000,-42.000000,-19.000000,-15.000000,2.000000,5.000000,4.000000,-5.000000
1295451.249800,3.000000,-12.000000,-16.000000,-5.000000,-6.000000,-5.000000,-30.000000,-3.000000
1295451.250373,-14.000000,-15.000000,-2.000000,-14.000000,-13.000000,1.000000,38.000000,16.000000
1295451.250381,4.000000,13.000000,12.000000,62.000000,16.000000,5.000000,-1.000000,0.000000
1295451.251861,14.000000,18.000000,11.000000,-11.000000,3.000000,4.000000,17.000000,-3.000000
1295451.251870,-15.000000,-27.000000,-37.000000,-55.000000,-33.000000,-13.000000,5.000000,5.000000
1295451.252799,-1.000000,28.000000,54.000000,117.000000,51.000000,18.000000,-6.000000,-15.000000
1295451.252809,-12.000000,11.000000,-35.000000,-43.000000,-20.000000,-11.000000,-49.000000,-5.000000
1295451.256235,0.000000,11.000000,0.000000,-3.000000,-4.000000,-7.000000,24.000000,-10.000000
1295451.256245,2.000000,-14.000000,-37.000000,-40.000000,-23.000000,-10.000000,-77.000000,-8.000000
1295451.271172,39.000000,36.000000,41.000000,53.000000,11.000000,15.000000,121.000000,36.000000
1295451.271183,-20.000000,27.000000,3.000000,27.000000,2.000000,1.000000,-59.000000,-17.000000
1295451.286610,13.000000,23.000000,-3.000000,16.000000,3.000000,-4.000000,-7.000000,-4.000000
1295451.286643,24.000000,-14.000000,-21.000000,-36.000000,-8.000000,-7.000000,6.000000,-3.000000
1295451.287739,-31.000000,15.000000,0.000000,22.000000,9.000000,-12.000000,-25.000000,-14.000000
1295451.287764,-25.000000,-70.000000,-16.000000,-12.000000,-6.000000,0.000000,-4.000000,2.000000
1295451.331216,5.000000,-17.000000,-25.000000,-39.000000,-27.000000,-13.000000,-10.000000,-7.000000
1295451.331226,-5.000000,20.000000,17.000000,63.000000,33.000000,14.000000,-3.000000,-4.000000
1295451.346262,-20.000000,-23.000000,-10.000000,-7.000000,5.000000,3.000000,7.000000,-17.000000
1295451.346290,11.000000,-22.000000,7.000000,24.000000,-1.000000,3.000000,14.000000,13.000000
1295451.346722,39.000000,12.000000,-36.000000,-30.000000,-21.000000,-15.000000,-12.000000,19.000000
1295451.346749,-35.000000,5.000000,38.000000,30.000000,19.000000,10.000000,10.000000,-4.000000
1295451.383710,-13.000000,-42.000000,-6.000000,-3.000000,-6.000000,-4.000000,2.000000,-9.000000
1295451.383737,28.000000,5.000000,-10.000000,-6.000000,-2.000000,-7.000000,3.000000,-4.000000
1295451.399259,10.000000,33.000000,12.000000,-13.000000,8.000000,7.000000,-6.000000,7.000000
1295451.399270,-7.000000,-29.000000,-1.000000,14.000000,-3.000000,-5.000000,-7.000000,-8.000000
1295451.406214,1.000000,11.000000,1.000000,-13.000000,-12.000000,-8.000000,1.000000,1.000000
1295451.406224,11.000000,4.000000,-4.000000,13.000000,20.000000,7.000000,10.000000,7.000000
1295451.406638,-50.000000,-13.000000,-5.000000,-2.000000,0.000000,-5.000000,-78.000000,-12.000000
1295451.406660,3.000000,-6.000000,-11.000000,-20.000000,-17.000000,-9.000000,62.000000,-7.000000
1295451.408107,5.000000,-24.000000,8.000000,18.000000,7.000000,14.000000,36.000000,11.000000
1295451.408127,42.000000,18.000000,4.000000,-17.000000,-14.000000,0.000000,-24.000000,9.000000
1295451.408685,-11.000000,8.000000,20.000000,9.000000,-11.000000,-8.000000,-8.000000,-13.000000
1295451.408693,-7.000000,-20.000000,-34.000000,-31.000000,-11.000000,-17.000000,14.000000,4.000000
1295451.409448,-25.000000,-7.000000,33.000000,27.000000,9.000000,-5.000000,-29.000000,-1.000000
1295451.409456,15.000000,11.000000,-2.000000,5.000000,-3.000000,10.000000,21.000000,4.000000
1295451.421208,7.000000,2.000000,10.000000,37.000000,1.000000,-12.000000,-10.000000,-5.000000
1295451.421218,-16.000000,12.000000,-4.000000,2.000000,2.000000,4.000000,-11.000000,-5.000000
1295451.451126,11.000000,19.000000,17.000000,-33.000000,-14.000000,3.000000,36.000000,11.000000
1295451.451149,9.000000,-7.000000,-17.000000,-18.000000,-4.000000,-5.000000,24.000000,30.000000
1295451.458894,-12.000000,7.000000,-30.000000,2.000000,-13.000000,-16.000000,-72.000000,-33.000000
1295451.458925,32.000000,34.000000,43.000000,-3.000000,-6.000000,4.000000,20.000000,-1.000000
1295451.489173,-31.000000,-5.000000,-26.000000,-21.000000,-5.000000,-1.000000,18.000000,22.000000
1295451.489187,-6.000000,11.000000,9.000000,8.000000,13.000000,5.000000,-9.000000,-6.000000
1295451.489818,5.000000,-6.000000,-20.000000,-21.000000,-8.000000,-4.000000,-17.000000,-17.000000
1295451.489828,-31.000000,-58.000000,-12.000000,-23.000000,-17.000000,-15.000000,-28.000000,-24.000000
1295451.491223,31.000000,71.000000,9.000000,-65.000000,-16.000000,13.000000,9.000000,26.000000
1295451.491241,6.000000,-33.000000,-6.000000,21.000000,11.000000,-1.000000,59.000000,17.000000
1295451.491791,-11.000000,-18.000000,-3.000000,9.000000,-12.000000,-15.000000,-7.000000,4.000000
1295451.491800,-5.000000,7.000000,1.000000,9.000000,-9.000000,1.000000,-17.000000,-2.000000
1295451.511065,-8.000000,3.000000,5.000000,2.000000,-7.000000,-4.000000,-7.000000,-11.000000
1295451.511089,-17.000000,-24.000000,-39.000000,-40.000000,-12.000000,-8.000000,-16.000000,-2.000000
1295451.526911,56.000000,53.000000,54.000000,85.000000,30.000000,25.000000,52.000000,37.000000
1295451.526935,-36.000000,-7.000000,-16.000000,-39.000000,-24.000000,-14.000000,6.000000,-6.000000
1295451.527565,1.000000,14.000000,25.000000,48.000000,26.000000,12.000000,9.000000,-4.000000
1295451.527575,-23.000000,5.000000,-10.000000,-39.000000,-2.000000,-10.000000,-39.000000,-13.000000
1295451.534330,17.000000,11.000000,-6.000000,-10.000000,-7.000000,-1.000000,8.000000,5.000000
1295451.534359,-12.000000,-16.000000,-10.000000,1.000000,-1.000000,2.000000,29.000000,8.000000
1295451.541785,10.000000,26.000000,15.000000,-2.000000,-3.000000,-2.000000,-3.000000,0.000000
1295451.541817,7.000000,-12.000000,1.000000,48.000000,24.000000,8.000000,-18.000000,-7.000000
1295451.563788,-10.000000,-17.000000,-18.000000,-37.000000,-17.000000,-5.000000,1.000000,-9.000000
1295451.563798,24.000000,24.000000,19.000000,53.000000,11.000000,5.000000,-1.000000,9.000000
1295451.571480,-12.000000,-18.000000,-5.000000,-56.000000,-18.000000,-5.000000,3.000000,-6.000000
1295451.571491,-10.000000,-19.000000,8.000000,9.000000,-4.000000,-4.000000,-73.000000,-13.000000
1295451.608862,3.000000,30.000000,-14.000000,14.000000,-4.000000,-4.000000,80.000000,18.000000
1295451.608893,8.000000,-12.000000,-1.000000,-2.000000,7.000000,3.000000,-13.000000,-7.000000
1295451.609654,-11.000000,-25.000000,-1.000000,7.000000,13.000000,-11.000000,0.000000,4.000000
1295451.609662,-22.000000,-42.000000,-21.000000,-31.000000,-17.000000,-7.000000,-4.000000,-8.000000
1295451.617018,-10.000000,-20.000000,6.000000,17.000000,17.000000,14.000000,39.000000,1.000000
1295451.617045,3.000000,-11.000000,-2.000000,-5.000000,-21.000000,-18.000000,-29.000000,-1.000000
1295451.617520,19.000000,15.000000,-5.000000,-37.000000,-9.000000,-1.000000,9.000000,6.000000
1295451.617547,-12.000000,-10.000000,-5.000000,-1.000000,1.000000,6.000000,-15.000000,-5.000000
1295451.618851,10.000000,13.000000,-1.000000,-5.000000,-1.000000,-1.000000,8.000000,4.000000
1295451.618861,0.000000,-12.000000,5.000000,-15.000000,-14.000000,-11.000000,-10.000000,-1.000000
1295451.646153,-5.000000,5.000000,-1.000000,10.000000,16.000000,8.000000,6.000000,-6.000000
1295451.646163,13.000000,2.000000,6.000000,18.000000,-3.000000,-12.000000,-3.000000,-2.000000
1295451.661410,23.000000,22.000000,0.000000,38.000000,26.000000,6.000000,-18.000000,0.000000
1295451.661421,-28.000000,1.000000,1.000000,-15.000000,-12.000000,-8.000000,4.000000,-6.000000
1295451.676265,-2.000000,21.000000,-19.000000,6.000000,-5.000000,-7.000000,8.000000,-11.000000
1295451.676275,50.000000,-7.000000,24.000000,51.000000,16.000000,2.000000,-3.000000,23.000000
1295451.698599,-3.000000,2.000000,6.000000,-27.000000,-2.000000,0.000000,21.000000,-3.000000
1295451.698622,30.000000,3.000000,1.000000,-1.000000,-21.000000,-12.000000,-10.000000,2.000000
1295451.713960,24.000000,2.000000,5.000000,47.000000,22.000000,16.000000,24.000000,-12.000000
1295451.713971,-1.000000,14.000000,4.000000,4.000000,-11.000000,-15.000000,-26.000000,-10.000000
1295451.736120,-26.000000,7.000000,-29.000000,-37.000000,-20.000000,-9.000000,-17.000000,-10.000000
1295451.736130,-6.000000,29.000000,47.000000,123.000000,74.000000,26.000000,-1.000000,-6.000000
1295451.751419,27.000000,-19.000000,-29.000000,-26.000000,-19.000000,-17.000000,4.000000,-7.000000
1295451.751431,-12.000000,12.000000,11.000000,12.000000,-9.000000,0.000000,-13.000000,4.000000
1295451.766569,-23.000000,-8.000000,12.000000,18.000000,11.000000,5.000000,-16.000000,-7.000000
1295451.766585,1.000000,-1.000000,-3.000000,7.000000,5.000000,-3.000000,-32.000000,-5.000000
1295451.773907,-19.000000,1.000000,-2.000000,0.000000,-2.000000,-14.000000,17.000000,-7.000000
1295451.773918,-2.000000,-28.000000,-14.000000,-15.000000,-6.000000,-3.000000,-20.000000,-6.000000
1295451.796588,23.000000,17.000000,5.000000,20.000000,6.000000,1.000000,-4.000000,4.000000
1295451.796616,-32.000000,3.000000,23.000000,-12.000000,4.000000,4.000000,6.000000,0.000000
1295451.803918,-9.000000,11.000000,-13.000000,-29.000000,0.000000,9.000000,14.000000,13.000000
1295451.803928,15.000000,-7.000000,0.000000,22.000000,-6.000000,-4.000000,-21.000000,-4.000000
1295451.811301,14.000000,17.000000,3.000000,-12.000000,7.000000,17.000000,12.000000,6.000000
1295451.811329,-7.000000,-1.000000,-9.000000,-6.000000,-18.000000,-13.000000,-10.000000,-17.000000
1295451.819464,-2.000000,-20.000000,7.000000,-1.000000,2.000000,2.000000,3.000000,10.000000
1295451.819475,14.000000,17.000000,-19.000000,-51.000000,-11.000000,-7.000000,0.000000,6.000000
1295451.833562,5.000000,19.000000,31.000000,56.000000,22.000000,6.000000,-11.000000,6.000000
1295451.833586,19.000000,-15.000000,-34.000000,-27.000000,-3.000000,4.000000,8.000000,-4.000000
1295451.841517,-6.000000,13.000000,12.000000,20.000000,13.000000,7.000000,54.000000,12.000000
1295451.841525,0.000000,5.000000,-5.000000,-3.000000,4.000000,17.000000,56.000000,26.000000
1295451.842128,-5.000000,-3.000000,-16.000000,-28.000000,-45.000000,-23.000000,14.000000,-3.000000
1295451.842135,5.000000,-3.000000,30.000000,63.000000,46.000000,17.000000,17.000000,17.000000
1295451.843498,-22.000000,-4.000000,-3.000000,-13.000000,-6.000000,-5.000000,-17.000000,-14.000000
1295451.843505,10.000000,3.000000,-7.000000,-6.000000,-2.000000,-5.000000,-6.000000,-10.000000
1295451.844125,-12.000000,-20.000000,-3.000000,-12.000000,-4.000000,-1.000000,15.000000,5.000000
1295451.844133,10.000000,10.000000,-3.000000,21.000000,-2.000000,-11.000000,-12.000000,-1.000000
1295451.848506,47.000000,20.000000,-14.000000,-19.000000,-2.000000,3.000000,20.000000,-7.000000
1295451.848515,-11.000000,-18.000000,-26.000000,11.000000,7.000000,3.000000,-2.000000,3.000000
1295451.878705,-12.000000,-12.000000,6.000000,4.000000,-11.000000,-10.000000,-18.000000,-10.000000
1295451.878725,37.000000,-16.000000,27.000000,14.000000,8.000000,17.000000,24.000000,12.000000
1295451.886331,-4.000000,7.000000,-16.000000,-22.000000,-10.000000,-13.000000,42.000000,19.000000
1295451.886342,-3.000000,-11.000000,-6.000000,-1.000000,0.000000,-8.000000,-47.000000,-19.000000
1295451.887824,13.000000,21.000000,-6.000000,-21.000000,-5.000000,4.000000,-39.000000,-12.000000
1295451.887836,66.000000,7.000000,18.000000,32.000000,9.000000,2.000000,57.000000,20.000000
1295451.893841,-57.000000,-29.000000,-21.000000,-15.000000,-5.000000,3.000000,6.000000,-11.000000
1295451.893854,13.000000,38.000000,17.000000,41.000000,5.000000,-4.000000,-17.000000,-6.000000
1295451.923879,-33.000000,-35.000000,11.000000,16.000000,3.000000,-4.000000,-10.000000,-11.000000
1295451.923895,7.000000,-15.000000,-19.000000,-19.000000,1.000000,3.000000,-22.000000,-5.000000
1295451.931144,-16.000000,-16.000000,10.000000,20.000000,8.000000,13.000000,34.000000,8.000000
1295451.931154,-12.000000,-8.000000,-3.000000,20.000000,-2.000000,-10.000000,7.000000,1.000000
1295451.953728,2.000000,10.000000,-12.000000,-1.000000,-2.000000,-5.000000,-28.000000,2.000000
1295451.953756,14.000000,16.000000,7.000000,0.000000,0.000000,0.000000,-3.000000,-5.000000
1295451.954124,21.000000,-15.000000,-3.000000,-17.000000,-2.000000,4.000000,-13.000000,13.000000
1295451.954151,-5.000000,28.000000,-9.000000,-7.000000,-5.000000,-1.000000,-9.000000,-10.000000
1295451.955316,6.000000,2.000000,7.000000,-6.000000,-13.000000,5.000000,71.000000,16.000000
1295451.955337,-30.000000,-12.000000,4.000000,17.000000,11.000000,11.000000,-25.000000,-12.000000
1295451.956227,12.000000,11.000000,-5.000000,-18.000000,-4.000000,-15.000000,0.000000,1.000000
1295451.956248,8.000000,10.000000,-3.000000,18.000000,4.000000,-7.000000,0.000000,-5.000000
1295451.961853,-4.000000,32.000000,8.000000,-10.000000,1.000000,9.000000,-23.000000,-4.000000
1295451.961861,-1.000000,-14.000000,-7.000000,-8.000000,-8.000000,-6.000000,7.000000,0.000000
1295451.968896,-18.000000,-5.000000,1.000000,-12.000000,2.000000,2.000000,5.000000,0.000000
1295451.968930,1.000000,-50.000000,-23.000000,-8.000000,-5.000000,-3.000000,-5.000000,-7.000000
1295452.014215,18.000000,-20.000000,-16.000000,-27.000000,-15.000000,0.000000,2.000000,10.000000
1295452.014244,-16.000000,-8.000000,38.000000,3.000000,11.000000,10.000000,-4.000000,-4.000000
1295452.028755,-31.000000,35.000000,-11.000000,-14.000000,-23.000000,-24.000000,-51.000000,-21.000000
1295452.028765,7.000000,-13.000000,-18.000000,-14.000000,-5.000000,4.000000,55.000000,15.000000
1295452.051382,9.000000,-7.000000,-20.000000,-30.000000,-13.000000,-6.000000,-58.000000,-9.000000
1295452.051394,19.000000,18.000000,34.000000,71.000000,35.000000,33.000000,65.000000,27.000000
1295452.059126,24.000000,13.000000,-7.000000,-1.000000,5.000000,1.000000,18.000000,9.000000
1295452.059140,-17.000000,-16.000000,-9.000000,-17.000000,-5.000000,-16.000000,-35.000000,-11.000000
1295452.096454,-4.000000,-7.000000,4.000000,16.000000,-6.000000,1.000000,-16.000000,-14.000000
1295452.096465,2.000000,13.000000,15.000000,0.000000,11.000000,9.000000,-9.000000,-16.000000
1295452.118746,-38.000000,-36.000000,-10.000000,-5.000000,2.000000,6.000000,3.000000,15.000000
1295452.118759,4.000000,-46.000000,-7.000000,12.000000,10.000000,8.000000,18.000000,6.000000
1295452.120342,-25.000000,-25.000000,-13.000000,8.000000,8.000000,6.000000,-2.000000,-15.000000
1295452.120363,-7.000000,0.000000,5.000000,-3.000000,-11.000000,-12.000000,-15.000000,6.000000
1295452.121146,8.000000,-3.000000,-2.000000,5.000000,7.000000,1.000000,19.000000,6.000000
1295452.121163,35.000000,-7.000000,-2.000000,8.000000,-4.000000,1.000000,-15.000000,-7.000000
1295452.122534,-4.000000,-25.000000,-15.000000,-14.000000,1.000000,-7.000000,-1.000000,5.000000
1295452.122543,-2.000000,9.000000,-1.000000,-17.000000,-15.000000,-7.000000,-22.000000,-12.000000
1295452.141570,1.000000,-13.000000,-2.000000,14.000000,-5.000000,0.000000,-39.000000,-26.000000
1295452.141598,13.000000,-11.000000,-17.000000,-36.000000,-17.000000,-8.000000,54.000000,15.000000
1295452.163735,39.000000,45.000000,43.000000,40.000000,32.000000,17.000000,17.000000,23.000000
1295452.163758,12.000000,-2.000000,-9.000000,-11.000000,-11.000000,-8.000000,-49.000000,-6.000000
1295452.171218,-50.000000,-41.000000,-46.000000,-51.000000,-22.000000,-13.000000,-5.000000,-12.000000
1295452.171228,-1.000000,29.000000,54.000000,62.000000,14.000000,13.000000,58.000000,2.000000
1295452.201379,-4.000000,-31.000000,-10.000000,-17.000000,0.000000,-3.000000,-48.000000,-8.000000
1295452.201408,3.000000,17.000000,1.000000,-1.000000,0.000000,1.000000,13.000000,2.000000
1295452.201957,-7.000000,-16.000000,-18.000000,-7.000000,-1.000000,6.000000,-7.000000,2.000000
1295452.201965,13.000000,3.000000,10.000000,11.000000,1.000000,-5.000000,-30.000000,-8.000000
1295452.203350,-15.000000,-36.000000,9.000000,-1.000000,1.000000,-1.000000,7.000000,2.000000
1295452.203359,9.000000,35.000000,-12.000000,-24.000000,-10.000000,-11.000000,-8.000000,1.000000
1295452.203908,-5.000000,25.000000,11.000000,-8.000000,3.000000,-1.000000,-9.000000,-10.000000
1295452.203916,-5.000000,-69.000000,-34.000000,-42.000000,-17.000000,-11.000000,-19.000000,-8.000000
1295452.205139,19.000000,12.000000,1.000000,-5.000000,1.000000,1.000000,6.000000,4.000000
1295452.205147,28.000000,81.000000,14.000000,0.000000,4.000000,2.000000,-13.000000,-5.000000
1295452.208503,17.000000,-13.000000,-1.000000,14.000000,6.000000,9.000000,29.000000,4.000000
1295452.208512,-10.000000,-13.000000,-1.000000,-14.000000,-2.000000,0.000000,-30.000000,1.000000
1295452.232184,10.000000,25.000000,6.000000,0.000000,3.000000,2.000000,9.000000,-7.000000
1295452.232204,-28.000000,-24.000000,-23.000000,4.000000,4.000000,-3.000000,-6.000000,-6.000000
1295452.233030,-5.000000,-17.000000,6.000000,10.000000,5.000000,10.000000,22.000000,7.000000
1295452.233050,29.000000,33.000000,7.000000,10.000000,5.000000,4.000000,-5.000000,6.000000
1295452.246803,-8.000000,10.000000,-20.000000,-25.000000,-5.000000,-10.000000,-28.000000,-24.000000
1295452.246831,-4.000000,-27.000000,5.000000,19.000000,0.000000,6.000000,16.000000,17.000000
1295452.253745,18.000000,6.000000,-8.000000,-33.000000,-13.000000,-4.000000,34.000000,10.000000
1295452.253757,27.000000,42.000000,13.000000,19.000000,31.000000,9.000000,-5.000000,7.000000
1295452.291397,18.000000,14.000000,-9.000000,-3.000000,-13.000000,-5.000000,-33.000000,-5.000000
1295452.291407,-68.000000,-30.000000,-16.000000,-20.000000,-11.000000,-5.000000,53.000000,-19.000000
1295452.299166,27.000000,22.000000,10.000000,33.000000,10.000000,4.000000,4.000000,6.000000
1295452.299190,-35.000000,-32.000000,20.000000,-15.000000,-11.000000,-11.000000,-47.000000,-18.000000
1295452.328893,25.000000,2.000000,-17.000000,-19.000000,-2.000000,2.000000,16.000000,11.000000
1295452.328903,-5.000000,-7.000000,-5.000000,-2.000000,-3.000000,5.000000,-14.000000,-11.000000
1295452.343854,2.000000,21.000000,15.000000,29.000000,9.000000,-3.000000,-7.000000,2.000000
1295452.343865,-9.000000,-45.000000,-7.000000,-39.000000,-13.000000,-5.000000,22.000000,-4.000000
1295452.366207,11.000000,2.000000,-1.000000,21.000000,20.000000,6.000000,-17.000000,-11.000000
1295452.366218,38.000000,18.000000,-8.000000,-9.000000,-14.000000,-11.000000,-46.000000,-2.000000
1295452.373847,-20.000000,-37.000000,-8.000000,-15.000000,1.000000,2.000000,41.000000,2.000000
1295452.373860,-15.000000,27.000000,8.000000,-10.000000,-1.000000,3.000000,9.000000,6.000000
1295452.411119,19.000000,-3.000000,-3.000000,-2.000000,-8.000000,0.000000,25.000000,6.000000
1295452.411129,-10.000000,-21.000000,-12.000000,-24.000000,-14.000000,-9.000000,-24.000000,-10.000000
1295452.441173,-29.000000,-36.000000,-17.000000,-6.000000,2.000000,-2.000000,30.000000,-12.000000
1295452.441184,-56.000000,-26.000000,3.000000,14.000000,19.000000,13.000000,-27.000000,2.000000
1295452.442434,-5.000000,-1.000000,2.000000,3.000000,-1.000000,2.000000,-12.000000,-16.000000
1295452.442451,-10.000000,-25.000000,-17.000000,-15.000000,-10.000000,-2.000000,-31.000000,-10.000000
1295452.442941,20.000000,-5.000000,5.000000,14.000000,4.000000,5.000000,-21.000000,-1.000000
1295452.442950,4.000000,21.000000,2.000000,9.000000,4.000000,7.000000,3.000000,1.000000
1295452.444100,2.000000,15.000000,-2.000000,9.000000,0.000000,5.000000,19.000000,-6.000000
1295452.444115,16.000000,-1.000000,-11.000000,-14.000000,-14.000000,-18.000000,-8.000000,9.000000
1295452.445179,-13.000000,-46.000000,-6.000000,4.000000,3.000000,-6.000000,7.000000,3.000000
1295452.445212,-10.000000,-19.000000,16.000000,0.000000,-4.000000,-9.000000,-10.000000,-9.000000
1295452.456643,-9.000000,-5.000000,-2.000000,-6.000000,-5.000000,-4.000000,11.000000,1.000000
1295452.456666,25.000000,2.000000,0.000000,18.000000,13.000000,3.000000,-9.000000,1.000000
1295452.486753,7.000000,1.000000,3.000000,2.000000,-10.000000,-3.000000,-5.000000,-4.000000
1295452.486777,-6.000000,10.000000,1.000000,-25.000000,0.000000,1.000000,4.000000,-3.000000
1295452.509240,10.000000,6.000000,-4.000000,12.000000,-3.000000,-3.000000,-10.000000,4.000000
1295452.509269,-9.000000,14.000000,-10.000000,-12.000000,-4.000000,-5.000000,0.000000,-14.000000
1295452.531353,7.000000,13.000000,15.000000,9.000000,-2.000000,0.000000,-35.000000,3.000000
1295452.531373,2.000000,10.000000,0.000000,1.000000,9.000000,9.000000,87.000000,24.000000
1295452.546314,-33.000000,-26.000000,-19.000000,-7.000000,-9.000000,-14.000000,-47.000000,-16.000000
1295452.546332,-34.000000,-22.000000,-16.000000,-17.000000,-9.000000,-7.000000,3.000000,-9.000000
1295452.547186,22.000000,10.000000,2.000000,33.000000,23.000000,-1.000000,-16.000000,-5.000000
1295452.547195,10.000000,9.000000,5.000000,0.000000,-4.000000,0.000000,-18.000000,-5.000000
1295452.547776,17.000000,-21.000000,-13.000000,-7.000000,-4.000000,2.000000,14.000000,1.000000
1295452.547785,-8.000000,-11.000000,-19.000000,-17.000000,-2.000000,0.000000,0.000000,-6.000000
1295452.562356,-15.000000,-22.000000,-7.000000,-6.000000,0.000000,2.000000,-14.000000,-8.000000
1295452.562365,9.000000,54.000000,-1.000000,1.000000,-6.000000,-9.000000,17.000000,0.000000
1295452.564191,24.000000,-13.000000,-5.000000,2.000000,3.000000,-2.000000,8.000000,9.000000
1295452.564201,-30.000000,4.000000,14.000000,25.000000,4.000000,2.000000,-20.000000,-12.000000
1295452.591249,12.000000,22.000000,-2.000000,-1.000000,1.000000,4.000000,-19.000000,-2.000000
1295452.591274,16.000000,-5.000000,-17.000000,-22.000000,-25.000000,-25.000000,-1.000000,0.000000
1295452.606470,38.000000,-4.000000,2.000000,-49.000000,-12.000000,-1.000000,16.000000,20.000000
1295452.606483,16.000000,-18.000000,14.000000,19.000000,3.000000,3.000000,-14.000000,-14.000000
1295452.621310,13.000000,6.000000,-4.000000,23.000000,11.000000,-3.000000,5.000000,0.000000
1295452.621322,-13.000000,-27.000000,-18.000000,-32.000000,-19.000000,-3.000000,10.000000,-5.000000
1295452.643706,14.000000,21.000000,-4.000000,-24.000000,-5.000000,3.000000,6.000000,11.000000
1295452.643716,13.000000,6.000000,21.000000,19.000000,17.000000,7.000000,23.000000,7.000000
1295452.651515,-9.000000,-20.000000,5.000000,20.000000,6.000000,1.000000,-27.000000,-5.000000
1295452.651529,-5.000000,13.000000,-10.000000,-8.000000,-10.000000,-7.000000,-102.000000,-22.000000
1295452.673839,2.000000,-5.000000,2.000000,8.000000,1.000000,12.000000,124.000000,30.000000
1295452.673862,2.000000,-10.000000,4.000000,-11.000000,-1.000000,-1.000000,-10.000000,8.000000
1295452.681299,-7.000000,-5.000000,4.000000,-4.000000,3.000000,9.000000,9.000000,-11.000000
1295452.681316,-6.000000,4.000000,13.000000,10.000000,5.000000,-12.000000,-44.000000,-15.000000
1295452.703800,-9.000000,0.000000,16.000000,-2.000000,2.000000,0.000000,5.000000,-25.000000
1295452.703811,-2.000000,-15.000000,-4.000000,17.000000,-3.000000,-21.000000,-59.000000,20.000000
1295452.719159,23.000000,-3.000000,-6.000000,5.000000,-2.000000,13.000000,127.000000,45.000000
1295452.719173,17.000000,17.000000,-8.000000,-13.000000,2.000000,1.000000,-79.000000,-20.000000
1295452.726346,-20.000000,-10.000000,12.000000,16.000000,-5.000000,-13.000000,-68.000000,-34.000000
1295452.726356,-9.000000,13.000000,-14.000000,0.000000,-2.000000,-8.000000,-10.000000,-13.000000
1295452.756501,-19.000000,-31.000000,-55.000000,-9.000000,-2.000000,-6.000000,-24.000000,-23.000000
1295452.756514,19.000000,-3.000000,-3.000000,-9.000000,-8.000000,0.000000,-14.000000,9.000000
1295452.771472,-15.000000,-36.000000,-2.000000,-18.000000,-8.000000,3.000000,90.000000,15.000000
1295452.771483,2.000000,-35.000000,3.000000,8.000000,7.000000,4.000000,-7.000000,1.000000
1295452.786500,-14.000000,25.000000,-3.000000,-37.000000,-1.000000,3.000000,-1.000000,-16.000000
1295452.786529,-6.000000,-1.000000,0.000000,4.000000,0.000000,-3.000000,-23.000000,-5.000000
1295452.794516,2.000000,-16.000000,-15.000000,-21.000000,-2.000000,-1.000000,-51.000000,-7.000000
1295452.794543,-35.000000,-9.000000,22.000000,39.000000,-1.000000,0.000000,45.000000,-11.000000
1295452.795094,-6.000000,-5.000000,6.000000,-17.000000,0.000000,-14.000000,-45.000000,-7.000000
1295452.795120,-10.000000,28.000000,13.000000,21.000000,12.000000,7.000000,-57.000000,-14.000000
1295452.795631,1.000000,46.000000,3.000000,2.000000,-3.000000,-13.000000,-41.000000,-12.000000
1295452.795638,-16.000000,10.000000,3.000000,-25.000000,-5.000000,-3.000000,12.000000,1.000000
1295452.796975,0.000000,-10.000000,-8.000000,-27.000000,-19.000000,-5.000000,-8.000000,4.000000
1295452.796983,19.000000,20.000000,19.000000,46.000000,25.000000,3.000000,-53.000000,-8.000000
1295452.804168,-19.000000,-6.000000,2.000000,20.000000,16.000000,6.000000,14.000000,1.000000
1295452.804186,-5.000000,-13.000000,-1.000000,8.000000,4.000000,5.000000,-45.000000,-11.000000
1295452.823555,-9.000000,-4.000000,-5.000000,-23.000000,-13.000000,-6.000000,-14.000000,-11.000000
1295452.823569,-1.000000,-3.000000,4.000000,19.000000,10.000000,15.000000,66.000000,18.000000
1295452.824848,9.000000,23.000000,21.000000,29.000000,16.000000,12.000000,22.000000,16.000000
1295452.824857,26.000000,-15.000000,5.000000,-3.000000,-8.000000,-10.000000,-50.000000,-16.000000
1295452.838853,-29.000000,-14.000000,-19.000000,-19.000000,-10.000000,-22.000000,4.000000,-3.000000
1295452.838863,7.000000,35.000000,24.000000,25.000000,17.000000,22.000000,35.000000,6.000000
1295452.854147,-7.000000,0.000000,3.000000,-9.000000,2.000000,0.000000,-6.000000,-3.000000
1295452.854176,-24.000000,-39.000000,-27.000000,-27.000000,-10.000000,-13.000000,-31.000000,-13.000000
1295452.861125,9.000000,5.000000,5.000000,13.000000,-1.000000,4.000000,-24.000000,-7.000000
1295452.861144,5.000000,-18.000000,-10.000000,-21.000000,-9.000000,-8.000000,35.000000,-4.000000
1295452.883728,5.000000,-4.000000,-8.000000,-26.000000,-1.000000,-8.000000,-25.000000,3.000000
1295452.883739,-10.000000,11.000000,2.000000,16.000000,7.000000,4.000000,10.000000,-4.000000
1295452.884168,14.000000,24.000000,6.000000,0.000000,-3.000000,2.000000,-7.000000,7.000000
1295452.884178,-5.000000,-31.000000,-10.000000,19.000000,14.000000,2.000000,16.000000,7.000000
1295452.885699,7.000000,8.000000,-10.000000,-24.000000,-8.000000,-6.000000,-64.000000,-19.000000
1295452.885708,-13.000000,30.000000,21.000000,26.000000,-3.000000,12.000000,51.000000,-2.000000
1295452.891448,49.000000,-7.000000,24.000000,48.000000,17.000000,7.000000,-35.000000,6.000000
1295452.891459,-15.000000,-19.000000,-15.000000,-3.000000,-6.000000,-2.000000,46.000000,14.000000
1295452.921186,-10.000000,16.000000,-7.000000,-11.000000,7.000000,2.000000,-5.000000,2.000000
1295452.921198,13.000000,4.000000,-8.000000,-2.000000,-9.000000,-7.000000,-40.000000,-15.000000
1295452.928787,-20.000000,-69.000000,-3.000000,9.000000,9.000000,4.000000,19.000000,0.000000
1295452.928799,-4.000000,1.000000,-9.000000,-1.000000,-2.000000,-4.000000,-36.000000,1.000000
1295452.958643,25.000000,-4.000000,-2.000000,-35.000000,-15.000000,-11.000000,47.000000,1.000000
1295452.958671,15.000000,23.000000,14.000000,17.000000,6.000000,6.000000,23.000000,10.000000
1295452.966091,-13.000000,-34.000000,-6.000000,-17.000000,-7.000000,-12.000000,-128.000000,-31.000000
1295452.966101,-11.000000,-44.000000,-19.000000,-10.000000,-13.000000,9.000000,27.000000,9.000000
1295452.996302,12.000000,33.000000,8.000000,17.000000,3.000000,36.000000,127.000000,60.000000
1295452.996313,-4.000000,-14.000000,1.000000,-16.000000,-7.000000,-12.000000,-128.000000,-20.000000
1295453.034150,20.000000,9.000000,4.000000,14.000000,-5.000000,-6.000000,-23.000000,0.000000
1295453.034186,-25.000000,4.000000,4.000000,10.000000,-2.000000,0.000000,16.000000,-15.000000
1295453.035221,2.000000,-10.000000,-12.000000,-7.000000,-2.000000,6.000000,-7.000000,10.000000
1295453.035249,1.000000,3.000000,-3.000000,-6.000000,-4.000000,-17.000000,-25.000000,-1.000000
1295453.036001,6.000000,16.000000,3.000000,5.000000,4.000000,5.000000,-20.000000,-1.000000
1295453.036030,1.000000,8.000000,-7.000000,2.000000,5.000000,1.000000,46.000000,-7.000000
1295453.036903,-1.000000,-14.000000,-15.000000,1.000000,-2.000000,3.000000,-35.000000,9.000000
1295453.036929,6.000000,-1.000000,15.000000,-3.000000,3.000000,6.000000,52.000000,22.000000
1295453.042059,2.000000,14.000000,-16.000000,-23.000000,-12.000000,-4.000000,127.000000,14.000000
1295453.042155,4.000000,2.000000,25.000000,33.000000,8.000000,-2.000000,-16.000000,18.000000
1295453.063591,3.000000,10.000000,-1.000000,-15.000000,2.000000,7.000000,-23.000000,-7.000000
1295453.063684,-33.000000,-9.000000,-22.000000,-15.000000,-18.000000,-13.000000,2.000000,-14.000000
1295453.065461,-15.000000,-23.000000,7.000000,-3.000000,2.000000,3.000000,-10.000000,1.000000
1295453.065489,26.000000,51.000000,20.000000,60.000000,22.000000,9.000000,-11.000000,5.000000
1295453.071428,-16.000000,-18.000000,0.000000,-6.000000,0.000000,-2.000000,-33.000000,-14.000000
1295453.071438,6.000000,11.000000,-17.000000,-5.000000,-11.000000,-11.000000,8.000000,2.000000
1295453.086326,-18.000000,-5.000000,9.000000,-5.000000,10.000000,6.000000,17.000000,14.000000
1295453.086354,34.000000,12.000000,-11.000000,17.000000,6.000000,5.000000,29.000000,8.000000
1295453.116388,-40.000000,-12.000000,-3.000000,8.000000,5.000000,-8.000000,-38.000000,-17.000000
1295453.116418,-12.000000,-62.000000,-30.000000,-13.000000,-16.000000,-10.000000,0.000000,-1.000000
1295453.138726,16.000000,63.000000,35.000000,51.000000,17.000000,-1.000000,-45.000000,-12.000000
1295453.138736,2.000000,0.000000,-7.000000,6.000000,2.000000,3.000000,36.000000,5.000000
1295453.146226,-15.000000,-36.000000,-23.000000,-29.000000,-6.000000,7.000000,15.000000,6.000000
1295453.146249,14.000000,27.000000,10.000000,23.000000,1.000000,-4.000000,-15.000000,0.000000
1295453.154090,53.000000,36.000000,1.000000,-18.000000,-3.000000,-5.000000,-12.000000,6.000000
1295453.154112,-41.000000,-20.000000,-14.000000,-5.000000,-5.000000,-6.000000,-27.000000,-18.000000
1295453.154795,-10.000000,41.000000,10.000000,1.000000,6.000000,-7.000000,-12.000000,-10.000000
1295453.154811,7.000000,16.000000,-4.000000,8.000000,7.000000,4.000000,-38.000000,-20.000000
1295453.156097,9.000000,-13.000000,15.000000,-43.000000,-19.000000,7.000000,100.000000,36.000000
1295453.156106,-27.000000,-11.000000,-6.000000,-22.000000,-5.000000,1.000000,37.000000,25.000000
1295453.156927,2.000000,-5.000000,-22.000000,1.000000,-2.000000,-7.000000,-43.000000,-21.000000
1295453.156949,6.000000,16.000000,-15.000000,-18.000000,-10.000000,-12.000000,1.000000,-11.000000
1295453.161826,-17.000000,-21.000000,-2.000000,1.000000,-1.000000,-1.000000,39.000000,0.000000
1295453.161835,12.000000,-5.000000,-4.000000,-2.000000,4.000000,-6.000000,-19.000000,-3.000000
1295453.191308,38.000000,5.000000,3.000000,23.000000,17.000000,10.000000,16.000000,10.000000
1295453.191318,-20.000000,12.000000,5.000000,-19.000000,2.000000,-9.000000,-26.000000,-9.000000
1295453.206705,-7.000000,2.000000,14.000000,23.000000,-1.000000,-2.000000,3.000000,-15.000000
1295453.206715,9.000000,-4.000000,-2.000000,0.000000,-3.000000,-13.000000,-29.000000,-4.000000
1295453.229401,-32.000000,-34.000000,-8.000000,-12.000000,-9.000000,-4.000000,31.000000,4.000000
1295453.229415,15.000000,15.000000,7.000000,-3.000000,2.000000,7.000000,31.000000,16.000000
1295453.243525,11.000000,-11.000000,-26.000000,-19.000000,-9.000000,-8.000000,-43.000000,-27.000000
1295453.243579,25.000000,15.000000,2.000000,2.000000,7.000000,11.000000,14.000000,17.000000
1295453.244091,29.000000,12.000000,-1.000000,-17.000000,2.000000,3.000000,7.000000,16.000000
1295453.244099,-3.000000,5.000000,3.000000,-26.000000,-12.000000,0.000000,-5.000000,-14.000000
1295453.245292,-23.000000,-12.000000,-17.000000,38.000000,9.000000,0.000000,-14.000000,-10.000000
1295453.245301,-10.000000,-1.000000,15.000000,-52.000000,-14.000000,-9.000000,17.000000,-15.000000
1295453.245953,39.000000,49.000000,18.000000,51.000000,27.000000,11.000000,17.000000,10.000000
1295453.245962,-18.000000,-40.000000,-12.000000,-4.000000,-6.000000,-13.000000,-22.000000,4.000000
1295453.273686,28.000000,25.000000,17.000000,-5.000000,5.000000,0.000000,72.000000,17.000000
1295453.273696,-4.000000,-10.000000,-10.000000,2.000000,7.000000,1.000000,-20.000000,7.000000
1295453.274885,-29.000000,-32.000000,0.000000,-3.000000,-3.000000,-8.000000,-5.000000,-15.000000
1295453.274894,-2.000000,46.000000,-2.000000,-12.000000,-7.000000,-3.000000,-79.000000,-24.000000
1295453.275783,-6.000000,-2.000000,-11.000000,-13.000000,-10.000000,-15.000000,10.000000,-15.000000
1295453.275823,-12.000000,-38.000000,-28.000000,5.000000,4.000000,-2.000000,20.000000,19.000000
1295453.281786,-3.000000,-18.000000,11.000000,-52.000000,-12.000000,10.000000,74.000000,13.000000
1295453.281795,3.000000,32.000000,13.000000,18.000000,5.000000,10.000000,-8.000000,-30.000000
1295453.318928,-1.000000,-4.000000,-10.000000,2.000000,0.000000,4.000000,-52.000000,-6.000000
1295453.318960,-34.000000,-36.000000,-2.000000,-16.000000,-10.000000,-6.000000,37.000000,13.000000
1295453.341125,32.000000,35.000000,-1.000000,20.000000,15.000000,6.000000,-72.000000,-5.000000
1295453.341148,-23.000000,-6.000000,-5.000000,-12.000000,-5.000000,-10.000000,-50.000000,-13.000000
1295453.356416,14.000000,-26.000000,-9.000000,-5.000000,-4.000000,4.000000,59.000000,7.000000
1295453.356428,-51.000000,-58.000000,3.000000,0.000000,-3.000000,4.000000,-18.000000,-6.000000
1295453.386240,15.000000,16.000000,9.000000,0.000000,2.000000,-8.000000,-28.000000,-17.000000
1295453.386257,24.000000,7.000000,-15.000000,-40.000000,-19.000000,-14.000000,-23.000000,4.000000
1295453.394168,-40.000000,1.000000,25.000000,63.000000,24.000000,10.000000,9.000000,-9.000000
1295453.394181,-3.000000,7.000000,-4.000000,-4.000000,0.000000,7.000000,5.000000,1.000000
1295453.395041,4.000000,-2.000000,6.000000,-4.000000,-5.000000,-9.000000,-19.000000,-8.000000
1295453.395051,22.000000,-5.000000,8.000000,17.000000,6.000000,-8.000000,-25.000000,7.000000
1295453.396122,3.000000,6.000000,4.000000,-1.000000,0.000000,2.000000,21.000000,13.000000
1295453.396131,1.000000,8.000000,3.000000,-6.000000,0.000000,-5.000000,-4.000000,2.000000
1295453.396724,-10.000000,3.000000,-2.000000,-8.000000,-3.000000,-2.000000,-19.000000,-10.000000
1295453.396734,30.000000,29.000000,-10.000000,-2.000000,-10.000000,-4.000000,36.000000,4.000000
1295453.397570,-12.000000,-23.000000,11.000000,36.000000,16.000000,-3.000000,16.000000,19.000000
1295453.397580,-7.000000,13.000000,0.000000,-8.000000,-1.000000,-5.000000,-21.000000,-14.000000
1295453.416408,-5.000000,4.000000,1.000000,10.000000,2.000000,-1.000000,-26.000000,-13.000000
1295453.416460,-2.000000,6.000000,16.000000,34.000000,0.000000,8.000000,-25.000000,-1.000000
1295453.417051,25.000000,-31.000000,0.000000,-39.000000,-13.000000,-5.000000,74.000000,18.000000
1295453.417060,-117.000000,-14.000000,-9.000000,2.000000,12.000000,-1.000000,-63.000000,-17.000000
1295453.438637,16.000000,-3.000000,-2.000000,3.000000,-2.000000,-1.000000,-59.000000,-7.000000
1295453.438661,8.000000,-15.000000,-24.000000,-21.000000,-6.000000,1.000000,122.000000,19.000000
1295453.469144,12.000000,29.000000,35.000000,22.000000,-4.000000,-5.000000,-30.000000,-8.000000
1295453.469155,-12.000000,15.000000,8.000000,9.000000,4.000000,-1.000000,-49.000000,-15.000000
1295453.483646,-10.000000,2.000000,-10.000000,-7.000000,1.000000,-8.000000,-31.000000,-22.000000
1295453.483657,-11.000000,-6.000000,-10.000000,-3.000000,-3.000000,6.000000,25.000000,13.000000
1295453.506393,-16.000000,-7.000000,-3.000000,-32.000000,-8.000000,3.000000,31.000000,5.000000
1295453.506431,15.000000,66.000000,12.000000,4.000000,9.000000,8.000000,-20.000000,-3.000000
1295453.507282,-64.000000,-86.000000,-10.000000,-24.000000,-8.000000,1.000000,-25.000000,-22.000000
1295453.507310,6.000000,5.000000,-5.000000,-1.000000,-7.000000,-8.000000,58.000000,20.000000
1295453.508213,12.000000,-2.000000,-4.000000,4.000000,3.000000,5.000000,3.000000,2.000000
1295453.508222,-14.000000,-33.000000,-8.000000,-8.000000,-12.000000,-4.000000,-14.000000,-16.000000
1295453.509497,39.000000,29.000000,23.000000,49.000000,26.000000,18.000000,17.000000,11.000000
1295453.509530,-34.000000,-26.000000,-33.000000,-45.000000,-13.000000,-8.000000,-13.000000,-1.000000
1295453.513881,-20.000000,-20.000000,-1.000000,-13.000000,-9.000000,-16.000000,25.000000,-1.000000
1295453.513891,15.000000,11.000000,-4.000000,-16.000000,-2.000000,11.000000,39.000000,18.000000
1295453.536558,13.000000,8.000000,1.000000,5.000000,0.000000,20.000000,-21.000000,-9.000000
1295453.536568,-42.000000,-22.000000,-11.000000,-2.000000,-8.000000,-8.000000,-12.000000,-13.000000
1295453.543648,1.000000,12.000000,3.000000,-3.000000,-10.000000,-10.000000,-6.000000,2.000000
1295453.543657,1.000000,-44.000000,-14.000000,-10.000000,-1.000000,6.000000,-27.000000,-12.000000
1295453.559200,-13.000000,17.000000,8.000000,15.000000,9.000000,11.000000,56.000000,5.000000
1295453.559217,2.000000,-24.000000,-17.000000,-12.000000,-7.000000,-9.000000,-7.000000,-4.000000
1295453.588731,-15.000000,23.000000,33.000000,36.000000,27.000000,6.000000,-25.000000,-11.000000
1295453.588759,9.000000,3.000000,4.000000,11.000000,10.000000,2.000000,-30.000000,2.000000
1295453.603860,15.000000,8.000000,-21.000000,-51.000000,-26.000000,-10.000000,63.000000,8.000000
1295453.603870,18.000000,8.000000,43.000000,59.000000,35.000000,13.000000,-9.000000,11.000000
1295453.618720,-23.000000,-10.000000,6.000000,16.000000,5.000000,5.000000,-19.000000,-13.000000
1295453.618731,-2.000000,11.000000,-13.000000,-22.000000,-13.000000,1.000000,21.000000,1.000000
1295453.656113,14.000000,-3.000000,13.000000,18.000000,6.000000,-6.000000,-43.000000,0.000000
1295453.656127,10.000000,-11.000000,-4.000000,30.000000,15.000000,3.000000,17.000000,-6.000000
1295453.671201,-1.000000,33.000000,5.000000,-15.000000,-7.000000,-1.000000,-17.000000,-8.000000
1295453.671211,-22.000000,-15.000000,-5.000000,0.000000,-6.000000,-5.000000,-14.000000,-6.000000
1295453.686498,6.000000,13.000000,-19.000000,-12.000000,-11.000000,-26.000000,-12.000000,1.000000
1295453.686508,12.000000,24.000000,-2.000000,-19.000000,-7.000000,13.000000,25.000000,10.000000
1295453.716339,14.000000,0.000000,11.000000,-6.000000,12.000000,13.000000,22.000000,19.000000
1295453.716402,-6.000000,-13.000000,-10.000000,2.000000,0.000000,-2.000000,1.000000,-6.000000
1295453.746843,8.000000,-4.000000,0.000000,10.000000,6.000000,-1.000000,-42.000000,-2.000000
1295453.746852,-14.000000,-9.000000,-7.000000,1.000000,-1.000000,-2.000000,-62.000000,-26.000000
1295453.747422,-21.000000,21.000000,8.000000,1.000000,-2.000000,-6.000000,17.000000,-18.000000
1295453.747436,22.000000,-31.000000,-21.000000,-24.000000,-8.000000,-8.000000,1.000000,19.000000
1295453.748471,11.000000,25.000000,7.000000,24.000000,12.000000,11.000000,-2.000000,0.000000
1295453.748492,8.000000,7.000000,-3.000000,-7.000000,-5.000000,0.000000,-32.000000,-10.000000
1295453.750409,10.000000,67.000000,18.000000,10.000000,12.000000,6.000000,3.000000,1.000000
1295453.750462,21.000000,30.000000,18.000000,5.000000,1.000000,12.000000,87.000000,36.000000
1295453.753845,-4.000000,4.000000,-1.000000,36.000000,13.000000,0.000000,3.000000,-20.000000
1295453.753854,8.000000,-2.000000,14.000000,5.000000,-6.000000,1.000000,12.000000,8.000000
1295453.776399,-23.000000,-61.000000,-23.000000,-35.000000,-20.000000,-26.000000,-31.000000,-10.000000
1295453.776410,11.000000,22.000000,24.000000,15.000000,17.000000,12.000000,0.000000,5.000000
1295453.783980,-3.000000,-7.000000,-13.000000,-17.000000,0.000000,10.000000,-5.000000,-4.000000
1295453.783990,19.000000,13.000000,3.000000,4.000000,-5.000000,-10.000000,-10.000000,2.000000
1295453.800756,11.000000,21.000000,7.000000,0.000000,4.000000,1.000000,6.000000,3.000000
1295453.800773,-29.000000,-16.000000,-10.000000,13.000000,4.000000,6.000000,4.000000,-13.000000
1295453.806245,10.000000,-3.000000,-9.000000,-9.000000,-14.000000,-9.000000,8.000000,2.000000
1295453.806255,-24.000000,-7.000000,-8.000000,4.000000,5.000000,-3.000000,-40.000000,-8.000000
1295453.836604,17.000000,45.000000,33.000000,58.000000,29.000000,22.000000,56.000000,15.000000
1295453.836615,-5.000000,2.000000,-12.000000,-17.000000,-11.000000,-5.000000,-23.000000,-10.000000
1295453.844072,-4.000000,-22.000000,-19.000000,-16.000000,-6.000000,-7.000000,20.000000,0.000000
1295453.844084,-6.000000,21.000000,4.000000,2.000000,-8.000000,-5.000000,8.000000,11.000000
1295453.866713,7.000000,2.000000,1.000000,6.000000,7.000000,-1.000000,-13.000000,-6.000000
1295453.866744,-22.000000,13.000000,2.000000,-10.000000,-7.000000,-11.000000,-41.000000,-11.000000
1295453.867562,-2.000000,7.000000,-12.000000,1.000000,-3.000000,-1.000000,5.000000,-4.000000
1295453.867571,5.000000,3.000000,3.000000,13.000000,-8.000000,-4.000000,2.000000,-6.000000
1295453.868493,-25.000000,-17.000000,7.000000,-44.000000,1.000000,3.000000,-33.000000,0.000000
1295453.868501,18.000000,7.000000,-4.000000,-14.000000,4.000000,2.000000,30.000000,14.000000
1295453.869062,3.000000,16.000000,-7.000000,11.000000,7.000000,-4.000000,-8.000000,-5.000000
1295453.869070,-21.000000,-27.000000,-13.000000,-25.000000,-9.000000,-10.000000,-4.000000,-19.000000
1295453.870002,19.000000,-2.000000,5.000000,9.000000,1.000000,15.000000,-17.000000,5.000000
1295453.870010,-22.000000,-14.000000,-8.000000,-7.000000,-7.000000,9.000000,75.000000,19.000000
1295453.873444,-9.000000,-24.000000,-1.000000,0.000000,2.000000,-4.000000,-23.000000,-12.000000
1295453.873452,-4.000000,18.000000,-6.000000,-37.000000,-10.000000,-11.000000,-20.000000,2.000000
1295453.896487,-17.000000,1.000000,-9.000000,18.000000,9.000000,7.000000,-1.000000,-2.000000
1295453.896504,-36.000000,-21.000000,5.000000,11.000000,-6.000000,-4.000000,-27.000000,-13.000000
1295453.903780,-1.000000,-4.000000,-3.000000,16.000000,-6.000000,3.000000,11.000000,-1.000000
1295453.903792,16.000000,3.000000,13.000000,-3.000000,-2.000000,-10.000000,20.000000,20.000000
1295453.918783,18.000000,-11.000000,-10.000000,13.000000,16.000000,7.000000,7.000000,8.000000
1295453.918792,-63.000000,1.000000,5.000000,-39.000000,-14.000000,-9.000000,-85.000000,-25.000000
1295453.948762,5.000000,-13.000000,-16.000000,-19.000000,-6.000000,3.000000,84.000000,8.000000
1295453.948774,-4.000000,-30.000000,-3.000000,-23.000000,-6.000000,12.000000,21.000000,14.000000
1295453.986289,2.000000,4.000000,-5.000000,-3.000000,2.000000,-6.000000,-39.000000,-15.000000
1295453.986299,1.000000,1.000000,-8.000000,-17.000000,-9.000000,-3.000000,51.000000,9.000000
1295453.993687,-29.000000,-17.000000,6.000000,29.000000,4.000000,-6.000000,-17.000000,-2.000000
1295453.993700,10.000000,14.000000,-1.000000,25.000000,9.000000,3.000000,-39.000000,-10.000000
1295454.031167,-31.000000,-21.000000,-11.000000,-15.000000,-4.000000,12.000000,21.000000,5.000000
1295454.031184,31.000000,19.000000,-5.000000,1.000000,-3.000000,-8.000000,-20.000000,1.000000
1295454.046183,-7.000000,6.000000,8.000000,-3.000000,2.000000,5.000000,24.000000,0.000000
1295454.046207,12.000000,8.000000,4.000000,11.000000,8.000000,-5.000000,-31.000000,-1.000000
1295454.068741,5.000000,23.000000,15.000000,11.000000,7.000000,8.000000,-66.000000,-9.000000
1295454.068752,4.000000,-17.000000,7.000000,24.000000,15.000000,3.000000,49.000000,5.000000
1295454.098976,6.000000,0.000000,-1.000000,12.000000,0.000000,0.000000,-16.000000,-1.000000
1295454.098987,-10.000000,16.000000,3.000000,-7.000000,-3.000000,-1.000000,6.000000,-11.000000
1295454.113653,13.000000,29.000000,5.000000,-4.000000,7.000000,6.000000,40.000000,7.000000
1295454.113663,-12.000000,5.000000,-4.000000,2.000000,2.000000,8.000000,-56.000000,-16.000000
1295454.114063,19.000000,35.000000,3.000000,3.000000,-5.000000,1.000000,-17.000000,-11.000000
1295454.114071,5.000000,-30.000000,-10.000000,-14.000000,-3.000000,5.000000,2.000000,-1.000000
1295454.115435,5.000000,-5.000000,15.000000,25.000000,16.000000,8.000000,18.000000,-14.000000
1295454.115453,-30.000000,-14.000000,-15.000000,-30.000000,-16.000000,-16.000000,-11.000000,-2.000000
1295454.117134,-5.000000,-31.000000,3.000000,-12.000000,-6.000000,-6.000000,-56.000000,-1.000000
1295454.117147,-25.000000,0.000000,-10.000000,-10.000000,-3.000000,-3.000000,16.000000,-9.000000
1295454.144056,1.000000,-29.000000,21.000000,40.000000,17.000000,13.000000,-3.000000,-1.000000
1295454.144083,-3.000000,-21.000000,-15.000000,3.000000,4.000000,-16.000000,11.000000,0.000000
1295454.151338,-2.000000,18.000000,15.000000,3.000000,6.000000,9.000000,2.000000,3.000000
1295454.151351,4.000000,-31.000000,-13.000000,-12.000000,-6.000000,4.000000,17.000000,10.000000
1295454.173697,40.000000,22.000000,-15.000000,-23.000000,-11.000000,-2.000000,22.000000,3.000000
1295454.173708,-33.000000,21.000000,0.000000,-3.000000,-6.000000,-5.000000,-19.000000,-18.000000
1295454.181184,3.000000,37.000000,-4.000000,0.000000,6.000000,4.000000,-8.000000,-7.000000
1295454.181195,-16.000000,-35.000000,-38.000000,-57.000000,-28.000000,-21.000000,-4.000000,-11.000000
1295454.196531,23.000000,36.000000,58.000000,111.000000,51.000000,19.000000,15.000000,21.000000
1295454.196541,7.000000,7.000000,-3.000000,-1.000000,3.000000,6.000000,-9.000000,-1.000000
1295454.211357,-25.000000,-13.000000,-14.000000,-9.000000,-11.000000,-13.000000,-15.000000,-18.000000
1295454.211367,-11.000000,-27.000000,-24.000000,-52.000000,-25.000000,-5.000000,-8.000000,8.000000
1295454.226346,19.000000,-6.000000,5.000000,19.000000,18.000000,18.000000,21.000000,5.000000
1295454.226369,4.000000,42.000000,8.000000,13.000000,-4.000000,-9.000000,-7.000000,-17.000000
1295454.233903,-20.000000,17.000000,-1.000000,22.000000,10.000000,-2.000000,-32.000000,7.000000
1295454.233912,-11.000000,-4.000000,7.000000,2.000000,10.000000,13.000000,64.000000,20.000000
1295454.271272,9.000000,-6.000000,-9.000000,-1.000000,-7.000000,0.000000,21.000000,-9.000000
1295454.271283,12.000000,13.000000,22.000000,22.000000,20.000000,17.000000,18.000000,8.000000
1295454.286682,-14.000000,-26.000000,-18.000000,-10.000000,-13.000000,-8.000000,-12.000000,-7.000000
1295454.286711,2.000000,26.000000,18.000000,-1.000000,7.000000,1.000000,9.000000,-2.000000
1295454.301370,-4.000000,-16.000000,-4.000000,3.000000,5.000000,4.000000,3.000000,0.000000
1295454.301379,9.000000,7.000000,-18.000000,-35.000000,-23.000000,-7.000000,-48.000000,-9.000000
1295454.309227,-15.000000,-10.000000,9.000000,23.000000,-3.000000,3.000000,58.000000,8.000000
1295454.309246,1.000000,-15.000000,-10.000000,-1.000000,2.000000,6.000000,0.000000,8.000000
1295454.339334,-6.000000,-1.000000,-10.000000,0.000000,-2.000000,2.000000,-13.000000,-8.000000
1295454.339396,25.000000,11.000000,14.000000,6.000000,-15.000000,-12.000000,-1.000000,4.000000
1295454.339665,7.000000,9.000000,6.000000,-9.000000,-3.000000,-5.000000,-1.000000,5.000000
1295454.339683,-21.000000,-24.000000,4.000000,3.000000,9.000000,10.000000,4.000000,-3.000000
1295454.340145,4.000000,-12.000000,-4.000000,-9.000000,-7.000000,-6.000000,26.000000,2.000000
1295454.340162,28.000000,23.000000,6.000000,14.000000,13.000000,2.000000,-25.000000,-2.000000
1295454.340845,-14.000000,-22.000000,-10.000000,-13.000000,-6.000000,-7.000000,15.000000,7.000000
1295454.340874,-48.000000,-98.000000,-1.000000,-12.000000,-9.000000,-3.000000,-7.000000,-16.000000
1295454.341645,10.000000,21.000000,7.000000,-2.000000,9.000000,1.000000,20.000000,11.000000
1295454.341664,-12.000000,6.000000,1.000000,-1.000000,-5.000000,-8.000000,-26.000000,-14.000000
1295454.342902,10.000000,-21.000000,-4.000000,-5.000000,7.000000,12.000000,1.000000,1.000000
1295454.343038,-21.000000,-15.000000,-7.000000,-7.000000,-9.000000,-9.000000,-10.000000,-1.000000
1295454.346542,2.000000,-4.000000,-18.000000,-38.000000,-13.000000,-5.000000,-21.000000,-7.000000
1295454.346573,-6.000000,-28.000000,-18.000000,6.000000,1.000000,0.000000,3.000000,9.000000
1295454.383957,10.000000,16.000000,17.000000,-24.000000,-5.000000,7.000000,35.000000,8.000000
1295454.383968,-27.000000,7.000000,8.000000,21.000000,12.000000,-2.000000,-10.000000,-10.000000
1295454.421425,17.000000,24.000000,-7.000000,6.000000,-3.000000,-3.000000,-68.000000,1.000000
1295454.421453,10.000000,27.000000,9.000000,-9.000000,2.000000,5.000000,100.000000,12.000000
1295454.428764,22.000000,4.000000,0.000000,10.000000,0.000000,-5.000000,-17.000000,10.000000
1295454.428774,-6.000000,-23.000000,-9.000000,-12.000000,-10.000000,-1.000000,-17.000000,-4.000000
1295454.451448,-7.000000,11.000000,-23.000000,3.000000,6.000000,6.000000,-5.000000,-10.000000
1295454.451459,-3.000000,13.000000,34.000000,23.000000,-3.000000,-10.000000,-10.000000,-7.000000
1295454.451860,-15.000000,-30.000000,4.000000,-13.000000,8.000000,5.000000,5.000000,7.000000
1295454.451887,-33.000000,-22.000000,-19.000000,-17.000000,-10.000000,-4.000000,-29.000000,-14.000000
1295454.452967,17.000000,-4.000000,-8.000000,-16.000000,-11.000000,2.000000,44.000000,14.000000
1295454.452995,-13.000000,-14.000000,5.000000,14.000000,11.000000,6.000000,-11.000000,1.000000
1295454.453707,-4.000000,-58.000000,-6.000000,8.000000,-1.000000,-5.000000,6.000000,5.000000
1295454.453716,-15.000000,38.000000,3.000000,-24.000000,-6.000000,-1.000000,8.000000,-12.000000
1295454.455150,8.000000,-23.000000,-2.000000,5.000000,-7.000000,-13.000000,-30.000000,4.000000
1295454.455158,16.000000,25.000000,18.000000,-1.000000,8.000000,9.000000,26.000000,9.000000
1295454.459103,1.000000,3.000000,-8.000000,3.000000,-8.000000,-6.000000,2.000000,-6.000000
1295454.459144,-2.000000,-16.000000,-10.000000,6.000000,4.000000,-4.000000,-5.000000,-10.000000
1295454.466624,-10.000000,3.000000,1.000000,-4.000000,-1.000000,-5.000000,-48.000000,-12.000000
1295454.466644,-1.000000,6.000000,-19.000000,3.000000,6.000000,8.000000,75.000000,18.000000
1295454.489132,-4.000000,0.000000,10.000000,-18.000000,-14.000000,-4.000000,-51.000000,-11.000000
1295454.489153,9.000000,-7.000000,-4.000000,-15.000000,-3.000000,0.000000,27.000000,10.000000
1295454.511275,5.000000,-12.000000,-6.000000,0.000000,0.000000,-5.000000,-14.000000,8.000000
1295454.511284,-4.000000,-17.000000,17.000000,-1.000000,-1.000000,9.000000,-8.000000,-12.000000
1295454.526549,12.000000,10.000000,-3.000000,-30.000000,-19.000000,-11.000000,-33.000000,1.000000
1295454.526561,-23.000000,-7.000000,-7.000000,-5.000000,2.000000,4.000000,-2.000000,-1.000000
1295454.548758,15.000000,7.000000,-1.000000,23.000000,8.000000,1.000000,39.000000,6.000000
1295454.548769,6.000000,-8.000000,-8.000000,-40.000000,-6.000000,-4.000000,-4.000000,8.000000
1295454.563816,-2.000000,6.000000,2.000000,17.000000,-4.000000,-6.000000,-26.000000,-8.000000
1295454.563826,15.000000,-4.000000,-8.000000,-12.000000,-2.000000,1.000000,0.000000,-1.000000
1295454.579426,-1.000000,6.000000,7.000000,28.000000,-6.000000,-2.000000,-11.000000,-6.000000
1295454.579435,4.000000,-8.000000,9.000000,6.000000,15.000000,8.000000,0.000000,-8.000000
1295454.579988,-5.000000,22.000000,17.000000,7.000000,-11.000000,-11.000000,-36.000000,-2.000000
1295454.579996,18.000000,6.000000,15.000000,13.000000,19.000000,13.000000,52.000000,21.000000
1295454.581012,5.000000,22.000000,-13.000000,4.000000,-8.000000,-3.000000,8.000000,2.000000
1295454.581020,-5.000000,4.000000,22.000000,32.000000,20.000000,-3.000000,-24.000000,-11.000000
1295454.583194,2.000000,-15.000000,8.000000,13.000000,3.000000,4.000000,4.000000,0.000000
1295454.583205,-9.000000,-4.000000,-7.000000,-16.000000,-2.000000,-7.000000,-16.000000,-7.000000
1295454.586458,17.000000,16.000000,-7.000000,17.000000,1.000000,-2.000000,-20.000000,-3.000000
1295454.586468,-11.000000,15.000000,20.000000,-34.000000,-2.000000,11.000000,60.000000,8.000000
1295454.601963,-16.000000,-5.000000,-17.000000,-24.000000,-5.000000,-10.000000,-32.000000,-10.000000
1295454.601987,-3.000000,-5.000000,28.000000,26.000000,12.000000,9.000000,-34.000000,-6.000000
1295454.623629,9.000000,33.000000,-9.000000,1.000000,-7.000000,-14.000000,10.000000,0.000000
1295454.623638,6.000000,-47.000000,-42.000000,-33.000000,-20.000000,-4.000000,53.000000,22.000000
1295454.631354,0.000000,15.000000,16.000000,34.000000,8.000000,6.000000,-38.000000,-8.000000
1295454.631365,4.000000,7.000000,-1.000000,-8.000000,-11.000000,-12.000000,-11.000000,-5.000000
1295454.669096,17.000000,-2.000000,25.000000,20.000000,13.000000,6.000000,4.000000,8.000000
1295454.669107,2.000000,23.000000,29.000000,-4.000000,0.000000,-1.000000,-3.000000,-7.000000
1295454.669501,-18.000000,-1.000000,0.000000,9.000000,-1.000000,2.000000,-28.000000,-14.000000
1295454.669512,11.000000,4.000000,-14.000000,-2.000000,-11.000000,-12.000000,29.000000,14.000000
1295454.670883,4.000000,-22.000000,-1.000000,-5.000000,-3.000000,4.000000,5.000000,17.000000
1295454.670894,-6.000000,-15.000000,-11.000000,-4.000000,-5.000000,-3.000000,-12.000000,-10.000000
1295454.671363,1.000000,42.000000,21.000000,10.000000,3.000000,5.000000,-3.000000,-8.000000
1295454.671373,-14.000000,7.000000,-5.000000,3.000000,-7.000000,-10.000000,-27.000000,-17.000000
1295454.698693,-15.000000,-48.000000,1.000000,1.000000,5.000000,13.000000,18.000000,0.000000
1295454.698704,-3.000000,22.000000,-2.000000,-5.000000,-2.000000,-8.000000,-13.000000,-6.000000
1295454.699704,11.000000,15.000000,7.000000,9.000000,4.000000,6.000000,26.000000,6.000000
1295454.699731,2.000000,0.000000,-3.000000,-2.000000,-13.000000,-15.000000,-72.000000,-17.000000
1295454.700538,-3.000000,1.000000,18.000000,8.000000,7.000000,10.000000,86.000000,19.000000
1295454.700557,22.000000,21.000000,-1.000000,-3.000000,5.000000,-3.000000,-8.000000,8.000000
1295454.706219,-1.000000,16.000000,-10.000000,-7.000000,-2.000000,3.000000,-31.000000,-16.000000
1295454.706256,22.000000,5.000000,16.000000,44.000000,12.000000,-1.000000,2.000000,9.000000
1295454.729156,9.000000,31.000000,5.000000,6.000000,-5.000000,-10.000000,-6.000000,2.000000
1295454.729169,-10.000000,28.000000,0.000000,-17.000000,-7.000000,1.000000,5.000000,-8.000000
1295454.743663,-8.000000,-7.000000,-7.000000,-7.000000,-8.000000,-17.000000,-11.000000,-8.000000
1295454.743673,-4.000000,-19.000000,-12.000000,-11.000000,-11.000000,-8.000000,-38.000000,-15.000000
1295454.751153,-6.000000,-36.000000,-4.000000,12.000000,10.000000,15.000000,73.000000,4.000000
1295454.751169,24.000000,16.000000,-17.000000,-22.000000,-15.000000,8.000000,84.000000,28.000000
1295454.788864,0.000000,26.000000,41.000000,55.000000,28.000000,-9.000000,-40.000000,8.000000
1295454.788884,6.000000,9.000000,-8.000000,-6.000000,-2.000000,8.000000,10.000000,3.000000
1295454.803781,-39.000000,7.000000,2.000000,22.000000,8.000000,5.000000,-12.000000,-19.000000
1295454.803802,18.000000,3.000000,-9.000000,-54.000000,-15.000000,-10.000000,-21.000000,-7.000000
1295454.819538,-44.000000,-9.000000,3.000000,25.000000,10.000000,8.000000,21.000000,11.000000
1295454.819565,12.000000,19.000000,3.000000,8.000000,-1.000000,7.000000,-3.000000,-5.000000
1295454.820023,7.000000,-10.000000,-20.000000,-6.000000,-7.000000,-4.000000,-21.000000,-3.000000
1295454.820043,2.000000,42.000000,-10.000000,-11.000000,7.000000,-6.000000,-20.000000,-5.000000
1295454.821056,-19.000000,-51.000000,-9.000000,4.000000,-9.000000,1.000000,15.000000,6.000000
1295454.821084,-1.000000,22.000000,17.000000,17.000000,8.000000,8.000000,-4.000000,-11.000000
1295454.822561,27.000000,52.000000,1.000000,-25.000000,-12.000000,-10.000000,3.000000,16.000000
1295454.822588,-20.000000,-4.000000,0.000000,9.000000,12.000000,4.000000,-25.000000,-19.000000
1295454.826135,-44.000000,-53.000000,-4.000000,3.000000,-3.000000,8.000000,29.000000,-5.000000
1295454.826161,0.000000,-20.000000,-4.000000,-14.000000,-7.000000,-18.000000,-41.000000,-9.000000
1295454.856347,-1.000000,-9.000000,-13.000000,-22.000000,-11.000000,-9.000000,-6.000000,-7.000000
1295454.856358,-3.000000,2.000000,20.000000,36.000000,16.000000,12.000000,21.000000,2.000000
1295454.871430,-3.000000,-22.000000,-7.000000,-35.000000,-17.000000,-18.000000,-24.000000,-2.000000
1295454.871440,1.000000,4.000000,10.000000,16.000000,-9.000000,-5.000000,18.000000,0.000000
1295454.893824,-1.000000,-11.000000,-12.000000,9.000000,6.000000,11.000000,24.000000,5.000000
1295454.893863,3.000000,-24.000000,-1.000000,-4.000000,-14.000000,-3.000000,-10.000000,-7.000000
1295454.908781,11.000000,16.000000,-8.000000,-33.000000,-3.000000,-23.000000,-27.000000,-5.000000
1295454.908790,-6.000000,-8.000000,1.000000,1.000000,11.000000,19.000000,3.000000,12.000000
1295454.931264,7.000000,2.000000,1.000000,35.000000,15.000000,6.000000,5.000000,8.000000
1295454.931274,-4.000000,0.000000,-11.000000,-24.000000,-22.000000,-21.000000,-24.000000,-10.000000
1295454.938747,2.000000,32.000000,12.000000,42.000000,26.000000,21.000000,30.000000,-1.000000
1295454.938758,35.000000,1.000000,-2.000000,-5.000000,-7.000000,-6.000000,15.000000,15.000000
1295454.954061,11.000000,6.000000,-2.000000,4.000000,-4.000000,-11.000000,-19.000000,-13.000000
1295454.954090,19.000000,-4.000000,-17.000000,-18.000000,-9.000000,4.000000,-17.000000,-2.000000
1295454.983749,-18.000000,-5.000000,28.000000,8.000000,8.000000,10.000000,33.000000,11.000000
1295454.983761,22.000000,55.000000,13.000000,29.000000,16.000000,-1.000000,2.000000,7.000000
1295454.991130,-28.000000,-24.000000,-15.000000,-27.000000,0.000000,-3.000000,-9.000000,-9.000000
1295454.991140,-9.000000,-31.000000,-5.000000,-26.000000,-31.000000,-25.000000,-13.000000,-6.000000
1295455.006663,0.000000,1.000000,32.000000,41.000000,10.000000,2.000000,15.000000,6.000000
1295455.006675,-3.000000,-12.000000,-33.000000,-29.000000,-11.000000,-2.000000,3.000000,0.000000
1295455.021474,-6.000000,-6.000000,-8.000000,24.000000,-1.000000,1.000000,10.000000,1.000000
1295455.021499,34.000000,8.000000,-5.000000,-17.000000,-5.000000,2.000000,0.000000,8.000000
1295455.028674,-23.000000,-11.000000,5.000000,5.000000,5.000000,-1.000000,-24.000000,-14.000000
1295455.028690,3.000000,-14.000000,-12.000000,14.000000,7.000000,17.000000,15.000000,1.000000
1295455.043729,3.000000,40.000000,10.000000,10.000000,2.000000,3.000000,47.000000,5.000000
1295455.043738,25.000000,17.000000,8.000000,21.000000,9.000000,6.000000,16.000000,20.000000
1295455.059766,8.000000,16.000000,15.000000,-18.000000,-11.000000,1.000000,41.000000,10.000000
1295455.059795,-12.000000,-10.000000,-8.000000,-1.000000,-7.000000,-7.000000,-52.000000,-9.000000
1295455.060610,4.000000,-24.000000,-13.000000,-10.000000,-5.000000,-2.000000,-9.000000,-5.000000
1295455.060639,3.000000,41.000000,0.000000,-18.000000,-17.000000,-15.000000,-59.000000,-17.000000
1295455.061803,6.000000,-12.000000,-24.000000,-10.000000,-1.000000,-10.000000,-35.000000,-15.000000
1295455.061830,-24.000000,11.000000,-8.000000,-19.000000,-16.000000,5.000000,-41.000000,-13.000000
1295455.066783,-7.000000,10.000000,1.000000,4.000000,2.000000,9.000000,12.000000,1.000000
1295455.066793,13.000000,31.000000,10.000000,2.000000,1.000000,6.000000,2.000000,-8.000000
1295455.096572,6.000000,-34.000000,-28.000000,-38.000000,-11.000000,-9.000000,-34.000000,-4.000000
1295455.096583,-22.000000,7.000000,5.000000,16.000000,2.000000,-3.000000,-7.000000,-13.000000
1295455.104067,17.000000,13.000000,-18.000000,-30.000000,-14.000000,-11.000000,3.000000,2.000000
1295455.104077,1.000000,-12.000000,21.000000,25.000000,9.000000,7.000000,15.000000,2.000000
1295455.126422,8.000000,22.000000,-3.000000,-1.000000,-5.000000,3.000000,10.000000,4.000000
1295455.126432,-4.000000,-8.000000,-4.000000,8.000000,5.000000,2.000000,-4.000000,0.000000
1295455.133931,5.000000,9.000000,5.000000,15.000000,0.000000,-3.000000,-8.000000,-8.000000
1295455.133947,-14.000000,-16.000000,-1.000000,-30.000000,-7.000000,-1.000000,-17.000000,0.000000
1295455.163756,3.000000,7.000000,8.000000,32.000000,17.000000,10.000000,40.000000,11.000000
1295455.163770,5.000000,-41.000000,2.000000,12.000000,7.000000,5.000000,-21.000000,-6.000000
1295455.171351,-12.000000,-14.000000,-11.000000,-8.000000,-7.000000,-25.000000,10.000000,-2.000000
1295455.171392,-17.000000,-10.000000,-15.000000,-18.000000,0.000000,-3.000000,-23.000000,-4.000000
1295455.179122,-13.000000,17.000000,10.000000,14.000000,0.000000,3.000000,-15.000000,-14.000000
1295455.179131,-13.000000,-6.000000,-1.000000,3.000000,-8.000000,10.000000,46.000000,13.000000
1295455.179680,30.000000,19.000000,7.000000,37.000000,25.000000,6.000000,-23.000000,8.000000
1295455.179689,-21.000000,4.000000,-4.000000,2.000000,-6.000000,-18.000000,-41.000000,-17.000000
1295455.180971,29.000000,41.000000,-12.000000,-8.000000,-8.000000,2.000000,5.000000,-4.000000
1295455.180979,4.000000,-19.000000,24.000000,-3.000000,2.000000,7.000000,71.000000,25.000000
1295455.181930,2.000000,24.000000,-6.000000,-1.000000,11.000000,-4.000000,-20.000000,0.000000
1295455.181954,-3.000000,26.000000,8.000000,11.000000,4.000000,6.000000,-28.000000,-5.000000
1295455.216314,13.000000,18.000000,13.000000,6.000000,12.000000,8.000000,-38.000000,-5.000000
1295455.216324,-12.000000,-13.000000,1.000000,19.000000,1.000000,2.000000,42.000000,7.000000
1295455.231303,10.000000,-40.000000,-11.000000,-20.000000,-3.000000,11.000000,14.000000,6.000000
1295455.231315,-3.000000,12.000000,5.000000,11.000000,-7.000000,-18.000000,-11.000000,-2.000000
1295455.253991,-41.000000,-109.000000,-15.000000,-4.000000,4.000000,5.000000,28.000000,-8.000000
1295455.254002,19.000000,12.000000,6.000000,-14.000000,-6.000000,1.000000,-39.000000,7.000000
1295455.268796,-14.000000,-31.000000,-22.000000,-3.000000,9.000000,4.000000,21.000000,-5.000000
1295455.268814,-38.000000,-25.000000,7.000000,17.000000,2.000000,-4.000000,-11.000000,-15.000000
1295455.283751,4.000000,-3.000000,-1.000000,-44.000000,-24.000000,-19.000000,-21.000000,-8.000000
1295455.283761,-1.000000,-8.000000,6.000000,7.000000,13.000000,18.000000,32.000000,12.000000
1295455.306330,-2.000000,27.000000,-5.000000,4.000000,7.000000,-3.000000,-14.000000,-8.000000
1295455.306351,-3.000000,-39.000000,-18.000000,-4.000000,-8.000000,-3.000000,-14.000000,-3.000000
1295455.306733,-14.000000,-25.000000,-14.000000,-3.000000,-8.000000,-4.000000,7.000000,-13.000000
1295455.306742,7.000000,37.000000,25.000000,6.000000,0.000000,-1.000000,-16.000000,10.000000
1295455.307169,0.000000,16.000000,5.000000,5.000000,8.000000,-3.000000,28.000000,6.000000
1295455.307192,11.000000,17.000000,-4.000000,-3.000000,-6.000000,5.000000,-13.000000,-5.000000
1295455.308534,-44.000000,-81.000000,-2.000000,10.000000,-2.000000,-5.000000,-38.000000,-17.000000
1295455.308549,0.000000,25.000000,1.000000,-20.000000,-8.000000,-9.000000,0.000000,-13.000000
1295455.336549,8.000000,11.000000,-9.000000,-8.000000,4.000000,2.000000,-19.000000,0.000000
1295455.336562,-2.000000,-47.000000,-15.000000,-15.000000,-10.000000,-2.000000,-59.000000,-5.000000
1295455.358773,-37.000000,-8.000000,-13.000000,-8.000000,-7.000000,-11.000000,74.000000,6.000000
1295455.358789,37.000000,-3.000000,6.000000,6.000000,-3.000000,3.000000,39.000000,16.000000
1295455.373983,-6.000000,-8.000000,8.000000,15.000000,13.000000,1.000000,-84.000000,-20.000000
1295455.373996,11.000000,21.000000,-13.000000,-16.000000,-6.000000,-4.000000,43.000000,4.000000
1295455.374928,-11.000000,1.000000,-7.000000,-8.000000,-14.000000,5.000000,-3.000000,-5.000000
1295455.374938,27.000000,-20.000000,6.000000,4.000000,-10.000000,-10.000000,22.000000,4.000000
1295455.375408,-59.000000,-37.000000,2.000000,-34.000000,-6.000000,-11.000000,-23.000000,-2.000000
1295455.375418,11.000000,-13.000000,-16.000000,-18.000000,-15.000000,-14.000000,-22.000000,-12.000000
1295455.376743,-8.000000,57.000000,19.000000,16.000000,4.000000,6.000000,-14.000000,-15.000000
1295455.376753,20.000000,-18.000000,-3.000000,-13.000000,-6.000000,-6.000000,-11.000000,7.000000
1295455.377559,3.000000,-14.000000,-6.000000,0.000000,11.000000,6.000000,21.000000,13.000000
1295455.377569,-9.000000,-17.000000,-14.000000,-8.000000,-9.000000,-12.000000,-20.000000,-14.000000
1295455.396325,0.000000,18.000000,40.000000,13.000000,4.000000,-3.000000,6.000000,-1.000000
1295455.396338,3.000000,-8.000000,-12.000000,1.000000,5.000000,2.000000,21.000000,17.000000
1295455.403750,13.000000,31.000000,-6.000000,-3.000000,-5.000000,-5.000000,0.000000,-7.000000
1295455.403814,-15.000000,-13.000000,4.000000,2.000000,-1.000000,10.000000,19.000000,7.000000
1295455.418940,4.000000,8.000000,14.000000,24.000000,9.000000,1.000000,-39.000000,-9.000000
1295455.418951,23.000000,28.000000,6.000000,16.000000,0.000000,7.000000,71.000000,10.000000
1295455.426429,-21.000000,-11.000000,-23.000000,-68.000000,-13.000000,0.000000,-57.000000,-13.000000
1295455.426441,-3.000000,-8.000000,5.000000,-4.000000,0.000000,-11.000000,-1.000000,2.000000
1295455.427480,29.000000,-5.000000,7.000000,17.000000,12.000000,-11.000000,28.000000,28.000000
1295455.427488,-31.000000,-5.000000,-10.000000,-22.000000,-10.000000,-3.000000,-12.000000,-11.000000
1295455.448888,-7.000000,-2.000000,-9.000000,-5.000000,-4.000000,-3.000000,-44.000000,-24.000000
1295455.448898,-12.000000,-45.000000,-19.000000,6.000000,-3.000000,5.000000,8.000000,-2.000000
1295455.463923,20.000000,65.000000,34.000000,36.000000,19.000000,12.000000,15.000000,18.000000
1295455.464050,17.000000,-24.000000,-6.000000,13.000000,11.000000,2.000000,7.000000,6.000000
1295455.464295,-27.000000,-3.000000,-11.000000,-11.000000,-5.000000,-5.000000,-34.000000,-15.000000
1295455.464316,-18.000000,19.000000,12.000000,9.000000,7.000000,-4.000000,15.000000,-5.000000
1295455.465729,-7.000000,5.000000,-1.000000,-2.000000,3.000000,3.000000,0.000000,-1.000000
1295455.465738,-22.000000,-68.000000,-9.000000,-44.000000,-20.000000,-5.000000,-14.000000,-6.000000
1295455.493801,15.000000,-4.000000,-2.000000,6.000000,13.000000,13.000000,8.000000,19.000000
1295455.493812,-22.000000,-22.000000,-5.000000,11.000000,3.000000,-7.000000,-15.000000,-22.000000
1295455.531652,-17.000000,1.000000,14.000000,8.000000,2.000000,0.000000,22.000000,0.000000
1295455.531673,26.000000,5.000000,-23.000000,-3.000000,5.000000,7.000000,10.000000,20.000000
1295455.538812,-17.000000,-54.000000,-14.000000,6.000000,5.000000,-1.000000,-30.000000,-11.000000
1295455.538823,-12.000000,14.000000,-3.000000,-1.000000,-3.000000,4.000000,41.000000,-9.000000
1295455.561480,11.000000,-9.000000,-2.000000,1.000000,-6.000000,-12.000000,-28.000000,-8.000000
1295455.561494,-13.000000,39.000000,11.000000,29.000000,8.000000,8.000000,19.000000,-4.000000
1295455.561885,14.000000,-27.000000,-14.000000,-23.000000,-6.000000,-7.000000,-40.000000,-9.000000
1295455.561895,-27.000000,-48.000000,-10.000000,-10.000000,3.000000,8.000000,33.000000,12.000000
1295455.562925,32.000000,81.000000,16.000000,-17.000000,2.000000,-6.000000,36.000000,13.000000
1295455.562935,6.000000,-29.000000,-7.000000,5.000000,-3.000000,-4.000000,-17.000000,-6.000000
1295455.563530,0.000000,75.000000,-7.000000,-29.000000,-1.000000,-2.000000,-4.000000,4.000000
1295455.563540,11.000000,29.000000,35.000000,31.000000,2.000000,4.000000,-20.000000,3.000000
1295455.568875,-1.000000,9.000000,-19.000000,2.000000,3.000000,-1.000000,-52.000000,-5.000000
1295455.568887,13.000000,7.000000,3.000000,-2.000000,0.000000,-3.000000,87.000000,18.000000
1295455.583727,9.000000,-44.000000,-9.000000,4.000000,-4.000000,-1.000000,-23.000000,3.000000
1295455.583737,-27.000000,29.000000,10.000000,-7.000000,-8.000000,-9.000000,10.000000,-15.000000
1295455.598806,-26.000000,-69.000000,-1.000000,1.000000,-4.000000,-15.000000,-41.000000,-18.000000
1295455.598816,2.000000,18.000000,1.000000,4.000000,-2.000000,4.000000,48.000000,11.000000
1295455.614145,1.000000,4.000000,-17.000000,-8.000000,-1.000000,0.000000,-1.000000,3.000000
1295455.614154,1.000000,3.000000,17.000000,4.000000,7.000000,10.000000,14.000000,3.000000
1295455.615073,17.000000,3.000000,7.000000,19.000000,1.000000,-2.000000,-25.000000,-2.000000
1295455.615082,-12.000000,-17.000000,1.000000,1.000000,0.000000,0.000000,-1.000000,3.000000
1295455.621930,4.000000,12.000000,-1.000000,-10.000000,-5.000000,-4.000000,-14.000000,-2.000000
1295455.621958,3.000000,-12.000000,-12.000000,-8.000000,-6.000000,-1.000000,1.000000,-11.000000
1295455.636153,-12.000000,-26.000000,-12.000000,-7.000000,-7.000000,-3.000000,-21.000000,-2.000000
1295455.636163,-3.000000,13.000000,8.000000,-1.000000,-3.000000,-1.000000,46.000000,13.000000
1295455.651915,12.000000,19.000000,11.000000,0.000000,-6.000000,0.000000,-12.000000,-6.000000
1295455.651943,-12.000000,-9.000000,-24.000000,16.000000,20.000000,3.000000,-11.000000,3.000000
1295455.652586,13.000000,-27.000000,-2.000000,-22.000000,0.000000,3.000000,-33.000000,-1.000000
1295455.652613,2.000000,36.000000,29.000000,1.000000,-5.000000,1.000000,30.000000,-11.000000
1295455.674388,-10.000000,-48.000000,-65.000000,-46.000000,-19.000000,-11.000000,10.000000,2.000000
1295455.674407,20.000000,11.000000,9.000000,3.000000,5.000000,6.000000,21.000000,18.000000
1295455.688749,-1.000000,15.000000,3.000000,1.000000,6.000000,3.000000,-23.000000,-9.000000
1295455.688760,10.000000,12.000000,-1.000000,-3.000000,-5.000000,-10.000000,-63.000000,-23.000000
1295455.703734,-1.000000,25.000000,-7.000000,-4.000000,8.000000,9.000000,72.000000,17.000000
1295455.703744,0.000000,-1.000000,0.000000,4.000000,-6.000000,-1.000000,33.000000,8.000000
1295455.726187,0.000000,-28.000000,-7.000000,2.000000,-1.000000,-1.000000,-29.000000,-13.000000
1295455.726211,-21.000000,-10.000000,8.000000,-2.000000,-10.000000,-8.000000,-10.000000,-11.000000
1295455.741160,0.000000,-12.000000,-15.000000,-12.000000,-8.000000,3.000000,-9.000000,4.000000
1295455.741171,-6.000000,21.000000,2.000000,15.000000,8.000000,4.000000,-10.000000,-2.000000
1295455.741581,9.000000,7.000000,-2.000000,-6.000000,-4.000000,-3.000000,-3.000000,-1.000000
1295455.741603,3.000000,-29.000000,-11.000000,-33.000000,-15.000000,-12.000000,-3.000000,-3.000000
1295455.742796,-41.000000,-31.000000,2.000000,9.000000,-3.000000,-6.000000,-13.000000,-12.000000
1295455.742819,12.000000,21.000000,9.000000,20.000000,15.000000,13.000000,5.000000,7.000000
1295455.743666,14.000000,-9.000000,-1.000000,-10.000000,-9.000000,-9.000000,43.000000,15.000000
1295455.743688,-23.000000,-1.000000,3.000000,2.000000,-3.000000,-7.000000,-12.000000,-9.000000
1295455.764020,7.000000,31.000000,-6.000000,12.000000,-6.000000,-1.000000,56.000000,7.000000
1295455.764115,5.000000,27.000000,3.000000,5.000000,15.000000,13.000000,15.000000,11.000000
1295455.771663,-1.000000,-12.000000,-13.000000,-8.000000,-1.000000,-8.000000,2.000000,-4.000000
1295455.771673,-32.000000,-29.000000,-6.000000,-18.000000,-6.000000,0.000000,-22.000000,-6.000000
1295455.772366,13.000000,17.000000,23.000000,20.000000,5.000000,2.000000,-5.000000,0.000000
1295455.772375,-12.000000,3.000000,8.000000,0.000000,-8.000000,4.000000,-7.000000,-12.000000
1295455.786221,-22.000000,-39.000000,-25.000000,-20.000000,-9.000000,-21.000000,-32.000000,-5.000000
1295455.786250,16.000000,5.000000,6.000000,10.000000,0.000000,0.000000,36.000000,12.000000
1295455.808754,10.000000,14.000000,-7.000000,-6.000000,-4.000000,4.000000,13.000000,8.000000
1295455.808765,-11.000000,8.000000,-9.000000,-22.000000,-8.000000,1.000000,-17.000000,-3.000000
1295455.823660,-50.000000,-40.000000,4.000000,14.000000,-3.000000,-15.000000,-57.000000,-31.000000
1295455.823671,5.000000,7.000000,-6.000000,8.000000,5.000000,5.000000,48.000000,1.000000
1295455.838881,4.000000,-45.000000,-15.000000,-9.000000,2.000000,1.000000,14.000000,14.000000
1295455.838910,-32.000000,-35.000000,-5.000000,-49.000000,-25.000000,-20.000000,-26.000000,-18.000000
1295455.847035,8.000000,59.000000,30.000000,54.000000,34.000000,8.000000,-38.000000,-7.000000
1295455.847063,-3.000000,5.000000,4.000000,2.000000,6.000000,11.000000,55.000000,16.000000
1295455.847587,-18.000000,-81.000000,-40.000000,-46.000000,-9.000000,1.000000,8.000000,3.000000
1295455.847595,4.000000,29.000000,21.000000,34.000000,3.000000,1.000000,-30.000000,-12.000000
1295455.848948,-21.000000,-14.000000,19.000000,11.000000,2.000000,-8.000000,-39.000000,-21.000000
1295455.848958,-15.000000,10.000000,1.000000,-11.000000,-3.000000,1.000000,54.000000,11.000000
1295455.853877,-16.000000,-18.000000,-32.000000,1.000000,1.000000,6.000000,14.000000,1.000000
1295455.853906,17.000000,39.000000,14.000000,6.000000,1.000000,5.000000,-13.000000,-6.000000
1295455.861973,-14.000000,-3.000000,-12.000000,-9.000000,-4.000000,-2.000000,-17.000000,-10.000000
1295455.861989,36.000000,34.000000,12.000000,-6.000000,-7.000000,-2.000000,-11.000000,7.000000
1295455.876209,-32.000000,12.000000,10.000000,5.000000,-1.000000,-5.000000,18.000000,-6.000000
1295455.876231,-5.000000,-22.000000,-43.000000,-18.000000,-12.000000,6.000000,12.000000,-2.000000
1295455.891418,2.000000,-7.000000,0.000000,4.000000,7.000000,2.000000,19.000000,12.000000
1295455.891430,-19.000000,-3.000000,6.000000,17.000000,5.000000,2.000000,-46.000000,-12.000000
1295455.892121,4.000000,6.000000,1.000000,-1.000000,3.000000,4.000000,27.000000,5.000000
1295455.892130,-6.000000,-6.000000,-3.000000,-5.000000,-8.000000,-15.000000,-32.000000,-12.000000
1295455.913815,-40.000000,-111.000000,-23.000000,-12.000000,-6.000000,-6.000000,-5.000000,-11.000000
1295455.913836,-1.000000,20.000000,-5.000000,4.000000,-3.000000,-4.000000,-44.000000,-6.000000
1295455.929154,-4.000000,-2.000000,7.000000,11.000000,5.000000,0.000000,20.000000,-6.000000
1295455.929166,-26.000000,-15.000000,7.000000,8.000000,-3.000000,5.000000,58.000000,1.000000
1295455.951405,29.000000,31.000000,-1.000000,5.000000,6.000000,5.000000,-8.000000,3.000000
1295455.951417,-14.000000,2.000000,-13.000000,-52.000000,-32.000000,-16.000000,-29.000000,-20.000000
1295455.966529,-27.000000,-38.000000,2.000000,25.000000,17.000000,3.000000,11.000000,7.000000
1295455.966666,14.000000,9.000000,7.000000,-5.000000,-1.000000,-8.000000,-14.000000,12.000000
1295455.967426,17.000000,-2.000000,-7.000000,-4.000000,-4.000000,7.000000,12.000000,-4.000000
1295455.967439,-15.000000,-26.000000,9.000000,28.000000,17.000000,12.000000,3.000000,-6.000000
1295455.967993,-8.000000,16.000000,1.000000,-3.000000,-6.000000,-9.000000,-56.000000,-11.000000
1295455.968021,9.000000,-9.000000,-13.000000,17.000000,4.000000,-3.000000,9.000000,3.000000
1295455.969623,16.000000,30.000000,17.000000,-12.000000,-4.000000,10.000000,27.000000,7.000000
1295455.969653,-23.000000,-57.000000,-5.000000,-2.000000,1.000000,-14.000000,-36.000000,-14.000000
1295455.973930,-23.000000,-45.000000,-5.000000,11.000000,-4.000000,10.000000,45.000000,16.000000
1295455.973946,-3.000000,1.000000,-3.000000,-12.000000,1.000000,7.000000,12.000000,6.000000
1295455.981942,-6.000000,-28.000000,-12.000000,-11.000000,-2.000000,-5.000000,-14.000000,-5.000000
1295455.981953,2.000000,4.000000,-4.000000,5.000000,-16.000000,-19.000000,-24.000000,-13.000000
1295456.003554,36.000000,30.000000,36.000000,48.000000,33.000000,15.000000,52.000000,24.000000
1295456.003564,1.000000,-18.000000,-10.000000,-15.000000,-8.000000,-3.000000,-6.000000,0.000000
1295456.005033,3.000000,-6.000000,1.000000,2.000000,0.000000,-2.000000,-9.000000,2.000000
1295456.005042,-1.000000,4.000000,-17.000000,-2.000000,-3.000000,-6.000000,2.000000,-14.000000
1295456.011227,5.000000,4.000000,7.000000,14.000000,9.000000,5.000000,-8.000000,-1.000000
1295456.011236,19.000000,17.000000,11.000000,1.000000,0.000000,-4.000000,-27.000000,3.000000
1295456.048911,-20.000000,-18.000000,-19.000000,-14.000000,-4.000000,-6.000000,16.000000,-6.000000
1295456.048928,11.000000,-11.000000,-4.000000,-8.000000,5.000000,21.000000,65.000000,30.000000
1295456.056303,-8.000000,-16.000000,13.000000,5.000000,-1.000000,4.000000,33.000000,0.000000
1295456.056313,-4.000000,42.000000,4.000000,1.000000,-8.000000,-19.000000,-48.000000,-16.000000
1295456.086924,16.000000,-4.000000,-31.000000,-3.000000,-5.000000,1.000000,-12.000000,-2.000000
1295456.086951,-56.000000,-43.000000,20.000000,-3.000000,-1.000000,11.000000,34.000000,2.000000
1295456.087355,24.000000,22.000000,-5.000000,-16.000000,-1.000000,1.000000,0.000000,0.000000
1295456.087381,-10.000000,0.000000,-6.000000,0.000000,-1.000000,-6.000000,-13.000000,-7.000000
1295456.088721,16.000000,9.000000,-6.000000,-5.000000,-5.000000,-10.000000,-4.000000,-3.000000
1295456.088753,4.000000,-11.000000,-1.000000,0.000000,-11.000000,-7.000000,-47.000000,-7.000000
1295456.089373,3.000000,11.000000,5.000000,8.000000,1.000000,1.000000,40.000000,-1.000000
1295456.089381,-12.000000,-7.000000,-6.000000,-5.000000,-10.000000,-1.000000,4.000000,-9.000000
1295456.093460,8.000000,9.000000,-2.000000,6.000000,-4.000000,-4.000000,-24.000000,-8.000000
1295456.093469,-14.000000,-6.000000,-20.000000,-23.000000,-12.000000,-10.000000,-9.000000,-4.000000
1295456.101966,2.000000,2.000000,-4.000000,-1.000000,1.000000,2.000000,-22.000000,-2.000000
1295456.101986,-3.000000,13.000000,25.000000,27.000000,-3.000000,5.000000,35.000000,-5.000000
1295456.116522,-7.000000,-1.000000,-10.000000,-15.000000,2.000000,4.000000,-18.000000,-2.000000
1295456.116550,-3.000000,-5.000000,16.000000,4.000000,-4.000000,-4.000000,17.000000,2.000000
1295456.131867,15.000000,32.000000,-4.000000,9.000000,-3.000000,-7.000000,-1.000000,0.000000
1295456.131877,-37.000000,-89.000000,-13.000000,-6.000000,-2.000000,3.000000,-11.000000,-1.000000
1295456.138825,-7.000000,23.000000,26.000000,2.000000,-5.000000,0.000000,-22.000000,-4.000000
1295456.138834,28.000000,3.000000,10.000000,11.000000,7.000000,6.000000,29.000000,18.000000
1295456.169098,22.000000,12.000000,-23.000000,-14.000000,-6.000000,2.000000,-12.000000,-10.000000
1295456.169110,3.000000,-18.000000,-10.000000,-15.000000,-27.000000,-20.000000,-9.000000,-2.000000
1295456.176663,-32.000000,-10.000000,7.000000,-4.000000,2.000000,6.000000,7.000000,0.000000
1295456.176675,10.000000,-9.000000,2.000000,-20.000000,-7.000000,-3.000000,-6.000000,-1.000000
1295456.206742,-46.000000,-6.000000,-10.000000,-15.000000,-4.000000,-4.000000,-7.000000,-8.000000
1295456.206752,-7.000000,-10.000000,-11.000000,-2.000000,-4.000000,-4.000000,2.000000,-7.000000
1295456.207145,23.000000,36.000000,0.000000,13.000000,7.000000,4.000000,-5.000000,-1.000000
1295456.207154,7.000000,-77.000000,-9.000000,2.000000,4.000000,14.000000,33.000000,11.000000
1295456.213550,9.000000,71.000000,-2.000000,-13.000000,-5.000000,-3.000000,-2.000000,4.000000
1295456.213564,39.000000,27.000000,2.000000,4.000000,2.000000,-5.000000,-10.000000,-2.000000
1295456.214104,3.000000,-34.000000,12.000000,21.000000,1.000000,5.000000,-50.000000,-9.000000
1295456.214118,14.000000,-10.000000,-5.000000,-27.000000,-10.000000,1.000000,78.000000,25.000000
1295456.215871,16.000000,-7.000000,-4.000000,-8.000000,-4.000000,-4.000000,-2.000000,2.000000
1295456.215880,-30.000000,-24.000000,-8.000000,26.000000,14.000000,-3.000000,-19.000000,7.000000
1295456.243693,14.000000,42.000000,3.000000,3.000000,-2.000000,-3.000000,-3.000000,-12.000000
1295456.243709,-24.000000,6.000000,14.000000,23.000000,8.000000,5.000000,-8.000000,-5.000000
1295456.244094,-19.000000,-91.000000,-30.000000,-38.000000,-23.000000,-16.000000,-61.000000,1.000000
1295456.244102,-16.000000,16.000000,24.000000,6.000000,6.000000,14.000000,82.000000,8.000000
1295456.245841,14.000000,-1.000000,-39.000000,-7.000000,2.000000,-1.000000,-6.000000,-1.000000
1295456.245855,-17.000000,-35.000000,4.000000,19.000000,0.000000,-14.000000,-5.000000,-5.000000
1295456.258890,46.000000,24.000000,7.000000,-6.000000,-4.000000,-2.000000,-29.000000,-9.000000
1295456.258902,2.000000,3.000000,-3.000000,8.000000,6.000000,18.000000,11.000000,1.000000
1295456.296346,-8.000000,-52.000000,-16.000000,-20.000000,-16.000000,-5.000000,17.000000,5.000000
1295456.296356,7.000000,-5.000000,-8.000000,-14.000000,-6.000000,-5.000000,-15.000000,0.000000
1295456.304082,7.000000,22.000000,27.000000,56.000000,23.000000,12.000000,6.000000,7.000000
1295456.304092,7.000000,1.000000,-4.000000,-15.000000,1.000000,-4.000000,-3.000000,1.000000
1295456.326137,-9.000000,-4.000000,7.000000,-2.000000,-10.000000,-12.000000,-15.000000,-13.000000
1295456.326159,10.000000,16.000000,-21.000000,-36.000000,-9.000000,4.000000,-1.000000,12.000000
1295456.326685,9.000000,-25.000000,9.000000,4.000000,8.000000,-1.000000,13.000000,-4.000000
1295456.326693,14.000000,-30.000000,-6.000000,-5.000000,-10.000000,0.000000,8.000000,17.000000
1295456.327913,13.000000,38.000000,-6.000000,-20.000000,-5.000000,-10.000000,-12.000000,-2.000000
1295456.327932,-25.000000,19.000000,-6.000000,-2.000000,-9.000000,2.000000,-15.000000,-17.000000
1295456.328459,46.000000,7.000000,0.000000,5.000000,-1.000000,-1.000000,-4.000000,-1.000000
1295456.328486,0.000000,50.000000,6.000000,-8.000000,-1.000000,4.000000,13.000000,6.000000
1295456.330089,26.000000,5.000000,6.000000,17.000000,7.000000,-3.000000,-7.000000,-7.000000
1295456.330107,-45.000000,16.000000,0.000000,-10.000000,-4.000000,-7.000000,-6.000000,-10.000000
1295456.333944,9.000000,2.000000,0.000000,20.000000,16.000000,3.000000,5.000000,8.000000
1295456.333973,-8.000000,5.000000,9.000000,14.000000,6.000000,6.000000,-4.000000,-11.000000
1295456.364982,11.000000,-1.000000,-8.000000,-11.000000,-4.000000,3.000000,7.000000,11.000000
1295456.365037,-4.000000,-8.000000,-13.000000,-14.000000,0.000000,-5.000000,-21.000000,-2.000000
1295456.365436,-4.000000,-2.000000,-6.000000,0.000000,-6.000000,-22.000000,9.000000,-8.000000
1295456.365445,0.000000,7.000000,16.000000,36.000000,17.000000,23.000000,22.000000,6.000000
1295456.378646,-12.000000,3.000000,-9.000000,-1.000000,0.000000,-1.000000,-19.000000,-6.000000
1295456.378656,7.000000,-33.000000,-1.000000,1.000000,2.000000,2.000000,9.000000,4.000000
1295456.393819,13.000000,57.000000,6.000000,-28.000000,-7.000000,4.000000,-7.000000,-2.000000
1295456.393847,-28.000000,-20.000000,4.000000,11.000000,3.000000,-5.000000,-16.000000,-8.000000
1295456.409128,-15.000000,-26.000000,-23.000000,-10.000000,-7.000000,-9.000000,-27.000000,-13.000000
1295456.409138,3.000000,18.000000,4.000000,-19.000000,-10.000000,-3.000000,37.000000,15.000000
1295456.431415,-12.000000,-54.000000,-3.000000,38.000000,10.000000,5.000000,-13.000000,0.000000
1295456.431425,1.000000,-3.000000,4.000000,-27.000000,-17.000000,-2.000000,10.000000,-7.000000
1295456.454406,6.000000,13.000000,6.000000,23.000000,18.000000,2.000000,7.000000,5.000000
1295456.454436,-16.000000,13.000000,2.000000,-2.000000,-2.000000,1.000000,-14.000000,-11.000000
1295456.454531,18.000000,19.000000,1.000000,-3.000000,8.000000,17.000000,13.000000,3.000000
1295456.454535,-29.000000,-41.000000,-11.000000,5.000000,-11.000000,-20.000000,-8.000000,1.000000
1295456.455483,23.000000,44.000000,26.000000,15.000000,6.000000,6.000000,23.000000,5.000000
1295456.455494,-8.000000,-18.000000,1.000000,-23.000000,-4.000000,4.000000,-8.000000,-8.000000
1295456.456069,5.000000,-7.000000,-9.000000,-13.000000,-6.000000,-8.000000,15.000000,-7.000000
1295456.456077,-54.000000,-37.000000,0.000000,1.000000,0.000000,-1.000000,-20.000000,-11.000000
1295456.456923,26.000000,-30.000000,1.000000,0.000000,-3.000000,5.000000,19.000000,10.000000
1295456.456931,-50.000000,-31.000000,-9.000000,-11.000000,6.000000,-3.000000,1.000000,-7.000000
1295456.506274,13.000000,2.000000,9.000000,23.000000,5.000000,5.000000,-8.000000,-6.000000
1295456.506284,-50.000000,-26.000000,1.000000,-19.000000,-12.000000,-8.000000,-19.000000,-3.000000
1295456.521248,0.000000,20.000000,-3.000000,0.000000,3.000000,-2.000000,15.000000,-3.000000
1295456.521258,5.000000,-19.000000,-17.000000,-30.000000,-13.000000,-7.000000,2.000000,-4.000000
1295456.536540,-18.000000,-22.000000,-6.000000,11.000000,-3.000000,2.000000,-38.000000,-8.000000
1295456.536553,13.000000,35.000000,7.000000,-2.000000,-9.000000,-12.000000,5.000000,17.000000
1295456.544144,-1.000000,-24.000000,-5.000000,-5.000000,0.000000,-4.000000,40.000000,6.000000
1295456.544157,-11.000000,-13.000000,-7.000000,-13.000000,-2.000000,-4.000000,-27.000000,-12.000000
1295456.558734,-36.000000,-10.000000,-5.000000,-5.000000,2.000000,1.000000,-39.000000,-23.000000
1295456.558751,36.000000,37.000000,6.000000,2.000000,0.000000,8.000000,54.000000,18.000000
1295456.573661,36.000000,35.000000,1.000000,-35.000000,-12.000000,-12.000000,-23.000000,0.000000
1295456.573671,-43.000000,-47.000000,6.000000,55.000000,27.000000,8.000000,7.000000,4.000000
1295456.581657,-12.000000,-19.000000,-12.000000,-23.000000,-5.000000,5.000000,-18.000000,-10.000000
1295456.581689,12.000000,-13.000000,-9.000000,20.000000,2.000000,-7.000000,-7.000000,3.000000
1295456.597140,-4.000000,-1.000000,1.000000,5.000000,3.000000,-4.000000,-43.000000,0.000000
1295456.597167,10.000000,59.000000,5.000000,-7.000000,-6.000000,-6.000000,46.000000,-3.000000
1295456.611286,11.000000,-12.000000,6.000000,-12.000000,-4.000000,-2.000000,-17.000000,2.000000
1295456.611296,-36.000000,-7.000000,-3.000000,11.000000,4.000000,9.000000,20.000000,3.000000
1295456.626291,26.000000,25.000000,3.000000,15.000000,18.000000,13.000000,-6.000000,-2.000000
1295456.626301,-1.000000,-23.000000,-3.000000,7.000000,0.000000,-24.000000,-41.000000,-7.000000
1295456.649518,-19.000000,-27.000000,-31.000000,-21.000000,-3.000000,7.000000,16.000000,15.000000
1295456.649529,15.000000,-22.000000,1.000000,7.000000,-5.000000,1.000000,-4.000000,5.000000
1295456.671200,2.000000,18.000000,4.000000,2.000000,-7.000000,-3.000000,-10.000000,-10.000000
1295456.671210,-6.000000,-11.000000,-11.000000,9.000000,-3.000000,-6.000000,-16.000000,-9.000000
1295456.693714,-14.000000,8.000000,-15.000000,7.000000,4.000000,5.000000,15.000000,-1.000000
1295456.693743,12.000000,13.000000,-11.000000,0.000000,-7.000000,-2.000000,-15.000000,4.000000
1295456.694876,-9.000000,1.000000,-4.000000,-25.000000,-12.000000,-1.000000,-2.000000,-1.000000
1295456.694885,-3.000000,-21.000000,-4.000000,14.000000,8.000000,1.000000,-52.000000,-21.000000
1295456.695618,-20.000000,-16.000000,-24.000000,-36.000000,-10.000000,3.000000,30.000000,0.000000
1295456.695646,20.000000,44.000000,48.000000,54.000000,22.000000,8.000000,15.000000,17.000000
1295456.696314,-17.000000,15.000000,-14.000000,-20.000000,-13.000000,-3.000000,-4.000000,-8.000000
1295456.696324,10.000000,-3.000000,2.000000,34.000000,20.000000,11.000000,11.000000,4.000000
1295456.697179,1.000000,1.000000,-12.000000,-42.000000,-17.000000,-11.000000,-17.000000,-5.000000
1295456.697207,-7.000000,13.000000,2.000000,-2.000000,5.000000,5.000000,4.000000,-2.000000
1295456.731359,-5.000000,8.000000,11.000000,-14.000000,-6.000000,-1.000000,-2.000000,-2.000000
1295456.731372,12.000000,8.000000,-10.000000,-12.000000,-8.000000,-8.000000,-14.000000,-10.000000
1295456.761233,4.000000,-10.000000,12.000000,28.000000,13.000000,3.000000,0.000000,1.000000
1295456.761254,-4.000000,-3.000000,-3.000000,11.000000,-5.000000,0.000000,-4.000000,0.000000
1295456.783874,-7.000000,-11.000000,5.000000,3.000000,-6.000000,-6.000000,-20.000000,-8.000000
1295456.783889,8.000000,-11.000000,-7.000000,-7.000000,-8.000000,-6.000000,-2.000000,-5.000000
1295456.798835,-6.000000,-26.000000,-18.000000,-22.000000,-11.000000,-7.000000,9.000000,1.000000
1295456.798846,7.000000,35.000000,26.000000,27.000000,13.000000,4.000000,3.000000,3.000000
1295456.813733,4.000000,8.000000,5.000000,16.000000,15.000000,4.000000,-8.000000,-7.000000
1295456.813744,-18.000000,-22.000000,-14.000000,-21.000000,-5.000000,-14.000000,-10.000000,-12.000000
1295456.836258,6.000000,0.000000,-8.000000,-8.000000,-6.000000,-4.000000,-35.000000,5.000000
1295456.836297,17.000000,-8.000000,-2.000000,39.000000,31.000000,22.000000,78.000000,18.000000
1295456.843807,-7.000000,2.000000,-1.000000,8.000000,-3.000000,-3.000000,-36.000000,-8.000000
1295456.843823,2.000000,10.000000,3.000000,-27.000000,-9.000000,0.000000,7.000000,-5.000000
1295456.851229,-6.000000,-75.000000,-24.000000,1.000000,5.000000,-2.000000,26.000000,-1.000000
1295456.851240,0.000000,39.000000,2.000000,-17.000000,-5.000000,2.000000,-13.000000,-8.000000
1295456.881757,-7.000000,-59.000000,-7.000000,-11.000000,-4.000000,1.000000,14.000000,3.000000
1295456.881768,1.000000,-12.000000,-19.000000,-47.000000,-16.000000,-10.000000,-25.000000,-6.000000
1295456.918899,17.000000,-20.000000,-16.000000,-23.000000,-8.000000,-4.000000,9.000000,10.000000
1295456.918991,-1.000000,-7.000000,14.000000,32.000000,11.000000,2.000000,1.000000,6.000000
1295456.919333,64.000000,23.000000,9.000000,14.000000,0.000000,2.000000,18.000000,10.000000
1295456.919341,-21.000000,-19.000000,0.000000,15.000000,7.000000,0.000000,30.000000,6.000000
1295456.920408,2.000000,-44.000000,-39.000000,-51.000000,-12.000000,-1.000000,-18.000000,-6.000000
1295456.920435,-4.000000,3.000000,6.000000,26.000000,10.000000,5.000000,-24.000000,-4.000000
1295456.921245,-1.000000,11.000000,8.000000,8.000000,3.000000,5.000000,21.000000,-5.000000
1295456.921272,12.000000,10.000000,-18.000000,-23.000000,-13.000000,-10.000000,6.000000,5.000000
1295456.922808,26.000000,17.000000,11.000000,21.000000,9.000000,-4.000000,-18.000000,-4.000000
1295456.922817,9.000000,24.000000,4.000000,-8.000000,-8.000000,-2.000000,-4.000000,-8.000000
1295456.926330,-13.000000,28.000000,30.000000,45.000000,2.000000,-7.000000,14.000000,-1.000000
1295456.926359,-5.000000,-29.000000,-9.000000,-18.000000,-1.000000,6.000000,-14.000000,0.000000
1295456.934167,-18.000000,24.000000,5.000000,0.000000,-2.000000,-3.000000,5.000000,-5.000000
1295456.934186,10.000000,-22.000000,-15.000000,15.000000,-1.000000,-3.000000,-2.000000,5.000000
1295456.949553,-29.000000,-30.000000,5.000000,-42.000000,-8.000000,9.000000,9.000000,-9.000000
1295456.949587,14.000000,6.000000,-38.000000,-39.000000,-12.000000,-12.000000,-9.000000,-4.000000
1295456.956408,-11.000000,1.000000,53.000000,50.000000,0.000000,-3.000000,25.000000,9.000000
1295456.956434,9.000000,41.000000,-8.000000,-35.000000,-13.000000,-2.000000,28.000000,5.000000
1295456.971390,15.000000,-39.000000,-12.000000,-14.000000,2.000000,-5.000000,-21.000000,-1.000000
1295456.971401,-4.000000,17.000000,3.000000,15.000000,2.000000,-4.000000,-78.000000,-21.000000
1295456.986438,-13.000000,-23.000000,-7.000000,2.000000,-8.000000,0.000000,59.000000,5.000000
1295456.986449,16.000000,-8.000000,3.000000,-24.000000,-4.000000,3.000000,25.000000,19.000000
1295457.008922,3.000000,-5.000000,-12.000000,-14.000000,-5.000000,-6.000000,-19.000000,-9.000000
1295457.008932,-26.000000,10.000000,-5.000000,11.000000,5.000000,-1.000000,-23.000000,-16.000000
1295457.038566,10.000000,7.000000,-26.000000,-17.000000,-11.000000,-12.000000,-22.000000,-7.000000
1295457.038579,-8.000000,-37.000000,27.000000,9.000000,-5.000000,0.000000,27.000000,14.000000
1295457.039739,2.000000,24.000000,1.000000,-1.000000,10.000000,9.000000,8.000000,6.000000
1295457.039751,15.000000,-23.000000,-8.000000,-14.000000,-11.000000,-8.000000,-14.000000,-10.000000
1295457.040385,-53.000000,-41.000000,-32.000000,-50.000000,-20.000000,-10.000000,2.000000,-9.000000
1295457.040403,8.000000,4.000000,35.000000,30.000000,8.000000,3.000000,-10.000000,6.000000
1295457.041600,-26.000000,-25.000000,-5.000000,9.000000,-1.000000,-5.000000,-1.000000,-8.000000
1295457.041609,-17.000000,-47.000000,-16.000000,-15.000000,-5.000000,-7.000000,-16.000000,-11.000000
1295457.042396,3.000000,6.000000,-4.000000,-7.000000,-11.000000,-3.000000,-10.000000,-1.000000
1295457.042404,9.000000,10.000000,-6.000000,5.000000,1.000000,1.000000,-17.000000,-5.000000
1295457.045945,6.000000,-3.000000,0.000000,3.000000,1.000000,7.000000,45.000000,15.000000
1295457.045955,10.000000,16.000000,6.000000,-15.000000,-1.000000,-3.000000,-4.000000,6.000000
1295457.076224,-1.000000,24.000000,-1.000000,14.000000,6.000000,7.000000,-24.000000,-13.000000
1295457.076234,-9.000000,-13.000000,-14.000000,-5.000000,-11.000000,-4.000000,-16.000000,-8.000000
1295457.113909,6.000000,-51.000000,-11.000000,-16.000000,3.000000,0.000000,24.000000,18.000000
1295457.113922,-34.000000,-15.000000,8.000000,15.000000,3.000000,1.000000,13.000000,3.000000
1295457.121328,1.000000,20.000000,1.000000,-16.000000,-1.000000,-1.000000,-16.000000,-19.000000
1295457.121338,-19.000000,-39.000000,-31.000000,-19.000000,-12.000000,-3.000000,-28.000000,-18.000000
1295457.158870,32.000000,21.000000,37.000000,20.000000,-2.000000,0.000000,43.000000,33.000000
1295457.158907,0.000000,-16.000000,-3.000000,10.000000,16.000000,8.000000,24.000000,11.000000
1295457.159275,-10.000000,-40.000000,-8.000000,-3.000000,-6.000000,-6.000000,-20.000000,-11.000000
1295457.159303,-10.000000,-15.000000,-12.000000,-9.000000,-6.000000,-11.000000,-20.000000,-12.000000
1295457.160406,10.000000,2.000000,-5.000000,-11.000000,5.000000,5.000000,4.000000,-2.000000
1295457.160415,-1.000000,31.000000,13.000000,11.000000,-7.000000,-10.000000,-52.000000,-12.000000
1295457.161126,-36.000000,-23.000000,-12.000000,-7.000000,2.000000,11.000000,-12.000000,-6.000000
1295457.161134,6.000000,31.000000,23.000000,26.000000,6.000000,4.000000,19.000000,3.000000
1295457.162664,14.000000,-18.000000,6.000000,9.000000,4.000000,1.000000,0.000000,13.000000
1295457.162673,-11.000000,-31.000000,-14.000000,-22.000000,-13.000000,-9.000000,-29.000000,-10.000000
1295457.166273,-15.000000,-62.000000,-20.000000,-21.000000,-6.000000,0.000000,-3.000000,-1.000000
1295457.166283,42.000000,66.000000,-5.000000,-2.000000,1.000000,-14.000000,-3.000000,-11.000000
1295457.196826,-15.000000,12.000000,24.000000,19.000000,-9.000000,-11.000000,-30.000000,-11.000000
1295457.196855,8.000000,-42.000000,-21.000000,-35.000000,1.000000,1.000000,3.000000,3.000000
1295457.211551,1.000000,17.000000,15.000000,17.000000,4.000000,11.000000,35.000000,9.000000
1295457.211606,-16.000000,-4.000000,-6.000000,-9.000000,-1.000000,4.000000,-8.000000,-7.000000
1295457.218674,-27.000000,11.000000,2.000000,-4.000000,-11.000000,-9.000000,-14.000000,-13.000000
1295457.218685,28.000000,48.000000,6.000000,1.000000,-1.000000,-3.000000,12.000000,1.000000
1295457.233712,-5.000000,4.000000,-7.000000,-9.000000,-6.000000,-5.000000,-7.000000,-8.000000
1295457.233723,-8.000000,-8.000000,-12.000000,4.000000,-1.000000,-2.000000,7.000000,-15.000000
1295457.248928,13.000000,-10.000000,-5.000000,12.000000,-8.000000,-1.000000,-56.000000,4.000000
1295457.248941,-35.000000,-25.000000,-1.000000,-11.000000,-2.000000,-2.000000,75.000000,9.000000
1295457.279279,4.000000,8.000000,-19.000000,-13.000000,-1.000000,-1.000000,-15.000000,3.000000
1295457.279306,-23.000000,-10.000000,-4.000000,-36.000000,-27.000000,-26.000000,-54.000000,-21.000000
1295457.280007,5.000000,16.000000,30.000000,-4.000000,10.000000,16.000000,15.000000,11.000000
1295457.280018,41.000000,11.000000,-4.000000,0.000000,0.000000,-2.000000,16.000000,17.000000
1295457.281788,-46.000000,-17.000000,-4.000000,-15.000000,-10.000000,-6.000000,-10.000000,-19.000000
1295457.281856,0.000000,-23.000000,-3.000000,10.000000,14.000000,1.000000,-14.000000,-17.000000
1295457.281968,-9.000000,21.000000,-10.000000,-2.000000,-4.000000,-5.000000,-36.000000,-12.000000
1295457.281974,19.000000,14.000000,6.000000,7.000000,6.000000,8.000000,49.000000,23.000000
1295457.282633,3.000000,-25.000000,0.000000,-20.000000,-3.000000,11.000000,33.000000,11.000000
1295457.282641,6.000000,14.000000,-13.000000,-5.000000,-14.000000,-23.000000,-32.000000,-10.000000
1295457.286533,12.000000,17.000000,-3.000000,-9.000000,-10.000000,-18.000000,-20.000000,-8.000000
1295457.286544,24.000000,59.000000,34.000000,38.000000,20.000000,10.000000,49.000000,16.000000
1295457.301191,1.000000,-38.000000,-32.000000,-36.000000,-10.000000,-8.000000,5.000000,0.000000
1295457.301202,-7.000000,-17.000000,-3.000000,9.000000,3.000000,-7.000000,-2.000000,-1.000000
1295457.323700,-17.000000,-13.000000,-8.000000,-1.000000,-5.000000,4.000000,-3.000000,-12.000000
1295457.323712,-17.000000,10.000000,11.000000,4.000000,2.000000,0.000000,-42.000000,-20.000000
1295457.338872,-19.000000,-8.000000,-5.000000,-12.000000,-14.000000,-14.000000,8.000000,10.000000
1295457.338883,12.000000,-1.000000,-4.000000,-11.000000,-17.000000,-7.000000,12.000000,7.000000
1295457.368639,-10.000000,-43.000000,-12.000000,2.000000,-2.000000,-7.000000,7.000000,2.000000
1295457.368649,28.000000,48.000000,7.000000,-28.000000,-3.000000,5.000000,-3.000000,-3.000000
1295457.391582,-30.000000,-60.000000,-11.000000,-1.000000,-27.000000,-28.000000,-45.000000,-16.000000
1295457.391611,25.000000,17.000000,5.000000,4.000000,7.000000,15.000000,56.000000,23.000000
1295457.406124,-23.000000,-10.000000,-16.000000,-4.000000,5.000000,-3.000000,-12.000000,-12.000000
1295457.406134,15.000000,11.000000,1.000000,3.000000,-4.000000,0.000000,0.000000,-3.000000
1295457.413690,-2.000000,10.000000,1.000000,7.000000,7.000000,0.000000,34.000000,8.000000
1295457.413700,17.000000,21.000000,9.000000,-9.000000,-7.000000,-1.000000,-1.000000,-3.000000
1295457.436784,-64.000000,-8.000000,-3.000000,-24.000000,-7.000000,6.000000,10.000000,-4.000000
1295457.436793,5.000000,-30.000000,-10.000000,-7.000000,-11.000000,-14.000000,-18.000000,-13.000000
1295457.444168,15.000000,-29.000000,-9.000000,-50.000000,-16.000000,-6.000000,-10.000000,4.000000
1295457.444177,-26.000000,-23.000000,-5.000000,18.000000,10.000000,6.000000,-31.000000,-11.000000
1295457.473832,1.000000,23.000000,12.000000,22.000000,5.000000,4.000000,82.000000,18.000000
1295457.473843,7.000000,-41.000000,6.000000,11.000000,13.000000,6.000000,-13.000000,7.000000
1295457.481614,-15.000000,25.000000,2.000000,-10.000000,-7.000000,-14.000000,-44.000000,-20.000000
1295457.481642,3.000000,-11.000000,-19.000000,-8.000000,-7.000000,-13.000000,5.000000,-5.000000
1295457.504299,-1.000000,-12.000000,4.000000,15.000000,10.000000,8.000000,39.000000,0.000000
1295457.504451,-18.000000,-6.000000,-27.000000,-33.000000,-10.000000,-9.000000,-38.000000,9.000000
1295457.504720,34.000000,-1.000000,-13.000000,-21.000000,-12.000000,-13.000000,-31.000000,-7.000000
1295457.504736,-4.000000,-3.000000,-7.000000,0.000000,0.000000,1.000000,1.000000,-8.000000
1295457.505156,6.000000,23.000000,10.000000,10.000000,10.000000,16.000000,13.000000,3.000000
1295457.505183,-7.000000,5.000000,1.000000,17.000000,-5.000000,-7.000000,-7.000000,-6.000000
1295457.506195,17.000000,-2.000000,-3.000000,3.000000,6.000000,0.000000,37.000000,25.000000
1295457.506202,3.000000,-12.000000,3.000000,-32.000000,-19.000000,-5.000000,-31.000000,-12.000000
1295457.506849,6.000000,12.000000,10.000000,10.000000,15.000000,1.000000,-18.000000,-14.000000
1295457.506856,11.000000,-38.000000,-38.000000,-29.000000,-19.000000,-11.000000,-12.000000,-5.000000
1295457.507725,5.000000,31.000000,17.000000,-7.000000,-9.000000,-3.000000,-23.000000,-5.000000
1295457.507747,-35.000000,-26.000000,-20.000000,-13.000000,4.000000,6.000000,10.000000,-6.000000
1295457.518459,-8.000000,-19.000000,-18.000000,-40.000000,-21.000000,-28.000000,-9.000000,-1.000000
1295457.518468,26.000000,39.000000,11.000000,-3.000000,8.000000,10.000000,48.000000,22.000000
1295457.526102,-5.000000,-20.000000,-8.000000,-25.000000,-10.000000,-1.000000,-10.000000,-8.000000
1295457.526111,-43.000000,-36.000000,-10.000000,-28.000000,-6.000000,-3.000000,-50.000000,-12.000000
1295457.541586,24.000000,33.000000,1.000000,-3.000000,-6.000000,-3.000000,9.000000,0.000000
1295457.541597,-31.000000,-25.000000,9.000000,29.000000,21.000000,14.000000,25.000000,9.000000
1295457.556180,-1.000000,-13.000000,-1.000000,-23.000000,-18.000000,-4.000000,-8.000000,-5.000000
1295457.556190,-3.000000,-3.000000,5.000000,-6.000000,3.000000,1.000000,-1.000000,-5.000000
1295457.563728,19.000000,9.000000,-24.000000,-21.000000,-10.000000,-2.000000,5.000000,5.000000
1295457.563747,-3.000000,-11.000000,11.000000,26.000000,12.000000,5.000000,-5.000000,8.000000
1295457.601381,18.000000,-24.000000,-24.000000,-42.000000,-16.000000,-4.000000,19.000000,0.000000
1295457.601392,-22.000000,16.000000,20.000000,46.000000,20.000000,5.000000,-10.000000,-5.000000
1295457.616264,12.000000,-19.000000,9.000000,15.000000,7.000000,3.000000,-39.000000,-5.000000
1295457.616274,-12.000000,-10.000000,-18.000000,-21.000000,-6.000000,-7.000000,53.000000,15.000000
1295457.631709,-11.000000,-26.000000,-8.000000,8.000000,-2.000000,6.000000,-15.000000,-5.000000
1295457.631724,5.000000,22.000000,-3.000000,-3.000000,-8.000000,-12.000000,9.000000,-5.000000
1295457.632285,-17.000000,-12.000000,-5.000000,-7.000000,2.000000,-4.000000,14.000000,2.000000
1295457.632295,-14.000000,28.000000,3.000000,0.000000,-8.000000,-7.000000,-91.000000,-25.000000
1295457.633602,31.000000,19.000000,7.000000,46.000000,20.000000,31.000000,118.000000,37.000000
1295457.633612,-31.000000,6.000000,1.000000,-6.000000,-7.000000,-10.000000,-16.000000,8.000000
1295457.634265,-2.000000,-6.000000,-5.000000,11.000000,1.000000,0.000000,-13.000000,-14.000000
1295457.634275,-7.000000,-4.000000,0.000000,-2.000000,-11.000000,6.000000,-13.000000,-6.000000
1295457.635117,8.000000,6.000000,11.000000,5.000000,-16.000000,-23.000000,-13.000000,-11.000000
1295457.635127,-31.000000,-13.000000,-19.000000,-7.000000,-1.000000,2.000000,7.000000,14.000000
1295457.638488,13.000000,11.000000,-11.000000,-34.000000,-11.000000,-14.000000,-3.000000,-8.000000
1295457.638499,-5.000000,2.000000,1.000000,15.000000,13.000000,10.000000,8.000000,5.000000
1295457.646167,-9.000000,18.000000,-2.000000,-4.000000,2.000000,6.000000,37.000000,3.000000
1295457.646179,-6.000000,-17.000000,1.000000,13.000000,0.000000,-6.000000,-31.000000,-5.000000
1295457.653804,5.000000,19.000000,0.000000,13.000000,3.000000,7.000000,-47.000000,-10.000000
1295457.653817,21.000000,-5.000000,7.000000,3.000000,-4.000000,2.000000,64.000000,27.000000
1295457.676677,-4.000000,-3.000000,-14.000000,-27.000000,-10.000000,-9.000000,-22.000000,-14.000000
1295457.676690,20.000000,23.000000,11.000000,43.000000,22.000000,15.000000,0.000000,8.000000
1295457.683968,-7.000000,11.000000,-2.000000,-11.000000,1.000000,4.000000,15.000000,-4.000000
1295457.683981,-2.000000,-15.000000,-9.000000,-6.000000,-5.000000,-2.000000,-11.000000,-1.000000
1295457.721628,2.000000,20.000000,-21.000000,-24.000000,-9.000000,-18.000000,-58.000000,-9.000000
1295457.721640,-2.000000,21.000000,52.000000,84.000000,20.000000,20.000000,66.000000,3.000000
1295457.729155,4.000000,-9.000000,-10.000000,-24.000000,-7.000000,-2.000000,11.000000,10.000000
1295457.729183,-39.000000,-15.000000,-13.000000,-7.000000,1.000000,5.000000,-27.000000,-22.000000
1295457.751272,16.000000,47.000000,12.000000,5.000000,-1.000000,-6.000000,-24.000000,2.000000
1295457.751288,-8.000000,-4.000000,-4.000000,13.000000,8.000000,3.000000,51.000000,5.000000
1295457.751667,8.000000,-15.000000,0.000000,0.000000,2.000000,10.000000,35.000000,15.000000
1295457.751686,-12.000000,2.000000,9.000000,12.000000,4.000000,0.000000,-14.000000,-10.000000
1295457.753024,15.000000,33.000000,-8.000000,-4.000000,-3.000000,-3.000000,-21.000000,-15.000000
1295457.753040,-16.000000,-31.000000,-2.000000,-25.000000,-18.000000,-11.000000,-18.000000,-9.000000
1295457.753729,-8.000000,20.000000,6.000000,7.000000,7.000000,10.000000,3.000000,3.000000
1295457.753741,19.000000,35.000000,-3.000000,3.000000,10.000000,2.000000,-3.000000,-4.000000
1295457.754554,7.000000,-11.000000,18.000000,16.000000,6.000000,6.000000,56.000000,25.000000
1295457.754563,29.000000,15.000000,-22.000000,-16.000000,-11.000000,-13.000000,-32.000000,5.000000
1295457.758695,-14.000000,8.000000,-4.000000,14.000000,5.000000,1.000000,12.000000,0.000000
1295457.758705,17.000000,42.000000,0.000000,10.000000,1.000000,10.000000,13.000000,0.000000
1295457.766290,-8.000000,-32.000000,9.000000,8.000000,3.000000,-2.000000,-72.000000,-7.000000
1295457.766300,4.000000,35.000000,2.000000,-22.000000,-5.000000,-1.000000,73.000000,12.000000
1295457.781507,-19.000000,-52.000000,15.000000,26.000000,13.000000,6.000000,-5.000000,-6.000000
1295457.781536,5.000000,10.000000,-17.000000,-28.000000,-11.000000,-5.000000,1.000000,4.000000
1295457.788919,-17.000000,8.000000,-5.000000,-17.000000,-10.000000,-6.000000,-22.000000,-16.000000
1295457.788937,-19.000000,4.000000,20.000000,31.000000,22.000000,2.000000,-36.000000,-9.000000
1295457.796655,4.000000,-2.000000,-23.000000,-16.000000,-3.000000,7.000000,56.000000,22.000000
1295457.796692,16.000000,-2.000000,-4.000000,-5.000000,-12.000000,0.000000,10.000000,10.000000
1295457.818782,5.000000,23.000000,11.000000,10.000000,4.000000,4.000000,6.000000,-4.000000
1295457.818793,-27.000000,-16.000000,-9.000000,-31.000000,0.000000,5.000000,-48.000000,-9.000000
1295457.834123,-1.000000,-5.000000,-6.000000,-4.000000,4.000000,5.000000,33.000000,9.000000
1295457.834172,1.000000,24.000000,1.000000,3.000000,-3.000000,2.000000,-14.000000,-18.000000
1295457.856482,-13.000000,13.000000,5.000000,-10.000000,-14.000000,-9.000000,-3.000000,-7.000000
1295457.856506,-17.000000,-13.000000,8.000000,7.000000,0.000000,2.000000,30.000000,13.000000
1295457.871619,2.000000,-32.000000,1.000000,6.000000,5.000000,10.000000,10.000000,0.000000
1295457.871737,1.000000,6.000000,-4.000000,-7.000000,2.000000,-2.000000,-59.000000,-11.000000
1295457.872330,2.000000,-3.000000,-7.000000,-14.000000,-17.000000,-7.000000,46.000000,3.000000
1295457.872338,14.000000,-3.000000,7.000000,13.000000,15.000000,-4.000000,-20.000000,-3.000000
1295457.872943,-15.000000,3.000000,-7.000000,-1.000000,-7.000000,3.000000,26.000000,9.000000
1295457.872965,4.000000,2.000000,0.000000,-8.000000,-4.000000,-2.000000,10.000000,16.000000
1295457.874609,-24.000000,-42.000000,-17.000000,-10.000000,-9.000000,-10.000000,-53.000000,-21.000000
1295457.874618,17.000000,60.000000,3.000000,-6.000000,-10.000000,-9.000000,-34.000000,-19.000000
1295457.878669,-27.000000,-33.000000,-7.000000,19.000000,7.000000,6.000000,81.000000,16.000000
1295457.878681,-9.000000,8.000000,0.000000,-4.000000,2.000000,-1.000000,-14.000000,2.000000
1295457.908924,-1.000000,-23.000000,-4.000000,-10.000000,0.000000,-9.000000,-37.000000,-3.000000
1295457.908934,-7.000000,18.000000,20.000000,31.000000,6.000000,-3.000000,6.000000,4.000000
1295457.923862,-8.000000,-40.000000,-17.000000,-22.000000,-9.000000,3.000000,8.000000,1.000000
1295457.923875,-1.000000,14.000000,5.000000,-7.000000,-3.000000,0.000000,-1.000000,-6.000000
1295457.946560,9.000000,4.000000,1.000000,8.000000,8.000000,4.000000,-14.000000,-11.000000
1295457.946574,-1.000000,-12.000000,-9.000000,-14.000000,-15.000000,-11.000000,8.000000,0.000000
1295457.953770,-5.000000,-6.000000,2.000000,14.000000,4.000000,2.000000,21.000000,16.000000
1295457.953784,1.000000,21.000000,11.000000,10.000000,4.000000,3.000000,-4.000000,-7.000000
1295457.954812,-3.000000,-6.000000,-6.000000,-4.000000,0.000000,-4.000000,-1.000000,-3.000000
1295457.954822,17.000000,44.000000,-1.000000,-8.000000,0.000000,2.000000,9.000000,4.000000
1295457.955424,-28.000000,-38.000000,4.000000,-1.000000,-8.000000,-3.000000,0.000000,-8.000000
1295457.955433,7.000000,-12.000000,0.000000,4.000000,2.000000,4.000000,2.000000,11.000000
1295457.957411,4.000000,-21.000000,-19.000000,-26.000000,-8.000000,-1.000000,-7.000000,0.000000
1295457.957424,2.000000,13.000000,27.000000,29.000000,9.000000,-1.000000,-11.000000,2.000000
1295457.968864,1.000000,47.000000,-22.000000,-35.000000,-11.000000,-16.000000,62.000000,1.000000
1295457.968876,-6.000000,1.000000,24.000000,37.000000,15.000000,11.000000,-44.000000,-2.000000
1295457.991893,16.000000,-16.000000,-11.000000,-31.000000,-8.000000,3.000000,61.000000,16.000000
1295457.991921,1.000000,-26.000000,2.000000,28.000000,3.000000,-1.000000,-35.000000,0.000000
1295457.992817,5.000000,23.000000,10.000000,-15.000000,-5.000000,-7.000000,-37.000000,-17.000000
1295457.992858,11.000000,0.000000,0.000000,3.000000,10.000000,4.000000,3.000000,0.000000
1295458.000301,-7.000000,-20.000000,-21.000000,18.000000,-3.000000,-10.000000,-25.000000,-1.000000
1295458.000335,5.000000,-7.000000,8.000000,8.000000,-4.000000,-1.000000,12.000000,5.000000
1295458.007353,-9.000000,15.000000,8.000000,2.000000,1.000000,-1.000000,-85.000000,-30.000000
1295458.007381,-39.000000,-39.000000,-29.000000,-19.000000,-13.000000,-12.000000,83.000000,10.000000
1295458.030016,10.000000,-9.000000,1.000000,4.000000,3.000000,8.000000,14.000000,17.000000
1295458.030052,-7.000000,44.000000,20.000000,-24.000000,-5.000000,-8.000000,3.000000,-17.000000
1295458.037148,6.000000,-24.000000,-5.000000,-9.000000,-1.000000,-4.000000,7.000000,12.000000
1295458.037359,-32.000000,3.000000,-24.000000,-22.000000,-8.000000,-6.000000,-26.000000,-11.000000
1295458.059541,5.000000,12.000000,1.000000,16.000000,2.000000,-5.000000,-13.000000,-10.000000
1295458.059559,12.000000,1.000000,-9.000000,-29.000000,-8.000000,0.000000,2.000000,7.000000
1295458.066815,-24.000000,-53.000000,-5.000000,5.000000,-1.000000,-6.000000,-7.000000,-5.000000
1295458.066833,-18.000000,-5.000000,1.000000,10.000000,12.000000,10.000000,-11.000000,-14.000000
1295458.081744,-8.000000,-10.000000,-11.000000,-15.000000,-10.000000,-9.000000,-17.000000,-12.000000
1295458.081807,15.000000,20.000000,18.000000,17.000000,13.000000,10.000000,42.000000,36.000000
1295458.111402,1.000000,10.000000,6.000000,-20.000000,-1.000000,17.000000,31.000000,7.000000
1295458.111420,22.000000,16.000000,-8.000000,15.000000,3.000000,-8.000000,-45.000000,-15.000000
1295458.149005,-19.000000,-21.000000,6.000000,-2.000000,-6.000000,-8.000000,-3.000000,-18.000000
1295458.149015,2.000000,-11.000000,3.000000,10.000000,13.000000,11.000000,-6.000000,13.000000
1295458.171265,13.000000,21.000000,4.000000,10.000000,0.000000,2.000000,0.000000,-2.000000
1295458.171290,11.000000,10.000000,-8.000000,-14.000000,-8.000000,-5.000000,2.000000,1.000000
1295458.223851,-22.000000,-66.000000,20.000000,19.000000,1.000000,4.000000,48.000000,2.000000
1295458.223930,19.000000,17.000000,-2.000000,-14.000000,-7.000000,-11.000000,-41.000000,-5.000000
1295458.224229,-8.000000,28.000000,5.000000,12.000000,5.000000,0.000000,25.000000,1.000000
1295458.224237,6.000000,-56.000000,-15.000000,-21.000000,-7.000000,2.000000,38.000000,8.000000
1295458.224632,4.000000,-23.000000,-2.000000,-18.000000,-10.000000,-10.000000,27.000000,9.000000
1295458.224642,-12.000000,7.000000,-13.000000,-7.000000,-9.000000,-17.000000,-39.000000,-2.000000
1295458.225882,19.000000,7.000000,8.000000,0.000000,4.000000,3.000000,80.000000,18.000000
1295458.225890,32.000000,41.000000,22.000000,10.000000,8.000000,18.000000,3.000000,19.000000
1295458.226830,-23.000000,-12.000000,7.000000,-7.000000,-2.000000,6.000000,-44.000000,-13.000000
1295458.226839,19.000000,40.000000,33.000000,30.000000,20.000000,20.000000,38.000000,4.000000
1295458.231472,18.000000,-2.000000,1.000000,-2.000000,-6.000000,0.000000,-22.000000,-5.000000
1295458.231500,-11.000000,8.000000,-3.000000,-14.000000,-3.000000,-4.000000,-12.000000,-3.000000
1295458.239531,4.000000,11.000000,7.000000,9.000000,2.000000,3.000000,-15.000000,-14.000000
1295458.239540,-7.000000,-3.000000,-25.000000,-2.000000,-9.000000,-10.000000,1.000000,-2.000000
1295458.268864,5.000000,-20.000000,18.000000,-9.000000,-1.000000,-14.000000,11.000000,14.000000
1295458.268879,8.000000,11.000000,0.000000,15.000000,15.000000,7.000000,1.000000,-4.000000
1295458.306325,-9.000000,13.000000,2.000000,-4.000000,-4.000000,0.000000,4.000000,-5.000000
1295458.306356,-5.000000,-7.000000,1.000000,-3.000000,-6.000000,-6.000000,-8.000000,-6.000000
1295458.313776,1.000000,-9.000000,-8.000000,-3.000000,3.000000,-7.000000,-6.000000,-6.000000
1295458.313786,3.000000,15.000000,17.000000,5.000000,-14.000000,-5.000000,-4.000000,-1.000000
1295458.336575,-2.000000,4.000000,-13.000000,-14.000000,2.000000,7.000000,34.000000,16.000000
1295458.336585,-29.000000,-18.000000,13.000000,9.000000,1.000000,-3.000000,-17.000000,-5.000000
1295458.343990,7.000000,15.000000,-2.000000,3.000000,6.000000,8.000000,17.000000,-3.000000
1295458.344014,1.000000,-55.000000,10.000000,23.000000,17.000000,3.000000,45.000000,14.000000
1295458.358721,3.000000,-20.000000,-19.000000,-23.000000,-15.000000,-12.000000,-59.000000,-14.000000
1295458.358731,-22.000000,8.000000,5.000000,4.000000,3.000000,-15.000000,-24.000000,-22.000000
1295458.396396,9.000000,-23.000000,0.000000,-16.000000,-5.000000,4.000000,-12.000000,3.000000
1295458.396418,-2.000000,-10.000000,-7.000000,-1.000000,0.000000,-4.000000,-20.000000,-5.000000
1295458.426469,-12.000000,-42.000000,-16.000000,-13.000000,-4.000000,-5.000000,-4.000000,5.000000
1295458.426481,6.000000,13.000000,2.000000,8.000000,1.000000,-1.000000,0.000000,-5.000000
1295458.448661,1.000000,4.000000,-8.000000,-14.000000,-11.000000,-16.000000,18.000000,5.000000
1295458.448676,-28.000000,-12.000000,12.000000,38.000000,1.000000,7.000000,6.000000,3.000000
1295458.464367,4.000000,-19.000000,-1.000000,8.000000,10.000000,18.000000,57.000000,9.000000
1295458.464396,0.000000,-2.000000,-9.000000,-15.000000,-6.000000,2.000000,-14.000000,12.000000
1295458.465395,2.000000,-22.000000,-6.000000,5.000000,-1.000000,-1.000000,13.000000,2.000000
1295458.465402,-3.000000,-17.000000,-33.000000,-21.000000,-16.000000,-15.000000,-49.000000,-11.000000
1295458.466739,-6.000000,-17.000000,-16.000000,-27.000000,-6.000000,-18.000000,-65.000000,-21.000000
1295458.466747,-5.000000,26.000000,7.000000,6.000000,-4.000000,15.000000,104.000000,29.000000
1295458.471062,-11.000000,-7.000000,-9.000000,4.000000,-3.000000,-5.000000,-18.000000,-3.000000
1295458.471070,-15.000000,25.000000,36.000000,8.000000,3.000000,4.000000,-23.000000,-16.000000
1295458.479736,-17.000000,-15.000000,1.000000,-3.000000,-9.000000,0.000000,36.000000,-3.000000
1295458.479747,-3.000000,-28.000000,-27.000000,-2.000000,-3.000000,-6.000000,-2.000000,-5.000000
1295458.501383,7.000000,23.000000,10.000000,3.000000,-2.000000,7.000000,2.000000,2.000000
1295458.501406,20.000000,-9.000000,-14.000000,-9.000000,-6.000000,-8.000000,0.000000,7.000000
1295458.516477,-14.000000,-27.000000,-19.000000,5.000000,-1.000000,-10.000000,5.000000,-2.000000
1295458.516487,16.000000,44.000000,21.000000,11.000000,6.000000,-2.000000,-7.000000,-5.000000
1295458.524067,-32.000000,5.000000,-10.000000,-8.000000,-5.000000,0.000000,-59.000000,-15.000000
1295458.524080,4.000000,-7.000000,-22.000000,-48.000000,-12.000000,-11.000000,8.000000,-4.000000
1295458.546220,-7.000000,-81.000000,-1.000000,40.000000,7.000000,3.000000,54.000000,22.000000
1295458.546235,7.000000,54.000000,13.000000,9.000000,2.000000,13.000000,35.000000,9.000000
1295458.553561,-10.000000,-29.000000,-11.000000,-6.000000,-7.000000,-4.000000,0.000000,-9.000000
1295458.553569,0.000000,18.000000,3.000000,-8.000000,3.000000,4.000000,-33.000000,-3.000000
1295458.583769,43.000000,16.000000,-18.000000,-8.000000,-6.000000,-13.000000,-31.000000,-12.000000
1295458.583781,-76.000000,-86.000000,9.000000,13.000000,4.000000,4.000000,-29.000000,-6.000000
1295458.584014,-17.000000,-11.000000,8.000000,20.000000,2.000000,-1.000000,49.000000,9.000000
1295458.584022,1.000000,23.000000,13.000000,2.000000,8.000000,4.000000,-62.000000,-26.000000
1295458.585450,8.000000,-16.000000,-13.000000,-13.000000,-6.000000,4.000000,77.000000,17.000000
1295458.585459,12.000000,9.000000,8.000000,9.000000,10.000000,13.000000,80.000000,33.000000
1295458.586035,-21.000000,-1.000000,-2.000000,-19.000000,-5.000000,3.000000,-36.000000,-15.000000
1295458.586043,19.000000,31.000000,30.000000,55.000000,18.000000,6.000000,-29.000000,-9.000000
1295458.587453,2.000000,-19.000000,-25.000000,-16.000000,-12.000000,5.000000,14.000000,-11.000000
1295458.587462,-13.000000,-13.000000,10.000000,13.000000,-6.000000,-12.000000,-16.000000,11.000000
1295458.591157,16.000000,28.000000,15.000000,-3.000000,12.000000,19.000000,31.000000,10.000000
1295458.591179,8.000000,-6.000000,5.000000,10.000000,3.000000,6.000000,7.000000,4.000000
1295458.599160,-13.000000,-36.000000,5.000000,16.000000,4.000000,-7.000000,-30.000000,-17.000000
1295458.599182,1.000000,9.000000,-17.000000,-21.000000,-5.000000,9.000000,10.000000,-1.000000
1295458.613834,16.000000,12.000000,24.000000,-7.000000,-5.000000,-2.000000,73.000000,16.000000
1295458.613844,18.000000,1.000000,-21.000000,-13.000000,-4.000000,3.000000,-21.000000,6.000000
1295458.628703,3.000000,14.000000,34.000000,40.000000,17.000000,20.000000,33.000000,12.000000
1295458.628738,-7.000000,0.000000,-17.000000,-17.000000,-6.000000,-5.000000,-15.000000,-19.000000
1295458.636117,-11.000000,9.000000,12.000000,13.000000,-6.000000,-22.000000,-36.000000,-13.000000
1295458.636127,22.000000,23.000000,-5.000000,-11.000000,-9.000000,-9.000000,-3.000000,5.000000
1295458.666626,2.000000,7.000000,-2.000000,5.000000,0.000000,13.000000,20.000000,7.000000
1295458.666636,-10.000000,-10.000000,-3.000000,14.000000,13.000000,-14.000000,-50.000000,-18.000000
1295458.667336,-8.000000,-16.000000,5.000000,-1.000000,-11.000000,-13.000000,15.000000,8.000000
1295458.667344,13.000000,31.000000,9.000000,-7.000000,3.000000,11.000000,60.000000,18.000000
1295458.668884,-9.000000,25.000000,11.000000,12.000000,9.000000,2.000000,-41.000000,-13.000000
1295458.668933,8.000000,-33.000000,-8.000000,-29.000000,-12.000000,-11.000000,8.000000,-8.000000
1295458.673627,-2.000000,-7.000000,3.000000,11.000000,4.000000,7.000000,2.000000,11.000000
1295458.673641,0.000000,6.000000,4.000000,8.000000,3.000000,-5.000000,-24.000000,5.000000
1295458.704125,-5.000000,4.000000,-14.000000,-18.000000,-2.000000,0.000000,7.000000,-9.000000
1295458.704137,3.000000,-8.000000,-5.000000,0.000000,2.000000,-12.000000,-21.000000,-5.000000
1295458.711504,-7.000000,8.000000,10.000000,14.000000,5.000000,0.000000,-4.000000,-8.000000
1295458.711518,37.000000,-1.000000,-1.000000,-16.000000,-7.000000,-14.000000,28.000000,21.000000
1295458.741421,-18.000000,-20.000000,-5.000000,-5.000000,-1.000000,-2.000000,-37.000000,-15.000000
1295458.741434,21.000000,14.000000,-2.000000,14.000000,3.000000,6.000000,41.000000,8.000000
1295458.749100,-25.000000,-7.000000,0.000000,-30.000000,-10.000000,11.000000,45.000000,8.000000
1295458.749112,13.000000,-16.000000,4.000000,7.000000,0.000000,0.000000,-41.000000,-6.000000
1295458.786206,4.000000,4.000000,-12.000000,-1.000000,-8.000000,-2.000000,8.000000,-11.000000
1295458.786216,-12.000000,19.000000,11.000000,13.000000,15.000000,8.000000,-12.000000,0.000000
1295458.794074,-3.000000,-18.000000,-11.000000,-9.000000,-7.000000,-2.000000,4.000000,-3.000000
1295458.794085,-1.000000,-7.000000,-6.000000,5.000000,-1.000000,-5.000000,-64.000000,-16.000000
1295458.824474,-19.000000,12.000000,-27.000000,-53.000000,-10.000000,12.000000,84.000000,17.000000
1295458.824491,10.000000,-13.000000,64.000000,100.000000,28.000000,5.000000,10.000000,10.000000
1295458.825832,-3.000000,0.000000,2.000000,13.000000,1.000000,0.000000,26.000000,-1.000000
1295458.825857,18.000000,25.000000,-2.000000,0.000000,-1.000000,4.000000,-8.000000,0.000000
1295458.831660,-14.000000,-40.000000,-10.000000,-13.000000,-7.000000,2.000000,60.000000,3.000000
1295458.831705,3.000000,21.000000,-9.000000,-2.000000,-7.000000,-7.000000,-19.000000,-9.000000
1295458.839493,-31.000000,-25.000000,-3.000000,7.000000,6.000000,10.000000,-9.000000,-5.000000
1295458.839502,20.000000,26.000000,5.000000,-1.000000,-5.000000,0.000000,8.000000,14.000000
