# participant_id: P5
# gesture: soft
# trial_number: 1
# stream_name: Myo_EMG
# stream_type: emg
# timestamp: 20260420_135846
# samples: 5802
# duration_sec: 30.697
# nominal_sample_rate: 200.0
# effective_sample_rate: 188.97
#
timestamp,emg_1,emg_2,emg_3,emg_4,emg_5,emg_6,emg_7,emg_8
1298217.966605,42.000000,6.000000,-10.000000,9.000000,6.000000,13.000000,16.000000,18.000000
1298217.966935,-27.000000,-11.000000,-3.000000,-25.000000,-19.000000,-40.000000,-29.000000,-34.000000
1298217.968507,3.000000,0.000000,33.000000,-5.000000,0.000000,-5.000000,-6.000000,-11.000000
1298217.968556,-22.000000,4.000000,9.000000,20.000000,11.000000,18.000000,6.000000,-4.000000
1298217.969278,1.000000,-6.000000,11.000000,-4.000000,0.000000,-10.000000,-7.000000,9.000000
1298217.969299,22.000000,17.000000,34.000000,12.000000,8.000000,-14.000000,-13.000000,1.000000
1298217.974803,-18.000000,-24.000000,-42.000000,-21.000000,-19.000000,-6.000000,-15.000000,-24.000000
1298217.974844,-76.000000,-17.000000,-4.000000,-19.000000,6.000000,1.000000,11.000000,-9.000000
1298217.975555,14.000000,12.000000,21.000000,0.000000,-2.000000,-9.000000,5.000000,11.000000
1298217.975830,57.000000,3.000000,-18.000000,-20.000000,-6.000000,-2.000000,-7.000000,5.000000
1298217.977416,-80.000000,68.000000,83.000000,19.000000,11.000000,1.000000,12.000000,-19.000000
1298217.977471,-16.000000,-22.000000,-17.000000,1.000000,-6.000000,-7.000000,-3.000000,3.000000
1298217.978214,31.000000,-10.000000,-11.000000,0.000000,-1.000000,-4.000000,4.000000,0.000000
1298217.978239,-29.000000,12.000000,28.000000,9.000000,8.000000,8.000000,-5.000000,-22.000000
1298217.981554,-50.000000,-29.000000,-46.000000,-23.000000,0.000000,-12.000000,3.000000,-1.000000
1298217.981609,18.000000,1.000000,-1.000000,-24.000000,-15.000000,-6.000000,3.000000,5.000000
1298218.011168,5.000000,1.000000,-52.000000,20.000000,7.000000,19.000000,2.000000,12.000000
1298218.011221,-4.000000,-32.000000,-71.000000,-65.000000,-26.000000,-16.000000,-5.000000,-11.000000
1298218.026380,-12.000000,20.000000,31.000000,20.000000,6.000000,-1.000000,-1.000000,-3.000000
1298218.026429,-35.000000,-9.000000,5.000000,-1.000000,-2.000000,1.000000,5.000000,3.000000
1298218.064174,23.000000,5.000000,16.000000,-1.000000,-6.000000,-7.000000,-6.000000,-4.000000
1298218.064204,-16.000000,10.000000,9.000000,8.000000,7.000000,3.000000,9.000000,13.000000
1298218.078687,42.000000,17.000000,-11.000000,7.000000,-8.000000,2.000000,-5.000000,14.000000
1298218.078739,-6.000000,21.000000,18.000000,14.000000,9.000000,7.000000,-19.000000,-25.000000
1298218.093434,5.000000,3.000000,14.000000,-2.000000,-2.000000,-1.000000,13.000000,20.000000
1298218.093485,12.000000,-6.000000,-29.000000,0.000000,-3.000000,-7.000000,-1.000000,5.000000
1298218.094252,-21.000000,5.000000,0.000000,-4.000000,-6.000000,-2.000000,-8.000000,-18.000000
1298218.094574,47.000000,7.000000,9.000000,38.000000,11.000000,7.000000,1.000000,3.000000
1298218.096646,6.000000,16.000000,-9.000000,0.000000,8.000000,4.000000,19.000000,22.000000
1298218.096939,5.000000,0.000000,-3.000000,-7.000000,-9.000000,-19.000000,-27.000000,-47.000000
1298218.101064,-1.000000,-9.000000,0.000000,-1.000000,6.000000,-1.000000,-1.000000,2.000000
1298218.101088,36.000000,-11.000000,11.000000,-13.000000,-12.000000,-6.000000,-3.000000,3.000000
1298218.131332,-3.000000,1.000000,-12.000000,7.000000,3.000000,-4.000000,-1.000000,-10.000000
1298218.131384,-47.000000,-35.000000,-71.000000,-38.000000,-11.000000,-16.000000,11.000000,4.000000
1298218.139424,22.000000,-5.000000,11.000000,6.000000,3.000000,1.000000,-1.000000,20.000000
1298218.139461,26.000000,32.000000,27.000000,13.000000,4.000000,5.000000,-3.000000,-7.000000
1298218.168982,-28.000000,-34.000000,-10.000000,2.000000,-6.000000,-3.000000,3.000000,4.000000
1298218.169013,7.000000,14.000000,18.000000,7.000000,1.000000,2.000000,6.000000,10.000000
1298218.176400,1.000000,11.000000,26.000000,26.000000,13.000000,0.000000,-7.000000,4.000000
1298218.176426,9.000000,-10.000000,-31.000000,-9.000000,-12.000000,-7.000000,2.000000,-6.000000
1298218.206424,-10.000000,-52.000000,-74.000000,-36.000000,-18.000000,6.000000,-9.000000,-1.000000
1298218.206460,17.000000,9.000000,30.000000,25.000000,7.000000,15.000000,11.000000,7.000000
1298218.206891,13.000000,14.000000,18.000000,13.000000,2.000000,-5.000000,-6.000000,0.000000
1298218.206950,-10.000000,6.000000,39.000000,10.000000,9.000000,-6.000000,-4.000000,9.000000
1298218.208585,-44.000000,-26.000000,-33.000000,-28.000000,-9.000000,3.000000,6.000000,-2.000000
1298218.209059,15.000000,6.000000,5.000000,16.000000,3.000000,7.000000,-7.000000,-21.000000
1298218.210180,-22.000000,1.000000,1.000000,0.000000,5.000000,2.000000,8.000000,-6.000000
1298218.210206,-2.000000,-12.000000,12.000000,3.000000,3.000000,-5.000000,-6.000000,-7.000000
1298218.210567,-9.000000,2.000000,17.000000,-4.000000,1.000000,-8.000000,6.000000,6.000000
1298218.210591,12.000000,5.000000,10.000000,14.000000,4.000000,7.000000,-1.000000,-3.000000
1298218.214228,21.000000,15.000000,-20.000000,-17.000000,-3.000000,9.000000,5.000000,1.000000
1298218.214274,-70.000000,-32.000000,-1.000000,-3.000000,-6.000000,-8.000000,5.000000,4.000000
1298218.221168,4.000000,4.000000,-11.000000,-7.000000,0.000000,-10.000000,-16.000000,-24.000000
1298218.221218,32.000000,24.000000,9.000000,4.000000,7.000000,6.000000,9.000000,-2.000000
1298218.251282,-7.000000,13.000000,8.000000,8.000000,8.000000,-4.000000,4.000000,1.000000
1298218.251329,8.000000,-2.000000,-22.000000,-14.000000,-7.000000,-5.000000,2.000000,-3.000000
1298218.258896,14.000000,14.000000,21.000000,19.000000,-4.000000,4.000000,-9.000000,4.000000
1298218.258948,2.000000,13.000000,29.000000,9.000000,4.000000,-3.000000,2.000000,-2.000000
1298218.296473,4.000000,10.000000,-15.000000,1.000000,-2.000000,1.000000,-3.000000,11.000000
1298218.296792,-3.000000,7.000000,22.000000,-3.000000,4.000000,11.000000,6.000000,0.000000
1298218.297443,34.000000,-13.000000,-15.000000,1.000000,-1.000000,-17.000000,-27.000000,-28.000000
1298218.297499,-113.000000,-14.000000,-5.000000,-2.000000,-3.000000,0.000000,1.000000,-4.000000
1298218.298687,6.000000,21.000000,40.000000,0.000000,3.000000,2.000000,3.000000,1.000000
1298218.298710,26.000000,-18.000000,-14.000000,-5.000000,-4.000000,1.000000,0.000000,1.000000
1298218.299909,-31.000000,-21.000000,-31.000000,-13.000000,-2.000000,-14.000000,-14.000000,-12.000000
1298218.299959,-12.000000,3.000000,-1.000000,-12.000000,-9.000000,-12.000000,-10.000000,-15.000000
1298218.319330,-7.000000,9.000000,46.000000,9.000000,4.000000,-12.000000,7.000000,12.000000
1298218.319386,28.000000,-5.000000,-44.000000,-8.000000,-5.000000,-3.000000,-14.000000,-12.000000
1298218.320945,-122.000000,-24.000000,-6.000000,-9.000000,-6.000000,-1.000000,-8.000000,-28.000000
1298218.320972,27.000000,-19.000000,-43.000000,-48.000000,-21.000000,-3.000000,15.000000,20.000000
1298218.333855,-7.000000,4.000000,10.000000,18.000000,5.000000,0.000000,-2.000000,-12.000000
1298218.334135,20.000000,14.000000,26.000000,13.000000,2.000000,4.000000,0.000000,-2.000000
1298218.335899,-1.000000,21.000000,40.000000,18.000000,4.000000,0.000000,23.000000,35.000000
1298218.335947,25.000000,-6.000000,-13.000000,-12.000000,-4.000000,-17.000000,-44.000000,-35.000000
1298218.341223,-48.000000,-20.000000,12.000000,15.000000,-6.000000,-2.000000,-3.000000,-6.000000
1298218.341247,-4.000000,-2.000000,3.000000,8.000000,7.000000,6.000000,6.000000,5.000000
1298218.357150,3.000000,1.000000,-36.000000,-31.000000,-8.000000,-12.000000,11.000000,17.000000
1298218.357195,22.000000,35.000000,28.000000,18.000000,6.000000,3.000000,-1.000000,7.000000
1298218.363656,25.000000,15.000000,2.000000,7.000000,-3.000000,0.000000,-6.000000,0.000000
1298218.363711,-16.000000,-4.000000,-15.000000,-14.000000,-6.000000,-7.000000,-3.000000,1.000000
1298218.393859,4.000000,11.000000,-10.000000,-5.000000,-4.000000,-6.000000,-4.000000,-4.000000
1298218.393910,8.000000,8.000000,0.000000,0.000000,-1.000000,-6.000000,0.000000,0.000000
1298218.409252,-8.000000,-15.000000,7.000000,5.000000,1.000000,-3.000000,11.000000,7.000000
1298218.409311,32.000000,32.000000,67.000000,19.000000,10.000000,-11.000000,-2.000000,6.000000
1298218.411088,-45.000000,11.000000,9.000000,25.000000,5.000000,7.000000,-8.000000,-20.000000
1298218.411114,28.000000,0.000000,4.000000,-14.000000,-10.000000,-1.000000,7.000000,0.000000
1298218.411322,-41.000000,-19.000000,5.000000,4.000000,2.000000,-9.000000,6.000000,3.000000
1298218.411369,-21.000000,4.000000,15.000000,12.000000,2.000000,0.000000,0.000000,5.000000
1298218.416973,25.000000,31.000000,-35.000000,3.000000,-1.000000,1.000000,4.000000,9.000000
1298218.417027,1.000000,7.000000,11.000000,3.000000,-1.000000,-4.000000,-1.000000,2.000000
1298218.431708,6.000000,7.000000,23.000000,9.000000,-2.000000,4.000000,4.000000,10.000000
1298218.431743,16.000000,6.000000,-23.000000,-8.000000,-2.000000,6.000000,-4.000000,-5.000000
1298218.432953,-19.000000,-9.000000,-22.000000,-1.000000,6.000000,-1.000000,5.000000,10.000000
1298218.433001,13.000000,4.000000,23.000000,15.000000,13.000000,3.000000,7.000000,9.000000
1298218.446467,2.000000,-7.000000,-7.000000,-10.000000,-11.000000,-2.000000,-9.000000,-11.000000
1298218.446493,-4.000000,-9.000000,-5.000000,5.000000,4.000000,-1.000000,3.000000,8.000000
1298218.455005,15.000000,10.000000,25.000000,-6.000000,-1.000000,-10.000000,-7.000000,-4.000000
1298218.455030,-120.000000,-38.000000,1.000000,10.000000,-3.000000,-3.000000,-24.000000,-47.000000
1298218.461618,25.000000,-12.000000,-13.000000,-9.000000,-8.000000,-6.000000,-8.000000,2.000000
1298218.461705,-30.000000,-6.000000,33.000000,-4.000000,-2.000000,-9.000000,-5.000000,-6.000000
1298218.491393,17.000000,7.000000,18.000000,11.000000,8.000000,6.000000,2.000000,-1.000000
1298218.491445,26.000000,20.000000,6.000000,8.000000,4.000000,9.000000,3.000000,3.000000
1298218.498633,6.000000,-11.000000,-7.000000,-7.000000,0.000000,-9.000000,-4.000000,-6.000000
1298218.498747,-5.000000,-21.000000,-19.000000,-10.000000,-7.000000,-3.000000,-6.000000,-11.000000
1298218.514083,-25.000000,-23.000000,-4.000000,18.000000,6.000000,5.000000,-1.000000,-4.000000
1298218.514150,31.000000,-3.000000,-2.000000,-8.000000,-5.000000,-6.000000,6.000000,11.000000
1298218.521434,-1.000000,6.000000,9.000000,-7.000000,-4.000000,-9.000000,6.000000,-8.000000
1298218.521468,0.000000,-10.000000,18.000000,10.000000,6.000000,9.000000,1.000000,-1.000000
1298218.558818,-10.000000,-8.000000,5.000000,22.000000,9.000000,1.000000,-4.000000,4.000000
1298218.558868,-18.000000,-24.000000,-42.000000,-51.000000,-27.000000,-2.000000,-4.000000,-2.000000
1298218.566212,-13.000000,2.000000,21.000000,-2.000000,0.000000,0.000000,0.000000,-9.000000
1298218.566239,14.000000,9.000000,3.000000,7.000000,2.000000,-1.000000,-6.000000,-4.000000
1298218.574616,-39.000000,8.000000,12.000000,11.000000,5.000000,5.000000,2.000000,4.000000
1298218.574742,-6.000000,-13.000000,-13.000000,-1.000000,7.000000,1.000000,6.000000,7.000000
1298218.581142,15.000000,4.000000,19.000000,11.000000,-1.000000,2.000000,-2.000000,-4.000000
1298218.581193,10.000000,-16.000000,-1.000000,-7.000000,-8.000000,-3.000000,-6.000000,-6.000000
1298218.603620,-11.000000,0.000000,9.000000,11.000000,4.000000,1.000000,1.000000,-1.000000
1298218.603665,1.000000,-3.000000,-8.000000,-7.000000,-5.000000,-1.000000,-1.000000,9.000000
1298218.633917,2.000000,10.000000,-6.000000,-24.000000,-5.000000,0.000000,9.000000,12.000000
1298218.633965,19.000000,-20.000000,0.000000,-8.000000,3.000000,-12.000000,-1.000000,-3.000000
1298218.649147,-17.000000,3.000000,-9.000000,-10.000000,-12.000000,7.000000,0.000000,-13.000000
1298218.649174,23.000000,2.000000,-4.000000,6.000000,-2.000000,-3.000000,-1.000000,-7.000000
1298218.649711,-15.000000,-13.000000,-5.000000,2.000000,7.000000,5.000000,10.000000,15.000000
1298218.649744,32.000000,6.000000,-7.000000,1.000000,-1.000000,3.000000,0.000000,2.000000
1298218.651160,-54.000000,-14.000000,-16.000000,-11.000000,-1.000000,4.000000,-7.000000,-13.000000
1298218.651198,22.000000,11.000000,0.000000,23.000000,7.000000,-3.000000,-10.000000,-8.000000
1298218.657897,-63.000000,-13.000000,-79.000000,-44.000000,-20.000000,-12.000000,-17.000000,-14.000000
1298218.657952,35.000000,6.000000,1.000000,11.000000,4.000000,13.000000,3.000000,16.000000
1298218.686758,-34.000000,-23.000000,-9.000000,-5.000000,-6.000000,-13.000000,-9.000000,-5.000000
1298218.686785,-75.000000,-29.000000,-6.000000,-15.000000,-12.000000,-12.000000,-13.000000,-27.000000
1298218.688008,29.000000,13.000000,8.000000,4.000000,5.000000,6.000000,11.000000,8.000000
1298218.688053,18.000000,10.000000,8.000000,8.000000,3.000000,1.000000,-3.000000,1.000000
1298218.688289,0.000000,-4.000000,33.000000,8.000000,9.000000,-7.000000,3.000000,5.000000
1298218.688342,39.000000,12.000000,1.000000,14.000000,4.000000,1.000000,-1.000000,6.000000
1298218.694445,-8.000000,-6.000000,-11.000000,-5.000000,-4.000000,4.000000,-8.000000,-14.000000
1298218.694476,-39.000000,-7.000000,-13.000000,-1.000000,-1.000000,1.000000,-4.000000,1.000000
1298218.708984,4.000000,-8.000000,-24.000000,-2.000000,-1.000000,1.000000,-5.000000,5.000000
1298218.709036,23.000000,17.000000,38.000000,25.000000,2.000000,1.000000,-7.000000,-15.000000
1298218.731440,8.000000,9.000000,-1.000000,15.000000,15.000000,7.000000,8.000000,10.000000
1298218.731554,1.000000,6.000000,17.000000,4.000000,0.000000,-5.000000,1.000000,7.000000
1298218.739318,9.000000,-11.000000,-4.000000,-8.000000,0.000000,-1.000000,-1.000000,1.000000
1298218.739427,-56.000000,-12.000000,41.000000,8.000000,2.000000,-4.000000,-4.000000,-11.000000
1298218.761452,3.000000,-15.000000,-40.000000,-1.000000,0.000000,-1.000000,-11.000000,-15.000000
1298218.761504,-11.000000,3.000000,7.000000,-1.000000,-1.000000,-2.000000,0.000000,-5.000000
1298218.768892,-4.000000,11.000000,16.000000,6.000000,5.000000,3.000000,-2.000000,2.000000
1298218.768918,9.000000,0.000000,0.000000,-7.000000,4.000000,-3.000000,11.000000,11.000000
1298218.791255,-5.000000,6.000000,4.000000,1.000000,-4.000000,-5.000000,2.000000,10.000000
1298218.791279,31.000000,2.000000,9.000000,8.000000,-5.000000,-9.000000,-17.000000,-25.000000
1298218.792019,-77.000000,-39.000000,-39.000000,-24.000000,-16.000000,-17.000000,-19.000000,-40.000000
1298218.792131,-47.000000,-21.000000,-5.000000,-2.000000,-1.000000,2.000000,5.000000,5.000000
1298218.798822,10.000000,-3.000000,18.000000,13.000000,5.000000,9.000000,5.000000,0.000000
1298218.799180,9.000000,6.000000,-15.000000,-14.000000,2.000000,5.000000,9.000000,7.000000
1298218.800167,19.000000,-5.000000,-2.000000,-18.000000,-9.000000,-8.000000,0.000000,9.000000
1298218.800225,-24.000000,-5.000000,13.000000,5.000000,-1.000000,-3.000000,2.000000,-1.000000
1298218.801182,0.000000,-1.000000,14.000000,20.000000,2.000000,2.000000,-11.000000,-7.000000
1298218.801207,-6.000000,-12.000000,-9.000000,-25.000000,3.000000,4.000000,10.000000,0.000000
1298218.806328,-28.000000,-3.000000,21.000000,3.000000,-3.000000,-6.000000,-2.000000,-5.000000
1298218.806463,-6.000000,1.000000,-47.000000,-25.000000,-3.000000,6.000000,1.000000,0.000000
1298218.814475,5.000000,13.000000,2.000000,-8.000000,-6.000000,-8.000000,-1.000000,1.000000
1298218.814522,-5.000000,-16.000000,-5.000000,-5.000000,-6.000000,-10.000000,0.000000,-1.000000
1298218.821589,22.000000,10.000000,6.000000,0.000000,-6.000000,0.000000,-3.000000,0.000000
1298218.821633,-14.000000,5.000000,-2.000000,12.000000,-2.000000,6.000000,-7.000000,-11.000000
1298218.843695,-41.000000,-13.000000,-4.000000,-11.000000,-1.000000,-5.000000,2.000000,-4.000000
1298218.843746,4.000000,-4.000000,5.000000,-7.000000,-5.000000,-12.000000,-7.000000,-16.000000
1298218.851280,25.000000,2.000000,-4.000000,10.000000,4.000000,10.000000,-1.000000,5.000000
1298218.851333,-21.000000,-12.000000,-6.000000,-5.000000,-7.000000,-1.000000,8.000000,6.000000
1298218.873913,18.000000,-13.000000,-10.000000,-16.000000,0.000000,-11.000000,0.000000,-1.000000
1298218.873939,-19.000000,-7.000000,-26.000000,-5.000000,-11.000000,-5.000000,-9.000000,-16.000000
1298218.881215,-47.000000,-47.000000,-32.000000,-8.000000,-7.000000,2.000000,1.000000,-3.000000
1298218.881243,72.000000,-6.000000,-6.000000,-24.000000,-8.000000,-11.000000,0.000000,6.000000
1298218.896523,-128.000000,-27.000000,12.000000,-5.000000,-16.000000,-8.000000,-17.000000,-29.000000
1298218.896559,42.000000,18.000000,0.000000,15.000000,7.000000,9.000000,6.000000,2.000000
1298218.897913,24.000000,10.000000,21.000000,-8.000000,-1.000000,-7.000000,12.000000,22.000000
1298218.898039,-3.000000,-6.000000,-26.000000,-4.000000,-3.000000,-7.000000,3.000000,7.000000
1298218.898676,1.000000,-42.000000,7.000000,-17.000000,-5.000000,-2.000000,-11.000000,-11.000000
1298218.898721,-11.000000,6.000000,30.000000,19.000000,3.000000,-7.000000,2.000000,0.000000
1298218.911535,-27.000000,-21.000000,-32.000000,-13.000000,-2.000000,0.000000,-2.000000,2.000000
1298218.911589,11.000000,1.000000,5.000000,4.000000,5.000000,12.000000,-2.000000,-6.000000
1298218.919650,15.000000,27.000000,17.000000,10.000000,5.000000,-2.000000,4.000000,1.000000
1298218.919674,-15.000000,-10.000000,30.000000,5.000000,5.000000,2.000000,0.000000,-1.000000
1298218.926196,14.000000,-16.000000,-4.000000,4.000000,6.000000,3.000000,2.000000,8.000000
1298218.926222,6.000000,0.000000,18.000000,13.000000,7.000000,-2.000000,0.000000,1.000000
1298218.934663,-38.000000,-8.000000,8.000000,-17.000000,-4.000000,-8.000000,0.000000,-3.000000
1298218.934709,35.000000,32.000000,-14.000000,-1.000000,6.000000,12.000000,1.000000,1.000000
1298218.963870,39.000000,8.000000,15.000000,18.000000,5.000000,10.000000,1.000000,9.000000
1298218.963987,12.000000,-15.000000,-19.000000,-10.000000,-8.000000,-9.000000,0.000000,-2.000000
1298219.001293,-10.000000,-16.000000,-1.000000,3.000000,3.000000,-7.000000,-7.000000,-6.000000
1298219.001318,23.000000,19.000000,-5.000000,-12.000000,-5.000000,4.000000,-12.000000,0.000000
1298219.002359,6.000000,9.000000,3.000000,6.000000,2.000000,7.000000,10.000000,15.000000
1298219.002398,44.000000,11.000000,-5.000000,-13.000000,-1.000000,-9.000000,-1.000000,8.000000
1298219.003837,-77.000000,38.000000,8.000000,0.000000,-9.000000,-9.000000,-12.000000,-30.000000
1298219.004104,-24.000000,-70.000000,20.000000,19.000000,8.000000,4.000000,1.000000,-17.000000
1298219.004723,1.000000,-4.000000,-22.000000,-27.000000,-7.000000,-10.000000,5.000000,17.000000
1298219.004765,72.000000,87.000000,17.000000,6.000000,2.000000,3.000000,3.000000,11.000000
1298219.006023,-85.000000,3.000000,6.000000,0.000000,5.000000,4.000000,-7.000000,-6.000000
1298219.006073,35.000000,80.000000,4.000000,14.000000,6.000000,7.000000,-8.000000,-13.000000
1298219.024998,-22.000000,-16.000000,11.000000,12.000000,-4.000000,-1.000000,3.000000,3.000000
1298219.025024,-13.000000,66.000000,10.000000,12.000000,11.000000,-1.000000,-1.000000,-6.000000
1298219.039352,23.000000,28.000000,18.000000,20.000000,7.000000,5.000000,-1.000000,1.000000
1298219.039637,0.000000,-12.000000,-28.000000,-25.000000,-6.000000,-1.000000,1.000000,8.000000
1298219.040302,-19.000000,-1.000000,25.000000,6.000000,3.000000,-1.000000,16.000000,16.000000
1298219.040343,30.000000,0.000000,2.000000,2.000000,6.000000,-3.000000,-13.000000,-15.000000
1298219.047956,-5.000000,-19.000000,1.000000,-21.000000,-15.000000,-8.000000,-11.000000,-25.000000
1298219.048017,-21.000000,-18.000000,-29.000000,-18.000000,-8.000000,3.000000,6.000000,1.000000
1298219.054618,36.000000,2.000000,2.000000,-5.000000,2.000000,-2.000000,6.000000,10.000000
1298219.054643,9.000000,1.000000,25.000000,13.000000,6.000000,1.000000,2.000000,-2.000000
1298219.076747,9.000000,-6.000000,-21.000000,1.000000,-2.000000,2.000000,-5.000000,-3.000000
1298219.076799,-17.000000,-4.000000,15.000000,-6.000000,-1.000000,-5.000000,7.000000,5.000000
1298219.091693,-1.000000,-7.000000,-7.000000,11.000000,-2.000000,-3.000000,-15.000000,-4.000000
1298219.091773,-6.000000,-9.000000,-5.000000,1.000000,0.000000,-3.000000,0.000000,-14.000000
1298219.099204,0.000000,4.000000,11.000000,-8.000000,0.000000,0.000000,13.000000,8.000000
1298219.099232,33.000000,19.000000,-2.000000,11.000000,0.000000,4.000000,-4.000000,4.000000
1298219.121417,0.000000,2.000000,6.000000,-5.000000,1.000000,-1.000000,-13.000000,-14.000000
1298219.121444,20.000000,55.000000,17.000000,1.000000,1.000000,5.000000,4.000000,12.000000
1298219.128780,5.000000,-16.000000,16.000000,-1.000000,-1.000000,-3.000000,2.000000,3.000000
1298219.128893,26.000000,6.000000,-14.000000,-7.000000,0.000000,6.000000,-2.000000,4.000000
1298219.131403,-24.000000,-4.000000,-23.000000,-4.000000,-6.000000,3.000000,-4.000000,-7.000000
1298219.131445,46.000000,19.000000,41.000000,25.000000,9.000000,1.000000,2.000000,2.000000
1298219.131751,9.000000,11.000000,53.000000,15.000000,5.000000,-3.000000,0.000000,0.000000
1298219.131796,-16.000000,-35.000000,-26.000000,-15.000000,-5.000000,-3.000000,-4.000000,-7.000000
1298219.159527,-28.000000,1.000000,-10.000000,-8.000000,3.000000,-1.000000,4.000000,17.000000
1298219.159580,62.000000,3.000000,20.000000,6.000000,-2.000000,-4.000000,2.000000,-4.000000
1298219.160025,-82.000000,-10.000000,-6.000000,-8.000000,-8.000000,-11.000000,-15.000000,-28.000000
1298219.160078,35.000000,-3.000000,-2.000000,-5.000000,0.000000,-2.000000,8.000000,11.000000
1298219.161372,1.000000,0.000000,27.000000,9.000000,7.000000,-6.000000,-4.000000,-2.000000
1298219.161400,12.000000,11.000000,-24.000000,5.000000,-2.000000,11.000000,-6.000000,9.000000
1298219.166266,-21.000000,18.000000,-32.000000,-24.000000,-7.000000,-11.000000,-11.000000,-9.000000
1298219.166317,-3.000000,-23.000000,-5.000000,-10.000000,-11.000000,-8.000000,-6.000000,-9.000000
1298219.174938,-49.000000,22.000000,9.000000,18.000000,7.000000,6.000000,0.000000,-7.000000
1298219.175049,20.000000,-22.000000,6.000000,-5.000000,-5.000000,3.000000,-2.000000,-3.000000
1298219.188881,17.000000,12.000000,-18.000000,-26.000000,-8.000000,-13.000000,3.000000,12.000000
1298219.188913,-5.000000,-5.000000,7.000000,-1.000000,0.000000,1.000000,-3.000000,-8.000000
1298219.203812,14.000000,6.000000,20.000000,24.000000,15.000000,8.000000,-5.000000,-12.000000
1298219.203864,-11.000000,-10.000000,11.000000,-7.000000,-15.000000,-7.000000,-5.000000,-5.000000
1298219.211161,14.000000,-8.000000,-12.000000,-3.000000,-5.000000,-1.000000,-2.000000,-8.000000
1298219.211211,0.000000,14.000000,9.000000,5.000000,3.000000,9.000000,2.000000,5.000000
1298219.241850,34.000000,-8.000000,-6.000000,9.000000,-4.000000,-11.000000,3.000000,15.000000
1298219.242183,-6.000000,0.000000,13.000000,6.000000,7.000000,-4.000000,6.000000,2.000000
1298219.242932,-25.000000,-24.000000,-37.000000,-21.000000,-19.000000,-13.000000,-22.000000,-22.000000
1298219.242984,3.000000,11.000000,3.000000,14.000000,3.000000,7.000000,10.000000,10.000000
1298219.244205,39.000000,-10.000000,3.000000,-1.000000,0.000000,-8.000000,2.000000,7.000000
1298219.244255,-6.000000,2.000000,-12.000000,-6.000000,-4.000000,-3.000000,-6.000000,-4.000000
1298219.248600,33.000000,1.000000,-6.000000,2.000000,6.000000,4.000000,6.000000,2.000000
1298219.248628,-23.000000,-16.000000,2.000000,-7.000000,-6.000000,-8.000000,-3.000000,1.000000
1298219.263663,-26.000000,-24.000000,17.000000,19.000000,4.000000,-3.000000,-6.000000,-9.000000
1298219.263689,34.000000,20.000000,-5.000000,-20.000000,0.000000,6.000000,-3.000000,1.000000
1298219.278683,-31.000000,13.000000,23.000000,2.000000,-5.000000,-4.000000,-8.000000,-20.000000
1298219.278731,30.000000,72.000000,-3.000000,10.000000,7.000000,1.000000,7.000000,7.000000
1298219.280511,-19.000000,39.000000,12.000000,10.000000,6.000000,10.000000,-8.000000,-1.000000
1298219.280558,40.000000,29.000000,-3.000000,10.000000,1.000000,-3.000000,2.000000,16.000000
1298219.286315,-17.000000,-95.000000,-20.000000,-23.000000,-5.000000,-10.000000,-8.000000,-15.000000
1298219.286368,-1.000000,-11.000000,-44.000000,-11.000000,-1.000000,-6.000000,-3.000000,-5.000000
1298219.294551,3.000000,-15.000000,-3.000000,-2.000000,-1.000000,4.000000,-2.000000,-8.000000
1298219.294601,-8.000000,-16.000000,-6.000000,-7.000000,-1.000000,0.000000,9.000000,15.000000
1298219.316336,20.000000,-10.000000,7.000000,-5.000000,2.000000,-7.000000,2.000000,5.000000
1298219.316387,-23.000000,-26.000000,-11.000000,-5.000000,1.000000,1.000000,-13.000000,-24.000000
1298219.331532,22.000000,-2.000000,4.000000,5.000000,0.000000,-1.000000,3.000000,1.000000
1298219.331559,-12.000000,0.000000,6.000000,-1.000000,-1.000000,0.000000,8.000000,8.000000
1298219.353806,21.000000,5.000000,4.000000,-1.000000,1.000000,5.000000,-8.000000,-5.000000
1298219.353857,-50.000000,-21.000000,-4.000000,9.000000,-4.000000,4.000000,3.000000,-4.000000
1298219.368612,44.000000,14.000000,6.000000,1.000000,9.000000,4.000000,10.000000,13.000000
1298219.368664,-44.000000,-2.000000,-23.000000,-12.000000,-19.000000,-12.000000,-12.000000,-19.000000
1298219.383628,7.000000,66.000000,-10.000000,-4.000000,2.000000,10.000000,2.000000,-2.000000
1298219.383653,10.000000,-27.000000,-5.000000,-18.000000,-9.000000,-9.000000,-3.000000,4.000000
1298219.406989,20.000000,8.000000,8.000000,19.000000,8.000000,2.000000,7.000000,10.000000
1298219.407226,-14.000000,-9.000000,-5.000000,3.000000,-8.000000,-5.000000,-6.000000,-13.000000
1298219.408056,11.000000,47.000000,7.000000,-11.000000,1.000000,-1.000000,-5.000000,-2.000000
1298219.408411,-17.000000,-42.000000,-17.000000,-14.000000,-10.000000,-9.000000,-9.000000,-1.000000
1298219.409188,-47.000000,36.000000,21.000000,15.000000,11.000000,14.000000,3.000000,0.000000
1298219.409241,-7.000000,-31.000000,-9.000000,4.000000,-5.000000,-9.000000,-16.000000,-13.000000
1298219.410372,-13.000000,-14.000000,9.000000,0.000000,0.000000,1.000000,-2.000000,-6.000000
1298219.410422,1.000000,-25.000000,-20.000000,-15.000000,-6.000000,-13.000000,-3.000000,1.000000
1298219.414429,21.000000,4.000000,-23.000000,-6.000000,1.000000,5.000000,-1.000000,-2.000000
1298219.414481,12.000000,5.000000,12.000000,-2.000000,2.000000,-6.000000,-2.000000,8.000000
1298219.428817,24.000000,-1.000000,-4.000000,3.000000,-2.000000,3.000000,-8.000000,-7.000000
1298219.428841,-61.000000,-17.000000,-2.000000,1.000000,3.000000,4.000000,4.000000,-6.000000
1298219.451204,37.000000,54.000000,-17.000000,-1.000000,7.000000,0.000000,6.000000,18.000000
1298219.451288,47.000000,-72.000000,-46.000000,-19.000000,-16.000000,0.000000,-21.000000,-16.000000
1298219.466299,-5.000000,-2.000000,6.000000,-2.000000,-6.000000,4.000000,-2.000000,-2.000000
1298219.466325,12.000000,9.000000,-3.000000,-7.000000,1.000000,-7.000000,-1.000000,3.000000
1298219.481647,-13.000000,-2.000000,9.000000,1.000000,2.000000,-2.000000,-9.000000,-11.000000
1298219.481699,-16.000000,-13.000000,-10.000000,1.000000,-2.000000,2.000000,-6.000000,-9.000000
1298219.482494,26.000000,-12.000000,-58.000000,-17.000000,-10.000000,0.000000,-5.000000,0.000000
1298219.482518,-17.000000,-4.000000,44.000000,13.000000,0.000000,-4.000000,0.000000,5.000000
1298219.483659,1.000000,-11.000000,-9.000000,-2.000000,-2.000000,0.000000,-2.000000,-10.000000
1298219.483706,15.000000,5.000000,-1.000000,-2.000000,6.000000,-4.000000,-1.000000,0.000000
1298219.488706,-31.000000,2.000000,7.000000,-3.000000,-3.000000,-1.000000,6.000000,10.000000
1298219.488937,26.000000,4.000000,-5.000000,7.000000,0.000000,-1.000000,1.000000,2.000000
1298219.519280,-51.000000,5.000000,-28.000000,-7.000000,-3.000000,-1.000000,-6.000000,-17.000000
1298219.519346,37.000000,3.000000,4.000000,-8.000000,-4.000000,5.000000,9.000000,21.000000
1298219.519605,-43.000000,-3.000000,2.000000,8.000000,2.000000,-5.000000,-10.000000,-12.000000
1298219.519650,24.000000,16.000000,-4.000000,4.000000,4.000000,7.000000,4.000000,4.000000
1298219.521417,-2.000000,0.000000,-12.000000,-4.000000,-8.000000,-6.000000,0.000000,3.000000
1298219.521476,-21.000000,6.000000,-31.000000,-12.000000,-13.000000,-5.000000,-14.000000,-3.000000
1298219.526410,-10.000000,-9.000000,4.000000,-3.000000,3.000000,8.000000,3.000000,-3.000000
1298219.526461,32.000000,70.000000,8.000000,17.000000,17.000000,1.000000,5.000000,2.000000
1298219.556352,4.000000,-13.000000,-34.000000,-41.000000,-18.000000,-15.000000,0.000000,-4.000000
1298219.556463,-40.000000,-17.000000,-1.000000,17.000000,2.000000,5.000000,-11.000000,-17.000000
1298219.563591,15.000000,6.000000,14.000000,5.000000,-3.000000,2.000000,0.000000,4.000000
1298219.563711,25.000000,-12.000000,3.000000,-7.000000,6.000000,1.000000,6.000000,12.000000
1298219.578757,-7.000000,0.000000,3.000000,-2.000000,-1.000000,-4.000000,0.000000,-1.000000
1298219.578809,7.000000,4.000000,8.000000,20.000000,3.000000,-1.000000,5.000000,-1.000000
1298219.594020,-47.000000,-22.000000,-34.000000,-14.000000,-2.000000,-1.000000,-3.000000,-8.000000
1298219.594069,34.000000,27.000000,36.000000,12.000000,6.000000,-5.000000,7.000000,15.000000
1298219.595178,-5.000000,-23.000000,20.000000,12.000000,3.000000,4.000000,-4.000000,-15.000000
1298219.595607,-17.000000,-32.000000,-2.000000,-10.000000,-15.000000,-1.000000,3.000000,-5.000000
1298219.596857,20.000000,6.000000,17.000000,-14.000000,6.000000,-1.000000,0.000000,4.000000
1298219.596896,12.000000,3.000000,-14.000000,2.000000,-1.000000,15.000000,8.000000,11.000000
1298219.598140,18.000000,4.000000,0.000000,-2.000000,0.000000,3.000000,4.000000,1.000000
1298219.598188,-12.000000,-4.000000,2.000000,-9.000000,-5.000000,-9.000000,2.000000,2.000000
1298219.608980,7.000000,8.000000,0.000000,9.000000,1.000000,1.000000,3.000000,1.000000
1298219.609349,-8.000000,-17.000000,-22.000000,-11.000000,-5.000000,-9.000000,2.000000,1.000000
1298219.631980,25.000000,-1.000000,-11.000000,-8.000000,-3.000000,-4.000000,-2.000000,5.000000
1298219.632022,-47.000000,-17.000000,3.000000,11.000000,0.000000,-5.000000,-3.000000,-18.000000
1298219.632287,-17.000000,-15.000000,-2.000000,10.000000,3.000000,4.000000,0.000000,-9.000000
1298219.632340,24.000000,13.000000,-8.000000,-21.000000,-9.000000,0.000000,6.000000,15.000000
1298219.638777,2.000000,-22.000000,30.000000,4.000000,-3.000000,-22.000000,-1.000000,0.000000
1298219.638804,9.000000,0.000000,10.000000,15.000000,6.000000,4.000000,-14.000000,-7.000000
1298219.646576,1.000000,34.000000,-21.000000,10.000000,-4.000000,2.000000,-1.000000,4.000000
1298219.646615,-6.000000,-14.000000,-19.000000,-24.000000,-5.000000,-5.000000,7.000000,11.000000
1298219.676496,46.000000,17.000000,32.000000,9.000000,7.000000,-2.000000,2.000000,0.000000
1298219.676552,-19.000000,-3.000000,17.000000,20.000000,4.000000,2.000000,-4.000000,-5.000000
1298219.683952,-25.000000,-10.000000,-1.000000,0.000000,-3.000000,-1.000000,6.000000,5.000000
1298219.683980,15.000000,-7.000000,-14.000000,-7.000000,-3.000000,-1.000000,-4.000000,3.000000
1298219.713782,-32.000000,12.000000,11.000000,27.000000,2.000000,-1.000000,-11.000000,-16.000000
1298219.713829,-20.000000,-105.000000,4.000000,-33.000000,-9.000000,-9.000000,4.000000,-7.000000
1298219.715057,-11.000000,-11.000000,-2.000000,0.000000,-8.000000,-15.000000,9.000000,18.000000
1298219.715100,-30.000000,-40.000000,-18.000000,-10.000000,-8.000000,-5.000000,-15.000000,-29.000000
1298219.716597,40.000000,6.000000,-1.000000,-5.000000,0.000000,0.000000,2.000000,11.000000
1298219.716648,-56.000000,-21.000000,-5.000000,-8.000000,1.000000,-3.000000,-11.000000,-35.000000
1298219.717051,-41.000000,-30.000000,26.000000,16.000000,1.000000,3.000000,-7.000000,-14.000000
1298219.717132,-36.000000,-17.000000,-1.000000,-6.000000,7.000000,4.000000,5.000000,8.000000
1298219.718567,42.000000,22.000000,-1.000000,-1.000000,-2.000000,4.000000,5.000000,17.000000
1298219.718614,6.000000,-9.000000,-13.000000,-4.000000,0.000000,2.000000,2.000000,-1.000000
1298219.744114,-19.000000,-2.000000,-13.000000,2.000000,1.000000,4.000000,0.000000,-7.000000
1298219.744148,52.000000,87.000000,30.000000,23.000000,6.000000,2.000000,3.000000,10.000000
1298219.745219,-52.000000,20.000000,-12.000000,-17.000000,-2.000000,-1.000000,-9.000000,-13.000000
1298219.745431,37.000000,11.000000,-3.000000,14.000000,7.000000,9.000000,7.000000,9.000000
1298219.746053,12.000000,14.000000,40.000000,19.000000,13.000000,3.000000,-2.000000,1.000000
1298219.746102,-23.000000,-24.000000,-11.000000,-9.000000,-6.000000,-7.000000,-8.000000,-6.000000
1298219.758675,-98.000000,-17.000000,1.000000,5.000000,0.000000,4.000000,-4.000000,-17.000000
1298219.758724,26.000000,-76.000000,3.000000,8.000000,2.000000,-5.000000,3.000000,6.000000
1298219.766199,31.000000,-11.000000,-10.000000,-11.000000,1.000000,-5.000000,-1.000000,12.000000
1298219.766247,24.000000,-58.000000,-30.000000,-28.000000,-17.000000,-7.000000,3.000000,8.000000
1298219.796645,-18.000000,-7.000000,-4.000000,9.000000,2.000000,-1.000000,-7.000000,-25.000000
1298219.796674,-47.000000,-31.000000,25.000000,-3.000000,4.000000,-3.000000,12.000000,17.000000
1298219.803849,12.000000,-26.000000,-19.000000,-12.000000,-5.000000,-8.000000,-13.000000,2.000000
1298219.803901,-44.000000,-15.000000,-8.000000,8.000000,0.000000,-1.000000,-5.000000,-11.000000
1298219.818823,28.000000,8.000000,8.000000,2.000000,-1.000000,5.000000,7.000000,2.000000
1298219.818859,-18.000000,-8.000000,1.000000,-7.000000,1.000000,-13.000000,-2.000000,2.000000
1298219.833818,20.000000,10.000000,9.000000,17.000000,-2.000000,-1.000000,-7.000000,-1.000000
1298219.833969,-53.000000,41.000000,-28.000000,-24.000000,-4.000000,10.000000,-7.000000,-10.000000
1298219.848731,-11.000000,-4.000000,-4.000000,-10.000000,-7.000000,-1.000000,2.000000,-5.000000
1298219.848788,19.000000,-5.000000,26.000000,8.000000,1.000000,-5.000000,3.000000,11.000000
1298219.871446,15.000000,10.000000,5.000000,4.000000,6.000000,4.000000,-1.000000,3.000000
1298219.871602,-15.000000,-11.000000,-10.000000,-3.000000,-1.000000,0.000000,2.000000,2.000000
1298219.880113,-8.000000,-15.000000,-3.000000,-13.000000,0.000000,-4.000000,1.000000,-3.000000
1298219.880143,12.000000,9.000000,14.000000,8.000000,2.000000,12.000000,2.000000,3.000000
1298219.880435,35.000000,10.000000,5.000000,9.000000,4.000000,7.000000,7.000000,19.000000
1298219.880482,-28.000000,-28.000000,-15.000000,-12.000000,-7.000000,-13.000000,-12.000000,-39.000000
1298219.882774,-86.000000,-22.000000,-19.000000,4.000000,1.000000,3.000000,-3.000000,-3.000000
1298219.882834,36.000000,62.000000,61.000000,21.000000,4.000000,-2.000000,10.000000,12.000000
1298219.883189,30.000000,7.000000,21.000000,-4.000000,1.000000,-8.000000,-3.000000,0.000000
1298219.883229,-9.000000,-2.000000,1.000000,3.000000,-1.000000,4.000000,3.000000,-3.000000
1298219.886132,-17.000000,-8.000000,19.000000,-4.000000,-5.000000,-2.000000,3.000000,5.000000
1298219.886181,-9.000000,-5.000000,-3.000000,9.000000,3.000000,-3.000000,-4.000000,-6.000000
1298219.908793,57.000000,82.000000,25.000000,25.000000,11.000000,12.000000,6.000000,12.000000
1298219.908921,1.000000,30.000000,21.000000,-2.000000,-6.000000,-10.000000,1.000000,0.000000
1298219.916668,12.000000,-7.000000,-22.000000,6.000000,9.000000,7.000000,-1.000000,-4.000000
1298219.916794,-18.000000,-11.000000,-4.000000,0.000000,-5.000000,-5.000000,-2.000000,-8.000000
1298219.931286,19.000000,15.000000,9.000000,-4.000000,5.000000,4.000000,3.000000,12.000000
1298219.931338,33.000000,13.000000,-24.000000,-8.000000,-11.000000,-8.000000,-6.000000,-3.000000
1298219.954004,-37.000000,9.000000,-7.000000,3.000000,-10.000000,1.000000,1.000000,-10.000000
1298219.954032,11.000000,11.000000,10.000000,0.000000,0.000000,-6.000000,6.000000,8.000000
1298219.968657,10.000000,-1.000000,-52.000000,-26.000000,-1.000000,-6.000000,-9.000000,-13.000000
1298219.968684,34.000000,15.000000,-1.000000,7.000000,3.000000,11.000000,3.000000,14.000000
1298219.969724,-89.000000,-38.000000,-9.000000,-3.000000,-8.000000,-15.000000,-32.000000,-49.000000
1298219.969787,-16.000000,22.000000,10.000000,-8.000000,2.000000,-2.000000,9.000000,7.000000
1298219.976335,35.000000,24.000000,18.000000,22.000000,16.000000,11.000000,6.000000,12.000000
1298219.976370,16.000000,3.000000,-20.000000,-21.000000,-3.000000,1.000000,-1.000000,7.000000
1298219.991713,9.000000,-2.000000,-16.000000,0.000000,-3.000000,-11.000000,5.000000,1.000000
1298219.991765,-3.000000,-11.000000,-22.000000,-11.000000,-7.000000,-3.000000,6.000000,7.000000
1298220.006343,36.000000,13.000000,6.000000,4.000000,3.000000,9.000000,3.000000,4.000000
1298220.006393,-34.000000,-13.000000,14.000000,9.000000,6.000000,-5.000000,1.000000,-1.000000
1298220.029175,10.000000,-1.000000,27.000000,-17.000000,-10.000000,0.000000,3.000000,7.000000
1298220.029204,15.000000,-3.000000,-11.000000,7.000000,1.000000,5.000000,-3.000000,-2.000000
1298220.043985,27.000000,-20.000000,9.000000,9.000000,15.000000,2.000000,4.000000,3.000000
1298220.044011,-16.000000,-12.000000,-9.000000,-25.000000,-11.000000,-10.000000,-9.000000,-11.000000
1298220.075029,-56.000000,-6.000000,-32.000000,-6.000000,-5.000000,6.000000,-1.000000,-8.000000
1298220.075101,48.000000,18.000000,9.000000,19.000000,7.000000,3.000000,2.000000,8.000000
1298220.076685,23.000000,8.000000,12.000000,-3.000000,1.000000,-9.000000,6.000000,7.000000
1298220.076746,-51.000000,-44.000000,7.000000,0.000000,3.000000,-3.000000,-9.000000,-9.000000
1298220.077021,-16.000000,-11.000000,-15.000000,-10.000000,-9.000000,0.000000,-21.000000,-38.000000
1298220.077081,14.000000,71.000000,22.000000,14.000000,10.000000,6.000000,0.000000,17.000000
1298220.078982,-47.000000,-8.000000,15.000000,-1.000000,-3.000000,-3.000000,5.000000,1.000000
1298220.079055,18.000000,-28.000000,-19.000000,-8.000000,-8.000000,-2.000000,1.000000,5.000000
1298220.079338,19.000000,12.000000,19.000000,10.000000,11.000000,4.000000,5.000000,0.000000
1298220.079504,20.000000,7.000000,-19.000000,0.000000,0.000000,6.000000,-7.000000,5.000000
1298220.096771,16.000000,29.000000,-19.000000,-7.000000,-13.000000,-9.000000,-10.000000,-7.000000
1298220.096829,-41.000000,-21.000000,-4.000000,8.000000,2.000000,6.000000,-4.000000,-12.000000
1298220.113273,33.000000,32.000000,23.000000,17.000000,9.000000,7.000000,9.000000,15.000000
1298220.113328,4.000000,28.000000,-13.000000,-2.000000,1.000000,1.000000,0.000000,9.000000
1298220.114155,53.000000,23.000000,31.000000,17.000000,6.000000,5.000000,3.000000,12.000000
1298220.114234,-108.000000,-20.000000,-23.000000,-4.000000,-9.000000,-7.000000,-17.000000,-37.000000
1298220.119008,14.000000,11.000000,1.000000,-14.000000,-10.000000,1.000000,13.000000,7.000000
1298220.119064,-27.000000,94.000000,32.000000,18.000000,7.000000,4.000000,5.000000,15.000000
1298220.128727,-1.000000,-35.000000,-5.000000,7.000000,0.000000,2.000000,-5.000000,-8.000000
1298220.128782,-20.000000,-14.000000,-12.000000,-6.000000,1.000000,-12.000000,-10.000000,-1.000000
1298220.149815,-13.000000,45.000000,-11.000000,-26.000000,-15.000000,-21.000000,2.000000,-3.000000
1298220.149874,10.000000,2.000000,-3.000000,19.000000,12.000000,6.000000,-1.000000,4.000000
1298220.156809,-2.000000,8.000000,18.000000,-15.000000,-11.000000,-11.000000,-1.000000,-5.000000
1298220.156951,-27.000000,-12.000000,38.000000,2.000000,0.000000,-9.000000,-3.000000,-4.000000
1298220.186974,55.000000,85.000000,-5.000000,23.000000,5.000000,9.000000,-7.000000,-1.000000
1298220.187030,-15.000000,4.000000,-8.000000,0.000000,2.000000,-5.000000,3.000000,3.000000
1298220.195713,5.000000,-21.000000,-4.000000,-6.000000,-1.000000,-3.000000,2.000000,-2.000000
1298220.195754,-33.000000,-6.000000,7.000000,7.000000,4.000000,-5.000000,1.000000,-1.000000
1298220.196765,49.000000,27.000000,12.000000,4.000000,2.000000,0.000000,-5.000000,2.000000
1298220.196800,-40.000000,12.000000,8.000000,4.000000,5.000000,-2.000000,1.000000,-12.000000
1298220.197712,14.000000,-1.000000,-15.000000,4.000000,-3.000000,5.000000,5.000000,12.000000
1298220.197754,28.000000,14.000000,6.000000,-11.000000,2.000000,10.000000,5.000000,1.000000
1298220.201552,43.000000,54.000000,41.000000,21.000000,-2.000000,-4.000000,-3.000000,3.000000
1298220.201591,-30.000000,-18.000000,-3.000000,1.000000,-5.000000,-4.000000,-1.000000,-9.000000
1298220.224217,24.000000,17.000000,10.000000,6.000000,3.000000,7.000000,-1.000000,5.000000
1298220.224246,-29.000000,-25.000000,-22.000000,-5.000000,-3.000000,3.000000,5.000000,11.000000
1298220.233835,18.000000,8.000000,8.000000,-4.000000,-1.000000,-8.000000,-7.000000,-23.000000
1298220.233877,17.000000,-10.000000,-28.000000,-5.000000,-5.000000,0.000000,5.000000,2.000000
1298220.234066,-19.000000,0.000000,-2.000000,2.000000,0.000000,0.000000,0.000000,4.000000
1298220.234104,47.000000,-7.000000,2.000000,-7.000000,0.000000,-1.000000,-4.000000,5.000000
1298220.239337,5.000000,-79.000000,20.000000,-2.000000,2.000000,-18.000000,-1.000000,-21.000000
1298220.239389,-18.000000,-10.000000,-10.000000,0.000000,1.000000,13.000000,8.000000,1.000000
1298220.246582,11.000000,-3.000000,1.000000,0.000000,2.000000,0.000000,4.000000,11.000000
1298220.246684,18.000000,9.000000,0.000000,6.000000,3.000000,-3.000000,-9.000000,-8.000000
1298220.269030,-40.000000,-41.000000,-25.000000,-1.000000,-5.000000,9.000000,-7.000000,-13.000000
1298220.269077,38.000000,5.000000,-13.000000,4.000000,5.000000,5.000000,10.000000,10.000000
1298220.276688,8.000000,7.000000,-1.000000,-3.000000,-1.000000,-8.000000,3.000000,8.000000
1298220.276730,5.000000,7.000000,-7.000000,-8.000000,2.000000,5.000000,5.000000,4.000000
1298220.298986,-6.000000,5.000000,-19.000000,-5.000000,-1.000000,5.000000,1.000000,6.000000
1298220.299013,-4.000000,-10.000000,9.000000,6.000000,-3.000000,-1.000000,-11.000000,-10.000000
1298220.306475,-20.000000,-9.000000,-2.000000,-1.000000,-1.000000,3.000000,4.000000,-1.000000
1298220.306516,27.000000,11.000000,11.000000,15.000000,9.000000,8.000000,4.000000,0.000000
1298220.322353,-32.000000,-58.000000,-6.000000,-16.000000,-11.000000,-11.000000,4.000000,-2.000000
1298220.323067,-54.000000,-47.000000,24.000000,-7.000000,-5.000000,-11.000000,6.000000,2.000000
1298220.323997,11.000000,9.000000,19.000000,12.000000,5.000000,11.000000,-6.000000,0.000000
1298220.324020,20.000000,20.000000,28.000000,22.000000,5.000000,-4.000000,-7.000000,-8.000000
1298220.324382,13.000000,-128.000000,-41.000000,-33.000000,-16.000000,-8.000000,2.000000,-9.000000
1298220.324430,-4.000000,6.000000,4.000000,9.000000,0.000000,-2.000000,-9.000000,0.000000
1298220.343637,0.000000,-3.000000,13.000000,20.000000,4.000000,8.000000,3.000000,0.000000
1298220.343690,31.000000,-7.000000,-2.000000,-1.000000,4.000000,-3.000000,6.000000,8.000000
1298220.352601,1.000000,3.000000,-3.000000,-8.000000,-5.000000,-14.000000,-10.000000,-7.000000
1298220.352646,-15.000000,11.000000,-2.000000,6.000000,4.000000,7.000000,8.000000,2.000000
1298220.353187,23.000000,33.000000,11.000000,-2.000000,1.000000,8.000000,11.000000,16.000000
1298220.353239,-12.000000,-2.000000,7.000000,-3.000000,-5.000000,-6.000000,-1.000000,3.000000
1298220.358859,36.000000,0.000000,-5.000000,20.000000,6.000000,-1.000000,-2.000000,7.000000
1298220.358913,-44.000000,-21.000000,-34.000000,-20.000000,-13.000000,-2.000000,-15.000000,-32.000000
1298220.374218,-78.000000,-16.000000,54.000000,0.000000,-8.000000,-6.000000,-4.000000,1.000000
1298220.374343,-13.000000,19.000000,-11.000000,-4.000000,4.000000,1.000000,4.000000,5.000000
1298220.396568,3.000000,-1.000000,33.000000,16.000000,2.000000,4.000000,1.000000,-4.000000
1298220.396607,17.000000,6.000000,5.000000,8.000000,5.000000,-2.000000,0.000000,9.000000
1298220.404013,-10.000000,-29.000000,-13.000000,-19.000000,-10.000000,-12.000000,-2.000000,0.000000
1298220.404040,26.000000,14.000000,1.000000,-11.000000,-3.000000,10.000000,0.000000,4.000000
1298220.434376,-10.000000,45.000000,37.000000,25.000000,8.000000,-5.000000,0.000000,-1.000000
1298220.434433,-8.000000,-21.000000,-4.000000,7.000000,0.000000,3.000000,-4.000000,4.000000
1298220.434722,-10.000000,5.000000,18.000000,9.000000,0.000000,6.000000,1.000000,-1.000000
1298220.434762,12.000000,-11.000000,20.000000,18.000000,16.000000,3.000000,2.000000,0.000000
1298220.436303,-15.000000,-23.000000,-21.000000,-12.000000,-14.000000,-4.000000,-3.000000,8.000000
1298220.436331,23.000000,2.000000,-9.000000,-20.000000,-13.000000,-4.000000,-6.000000,-6.000000
1298220.437056,11.000000,-1.000000,5.000000,25.000000,7.000000,7.000000,7.000000,5.000000
1298220.437096,-30.000000,4.000000,-5.000000,-8.000000,1.000000,-3.000000,-5.000000,-6.000000
1298220.441048,56.000000,76.000000,-4.000000,-5.000000,0.000000,7.000000,11.000000,19.000000
1298220.441098,-23.000000,4.000000,18.000000,-4.000000,-3.000000,9.000000,-12.000000,-10.000000
1298220.448729,-25.000000,-36.000000,-34.000000,-9.000000,-2.000000,-7.000000,-1.000000,-3.000000
1298220.448776,-2.000000,17.000000,24.000000,11.000000,5.000000,-7.000000,3.000000,-1.000000
1298220.464667,11.000000,0.000000,-21.000000,6.000000,-1.000000,2.000000,-9.000000,-16.000000
1298220.464718,-27.000000,-38.000000,1.000000,-11.000000,4.000000,17.000000,6.000000,4.000000
1298220.471451,-11.000000,-50.000000,-13.000000,-6.000000,-8.000000,-5.000000,2.000000,-8.000000
1298220.471489,-1.000000,6.000000,18.000000,19.000000,7.000000,4.000000,1.000000,-3.000000
1298220.478818,22.000000,28.000000,10.000000,17.000000,12.000000,10.000000,15.000000,20.000000
1298220.478867,-16.000000,-14.000000,-4.000000,-16.000000,-5.000000,-7.000000,4.000000,-6.000000
1298220.486415,5.000000,55.000000,11.000000,7.000000,-3.000000,-4.000000,-10.000000,-8.000000
1298220.486588,-15.000000,-3.000000,0.000000,19.000000,7.000000,8.000000,2.000000,10.000000
1298220.508854,24.000000,2.000000,-5.000000,-21.000000,7.000000,3.000000,14.000000,11.000000
1298220.508881,-38.000000,23.000000,12.000000,0.000000,-4.000000,-5.000000,-4.000000,2.000000
1298220.516274,8.000000,-7.000000,10.000000,-8.000000,-5.000000,11.000000,-7.000000,-38.000000
1298220.516301,39.000000,-34.000000,-8.000000,4.000000,8.000000,4.000000,4.000000,1.000000
1298220.539145,-38.000000,11.000000,-41.000000,-20.000000,-1.000000,-2.000000,9.000000,22.000000
1298220.539199,10.000000,3.000000,9.000000,16.000000,6.000000,2.000000,-5.000000,-6.000000
1298220.546555,45.000000,18.000000,11.000000,18.000000,0.000000,3.000000,-1.000000,-8.000000
1298220.546600,-41.000000,-27.000000,-9.000000,-1.000000,5.000000,6.000000,10.000000,5.000000
1298220.548034,-22.000000,-22.000000,-14.000000,-10.000000,-7.000000,-2.000000,-2.000000,5.000000
1298220.548089,31.000000,15.000000,6.000000,17.000000,12.000000,4.000000,-1.000000,8.000000
1298220.553991,70.000000,117.000000,-14.000000,-12.000000,-6.000000,2.000000,-9.000000,8.000000
1298220.554038,-83.000000,-27.000000,-18.000000,-5.000000,-1.000000,1.000000,-4.000000,-15.000000
1298220.561406,26.000000,-11.000000,5.000000,10.000000,-6.000000,1.000000,6.000000,8.000000
1298220.561463,-31.000000,2.000000,10.000000,6.000000,3.000000,3.000000,-5.000000,3.000000
1298220.576936,4.000000,-23.000000,4.000000,-9.000000,-4.000000,-19.000000,-7.000000,-11.000000
1298220.577147,9.000000,26.000000,3.000000,10.000000,10.000000,5.000000,-15.000000,-18.000000
1298220.577848,0.000000,-10.000000,-2.000000,8.000000,-4.000000,3.000000,-7.000000,2.000000
1298220.577868,23.000000,-6.000000,15.000000,-4.000000,-3.000000,-5.000000,-5.000000,5.000000
1298220.599694,22.000000,0.000000,-30.000000,-8.000000,-5.000000,2.000000,2.000000,5.000000
1298220.600089,33.000000,24.000000,6.000000,-6.000000,1.000000,6.000000,7.000000,11.000000
1298220.600820,-3.000000,45.000000,-1.000000,-5.000000,-8.000000,-10.000000,-5.000000,-8.000000
1298220.600863,-40.000000,-37.000000,0.000000,2.000000,3.000000,0.000000,4.000000,4.000000
1298220.613955,-25.000000,35.000000,-6.000000,7.000000,5.000000,11.000000,-1.000000,8.000000
1298220.613993,4.000000,-52.000000,-21.000000,-6.000000,-2.000000,-7.000000,-1.000000,-2.000000
1298220.636283,-32.000000,-11.000000,-10.000000,-9.000000,-10.000000,-8.000000,11.000000,2.000000
1298220.636321,36.000000,5.000000,-3.000000,7.000000,1.000000,2.000000,-2.000000,9.000000
1298220.651299,-15.000000,-9.000000,32.000000,13.000000,1.000000,-4.000000,-9.000000,-23.000000
1298220.651350,-2.000000,76.000000,9.000000,8.000000,8.000000,-1.000000,10.000000,19.000000
1298220.674075,-35.000000,-36.000000,5.000000,-17.000000,-8.000000,-6.000000,1.000000,-4.000000
1298220.674135,-37.000000,-15.000000,-11.000000,-6.000000,3.000000,4.000000,0.000000,-12.000000
1298220.681080,6.000000,17.000000,19.000000,14.000000,2.000000,-3.000000,-2.000000,16.000000
1298220.681104,15.000000,-11.000000,2.000000,1.000000,4.000000,-13.000000,-23.000000,-40.000000
1298220.704076,-25.000000,8.000000,8.000000,4.000000,-5.000000,9.000000,6.000000,0.000000
1298220.704103,41.000000,26.000000,15.000000,-8.000000,-3.000000,1.000000,8.000000,13.000000
1298220.711329,9.000000,-1.000000,11.000000,4.000000,-2.000000,-5.000000,-1.000000,5.000000
1298220.711377,2.000000,3.000000,20.000000,15.000000,3.000000,-2.000000,-2.000000,-4.000000
1298220.713815,-2.000000,18.000000,29.000000,2.000000,3.000000,5.000000,-4.000000,-10.000000
1298220.714017,9.000000,-23.000000,-3.000000,-11.000000,-5.000000,-7.000000,2.000000,5.000000
1298220.714352,-27.000000,4.000000,-4.000000,-10.000000,-3.000000,-5.000000,-1.000000,-11.000000
1298220.714396,19.000000,86.000000,21.000000,14.000000,6.000000,12.000000,6.000000,14.000000
1298220.714712,-12.000000,-35.000000,-35.000000,-21.000000,-10.000000,-12.000000,-5.000000,-18.000000
1298220.714760,4.000000,-19.000000,-3.000000,-3.000000,-4.000000,-9.000000,-12.000000,4.000000
1298220.715154,7.000000,60.000000,-16.000000,-11.000000,-3.000000,5.000000,-3.000000,-2.000000
1298220.715177,-3.000000,12.000000,29.000000,0.000000,2.000000,0.000000,-7.000000,2.000000
1298220.718633,26.000000,-8.000000,-14.000000,-14.000000,-9.000000,-10.000000,-12.000000,1.000000
1298220.718677,-22.000000,-3.000000,16.000000,9.000000,4.000000,2.000000,1.000000,0.000000
1298220.748881,14.000000,13.000000,5.000000,-2.000000,-1.000000,2.000000,2.000000,-2.000000
1298220.748906,11.000000,-6.000000,-5.000000,-9.000000,-4.000000,-10.000000,-5.000000,0.000000
1298220.786359,-8.000000,21.000000,27.000000,15.000000,6.000000,7.000000,-1.000000,5.000000
1298220.786385,28.000000,8.000000,2.000000,0.000000,1.000000,4.000000,2.000000,5.000000
1298220.787269,-2.000000,-26.000000,-38.000000,-13.000000,-8.000000,-9.000000,-18.000000,-20.000000
1298220.787504,-41.000000,35.000000,-1.000000,4.000000,4.000000,2.000000,5.000000,-1.000000
1298220.787971,52.000000,10.000000,8.000000,13.000000,7.000000,7.000000,0.000000,23.000000
1298220.787996,-40.000000,-36.000000,-64.000000,-18.000000,-1.000000,-3.000000,-10.000000,-21.000000
1298220.789557,12.000000,-7.000000,41.000000,-6.000000,2.000000,0.000000,4.000000,4.000000
1298220.789606,-5.000000,1.000000,9.000000,3.000000,-7.000000,-5.000000,-16.000000,-16.000000
1298220.791049,3.000000,5.000000,-5.000000,6.000000,1.000000,10.000000,-1.000000,4.000000
1298220.791102,-1.000000,4.000000,-6.000000,5.000000,3.000000,-7.000000,7.000000,12.000000
1298220.801220,-6.000000,-29.000000,-43.000000,-23.000000,-7.000000,3.000000,4.000000,7.000000
1298220.801245,-12.000000,-1.000000,9.000000,2.000000,4.000000,-3.000000,6.000000,9.000000
1298220.823957,9.000000,13.000000,-5.000000,3.000000,-2.000000,-5.000000,-19.000000,-8.000000
1298220.824002,12.000000,-4.000000,-7.000000,4.000000,-4.000000,0.000000,-8.000000,-6.000000
1298220.825115,-15.000000,-12.000000,21.000000,-9.000000,-4.000000,-8.000000,2.000000,0.000000
1298220.825163,-40.000000,35.000000,9.000000,12.000000,5.000000,5.000000,6.000000,0.000000
1298220.831096,18.000000,17.000000,-6.000000,12.000000,7.000000,-3.000000,-5.000000,-16.000000
1298220.831131,20.000000,-2.000000,-7.000000,-44.000000,-15.000000,-11.000000,-6.000000,2.000000
1298220.839013,-21.000000,55.000000,6.000000,19.000000,-3.000000,1.000000,-10.000000,-10.000000
1298220.839224,28.000000,14.000000,10.000000,21.000000,13.000000,11.000000,4.000000,8.000000
1298220.854135,20.000000,-4.000000,-3.000000,-8.000000,-7.000000,-11.000000,2.000000,14.000000
1298220.854217,15.000000,-7.000000,-9.000000,-7.000000,-13.000000,-16.000000,-9.000000,-9.000000
1298220.868695,-98.000000,-62.000000,-6.000000,11.000000,1.000000,6.000000,-7.000000,-19.000000
1298220.868721,29.000000,-61.000000,-6.000000,-14.000000,1.000000,-8.000000,3.000000,14.000000
1298220.876347,-38.000000,-14.000000,-44.000000,-36.000000,-12.000000,-7.000000,0.000000,-10.000000
1298220.876372,-6.000000,-29.000000,-24.000000,12.000000,9.000000,12.000000,12.000000,0.000000
1298220.890941,28.000000,-6.000000,11.000000,12.000000,3.000000,4.000000,7.000000,12.000000
1298220.890966,-31.000000,25.000000,27.000000,-1.000000,4.000000,-8.000000,5.000000,9.000000
1298220.906407,-26.000000,-6.000000,9.000000,-4.000000,-13.000000,1.000000,-1.000000,-4.000000
1298220.906443,4.000000,-32.000000,-6.000000,9.000000,5.000000,4.000000,-3.000000,-5.000000
1298220.915006,-1.000000,1.000000,0.000000,-4.000000,-2.000000,-6.000000,9.000000,19.000000
1298220.915045,80.000000,-22.000000,2.000000,4.000000,7.000000,3.000000,2.000000,-1.000000
1298220.915785,-105.000000,-17.000000,-19.000000,0.000000,-16.000000,-1.000000,-8.000000,-19.000000
1298220.915911,-34.000000,-9.000000,-6.000000,-5.000000,3.000000,-3.000000,-6.000000,-11.000000
1298220.944417,-12.000000,1.000000,8.000000,3.000000,4.000000,-3.000000,1.000000,-12.000000
1298220.944948,35.000000,21.000000,9.000000,-15.000000,-2.000000,4.000000,3.000000,12.000000
1298220.945202,18.000000,18.000000,19.000000,1.000000,-1.000000,-5.000000,16.000000,9.000000
1298220.945242,-75.000000,-56.000000,8.000000,6.000000,2.000000,0.000000,0.000000,-9.000000
1298220.946599,32.000000,6.000000,2.000000,6.000000,6.000000,5.000000,-4.000000,-5.000000
1298220.946650,-37.000000,0.000000,-5.000000,9.000000,0.000000,-3.000000,-6.000000,-15.000000
1298220.951240,-5.000000,-7.000000,-3.000000,-31.000000,-6.000000,-1.000000,12.000000,12.000000
1298220.951681,28.000000,3.000000,-4.000000,2.000000,-5.000000,-13.000000,-6.000000,-1.000000
1298220.958655,0.000000,33.000000,-10.000000,5.000000,-2.000000,11.000000,-1.000000,2.000000
1298220.958712,18.000000,0.000000,-14.000000,-4.000000,1.000000,-1.000000,2.000000,14.000000
1298220.966322,-27.000000,-25.000000,-1.000000,-8.000000,-4.000000,-15.000000,-14.000000,-19.000000
1298220.966357,-39.000000,-25.000000,8.000000,4.000000,2.000000,5.000000,0.000000,-5.000000
1298220.996390,-3.000000,-15.000000,-17.000000,-10.000000,-5.000000,-8.000000,-15.000000,-13.000000
1298220.996416,-37.000000,-18.000000,-8.000000,-13.000000,-12.000000,-4.000000,6.000000,-8.000000
1298221.019630,17.000000,-20.000000,-1.000000,6.000000,3.000000,0.000000,2.000000,7.000000
1298221.019745,14.000000,-21.000000,-21.000000,13.000000,17.000000,-2.000000,5.000000,5.000000
1298221.022002,2.000000,20.000000,17.000000,-22.000000,-25.000000,-12.000000,-1.000000,8.000000
1298221.022109,6.000000,0.000000,-12.000000,-16.000000,0.000000,-4.000000,0.000000,-8.000000
1298221.022385,30.000000,104.000000,19.000000,28.000000,7.000000,15.000000,-2.000000,2.000000
1298221.022439,18.000000,15.000000,17.000000,12.000000,6.000000,4.000000,6.000000,14.000000
1298221.023018,41.000000,-27.000000,-24.000000,-34.000000,-14.000000,-20.000000,-16.000000,-10.000000
1298221.023057,-54.000000,-5.000000,4.000000,5.000000,1.000000,10.000000,1.000000,-11.000000
1298221.033634,13.000000,61.000000,-14.000000,9.000000,9.000000,-2.000000,-5.000000,11.000000
1298221.033690,-11.000000,-100.000000,-3.000000,-15.000000,2.000000,0.000000,-3.000000,-4.000000
1298221.056459,38.000000,1.000000,32.000000,5.000000,-6.000000,3.000000,8.000000,13.000000
1298221.056517,-45.000000,-22.000000,-20.000000,-1.000000,-3.000000,1.000000,-4.000000,-11.000000
1298221.065095,74.000000,-35.000000,-24.000000,-23.000000,-3.000000,-2.000000,-5.000000,-6.000000
1298221.065118,75.000000,112.000000,18.000000,3.000000,-3.000000,-6.000000,-5.000000,-1.000000
1298221.065976,71.000000,40.000000,-6.000000,4.000000,4.000000,5.000000,7.000000,13.000000
1298221.066002,-16.000000,-16.000000,4.000000,3.000000,0.000000,-9.000000,-4.000000,-9.000000
1298221.073419,-31.000000,-4.000000,9.000000,-19.000000,-7.000000,-6.000000,-7.000000,-13.000000
1298221.073573,10.000000,71.000000,-7.000000,16.000000,3.000000,10.000000,-2.000000,9.000000
1298221.094200,18.000000,-6.000000,12.000000,25.000000,8.000000,0.000000,-10.000000,-8.000000
1298221.094246,0.000000,-24.000000,14.000000,-23.000000,-3.000000,-6.000000,2.000000,4.000000
1298221.109326,37.000000,-21.000000,3.000000,-1.000000,1.000000,0.000000,-1.000000,-3.000000
1298221.109358,-6.000000,-17.000000,7.000000,24.000000,1.000000,-2.000000,-10.000000,-10.000000
1298221.116594,8.000000,-2.000000,-5.000000,-31.000000,-22.000000,-4.000000,6.000000,12.000000
1298221.116652,67.000000,73.000000,45.000000,12.000000,5.000000,3.000000,1.000000,7.000000
1298221.138927,-30.000000,-3.000000,22.000000,22.000000,15.000000,4.000000,-1.000000,-10.000000
1298221.138954,-2.000000,17.000000,14.000000,-12.000000,-2.000000,-8.000000,1.000000,3.000000
1298221.146269,75.000000,127.000000,14.000000,15.000000,7.000000,7.000000,3.000000,7.000000
1298221.146322,23.000000,23.000000,12.000000,3.000000,-4.000000,2.000000,-6.000000,-2.000000
1298221.184133,-60.000000,-66.000000,20.000000,4.000000,2.000000,-1.000000,-9.000000,-19.000000
1298221.184385,0.000000,-19.000000,7.000000,-8.000000,3.000000,-6.000000,5.000000,15.000000
1298221.184646,8.000000,28.000000,2.000000,-14.000000,-5.000000,-6.000000,-9.000000,-12.000000
1298221.184727,-10.000000,-8.000000,34.000000,21.000000,-2.000000,2.000000,-1.000000,-8.000000
1298221.187029,21.000000,-9.000000,-29.000000,-6.000000,-4.000000,2.000000,0.000000,3.000000
1298221.187062,-29.000000,5.000000,1.000000,-3.000000,-5.000000,-6.000000,7.000000,7.000000
1298221.187236,53.000000,8.000000,0.000000,10.000000,2.000000,-6.000000,-21.000000,-24.000000
1298221.187279,-34.000000,-18.000000,-4.000000,-12.000000,-7.000000,-4.000000,-1.000000,-1.000000
1298221.188528,12.000000,1.000000,-23.000000,-32.000000,-11.000000,-21.000000,4.000000,3.000000
1298221.188551,28.000000,-33.000000,-23.000000,-10.000000,-10.000000,-5.000000,-15.000000,-5.000000
1298221.192002,18.000000,2.000000,11.000000,-13.000000,-8.000000,-6.000000,1.000000,5.000000
1298221.192047,-5.000000,-2.000000,-17.000000,0.000000,-10.000000,2.000000,-17.000000,-16.000000
1298221.221700,-44.000000,-44.000000,-43.000000,-30.000000,-13.000000,-5.000000,5.000000,8.000000
1298221.221729,7.000000,127.000000,15.000000,14.000000,0.000000,5.000000,-1.000000,11.000000
1298221.236185,29.000000,32.000000,-18.000000,-3.000000,7.000000,5.000000,-3.000000,-7.000000
1298221.236219,-34.000000,-30.000000,13.000000,0.000000,-6.000000,-4.000000,-1.000000,1.000000
1298221.258608,68.000000,20.000000,-21.000000,-23.000000,-13.000000,-3.000000,-1.000000,7.000000
1298221.258657,-56.000000,-10.000000,17.000000,17.000000,7.000000,0.000000,0.000000,-10.000000
1298221.273765,32.000000,5.000000,-35.000000,-2.000000,-1.000000,-1.000000,-7.000000,-10.000000
1298221.273814,12.000000,16.000000,-1.000000,-4.000000,-3.000000,-3.000000,2.000000,10.000000
1298221.296521,16.000000,13.000000,-19.000000,-14.000000,2.000000,5.000000,2.000000,12.000000
1298221.296568,0.000000,50.000000,6.000000,8.000000,-6.000000,-5.000000,-14.000000,-11.000000
1298221.305009,2.000000,-24.000000,3.000000,-16.000000,-9.000000,-4.000000,-1.000000,6.000000
1298221.305065,-14.000000,-13.000000,-5.000000,6.000000,0.000000,-4.000000,1.000000,-1.000000
1298221.305332,-24.000000,3.000000,4.000000,-13.000000,-2.000000,-2.000000,-8.000000,-11.000000
1298221.305384,-11.000000,-19.000000,-3.000000,-5.000000,-2.000000,-5.000000,5.000000,6.000000
1298221.307107,4.000000,-18.000000,36.000000,3.000000,0.000000,9.000000,-2.000000,-6.000000
1298221.307169,-14.000000,-6.000000,2.000000,-5.000000,0.000000,-7.000000,6.000000,-4.000000
1298221.312307,-42.000000,-17.000000,-4.000000,12.000000,-2.000000,1.000000,-23.000000,-39.000000
1298221.312409,-46.000000,-20.000000,12.000000,9.000000,3.000000,-4.000000,0.000000,0.000000
1298221.333971,21.000000,14.000000,2.000000,10.000000,0.000000,-6.000000,1.000000,13.000000
1298221.333998,-24.000000,38.000000,-48.000000,-30.000000,-11.000000,0.000000,1.000000,-7.000000
1298221.349126,-47.000000,-23.000000,-22.000000,5.000000,-3.000000,-1.000000,2.000000,-11.000000
1298221.349153,4.000000,11.000000,33.000000,14.000000,4.000000,-8.000000,0.000000,-6.000000
1298221.371668,38.000000,-6.000000,-3.000000,8.000000,6.000000,7.000000,0.000000,11.000000
1298221.371696,0.000000,60.000000,26.000000,3.000000,-4.000000,3.000000,3.000000,3.000000
1298221.379751,49.000000,-39.000000,12.000000,2.000000,1.000000,-5.000000,-4.000000,-5.000000
1298221.379790,-108.000000,-40.000000,-32.000000,-11.000000,-5.000000,-10.000000,-9.000000,-13.000000
1298221.380368,-11.000000,-10.000000,25.000000,16.000000,1.000000,-5.000000,-3.000000,-9.000000
1298221.380409,24.000000,-19.000000,8.000000,6.000000,-1.000000,0.000000,3.000000,8.000000
1298221.382204,-9.000000,-8.000000,11.000000,-24.000000,-6.000000,-3.000000,3.000000,5.000000
1298221.382252,-3.000000,4.000000,7.000000,14.000000,-2.000000,5.000000,-3.000000,-13.000000
1298221.382822,0.000000,12.000000,7.000000,8.000000,4.000000,-6.000000,9.000000,0.000000
1298221.382858,-13.000000,-26.000000,-28.000000,-31.000000,-23.000000,-6.000000,-8.000000,-6.000000
1298221.394831,6.000000,14.000000,-1.000000,-3.000000,-3.000000,-4.000000,-3.000000,-5.000000
1298221.394890,18.000000,14.000000,6.000000,13.000000,7.000000,10.000000,10.000000,17.000000
1298221.408555,68.000000,15.000000,12.000000,-4.000000,1.000000,-7.000000,2.000000,1.000000
1298221.408607,-100.000000,15.000000,-12.000000,-8.000000,-7.000000,-1.000000,-17.000000,-27.000000
1298221.417055,9.000000,-22.000000,5.000000,16.000000,5.000000,8.000000,8.000000,10.000000
1298221.417138,15.000000,-4.000000,49.000000,5.000000,3.000000,-6.000000,4.000000,9.000000
1298221.423658,39.000000,-9.000000,-49.000000,-24.000000,-10.000000,-1.000000,4.000000,17.000000
1298221.423703,-67.000000,-12.000000,-12.000000,-4.000000,-4.000000,3.000000,-26.000000,-36.000000
1298221.461441,8.000000,2.000000,11.000000,-3.000000,-10.000000,-1.000000,8.000000,3.000000
1298221.461485,4.000000,24.000000,33.000000,14.000000,21.000000,-1.000000,7.000000,9.000000
1298221.468849,27.000000,8.000000,-23.000000,-13.000000,-4.000000,2.000000,0.000000,6.000000
1298221.468886,-7.000000,27.000000,5.000000,17.000000,-4.000000,3.000000,-3.000000,-15.000000
1298221.498671,-11.000000,3.000000,0.000000,-8.000000,-5.000000,-1.000000,6.000000,14.000000
1298221.498702,17.000000,14.000000,-27.000000,0.000000,-3.000000,0.000000,-3.000000,6.000000
1298221.500083,24.000000,6.000000,-1.000000,12.000000,5.000000,6.000000,-2.000000,-5.000000
1298221.500429,-17.000000,-15.000000,-18.000000,-6.000000,5.000000,0.000000,7.000000,6.000000
1298221.501338,-17.000000,-15.000000,-7.000000,-20.000000,-11.000000,-8.000000,-12.000000,-14.000000
1298221.501382,-8.000000,15.000000,14.000000,9.000000,1.000000,7.000000,4.000000,0.000000
1298221.502434,-1.000000,-6.000000,8.000000,0.000000,7.000000,-2.000000,-6.000000,1.000000
1298221.502460,37.000000,11.000000,-15.000000,-2.000000,3.000000,8.000000,13.000000,22.000000
1298221.503318,11.000000,-7.000000,9.000000,-4.000000,0.000000,3.000000,8.000000,12.000000
1298221.503364,46.000000,17.000000,11.000000,6.000000,0.000000,0.000000,2.000000,12.000000
1298221.544188,-30.000000,-12.000000,-3.000000,12.000000,1.000000,0.000000,-1.000000,-13.000000
1298221.544557,-11.000000,1.000000,-3.000000,-18.000000,-4.000000,-9.000000,-2.000000,4.000000
1298221.546267,-1.000000,-9.000000,13.000000,10.000000,11.000000,4.000000,5.000000,4.000000
1298221.546318,8.000000,21.000000,-12.000000,-7.000000,-8.000000,5.000000,0.000000,6.000000
1298221.546747,3.000000,4.000000,35.000000,2.000000,0.000000,-10.000000,1.000000,-1.000000
1298221.546767,4.000000,-11.000000,13.000000,5.000000,-3.000000,0.000000,0.000000,3.000000
1298221.547144,-7.000000,-4.000000,-8.000000,2.000000,-1.000000,2.000000,-10.000000,-6.000000
1298221.547183,-20.000000,10.000000,7.000000,7.000000,3.000000,1.000000,-1.000000,-7.000000
1298221.573953,9.000000,-5.000000,6.000000,-6.000000,-1.000000,-3.000000,9.000000,9.000000
1298221.573980,13.000000,-13.000000,-25.000000,-11.000000,-12.000000,-2.000000,-3.000000,5.000000
1298221.588714,22.000000,3.000000,-9.000000,-2.000000,-1.000000,3.000000,-3.000000,-1.000000
1298221.588737,-59.000000,-73.000000,10.000000,2.000000,-8.000000,-21.000000,-12.000000,-33.000000
1298221.619031,-4.000000,1.000000,14.000000,-3.000000,-3.000000,-2.000000,2.000000,-6.000000
1298221.619164,36.000000,15.000000,-9.000000,8.000000,2.000000,9.000000,-3.000000,9.000000
1298221.619600,0.000000,34.000000,7.000000,2.000000,6.000000,1.000000,2.000000,2.000000
1298221.619651,8.000000,-12.000000,16.000000,-11.000000,-9.000000,-12.000000,-3.000000,-7.000000
1298221.621822,-13.000000,-61.000000,10.000000,15.000000,5.000000,-8.000000,1.000000,4.000000
1298221.621861,1.000000,0.000000,-14.000000,-24.000000,-16.000000,-2.000000,-5.000000,-2.000000
1298221.622115,-41.000000,78.000000,22.000000,10.000000,5.000000,3.000000,0.000000,1.000000
1298221.622146,51.000000,10.000000,-16.000000,14.000000,16.000000,17.000000,0.000000,6.000000
1298221.623267,33.000000,9.000000,11.000000,16.000000,6.000000,8.000000,7.000000,1.000000
1298221.623316,8.000000,13.000000,4.000000,3.000000,2.000000,-8.000000,5.000000,12.000000
1298221.635095,25.000000,89.000000,20.000000,9.000000,-1.000000,8.000000,4.000000,4.000000
1298221.635140,-11.000000,-20.000000,0.000000,-13.000000,-1.000000,-8.000000,4.000000,13.000000
1298221.648689,21.000000,25.000000,1.000000,8.000000,0.000000,-7.000000,-6.000000,-5.000000
1298221.648728,-35.000000,-9.000000,14.000000,4.000000,3.000000,3.000000,3.000000,-6.000000
1298221.657236,6.000000,-7.000000,3.000000,5.000000,-2.000000,-5.000000,8.000000,13.000000
1298221.657289,17.000000,-7.000000,-1.000000,-19.000000,-3.000000,-8.000000,-9.000000,-14.000000
1298221.663918,-81.000000,-28.000000,-23.000000,6.000000,-9.000000,-1.000000,-18.000000,-29.000000
1298221.663967,8.000000,-4.000000,-4.000000,-5.000000,-4.000000,-2.000000,12.000000,7.000000
1298221.686488,-11.000000,-8.000000,7.000000,-4.000000,-1.000000,-11.000000,-1.000000,-3.000000
1298221.686516,4.000000,7.000000,10.000000,25.000000,8.000000,-1.000000,-9.000000,2.000000
1298221.693812,19.000000,5.000000,-16.000000,-2.000000,7.000000,-1.000000,8.000000,10.000000
1298221.693837,-57.000000,-78.000000,-16.000000,-24.000000,-14.000000,-7.000000,-12.000000,-31.000000
1298221.708800,-30.000000,22.000000,-7.000000,8.000000,-3.000000,0.000000,-4.000000,-11.000000
1298221.708852,6.000000,0.000000,-1.000000,0.000000,0.000000,2.000000,5.000000,10.000000
1298221.724492,14.000000,6.000000,10.000000,2.000000,1.000000,-3.000000,6.000000,13.000000
1298221.724518,15.000000,-1.000000,-15.000000,-5.000000,-1.000000,3.000000,2.000000,-1.000000
1298221.739094,23.000000,46.000000,-5.000000,15.000000,4.000000,5.000000,-1.000000,-1.000000
1298221.739148,-76.000000,23.000000,-9.000000,-18.000000,-18.000000,4.000000,-4.000000,-10.000000
1298221.740375,23.000000,4.000000,5.000000,6.000000,1.000000,-3.000000,-3.000000,2.000000
1298221.740419,-20.000000,-2.000000,4.000000,7.000000,4.000000,3.000000,8.000000,1.000000
1298221.741878,30.000000,-27.000000,-2.000000,-5.000000,5.000000,-6.000000,1.000000,7.000000
1298221.741930,33.000000,-9.000000,-10.000000,-11.000000,-11.000000,-14.000000,3.000000,-1.000000
1298221.742553,-38.000000,-7.000000,-2.000000,-7.000000,-11.000000,1.000000,-7.000000,-21.000000
1298221.742578,-27.000000,-44.000000,-26.000000,-9.000000,-3.000000,-1.000000,14.000000,4.000000
1298221.763318,-9.000000,-83.000000,-40.000000,-13.000000,-3.000000,-2.000000,5.000000,15.000000
1298221.763362,-31.000000,-17.000000,-12.000000,-1.000000,-11.000000,-10.000000,-10.000000,-16.000000
1298221.763639,22.000000,31.000000,14.000000,12.000000,3.000000,8.000000,4.000000,3.000000
1298221.763658,0.000000,-12.000000,-2.000000,-7.000000,-4.000000,-7.000000,8.000000,9.000000
1298221.777381,-45.000000,-7.000000,4.000000,0.000000,2.000000,-2.000000,4.000000,3.000000
1298221.777429,20.000000,-38.000000,-26.000000,10.000000,-7.000000,-2.000000,-6.000000,-21.000000
1298221.783625,2.000000,46.000000,-34.000000,-26.000000,-2.000000,2.000000,0.000000,-19.000000
1298221.783754,-15.000000,-7.000000,24.000000,-2.000000,-4.000000,1.000000,11.000000,10.000000
1298221.798744,5.000000,7.000000,10.000000,9.000000,5.000000,5.000000,0.000000,-4.000000
1298221.798796,14.000000,0.000000,14.000000,13.000000,5.000000,-3.000000,3.000000,1.000000
1298221.813835,-15.000000,-6.000000,21.000000,6.000000,3.000000,-9.000000,5.000000,2.000000
1298221.813883,6.000000,-5.000000,-43.000000,-26.000000,-16.000000,1.000000,-11.000000,-7.000000
1298221.829020,-9.000000,8.000000,24.000000,16.000000,5.000000,2.000000,-6.000000,-6.000000
1298221.829388,12.000000,21.000000,11.000000,-3.000000,3.000000,-6.000000,-1.000000,-2.000000
1298221.830375,-15.000000,-14.000000,-8.000000,-9.000000,-5.000000,-6.000000,-5.000000,-6.000000
1298221.830430,32.000000,12.000000,6.000000,12.000000,2.000000,8.000000,-2.000000,2.000000
1298221.831320,-13.000000,-6.000000,10.000000,7.000000,2.000000,-1.000000,4.000000,11.000000
1298221.831371,46.000000,127.000000,-67.000000,-28.000000,-16.000000,2.000000,1.000000,7.000000
1298221.843659,-44.000000,-3.000000,12.000000,17.000000,-1.000000,2.000000,-20.000000,-42.000000
1298221.843695,39.000000,35.000000,-2.000000,14.000000,7.000000,10.000000,11.000000,17.000000
1298221.858538,4.000000,-3.000000,3.000000,-4.000000,5.000000,4.000000,5.000000,10.000000
1298221.858584,13.000000,-4.000000,6.000000,6.000000,3.000000,4.000000,-1.000000,10.000000
1298221.859357,53.000000,111.000000,-22.000000,3.000000,-2.000000,0.000000,-7.000000,-14.000000
1298221.859402,-70.000000,-56.000000,-9.000000,-16.000000,-14.000000,-16.000000,-16.000000,-15.000000
1298221.874595,-17.000000,-15.000000,5.000000,-1.000000,0.000000,-4.000000,-1.000000,0.000000
1298221.874749,37.000000,28.000000,3.000000,8.000000,7.000000,10.000000,5.000000,14.000000
1298221.888665,29.000000,1.000000,-21.000000,-14.000000,-3.000000,4.000000,17.000000,28.000000
1298221.888715,16.000000,22.000000,-16.000000,3.000000,3.000000,-12.000000,-1.000000,-1.000000
1298221.904050,17.000000,-2.000000,3.000000,-3.000000,-11.000000,9.000000,-7.000000,-19.000000
1298221.904213,-115.000000,-14.000000,1.000000,3.000000,-4.000000,-8.000000,-4.000000,-19.000000
1298221.926422,22.000000,-10.000000,-8.000000,-12.000000,1.000000,2.000000,7.000000,17.000000
1298221.926471,7.000000,-17.000000,-7.000000,10.000000,6.000000,2.000000,-5.000000,4.000000
1298221.941673,40.000000,76.000000,9.000000,6.000000,0.000000,7.000000,1.000000,7.000000
1298221.941707,11.000000,-3.000000,-21.000000,-9.000000,0.000000,-10.000000,-1.000000,2.000000
1298221.949026,4.000000,4.000000,-3.000000,12.000000,-7.000000,-6.000000,-5.000000,-1.000000
1298221.949196,18.000000,-14.000000,19.000000,-5.000000,-4.000000,3.000000,-1.000000,-6.000000
1298221.963860,-4.000000,-77.000000,-55.000000,-31.000000,-15.000000,-16.000000,-13.000000,-26.000000
1298221.963889,-10.000000,-18.000000,11.000000,-5.000000,-2.000000,-4.000000,0.000000,1.000000
1298221.971122,-7.000000,15.000000,23.000000,28.000000,4.000000,8.000000,2.000000,4.000000
1298221.971146,13.000000,-4.000000,-15.000000,-15.000000,-3.000000,-9.000000,2.000000,6.000000
1298221.986203,-1.000000,7.000000,11.000000,-3.000000,-4.000000,-10.000000,-3.000000,-11.000000
1298221.986265,-39.000000,-15.000000,-1.000000,3.000000,-2.000000,9.000000,-10.000000,-12.000000
1298221.987476,15.000000,4.000000,12.000000,21.000000,9.000000,9.000000,5.000000,5.000000
1298221.987530,19.000000,10.000000,12.000000,-9.000000,-1.000000,-5.000000,-1.000000,11.000000
1298221.989012,-21.000000,-17.000000,-1.000000,5.000000,3.000000,0.000000,2.000000,3.000000
1298221.989050,21.000000,10.000000,3.000000,8.000000,-2.000000,4.000000,-2.000000,-5.000000
1298221.989456,-22.000000,-19.000000,11.000000,8.000000,1.000000,-1.000000,3.000000,-8.000000
1298221.989502,4.000000,-9.000000,-20.000000,-27.000000,-7.000000,-5.000000,-2.000000,-5.000000
1298222.001796,2.000000,-12.000000,-13.000000,-2.000000,-5.000000,6.000000,1.000000,1.000000
1298222.001867,33.000000,76.000000,16.000000,14.000000,-1.000000,2.000000,2.000000,-2.000000
1298222.017078,0.000000,-23.000000,-31.000000,-15.000000,-3.000000,-5.000000,1.000000,14.000000
1298222.017110,-6.000000,-1.000000,9.000000,5.000000,2.000000,-7.000000,-6.000000,-8.000000
1298222.018433,41.000000,76.000000,19.000000,20.000000,20.000000,17.000000,3.000000,2.000000
1298222.018460,-58.000000,-19.000000,10.000000,-11.000000,-7.000000,-3.000000,6.000000,8.000000
1298222.023654,22.000000,-5.000000,-29.000000,-7.000000,-5.000000,-4.000000,-14.000000,-11.000000
1298222.023705,-18.000000,14.000000,28.000000,22.000000,10.000000,9.000000,-3.000000,-4.000000
1298222.053938,27.000000,4.000000,-16.000000,-15.000000,-2.000000,1.000000,4.000000,8.000000
1298222.053995,-8.000000,-6.000000,4.000000,-2.000000,-12.000000,-9.000000,-1.000000,5.000000
1298222.061296,5.000000,-31.000000,-8.000000,9.000000,-3.000000,-1.000000,-3.000000,-3.000000
1298222.061352,4.000000,3.000000,1.000000,-3.000000,-7.000000,-12.000000,-14.000000,-14.000000
1298222.092863,-11.000000,13.000000,11.000000,11.000000,3.000000,2.000000,0.000000,4.000000
1298222.093613,9.000000,-18.000000,5.000000,-14.000000,-10.000000,-16.000000,-7.000000,-2.000000
1298222.094059,-56.000000,-5.000000,7.000000,-8.000000,1.000000,-3.000000,0.000000,-4.000000
1298222.094461,22.000000,-14.000000,-32.000000,-19.000000,3.000000,5.000000,-1.000000,5.000000
1298222.096337,13.000000,23.000000,27.000000,12.000000,12.000000,7.000000,15.000000,2.000000
1298222.096387,21.000000,-35.000000,-4.000000,14.000000,1.000000,-7.000000,-38.000000,-11.000000
1298222.096652,-35.000000,10.000000,10.000000,-25.000000,-2.000000,1.000000,11.000000,7.000000
1298222.096701,39.000000,17.000000,-6.000000,-4.000000,-5.000000,10.000000,11.000000,6.000000
1298222.097511,-66.000000,48.000000,17.000000,12.000000,4.000000,5.000000,-1.000000,6.000000
1298222.097565,25.000000,10.000000,-17.000000,-12.000000,-12.000000,-15.000000,-11.000000,-3.000000
1298222.107075,-7.000000,-4.000000,-8.000000,-6.000000,3.000000,-1.000000,9.000000,1.000000
1298222.107115,-7.000000,8.000000,0.000000,7.000000,0.000000,6.000000,0.000000,0.000000
1298222.129103,23.000000,9.000000,12.000000,7.000000,3.000000,0.000000,5.000000,7.000000
1298222.129250,40.000000,15.000000,18.000000,2.000000,10.000000,7.000000,23.000000,15.000000
1298222.129844,-42.000000,-71.000000,-3.000000,-1.000000,-7.000000,-7.000000,-24.000000,-23.000000
1298222.129866,-45.000000,-7.000000,19.000000,13.000000,3.000000,3.000000,3.000000,-21.000000
1298222.136395,45.000000,14.000000,7.000000,3.000000,5.000000,1.000000,10.000000,16.000000
1298222.136424,-36.000000,-26.000000,-13.000000,-11.000000,1.000000,1.000000,4.000000,14.000000
1298222.143949,18.000000,2.000000,1.000000,2.000000,-5.000000,1.000000,-8.000000,-11.000000
1298222.143997,54.000000,17.000000,31.000000,12.000000,3.000000,2.000000,3.000000,-3.000000
1298222.174386,-128.000000,-77.000000,-18.000000,-11.000000,-4.000000,-1.000000,-3.000000,-7.000000
1298222.174415,100.000000,127.000000,17.000000,26.000000,10.000000,14.000000,7.000000,28.000000
1298222.181924,68.000000,39.000000,2.000000,4.000000,4.000000,-3.000000,6.000000,1.000000
1298222.181956,-89.000000,-36.000000,-9.000000,3.000000,-7.000000,-5.000000,-3.000000,-28.000000
1298222.212224,-25.000000,-23.000000,-1.000000,-3.000000,-4.000000,-1.000000,-10.000000,-6.000000
1298222.212308,79.000000,40.000000,26.000000,24.000000,9.000000,7.000000,9.000000,13.000000
1298222.212635,13.000000,21.000000,13.000000,0.000000,12.000000,1.000000,3.000000,7.000000
1298222.212689,2.000000,-70.000000,-12.000000,4.000000,-5.000000,0.000000,-8.000000,-8.000000
1298222.214664,-6.000000,7.000000,-7.000000,4.000000,-1.000000,3.000000,-11.000000,3.000000
1298222.214700,10.000000,8.000000,31.000000,7.000000,3.000000,1.000000,-4.000000,-15.000000
1298222.215448,-11.000000,-14.000000,-7.000000,-7.000000,0.000000,-7.000000,-3.000000,7.000000
1298222.215596,27.000000,35.000000,17.000000,15.000000,8.000000,6.000000,2.000000,7.000000
1298222.226148,38.000000,2.000000,23.000000,20.000000,9.000000,-6.000000,-17.000000,-9.000000
1298222.226198,-26.000000,9.000000,2.000000,-10.000000,1.000000,7.000000,11.000000,5.000000
1298222.250211,4.000000,-6.000000,-5.000000,-1.000000,-3.000000,-8.000000,-10.000000,-4.000000
1298222.250411,-4.000000,5.000000,-16.000000,-19.000000,-12.000000,0.000000,-10.000000,-3.000000
1298222.250648,-10.000000,-109.000000,-17.000000,-8.000000,-3.000000,-4.000000,-1.000000,-12.000000
1298222.250696,33.000000,34.000000,4.000000,3.000000,4.000000,3.000000,11.000000,17.000000
1298222.256379,4.000000,5.000000,14.000000,-5.000000,-6.000000,-6.000000,-1.000000,5.000000
1298222.256429,6.000000,24.000000,0.000000,10.000000,-3.000000,8.000000,-5.000000,-2.000000
1298222.264030,53.000000,-9.000000,-28.000000,-2.000000,5.000000,7.000000,13.000000,9.000000
1298222.264079,-43.000000,0.000000,-8.000000,-12.000000,-1.000000,-8.000000,-7.000000,-9.000000
1298222.293699,-79.000000,-18.000000,5.000000,4.000000,3.000000,0.000000,3.000000,-7.000000
1298222.293839,41.000000,6.000000,4.000000,11.000000,-2.000000,6.000000,1.000000,2.000000
1298222.301405,1.000000,5.000000,12.000000,-1.000000,1.000000,-1.000000,3.000000,12.000000
1298222.301432,17.000000,-8.000000,-23.000000,-6.000000,8.000000,-5.000000,2.000000,-10.000000
1298222.331230,-33.000000,-8.000000,-18.000000,-4.000000,-3.000000,11.000000,-5.000000,-11.000000
1298222.331290,-34.000000,1.000000,22.000000,-12.000000,-11.000000,-11.000000,5.000000,1.000000
1298222.333080,13.000000,2.000000,9.000000,0.000000,-1.000000,-2.000000,-6.000000,2.000000
1298222.333131,27.000000,-56.000000,5.000000,5.000000,6.000000,3.000000,-2.000000,-5.000000
1298222.334034,42.000000,84.000000,17.000000,14.000000,11.000000,12.000000,13.000000,13.000000
1298222.334077,-43.000000,-101.000000,-45.000000,-27.000000,-6.000000,-13.000000,-9.000000,0.000000
1298222.335520,-14.000000,-15.000000,3.000000,-11.000000,-4.000000,8.000000,0.000000,8.000000
1298222.335569,13.000000,-6.000000,7.000000,13.000000,3.000000,-2.000000,2.000000,-9.000000
1298222.335763,38.000000,-7.000000,-9.000000,-13.000000,-7.000000,-9.000000,-8.000000,-8.000000
1298222.335780,-42.000000,-2.000000,4.000000,-1.000000,-3.000000,4.000000,3.000000,7.000000
1298222.347120,27.000000,12.000000,13.000000,22.000000,11.000000,4.000000,-2.000000,3.000000
1298222.347172,25.000000,-36.000000,-14.000000,-19.000000,-8.000000,-2.000000,8.000000,13.000000
1298222.376435,-32.000000,-6.000000,4.000000,-3.000000,-1.000000,-7.000000,-2.000000,-12.000000
1298222.376540,10.000000,0.000000,-10.000000,12.000000,3.000000,7.000000,-12.000000,-3.000000
1298222.376894,42.000000,4.000000,-2.000000,2.000000,2.000000,0.000000,-5.000000,-15.000000
1298222.376942,-39.000000,-22.000000,-45.000000,-22.000000,-11.000000,2.000000,2.000000,6.000000
1298222.383803,-14.000000,9.000000,10.000000,10.000000,7.000000,6.000000,-5.000000,-5.000000
1298222.383850,24.000000,3.000000,-9.000000,1.000000,0.000000,-1.000000,-3.000000,-1.000000
1298222.406747,-3.000000,4.000000,2.000000,-17.000000,-1.000000,0.000000,1.000000,8.000000
1298222.406807,13.000000,13.000000,7.000000,11.000000,5.000000,-3.000000,6.000000,6.000000
1298222.421837,-7.000000,-20.000000,-28.000000,-12.000000,-9.000000,2.000000,-6.000000,-15.000000
1298222.422043,11.000000,15.000000,24.000000,1.000000,4.000000,3.000000,1.000000,12.000000
1298222.422401,33.000000,-7.000000,-8.000000,-8.000000,2.000000,-5.000000,-8.000000,-5.000000
1298222.422451,-21.000000,-12.000000,-2.000000,-8.000000,-10.000000,4.000000,-1.000000,-6.000000
1298222.424092,-13.000000,9.000000,12.000000,-9.000000,0.000000,-2.000000,2.000000,-4.000000
1298222.424145,-19.000000,-33.000000,-23.000000,-11.000000,-7.000000,-9.000000,-5.000000,-6.000000
1298222.424572,42.000000,0.000000,10.000000,11.000000,2.000000,2.000000,-7.000000,-7.000000
1298222.424626,-18.000000,-20.000000,-1.000000,6.000000,8.000000,2.000000,7.000000,1.000000
1298222.451625,-16.000000,3.000000,21.000000,-1.000000,7.000000,-4.000000,11.000000,14.000000
1298222.451761,23.000000,55.000000,24.000000,15.000000,15.000000,16.000000,14.000000,20.000000
1298222.459355,-5.000000,6.000000,-40.000000,-17.000000,-15.000000,0.000000,-25.000000,-17.000000
1298222.459413,-101.000000,-36.000000,-10.000000,-7.000000,-5.000000,-3.000000,4.000000,-27.000000
1298222.489339,13.000000,0.000000,11.000000,5.000000,3.000000,2.000000,5.000000,13.000000
1298222.489399,41.000000,13.000000,8.000000,1.000000,6.000000,6.000000,5.000000,13.000000
1298222.489845,4.000000,40.000000,11.000000,7.000000,5.000000,2.000000,1.000000,-2.000000
1298222.490331,-8.000000,-3.000000,3.000000,-16.000000,-6.000000,-14.000000,-10.000000,-6.000000
1298222.491307,11.000000,-29.000000,8.000000,18.000000,12.000000,8.000000,5.000000,12.000000
1298222.491355,10.000000,4.000000,-13.000000,6.000000,-7.000000,0.000000,-2.000000,-4.000000
1298222.493073,-13.000000,-6.000000,-15.000000,-20.000000,-5.000000,-5.000000,4.000000,-1.000000
1298222.493125,24.000000,-16.000000,4.000000,7.000000,6.000000,5.000000,2.000000,8.000000
1298222.496638,-16.000000,3.000000,8.000000,-5.000000,0.000000,2.000000,-5.000000,-19.000000
1298222.496689,-1.000000,11.000000,0.000000,2.000000,-2.000000,-5.000000,5.000000,7.000000
1298222.504127,-23.000000,-53.000000,1.000000,-18.000000,-6.000000,-8.000000,-4.000000,-6.000000
1298222.504327,-8.000000,2.000000,-1.000000,10.000000,5.000000,7.000000,-1.000000,-14.000000
1298222.519027,-2.000000,18.000000,-33.000000,-5.000000,1.000000,2.000000,4.000000,8.000000
1298222.519075,3.000000,2.000000,17.000000,1.000000,-10.000000,-9.000000,-11.000000,-17.000000
1298222.526598,-2.000000,-7.000000,-9.000000,11.000000,5.000000,6.000000,3.000000,3.000000
1298222.526654,21.000000,5.000000,5.000000,7.000000,2.000000,5.000000,5.000000,9.000000
1298222.534463,14.000000,6.000000,2.000000,8.000000,5.000000,0.000000,3.000000,2.000000
1298222.534501,-32.000000,-47.000000,-53.000000,-33.000000,-17.000000,-7.000000,-13.000000,-7.000000
1298222.541740,14.000000,-7.000000,-47.000000,-13.000000,-11.000000,-5.000000,-19.000000,-22.000000
1298222.541795,-57.000000,-10.000000,6.000000,3.000000,-5.000000,-3.000000,4.000000,-3.000000
1298222.578924,12.000000,-10.000000,0.000000,-6.000000,-2.000000,-5.000000,2.000000,1.000000
1298222.578950,11.000000,14.000000,5.000000,12.000000,7.000000,6.000000,0.000000,3.000000
1298222.593944,22.000000,12.000000,5.000000,6.000000,3.000000,3.000000,6.000000,8.000000
1298222.594289,10.000000,-2.000000,-19.000000,-10.000000,0.000000,-1.000000,2.000000,-2.000000
1298222.596181,-15.000000,-11.000000,-7.000000,-5.000000,0.000000,1.000000,-12.000000,-6.000000
1298222.596402,-52.000000,-13.000000,12.000000,7.000000,-2.000000,-1.000000,-1.000000,-13.000000
1298222.596688,14.000000,-7.000000,9.000000,-10.000000,-4.000000,-6.000000,0.000000,5.000000
1298222.596712,-10.000000,-9.000000,7.000000,-2.000000,1.000000,1.000000,5.000000,7.000000
1298222.609386,16.000000,24.000000,8.000000,5.000000,0.000000,-5.000000,-4.000000,-6.000000
1298222.609427,-2.000000,1.000000,-5.000000,0.000000,2.000000,-1.000000,-4.000000,-7.000000
1298222.610317,-30.000000,-5.000000,13.000000,6.000000,1.000000,5.000000,-2.000000,4.000000
1298222.610433,53.000000,6.000000,-17.000000,8.000000,8.000000,3.000000,-5.000000,-8.000000
1298222.616446,-68.000000,-7.000000,-4.000000,4.000000,-9.000000,-14.000000,-23.000000,-23.000000
1298222.616485,-16.000000,-18.000000,-6.000000,-5.000000,-4.000000,5.000000,7.000000,5.000000
1298222.624089,27.000000,21.000000,12.000000,10.000000,8.000000,11.000000,10.000000,18.000000
1298222.624116,14.000000,4.000000,-1.000000,3.000000,4.000000,3.000000,1.000000,9.000000
1298222.654078,-7.000000,0.000000,53.000000,7.000000,11.000000,-11.000000,5.000000,7.000000
1298222.654111,-41.000000,-22.000000,-32.000000,-33.000000,-24.000000,-14.000000,-17.000000,-23.000000
1298222.661643,14.000000,-2.000000,8.000000,-3.000000,-5.000000,1.000000,-9.000000,-13.000000
1298222.661692,-80.000000,28.000000,0.000000,-9.000000,-5.000000,-2.000000,4.000000,-7.000000
1298222.683773,19.000000,4.000000,8.000000,-2.000000,4.000000,2.000000,6.000000,14.000000
1298222.683919,41.000000,17.000000,5.000000,10.000000,7.000000,5.000000,4.000000,14.000000
1298222.692220,44.000000,3.000000,-12.000000,-10.000000,-3.000000,-3.000000,3.000000,6.000000
1298222.692259,-50.000000,-27.000000,-13.000000,-1.000000,-1.000000,-8.000000,-3.000000,-11.000000
1298222.693317,23.000000,16.000000,21.000000,19.000000,6.000000,-2.000000,-3.000000,3.000000
1298222.693368,45.000000,1.000000,-7.000000,-5.000000,-2.000000,1.000000,0.000000,2.000000
1298222.694083,-79.000000,-22.000000,11.000000,-18.000000,-11.000000,-9.000000,-4.000000,-9.000000
1298222.694111,-30.000000,-37.000000,-8.000000,5.000000,1.000000,4.000000,2.000000,-12.000000
1298222.695273,40.000000,28.000000,-21.000000,4.000000,6.000000,6.000000,9.000000,14.000000
1298222.695319,11.000000,10.000000,-5.000000,5.000000,9.000000,7.000000,10.000000,18.000000
1298222.706626,32.000000,1.000000,34.000000,16.000000,4.000000,-3.000000,2.000000,3.000000
1298222.706683,-12.000000,-10.000000,-13.000000,-7.000000,-6.000000,5.000000,-15.000000,-4.000000
1298222.722297,-54.000000,-12.000000,5.000000,2.000000,0.000000,-4.000000,0.000000,-22.000000
1298222.722634,17.000000,-9.000000,0.000000,-4.000000,-2.000000,-4.000000,1.000000,2.000000
1298222.723083,16.000000,16.000000,20.000000,4.000000,5.000000,3.000000,7.000000,12.000000
1298222.723125,43.000000,15.000000,-34.000000,-19.000000,-8.000000,11.000000,2.000000,10.000000
1298222.736507,-5.000000,-3.000000,1.000000,-2.000000,-2.000000,-6.000000,1.000000,5.000000
1298222.736557,10.000000,-12.000000,6.000000,-1.000000,4.000000,5.000000,-1.000000,6.000000
1298222.766356,5.000000,-36.000000,-12.000000,8.000000,6.000000,9.000000,-5.000000,-11.000000
1298222.766405,-2.000000,-39.000000,-6.000000,0.000000,-1.000000,-9.000000,-2.000000,-6.000000
1298222.797261,39.000000,70.000000,-1.000000,1.000000,-6.000000,10.000000,4.000000,10.000000
1298222.797305,11.000000,-19.000000,16.000000,26.000000,9.000000,8.000000,-1.000000,2.000000
1298222.798536,24.000000,11.000000,16.000000,19.000000,6.000000,6.000000,-2.000000,0.000000
1298222.798602,-3.000000,2.000000,21.000000,2.000000,-1.000000,-8.000000,3.000000,3.000000
1298222.800019,61.000000,-4.000000,8.000000,6.000000,2.000000,3.000000,-2.000000,-9.000000
1298222.800683,-89.000000,-33.000000,-22.000000,-1.000000,4.000000,3.000000,-7.000000,-8.000000
1298222.801538,23.000000,34.000000,-9.000000,-8.000000,-9.000000,-4.000000,0.000000,7.000000
1298222.801586,19.000000,30.000000,4.000000,3.000000,8.000000,15.000000,9.000000,13.000000
1298222.802141,38.000000,10.000000,-41.000000,-5.000000,-2.000000,-3.000000,-4.000000,-1.000000
1298222.802188,-21.000000,-5.000000,25.000000,-1.000000,3.000000,-7.000000,-3.000000,-9.000000
1298222.804285,3.000000,-25.000000,-75.000000,-10.000000,1.000000,4.000000,3.000000,5.000000
1298222.804401,13.000000,-19.000000,-8.000000,8.000000,-12.000000,-5.000000,-11.000000,-21.000000
1298222.813118,-51.000000,-14.000000,2.000000,10.000000,3.000000,3.000000,4.000000,5.000000
1298222.813178,19.000000,11.000000,9.000000,-3.000000,0.000000,2.000000,5.000000,11.000000
1298222.848188,41.000000,22.000000,9.000000,4.000000,6.000000,6.000000,-3.000000,0.000000
1298222.848330,-6.000000,-9.000000,-11.000000,-1.000000,-7.000000,-11.000000,-5.000000,-13.000000
1298222.849507,50.000000,99.000000,55.000000,32.000000,7.000000,0.000000,3.000000,9.000000
1298222.849539,-6.000000,-19.000000,-27.000000,-17.000000,-8.000000,-6.000000,-8.000000,-6.000000
1298222.855963,22.000000,-11.000000,-9.000000,-3.000000,-5.000000,3.000000,-2.000000,-6.000000
1298222.855986,-41.000000,-46.000000,-1.000000,1.000000,4.000000,-5.000000,9.000000,5.000000
1298222.885848,49.000000,48.000000,16.000000,6.000000,8.000000,4.000000,5.000000,8.000000
1298222.885879,-27.000000,6.000000,-3.000000,-8.000000,-8.000000,7.000000,3.000000,8.000000
1298222.886600,22.000000,-11.000000,-6.000000,3.000000,6.000000,0.000000,1.000000,8.000000
1298222.886723,56.000000,13.000000,22.000000,1.000000,-2.000000,-1.000000,2.000000,5.000000
1298222.887441,-73.000000,0.000000,1.000000,-7.000000,-10.000000,2.000000,0.000000,2.000000
1298222.887458,25.000000,9.000000,23.000000,22.000000,9.000000,13.000000,-1.000000,0.000000
1298222.888249,-55.000000,-6.000000,-40.000000,-27.000000,-4.000000,-12.000000,-3.000000,-16.000000
1298222.888282,8.000000,-24.000000,6.000000,-7.000000,-13.000000,-7.000000,-12.000000,-21.000000
1298222.900634,32.000000,13.000000,19.000000,20.000000,8.000000,7.000000,-2.000000,8.000000
1298222.900666,10.000000,18.000000,12.000000,-9.000000,-1.000000,-9.000000,1.000000,4.000000
1298222.908445,-7.000000,0.000000,17.000000,15.000000,7.000000,2.000000,5.000000,5.000000
1298222.908473,71.000000,26.000000,-42.000000,-15.000000,-7.000000,10.000000,0.000000,12.000000
1298222.923489,-33.000000,-22.000000,-21.000000,-3.000000,2.000000,-1.000000,-2.000000,-12.000000
1298222.923654,4.000000,48.000000,8.000000,-5.000000,-4.000000,-5.000000,1.000000,1.000000
1298222.924081,-4.000000,-2.000000,-11.000000,-2.000000,1.000000,6.000000,-2.000000,-8.000000
1298222.924113,-66.000000,-10.000000,-13.000000,-9.000000,-4.000000,-1.000000,-7.000000,-6.000000
1298222.938369,11.000000,-1.000000,21.000000,7.000000,9.000000,1.000000,6.000000,15.000000
1298222.938408,-1.000000,6.000000,35.000000,17.000000,-8.000000,-6.000000,-2.000000,-8.000000
1298222.969400,20.000000,12.000000,6.000000,-6.000000,0.000000,7.000000,-4.000000,-2.000000
1298222.969431,3.000000,10.000000,18.000000,4.000000,2.000000,-7.000000,5.000000,9.000000
1298222.984053,-29.000000,-21.000000,-10.000000,3.000000,5.000000,-5.000000,-1.000000,-2.000000
1298222.984089,1.000000,15.000000,-1.000000,-8.000000,-6.000000,5.000000,-5.000000,-9.000000
1298222.991296,4.000000,2.000000,-4.000000,8.000000,3.000000,-1.000000,8.000000,6.000000
1298222.991347,95.000000,89.000000,0.000000,10.000000,11.000000,5.000000,-1.000000,15.000000
1298223.014219,-42.000000,-18.000000,0.000000,-3.000000,-11.000000,-5.000000,-11.000000,-17.000000
1298223.014256,-38.000000,-10.000000,11.000000,11.000000,0.000000,-4.000000,-3.000000,-13.000000
1298223.014880,-15.000000,20.000000,2.000000,0.000000,8.000000,-3.000000,11.000000,10.000000
1298223.014908,43.000000,22.000000,2.000000,-6.000000,1.000000,4.000000,5.000000,10.000000
1298223.016498,-44.000000,-24.000000,-14.000000,-6.000000,-8.000000,-7.000000,-14.000000,-16.000000
1298223.016527,-12.000000,-1.000000,-1.000000,-2.000000,0.000000,-4.000000,9.000000,4.000000
1298223.016697,28.000000,8.000000,11.000000,6.000000,4.000000,2.000000,7.000000,15.000000
1298223.016757,1.000000,2.000000,-9.000000,-3.000000,-2.000000,-8.000000,-16.000000,-30.000000
1298223.036320,30.000000,10.000000,-18.000000,6.000000,2.000000,3.000000,2.000000,9.000000
1298223.036374,2.000000,-11.000000,-17.000000,2.000000,4.000000,1.000000,10.000000,9.000000
1298223.045178,13.000000,1.000000,8.000000,-4.000000,-8.000000,-7.000000,-2.000000,-1.000000
1298223.045205,-38.000000,-17.000000,-12.000000,-5.000000,-4.000000,-3.000000,-11.000000,-17.000000
1298223.045687,-8.000000,11.000000,9.000000,2.000000,0.000000,9.000000,4.000000,1.000000
1298223.045709,32.000000,1.000000,8.000000,2.000000,-1.000000,-6.000000,2.000000,16.000000
1298223.058909,-4.000000,2.000000,19.000000,5.000000,-1.000000,-5.000000,-6.000000,-1.000000
1298223.058964,-10.000000,0.000000,-23.000000,10.000000,0.000000,8.000000,0.000000,-4.000000
1298223.074755,19.000000,-7.000000,-4.000000,3.000000,5.000000,1.000000,5.000000,6.000000
1298223.074891,6.000000,3.000000,8.000000,-6.000000,0.000000,4.000000,5.000000,8.000000
1298223.076700,-14.000000,-7.000000,-39.000000,-9.000000,-2.000000,-2.000000,-11.000000,-22.000000
1298223.076749,-27.000000,3.000000,11.000000,13.000000,2.000000,6.000000,2.000000,0.000000
1298223.126358,1.000000,-35.000000,10.000000,-13.000000,-4.000000,-18.000000,-15.000000,-9.000000
1298223.126410,20.000000,13.000000,-32.000000,-19.000000,-11.000000,-2.000000,1.000000,7.000000
1298223.156660,13.000000,12.000000,-5.000000,8.000000,2.000000,6.000000,1.000000,-3.000000
1298223.156714,-16.000000,-7.000000,15.000000,-2.000000,5.000000,-6.000000,7.000000,-5.000000
1298223.163679,-26.000000,-16.000000,-38.000000,-11.000000,-7.000000,0.000000,-1.000000,5.000000
1298223.163720,1.000000,-7.000000,23.000000,15.000000,7.000000,5.000000,-4.000000,-11.000000
1298223.166936,23.000000,13.000000,11.000000,7.000000,3.000000,5.000000,-1.000000,1.000000
1298223.167333,-6.000000,4.000000,23.000000,21.000000,12.000000,1.000000,3.000000,5.000000
1298223.168134,13.000000,-5.000000,-22.000000,0.000000,-5.000000,-11.000000,0.000000,-1.000000
1298223.168158,-16.000000,-6.000000,10.000000,-8.000000,3.000000,4.000000,6.000000,8.000000
1298223.168337,5.000000,5.000000,-46.000000,-2.000000,-14.000000,1.000000,-9.000000,-17.000000
1298223.168361,-53.000000,-19.000000,4.000000,0.000000,-4.000000,-4.000000,9.000000,4.000000
1298223.169437,35.000000,18.000000,2.000000,-1.000000,-1.000000,-5.000000,4.000000,11.000000
1298223.169484,-49.000000,-53.000000,-21.000000,-22.000000,-12.000000,-11.000000,-10.000000,-15.000000
1298223.179177,3.000000,7.000000,9.000000,4.000000,2.000000,9.000000,-2.000000,-2.000000
1298223.179206,27.000000,21.000000,14.000000,2.000000,5.000000,4.000000,3.000000,4.000000
1298223.186587,-10.000000,-17.000000,10.000000,0.000000,-2.000000,-10.000000,-1.000000,1.000000
1298223.186641,-3.000000,1.000000,-7.000000,2.000000,4.000000,11.000000,-6.000000,-7.000000
1298223.208776,29.000000,4.000000,4.000000,2.000000,1.000000,-4.000000,-10.000000,-13.000000
1298223.208829,-88.000000,-27.000000,-9.000000,-14.000000,-11.000000,-8.000000,-4.000000,-7.000000
1298223.216490,41.000000,2.000000,-4.000000,13.000000,9.000000,3.000000,8.000000,17.000000
1298223.216527,1.000000,-13.000000,-17.000000,0.000000,2.000000,-2.000000,3.000000,-8.000000
1298223.254030,49.000000,6.000000,7.000000,6.000000,2.000000,-1.000000,9.000000,13.000000
1298223.254079,-40.000000,-27.000000,-25.000000,-8.000000,-9.000000,-8.000000,-1.000000,-14.000000
1298223.261315,-14.000000,3.000000,0.000000,-11.000000,-4.000000,8.000000,0.000000,-1.000000
1298223.261365,12.000000,20.000000,14.000000,18.000000,7.000000,2.000000,8.000000,16.000000
1298223.284361,19.000000,-27.000000,-23.000000,-16.000000,-3.000000,-10.000000,-3.000000,3.000000
1298223.284410,-50.000000,-24.000000,-9.000000,-3.000000,-9.000000,-3.000000,-9.000000,-10.000000
1298223.285605,14.000000,23.000000,18.000000,12.000000,7.000000,0.000000,0.000000,-2.000000
1298223.285663,21.000000,-1.000000,-8.000000,0.000000,-3.000000,-10.000000,-4.000000,-1.000000
1298223.287957,-14.000000,-10.000000,-12.000000,-12.000000,-5.000000,-14.000000,-4.000000,-3.000000
1298223.287980,-11.000000,3.000000,-17.000000,-9.000000,1.000000,6.000000,-2.000000,-2.000000
1298223.288109,-40.000000,6.000000,-6.000000,4.000000,1.000000,4.000000,5.000000,9.000000
1298223.288160,36.000000,20.000000,26.000000,8.000000,-1.000000,-6.000000,-5.000000,4.000000
1298223.289032,-27.000000,-31.000000,-38.000000,-33.000000,-7.000000,-16.000000,1.000000,-12.000000
1298223.289171,-19.000000,7.000000,-37.000000,1.000000,3.000000,14.000000,1.000000,3.000000
1298223.306326,21.000000,1.000000,-6.000000,1.000000,1.000000,-1.000000,2.000000,3.000000
1298223.306377,-35.000000,-3.000000,14.000000,-6.000000,-2.000000,-9.000000,-2.000000,3.000000
1298223.313849,30.000000,12.000000,-4.000000,6.000000,0.000000,0.000000,1.000000,-3.000000
1298223.313875,6.000000,0.000000,-5.000000,8.000000,3.000000,2.000000,-6.000000,-2.000000
1298223.322443,-10.000000,1.000000,8.000000,-5.000000,5.000000,-1.000000,9.000000,6.000000
1298223.322494,-29.000000,-18.000000,-12.000000,-5.000000,-6.000000,0.000000,-9.000000,-14.000000
1298223.328486,-42.000000,-18.000000,-9.000000,-4.000000,-6.000000,1.000000,-5.000000,-23.000000
1298223.328511,-42.000000,-7.000000,8.000000,5.000000,3.000000,-2.000000,3.000000,3.000000
1298223.358736,64.000000,-8.000000,-10.000000,-5.000000,-1.000000,-4.000000,7.000000,8.000000
1298223.358786,-55.000000,17.000000,2.000000,0.000000,0.000000,1.000000,-3.000000,-2.000000
1298223.366606,107.000000,1.000000,23.000000,-5.000000,-2.000000,-5.000000,6.000000,10.000000
1298223.366949,-42.000000,-15.000000,-51.000000,-29.000000,-10.000000,-4.000000,-2.000000,-15.000000
1298223.368596,-114.000000,-10.000000,1.000000,19.000000,2.000000,10.000000,-4.000000,-17.000000
1298223.369023,60.000000,22.000000,10.000000,-4.000000,2.000000,12.000000,10.000000,10.000000
1298223.369428,33.000000,10.000000,4.000000,-10.000000,0.000000,-8.000000,4.000000,12.000000
1298223.369450,30.000000,6.000000,15.000000,-3.000000,2.000000,-6.000000,0.000000,9.000000
1298223.373766,-46.000000,-13.000000,-5.000000,4.000000,1.000000,5.000000,-4.000000,-12.000000
1298223.373811,-36.000000,2.000000,-1.000000,2.000000,6.000000,4.000000,8.000000,6.000000
1298223.404441,-62.000000,-42.000000,-38.000000,-12.000000,-7.000000,-15.000000,-13.000000,-20.000000
1298223.404949,3.000000,3.000000,-21.000000,-8.000000,-12.000000,5.000000,0.000000,2.000000
1298223.406209,21.000000,8.000000,3.000000,3.000000,6.000000,2.000000,10.000000,11.000000
1298223.406261,-8.000000,1.000000,-3.000000,-9.000000,-2.000000,-6.000000,3.000000,7.000000
1298223.406592,-6.000000,-8.000000,8.000000,7.000000,-1.000000,-1.000000,-4.000000,-7.000000
1298223.406641,-7.000000,36.000000,-28.000000,6.000000,-1.000000,6.000000,-8.000000,-1.000000
1298223.418689,38.000000,4.000000,23.000000,4.000000,-1.000000,-3.000000,4.000000,8.000000
1298223.418739,-40.000000,-6.000000,-3.000000,0.000000,6.000000,-1.000000,-2.000000,-2.000000
1298223.433789,-1.000000,-1.000000,2.000000,-6.000000,-13.000000,-6.000000,-15.000000,-17.000000
1298223.433832,-128.000000,-128.000000,-5.000000,2.000000,-1.000000,1.000000,0.000000,-14.000000
1298223.448801,30.000000,48.000000,13.000000,-6.000000,9.000000,6.000000,12.000000,23.000000
1298223.448827,43.000000,15.000000,-8.000000,-3.000000,-1.000000,6.000000,-5.000000,9.000000
1298223.456167,34.000000,38.000000,-1.000000,5.000000,-1.000000,-9.000000,-8.000000,-23.000000
1298223.456214,-99.000000,-29.000000,-17.000000,-19.000000,-6.000000,-11.000000,-4.000000,-4.000000
1298223.478811,42.000000,40.000000,-5.000000,-5.000000,-7.000000,-1.000000,-7.000000,1.000000
1298223.478860,-11.000000,5.000000,13.000000,10.000000,3.000000,9.000000,9.000000,5.000000
1298223.486586,16.000000,-15.000000,-22.000000,-10.000000,-3.000000,-3.000000,-2.000000,-8.000000
1298223.486638,-23.000000,19.000000,37.000000,14.000000,9.000000,7.000000,11.000000,15.000000
1298223.494655,36.000000,34.000000,6.000000,6.000000,-1.000000,2.000000,-5.000000,-1.000000
1298223.494705,9.000000,-86.000000,9.000000,3.000000,6.000000,2.000000,8.000000,9.000000
1298223.495451,-57.000000,-50.000000,-18.000000,-11.000000,-7.000000,-6.000000,-10.000000,-17.000000
1298223.495503,-28.000000,-93.000000,9.000000,5.000000,-1.000000,-2.000000,-6.000000,-11.000000
1298223.496731,33.000000,-91.000000,-26.000000,-9.000000,3.000000,-5.000000,-5.000000,-15.000000
1298223.496782,-19.000000,3.000000,-1.000000,-9.000000,0.000000,-10.000000,11.000000,8.000000
1298223.517025,10.000000,-15.000000,-31.000000,-14.000000,-1.000000,2.000000,2.000000,2.000000
1298223.517057,-23.000000,-17.000000,-9.000000,9.000000,-2.000000,6.000000,-3.000000,-2.000000
1298223.523828,-30.000000,11.000000,17.000000,0.000000,1.000000,-3.000000,-4.000000,-13.000000
1298223.523871,12.000000,15.000000,-11.000000,-8.000000,-3.000000,0.000000,0.000000,11.000000
1298223.531295,20.000000,7.000000,-9.000000,-1.000000,8.000000,1.000000,-1.000000,2.000000
1298223.531644,24.000000,-4.000000,-7.000000,-1.000000,-9.000000,-7.000000,-6.000000,-11.000000
1298223.538897,-79.000000,-9.000000,-21.000000,-5.000000,-5.000000,-3.000000,-1.000000,-3.000000
1298223.538946,15.000000,5.000000,7.000000,1.000000,3.000000,3.000000,-1.000000,-9.000000
1298223.546205,27.000000,-1.000000,13.000000,6.000000,4.000000,0.000000,-2.000000,-8.000000
1298223.546230,1.000000,-10.000000,-7.000000,-17.000000,-11.000000,-13.000000,-9.000000,-3.000000
1298223.568847,-49.000000,-5.000000,-6.000000,-5.000000,-3.000000,0.000000,0.000000,2.000000
1298223.568897,-22.000000,-19.000000,35.000000,15.000000,6.000000,11.000000,4.000000,-4.000000
1298223.591588,-57.000000,-32.000000,-7.000000,-14.000000,-9.000000,-13.000000,-3.000000,-14.000000
1298223.591624,-7.000000,-7.000000,-1.000000,-9.000000,0.000000,0.000000,-3.000000,7.000000
1298223.606432,-24.000000,-16.000000,-13.000000,5.000000,1.000000,1.000000,1.000000,2.000000
1298223.606476,26.000000,11.000000,29.000000,2.000000,0.000000,-6.000000,-3.000000,-2.000000
1298223.607799,-52.000000,-52.000000,-6.000000,-13.000000,-4.000000,-9.000000,2.000000,-12.000000
1298223.607845,-20.000000,-48.000000,4.000000,9.000000,5.000000,7.000000,-8.000000,-5.000000
1298223.609827,7.000000,12.000000,7.000000,8.000000,8.000000,1.000000,10.000000,4.000000
1298223.609850,34.000000,15.000000,-1.000000,-15.000000,-6.000000,1.000000,6.000000,15.000000
1298223.610016,16.000000,-9.000000,-16.000000,-22.000000,-13.000000,-5.000000,6.000000,2.000000
1298223.610047,8.000000,5.000000,15.000000,18.000000,7.000000,0.000000,-7.000000,-12.000000
1298223.613668,-95.000000,-47.000000,-22.000000,-7.000000,-7.000000,-6.000000,-1.000000,-10.000000
1298223.613717,31.000000,3.000000,-8.000000,-16.000000,-13.000000,-18.000000,-2.000000,9.000000
1298223.636233,16.000000,-21.000000,8.000000,12.000000,2.000000,7.000000,-8.000000,-9.000000
1298223.636258,20.000000,-3.000000,-26.000000,-6.000000,-2.000000,-8.000000,-5.000000,-2.000000
1298223.637773,-1.000000,11.000000,-20.000000,-18.000000,-5.000000,-5.000000,7.000000,7.000000
1298223.637821,30.000000,19.000000,7.000000,2.000000,0.000000,5.000000,-9.000000,4.000000
1298223.643804,24.000000,59.000000,22.000000,16.000000,10.000000,5.000000,2.000000,-1.000000
1298223.643981,13.000000,125.000000,-16.000000,-7.000000,-6.000000,-3.000000,1.000000,3.000000
1298223.689239,25.000000,-16.000000,28.000000,5.000000,-9.000000,2.000000,-6.000000,1.000000
1298223.689388,2.000000,16.000000,38.000000,19.000000,10.000000,-4.000000,1.000000,-5.000000
1298223.718980,-25.000000,-27.000000,-13.000000,-1.000000,0.000000,3.000000,0.000000,5.000000
1298223.719143,18.000000,5.000000,-1.000000,4.000000,5.000000,-1.000000,1.000000,2.000000
1298223.727404,-20.000000,3.000000,1.000000,3.000000,-7.000000,1.000000,-1.000000,-4.000000
1298223.727430,-2.000000,-21.000000,-1.000000,3.000000,0.000000,-4.000000,1.000000,-8.000000
1298223.733613,20.000000,30.000000,-17.000000,-23.000000,-10.000000,-1.000000,4.000000,18.000000
1298223.733664,25.000000,5.000000,-17.000000,-4.000000,4.000000,7.000000,-3.000000,4.000000
1298223.756380,18.000000,-16.000000,-2.000000,11.000000,0.000000,-1.000000,-4.000000,-11.000000
1298223.756408,-88.000000,-28.000000,7.000000,-33.000000,-9.000000,-11.000000,1.000000,-14.000000
1298223.763740,4.000000,-3.000000,-4.000000,10.000000,3.000000,2.000000,-15.000000,0.000000
1298223.763776,-84.000000,-67.000000,-12.000000,-5.000000,-1.000000,1.000000,-6.000000,-25.000000
1298223.771381,-24.000000,-15.000000,-1.000000,-12.000000,-3.000000,-11.000000,-6.000000,-4.000000
1298223.771413,59.000000,19.000000,-1.000000,14.000000,7.000000,13.000000,3.000000,6.000000
1298223.786383,-101.000000,-37.000000,4.000000,9.000000,3.000000,-6.000000,-10.000000,-36.000000
1298223.786406,19.000000,-32.000000,2.000000,-6.000000,-5.000000,-13.000000,6.000000,9.000000
1298223.801261,-36.000000,16.000000,4.000000,-11.000000,-8.000000,-6.000000,-10.000000,-11.000000
1298223.801286,10.000000,10.000000,0.000000,0.000000,-1.000000,0.000000,-7.000000,-7.000000
1298223.808688,-13.000000,7.000000,-8.000000,-4.000000,3.000000,-4.000000,13.000000,14.000000
1298223.808727,40.000000,67.000000,-17.000000,-16.000000,-5.000000,2.000000,-4.000000,1.000000
1298223.811146,-16.000000,13.000000,1.000000,9.000000,3.000000,6.000000,0.000000,-6.000000
1298223.811169,-13.000000,-57.000000,-12.000000,-10.000000,-5.000000,-7.000000,-1.000000,3.000000
1298223.811335,50.000000,0.000000,6.000000,-13.000000,-2.000000,-2.000000,-3.000000,-1.000000
1298223.811372,-89.000000,-31.000000,-11.000000,2.000000,-1.000000,6.000000,-6.000000,-7.000000
1298223.811732,17.000000,18.000000,21.000000,9.000000,3.000000,5.000000,-8.000000,0.000000
1298223.811752,43.000000,19.000000,19.000000,21.000000,12.000000,5.000000,9.000000,1.000000
1298223.839088,-43.000000,-33.000000,-26.000000,-29.000000,-14.000000,-6.000000,-10.000000,-12.000000
1298223.839127,23.000000,-4.000000,9.000000,12.000000,3.000000,6.000000,3.000000,9.000000
1298223.846073,2.000000,2.000000,11.000000,14.000000,7.000000,4.000000,4.000000,5.000000
1298223.846122,15.000000,4.000000,17.000000,7.000000,1.000000,1.000000,-4.000000,-9.000000
1298223.868735,-81.000000,-62.000000,-8.000000,-5.000000,-10.000000,-12.000000,-4.000000,-8.000000
1298223.868762,20.000000,59.000000,-11.000000,12.000000,7.000000,16.000000,1.000000,5.000000
1298223.877146,-20.000000,-31.000000,-14.000000,-7.000000,-13.000000,-18.000000,-10.000000,-14.000000
1298223.877358,-26.000000,22.000000,-4.000000,-11.000000,2.000000,-2.000000,0.000000,-10.000000
1298223.878827,18.000000,78.000000,32.000000,13.000000,1.000000,8.000000,3.000000,20.000000
1298223.878886,42.000000,-4.000000,-3.000000,-3.000000,4.000000,4.000000,2.000000,4.000000
1298223.879523,-44.000000,11.000000,19.000000,-12.000000,-8.000000,-15.000000,-7.000000,-23.000000
1298223.879550,-2.000000,19.000000,4.000000,-11.000000,-6.000000,3.000000,-6.000000,11.000000
1298223.880487,29.000000,10.000000,17.000000,14.000000,5.000000,8.000000,3.000000,5.000000
1298223.880507,26.000000,1.000000,1.000000,5.000000,2.000000,-4.000000,-2.000000,1.000000
1298223.906452,-61.000000,-75.000000,-12.000000,-7.000000,-9.000000,-10.000000,-4.000000,-6.000000
1298223.906495,-69.000000,-48.000000,-2.000000,-8.000000,-2.000000,-7.000000,-11.000000,-28.000000
1298223.921413,-9.000000,-13.000000,-28.000000,-14.000000,-7.000000,11.000000,8.000000,9.000000
1298223.921461,26.000000,7.000000,5.000000,-11.000000,-6.000000,-5.000000,-1.000000,8.000000
1298223.929243,-10.000000,-3.000000,-4.000000,11.000000,2.000000,1.000000,-6.000000,-3.000000
1298223.929292,9.000000,5.000000,21.000000,-1.000000,1.000000,-5.000000,-5.000000,-9.000000
1298223.966892,0.000000,10.000000,-37.000000,-8.000000,-1.000000,-2.000000,2.000000,6.000000
1298223.967420,20.000000,1.000000,7.000000,-6.000000,-7.000000,-1.000000,-4.000000,-1.000000
1298223.968327,-3.000000,2.000000,5.000000,7.000000,1.000000,6.000000,3.000000,-3.000000
1298223.968368,-22.000000,-5.000000,28.000000,8.000000,3.000000,-12.000000,3.000000,-11.000000
1298223.969453,20.000000,0.000000,-13.000000,-9.000000,4.000000,7.000000,2.000000,16.000000
1298223.969474,34.000000,-2.000000,18.000000,20.000000,7.000000,7.000000,1.000000,3.000000
1298223.970063,-20.000000,-11.000000,-4.000000,4.000000,1.000000,1.000000,0.000000,-5.000000
1298223.970113,-7.000000,10.000000,-6.000000,-11.000000,-8.000000,-11.000000,-6.000000,-8.000000
1298223.981654,25.000000,-2.000000,-6.000000,-10.000000,-2.000000,5.000000,3.000000,0.000000
1298223.981683,-8.000000,-28.000000,-20.000000,-21.000000,-5.000000,-13.000000,0.000000,4.000000
1298223.997260,-14.000000,-11.000000,3.000000,7.000000,3.000000,-7.000000,-2.000000,3.000000
1298223.997315,2.000000,-5.000000,4.000000,18.000000,3.000000,3.000000,-4.000000,2.000000
1298223.998684,-13.000000,-36.000000,-31.000000,-36.000000,-9.000000,0.000000,5.000000,1.000000
1298223.998708,20.000000,-8.000000,-3.000000,-1.000000,0.000000,5.000000,-7.000000,-1.000000
1298224.034779,-24.000000,-9.000000,-6.000000,3.000000,0.000000,0.000000,-8.000000,-14.000000
1298224.034846,-19.000000,-6.000000,20.000000,-8.000000,-6.000000,0.000000,1.000000,-3.000000
1298224.049277,7.000000,0.000000,-4.000000,4.000000,2.000000,-2.000000,4.000000,12.000000
1298224.049416,25.000000,-2.000000,-13.000000,-17.000000,-9.000000,-4.000000,1.000000,12.000000
1298224.064033,-18.000000,23.000000,24.000000,14.000000,0.000000,1.000000,-14.000000,-30.000000
1298224.064063,29.000000,2.000000,-4.000000,0.000000,-5.000000,-4.000000,2.000000,15.000000
1298224.079782,17.000000,127.000000,15.000000,14.000000,0.000000,12.000000,-1.000000,16.000000
1298224.080198,-47.000000,-11.000000,1.000000,6.000000,-2.000000,-3.000000,-13.000000,-24.000000
1298224.081064,17.000000,7.000000,9.000000,1.000000,3.000000,2.000000,5.000000,10.000000
1298224.081098,39.000000,4.000000,1.000000,5.000000,10.000000,6.000000,13.000000,18.000000
1298224.081713,-24.000000,-18.000000,-26.000000,-19.000000,-7.000000,0.000000,-5.000000,-8.000000
1298224.081747,-11.000000,-8.000000,-7.000000,-10.000000,-1.000000,6.000000,-4.000000,-14.000000
1298224.082390,-32.000000,-13.000000,-7.000000,-8.000000,-4.000000,-5.000000,7.000000,-5.000000
1298224.082480,-2.000000,0.000000,0.000000,0.000000,-3.000000,4.000000,-2.000000,5.000000
1298224.084532,48.000000,24.000000,10.000000,20.000000,7.000000,7.000000,5.000000,5.000000
1298224.084567,-61.000000,-33.000000,4.000000,-10.000000,-5.000000,-15.000000,-5.000000,-5.000000
1298224.086960,47.000000,8.000000,9.000000,6.000000,4.000000,4.000000,0.000000,6.000000
1298224.087166,-58.000000,-10.000000,7.000000,3.000000,12.000000,13.000000,7.000000,1.000000
1298224.109109,27.000000,15.000000,-4.000000,-4.000000,-4.000000,-1.000000,3.000000,8.000000
1298224.109166,-63.000000,5.000000,-18.000000,-3.000000,-3.000000,-7.000000,-16.000000,-35.000000
1298224.117123,4.000000,19.000000,-4.000000,7.000000,-3.000000,8.000000,4.000000,9.000000
1298224.117190,17.000000,115.000000,19.000000,17.000000,9.000000,18.000000,14.000000,18.000000
1298224.118783,39.000000,8.000000,-12.000000,-10.000000,-4.000000,-2.000000,1.000000,12.000000
1298224.118811,-9.000000,-10.000000,-23.000000,3.000000,-4.000000,-5.000000,-11.000000,-8.000000
1298224.154073,10.000000,9.000000,18.000000,9.000000,5.000000,14.000000,13.000000,21.000000
1298224.154101,97.000000,7.000000,-10.000000,-13.000000,-2.000000,-7.000000,-6.000000,1.000000
1298224.162720,-128.000000,-22.000000,-15.000000,-11.000000,-7.000000,-5.000000,-17.000000,-36.000000
1298224.162751,2.000000,-12.000000,4.000000,7.000000,-5.000000,-2.000000,3.000000,-4.000000
1298224.184350,36.000000,-5.000000,1.000000,10.000000,3.000000,3.000000,6.000000,15.000000
1298224.184383,-21.000000,64.000000,-3.000000,-20.000000,-2.000000,-4.000000,-4.000000,5.000000
1298224.193136,-31.000000,-29.000000,-4.000000,-5.000000,-5.000000,-5.000000,0.000000,-2.000000
1298224.193190,-20.000000,-34.000000,-31.000000,3.000000,0.000000,2.000000,-7.000000,-11.000000
1298224.194066,-11.000000,6.000000,6.000000,-8.000000,-2.000000,-2.000000,8.000000,10.000000
1298224.194150,0.000000,-6.000000,8.000000,5.000000,-1.000000,0.000000,-6.000000,-5.000000
1298224.199448,-45.000000,-4.000000,4.000000,14.000000,5.000000,5.000000,-2.000000,-7.000000
1298224.199506,34.000000,16.000000,2.000000,5.000000,-1.000000,-4.000000,0.000000,8.000000
1298224.201258,18.000000,-4.000000,-36.000000,-12.000000,-4.000000,-6.000000,-5.000000,2.000000
1298224.201297,11.000000,17.000000,3.000000,14.000000,0.000000,-4.000000,-13.000000,-15.000000
1298224.201457,-47.000000,-76.000000,-11.000000,-21.000000,-5.000000,-8.000000,5.000000,-6.000000
1298224.201485,-20.000000,-2.000000,3.000000,-2.000000,-5.000000,-13.000000,1.000000,2.000000
1298224.228761,4.000000,-45.000000,-11.000000,-6.000000,3.000000,5.000000,-6.000000,-5.000000
1298224.228805,-6.000000,-9.000000,-2.000000,4.000000,-3.000000,2.000000,-6.000000,-3.000000
1298224.236188,-10.000000,-17.000000,-7.000000,-17.000000,-5.000000,-11.000000,-2.000000,2.000000
1298224.236252,24.000000,29.000000,15.000000,8.000000,8.000000,4.000000,8.000000,10.000000
1298224.238106,30.000000,30.000000,8.000000,3.000000,-1.000000,6.000000,-3.000000,-3.000000
1298224.238215,-52.000000,30.000000,-8.000000,-5.000000,-10.000000,-7.000000,-10.000000,-12.000000
1298224.238549,-1.000000,-15.000000,-15.000000,-12.000000,-3.000000,-1.000000,5.000000,2.000000
1298224.238593,17.000000,10.000000,22.000000,18.000000,10.000000,7.000000,9.000000,16.000000
1298224.259790,37.000000,-3.000000,-3.000000,-4.000000,1.000000,-1.000000,6.000000,16.000000
1298224.259834,-54.000000,-13.000000,-2.000000,-6.000000,-5.000000,-10.000000,-19.000000,-32.000000
1298224.273857,-44.000000,-2.000000,1.000000,17.000000,7.000000,13.000000,8.000000,3.000000
1298224.273884,49.000000,11.000000,17.000000,3.000000,3.000000,2.000000,2.000000,15.000000
1298224.288747,-4.000000,-4.000000,-11.000000,-15.000000,-10.000000,-9.000000,2.000000,3.000000
1298224.288796,4.000000,8.000000,4.000000,1.000000,3.000000,6.000000,5.000000,10.000000
1298224.296248,50.000000,3.000000,2.000000,5.000000,3.000000,4.000000,4.000000,6.000000
1298224.296297,-77.000000,-90.000000,-24.000000,-19.000000,-12.000000,-11.000000,-15.000000,-15.000000
1298224.319387,-30.000000,-23.000000,-11.000000,-1.000000,-4.000000,-17.000000,-12.000000,-15.000000
1298224.319733,7.000000,-6.000000,-6.000000,-7.000000,-5.000000,8.000000,-3.000000,2.000000
1298224.320356,0.000000,0.000000,2.000000,4.000000,7.000000,8.000000,6.000000,9.000000
1298224.320394,44.000000,11.000000,0.000000,-3.000000,0.000000,-4.000000,8.000000,17.000000
1298224.321929,-56.000000,-10.000000,11.000000,3.000000,-1.000000,-14.000000,-11.000000,-15.000000
1298224.322063,-1.000000,18.000000,7.000000,-6.000000,-4.000000,-4.000000,-3.000000,-8.000000
1298224.322520,20.000000,7.000000,-4.000000,-3.000000,1.000000,0.000000,5.000000,6.000000
1298224.322561,-35.000000,-58.000000,10.000000,9.000000,5.000000,-1.000000,-7.000000,-19.000000
1298224.327466,-127.000000,-46.000000,-4.000000,-26.000000,-12.000000,-5.000000,-10.000000,-34.000000
1298224.327522,61.000000,69.000000,-4.000000,10.000000,2.000000,3.000000,5.000000,11.000000
1298224.341298,13.000000,6.000000,15.000000,0.000000,-6.000000,-2.000000,3.000000,15.000000
1298224.341351,-23.000000,51.000000,-10.000000,13.000000,2.000000,-5.000000,-13.000000,-22.000000
1298224.349635,12.000000,7.000000,-33.000000,-22.000000,-8.000000,0.000000,7.000000,1.000000
1298224.349663,-66.000000,23.000000,12.000000,-10.000000,-7.000000,-2.000000,-5.000000,-7.000000
1298224.356266,41.000000,11.000000,7.000000,17.000000,7.000000,10.000000,4.000000,8.000000
1298224.356315,-59.000000,3.000000,-4.000000,-5.000000,1.000000,-3.000000,3.000000,6.000000
1298224.372137,57.000000,-14.000000,-41.000000,-32.000000,-8.000000,-8.000000,1.000000,11.000000
1298224.372251,-55.000000,-22.000000,62.000000,3.000000,2.000000,-9.000000,-10.000000,-23.000000
1298224.386327,14.000000,5.000000,-3.000000,13.000000,3.000000,7.000000,2.000000,10.000000
1298224.386375,37.000000,8.000000,15.000000,7.000000,4.000000,-4.000000,4.000000,7.000000
1298224.401501,-68.000000,-4.000000,-8.000000,-8.000000,-5.000000,-4.000000,-3.000000,-4.000000
1298224.401551,24.000000,21.000000,21.000000,18.000000,5.000000,4.000000,-3.000000,-3.000000
1298224.432313,38.000000,23.000000,25.000000,-7.000000,4.000000,0.000000,4.000000,10.000000
1298224.432953,-39.000000,66.000000,6.000000,11.000000,5.000000,9.000000,-1.000000,5.000000
1298224.433797,73.000000,79.000000,40.000000,29.000000,12.000000,7.000000,-1.000000,1.000000
1298224.433830,15.000000,-13.000000,-6.000000,6.000000,-3.000000,7.000000,6.000000,1.000000
1298224.434007,18.000000,-5.000000,-5.000000,-11.000000,-10.000000,-11.000000,6.000000,11.000000
1298224.434031,-25.000000,-6.000000,-3.000000,-6.000000,-2.000000,-10.000000,-16.000000,-14.000000
1298224.435535,32.000000,8.000000,-6.000000,13.000000,-1.000000,5.000000,-9.000000,-3.000000
1298224.435584,-9.000000,-16.000000,18.000000,4.000000,-3.000000,-4.000000,5.000000,-4.000000
1298224.438770,24.000000,10.000000,-7.000000,-17.000000,1.000000,-1.000000,6.000000,16.000000
1298224.438826,35.000000,13.000000,-7.000000,10.000000,1.000000,6.000000,-2.000000,14.000000
1298224.447600,17.000000,2.000000,3.000000,-1.000000,-3.000000,-10.000000,-7.000000,-7.000000
1298224.447625,-74.000000,-16.000000,-21.000000,-14.000000,-5.000000,-6.000000,-13.000000,-27.000000
1298224.468788,19.000000,-56.000000,2.000000,14.000000,7.000000,8.000000,8.000000,9.000000
1298224.468837,9.000000,-63.000000,-14.000000,-17.000000,-8.000000,-8.000000,-9.000000,-30.000000
1298224.484120,-34.000000,-18.000000,-23.000000,-16.000000,-14.000000,-3.000000,-4.000000,4.000000
1298224.484191,4.000000,-4.000000,-11.000000,8.000000,8.000000,2.000000,-10.000000,-6.000000
1298224.513774,14.000000,-46.000000,-22.000000,-3.000000,-7.000000,-6.000000,0.000000,0.000000
1298224.513822,16.000000,-6.000000,10.000000,-18.000000,-17.000000,-15.000000,-7.000000,9.000000
1298224.528586,-9.000000,-10.000000,-23.000000,-4.000000,0.000000,-3.000000,-3.000000,-25.000000
1298224.528635,-37.000000,-9.000000,-6.000000,10.000000,5.000000,12.000000,7.000000,17.000000
1298224.551914,65.000000,28.000000,45.000000,8.000000,6.000000,1.000000,10.000000,19.000000
1298224.551965,-41.000000,-1.000000,-61.000000,-23.000000,-9.000000,-7.000000,-9.000000,-7.000000
1298224.553906,13.000000,9.000000,3.000000,0.000000,-3.000000,2.000000,-10.000000,-22.000000
1298224.554359,20.000000,5.000000,3.000000,-7.000000,-6.000000,-6.000000,-4.000000,4.000000
1298224.554863,30.000000,6.000000,5.000000,8.000000,3.000000,-5.000000,-1.000000,7.000000
1298224.554912,-20.000000,-2.000000,10.000000,5.000000,1.000000,5.000000,1.000000,0.000000
1298224.555817,-47.000000,-75.000000,-3.000000,-13.000000,-8.000000,-4.000000,-8.000000,-18.000000
1298224.555937,-28.000000,7.000000,14.000000,20.000000,7.000000,11.000000,3.000000,2.000000
1298224.558727,34.000000,12.000000,4.000000,5.000000,4.000000,5.000000,3.000000,19.000000
1298224.558782,59.000000,50.000000,36.000000,25.000000,15.000000,4.000000,10.000000,7.000000
1298224.567094,-70.000000,-54.000000,-47.000000,-33.000000,-12.000000,-9.000000,-10.000000,-11.000000
1298224.567148,-5.000000,0.000000,19.000000,23.000000,2.000000,8.000000,-5.000000,-4.000000
1298224.581491,22.000000,13.000000,4.000000,8.000000,2.000000,2.000000,4.000000,3.000000
1298224.581520,21.000000,20.000000,25.000000,8.000000,5.000000,-6.000000,9.000000,18.000000
1298224.589576,21.000000,-1.000000,-14.000000,-2.000000,-2.000000,3.000000,3.000000,10.000000
1298224.589620,-26.000000,-19.000000,4.000000,1.000000,8.000000,-2.000000,-5.000000,-15.000000
1298224.596350,-25.000000,23.000000,-15.000000,1.000000,-2.000000,-1.000000,5.000000,2.000000
1298224.596496,7.000000,22.000000,36.000000,15.000000,10.000000,-4.000000,8.000000,12.000000
1298224.641339,46.000000,-35.000000,11.000000,9.000000,-6.000000,1.000000,-12.000000,-11.000000
1298224.641390,-120.000000,-42.000000,-28.000000,-13.000000,-10.000000,-10.000000,-8.000000,-30.000000
1298224.648764,20.000000,9.000000,17.000000,3.000000,6.000000,2.000000,2.000000,15.000000
1298224.648815,58.000000,23.000000,35.000000,21.000000,5.000000,-1.000000,-1.000000,8.000000
1298224.671661,21.000000,-42.000000,-6.000000,7.000000,7.000000,4.000000,-1.000000,-8.000000
1298224.671691,-34.000000,-12.000000,1.000000,-5.000000,-7.000000,-10.000000,2.000000,8.000000
1298224.678813,-19.000000,4.000000,12.000000,11.000000,6.000000,-2.000000,-6.000000,-4.000000
1298224.678866,-19.000000,-14.000000,-35.000000,-23.000000,-10.000000,-1.000000,-6.000000,-3.000000
1298224.701234,14.000000,-17.000000,7.000000,3.000000,1.000000,-6.000000,0.000000,1.000000
1298224.701285,-30.000000,10.000000,12.000000,0.000000,-1.000000,-8.000000,8.000000,15.000000
1298224.702169,15.000000,-6.000000,16.000000,5.000000,-4.000000,3.000000,0.000000,-4.000000
