# participant_id: P1
# gesture: baseline
# trial_number: 2
# stream_name: Myo_EMG
# stream_type: emg
# timestamp: 20260420_130442
# samples: 4658
# duration_sec: 30.458
# nominal_sample_rate: 200.0
# effective_sample_rate: 152.90
#
timestamp,emg_1,emg_2,emg_3,emg_4,emg_5,emg_6,emg_7,emg_8
1294974.540870,2.000000,16.000000,9.000000,12.000000,1.000000,-1.000000,2.000000,-2.000000
1294974.540894,-3.000000,-4.000000,1.000000,2.000000,1.000000,-2.000000,-1.000000,-3.000000
1294974.541897,1.000000,1.000000,4.000000,0.000000,-1.000000,0.000000,-2.000000,0.000000
1294974.541908,0.000000,-11.000000,-21.000000,-14.000000,-4.000000,-3.000000,-3.000000,-3.000000
1294974.548216,0.000000,-1.000000,-2.000000,-11.000000,-5.000000,1.000000,-4.000000,-2.000000
1294974.548237,-7.000000,-11.000000,-16.000000,-8.000000,-1.000000,-1.000000,-3.000000,-5.000000
1294974.570661,7.000000,16.000000,16.000000,3.000000,0.000000,-1.000000,0.000000,0.000000
1294974.570671,-1.000000,-3.000000,-5.000000,-3.000000,0.000000,-1.000000,0.000000,-3.000000
1294974.585886,1.000000,-3.000000,4.000000,4.000000,0.000000,0.000000,0.000000,-2.000000
1294974.585917,3.000000,-3.000000,-5.000000,-1.000000,-3.000000,0.000000,1.000000,-3.000000
1294974.615815,-1.000000,6.000000,0.000000,1.000000,2.000000,-1.000000,0.000000,-1.000000
1294974.615877,-6.000000,-4.000000,-6.000000,-4.000000,0.000000,-4.000000,0.000000,-3.000000
1294974.623162,0.000000,0.000000,-1.000000,0.000000,-1.000000,2.000000,-3.000000,0.000000
1294974.623190,3.000000,2.000000,8.000000,7.000000,-1.000000,0.000000,-4.000000,1.000000
1294974.638538,4.000000,7.000000,2.000000,-3.000000,-3.000000,-2.000000,-3.000000,-1.000000
1294974.638551,1.000000,-2.000000,0.000000,5.000000,-1.000000,0.000000,-1.000000,0.000000
1294974.660566,-6.000000,-8.000000,-10.000000,-10.000000,-4.000000,-5.000000,-3.000000,-2.000000
1294974.660594,1.000000,-3.000000,4.000000,8.000000,4.000000,2.000000,0.000000,-1.000000
1294974.661538,-2.000000,0.000000,-5.000000,-3.000000,1.000000,-4.000000,-2.000000,-2.000000
1294974.661547,0.000000,1.000000,2.000000,4.000000,5.000000,6.000000,3.000000,1.000000
1294974.662270,-1.000000,-5.000000,-21.000000,-4.000000,-5.000000,-2.000000,0.000000,-3.000000
1294974.662278,-1.000000,-3.000000,-3.000000,-10.000000,-6.000000,-2.000000,1.000000,2.000000
1294974.662930,-1.000000,-3.000000,5.000000,8.000000,-2.000000,-3.000000,-3.000000,-2.000000
1294974.662940,-1.000000,-1.000000,-1.000000,3.000000,7.000000,6.000000,0.000000,1.000000
1294974.663524,-4.000000,-2.000000,-2.000000,-2.000000,-7.000000,-6.000000,-4.000000,-5.000000
1294974.663532,-1.000000,4.000000,10.000000,3.000000,1.000000,1.000000,-2.000000,-1.000000
1294974.668031,-2.000000,2.000000,2.000000,-1.000000,1.000000,1.000000,-2.000000,-1.000000
1294974.668041,-3.000000,-6.000000,-10.000000,-6.000000,-1.000000,0.000000,-2.000000,-1.000000
1294974.676179,-1.000000,-5.000000,-6.000000,-2.000000,-3.000000,1.000000,0.000000,1.000000
1294974.676206,0.000000,-8.000000,3.000000,0.000000,1.000000,0.000000,-2.000000,-3.000000
1294974.705668,-2.000000,-1.000000,-7.000000,-7.000000,-4.000000,-4.000000,-4.000000,0.000000
1294974.705679,-5.000000,-1.000000,-3.000000,2.000000,5.000000,2.000000,1.000000,0.000000
1294974.751236,-1.000000,-2.000000,8.000000,2.000000,-3.000000,-3.000000,-2.000000,-2.000000
1294974.751266,-3.000000,-1.000000,-1.000000,-2.000000,-2.000000,0.000000,-2.000000,-1.000000
1294974.751979,-1.000000,0.000000,5.000000,-2.000000,-6.000000,-6.000000,-5.000000,1.000000
1294974.752010,-4.000000,-7.000000,-8.000000,2.000000,-1.000000,-3.000000,-3.000000,-1.000000
1294974.753112,1.000000,5.000000,15.000000,4.000000,7.000000,-2.000000,2.000000,2.000000
1294974.753120,-1.000000,-2.000000,-5.000000,1.000000,3.000000,5.000000,1.000000,1.000000
1294974.753564,-1.000000,5.000000,-4.000000,-4.000000,-6.000000,-4.000000,1.000000,-1.000000
1294974.753572,-2.000000,-1.000000,3.000000,0.000000,0.000000,1.000000,-1.000000,-2.000000
1294974.787894,2.000000,9.000000,5.000000,-1.000000,3.000000,3.000000,1.000000,2.000000
1294974.787904,-3.000000,-9.000000,-12.000000,2.000000,-3.000000,-4.000000,-3.000000,-1.000000
1294974.788384,-1.000000,0.000000,3.000000,1.000000,1.000000,4.000000,2.000000,1.000000
1294974.788399,2.000000,3.000000,3.000000,6.000000,-1.000000,-3.000000,-3.000000,1.000000
1294974.789579,-6.000000,-13.000000,-13.000000,-1.000000,2.000000,2.000000,1.000000,2.000000
1294974.789587,1.000000,4.000000,11.000000,-4.000000,-3.000000,-1.000000,-3.000000,0.000000
1294974.790558,-1.000000,-7.000000,-8.000000,-3.000000,-3.000000,0.000000,-1.000000,1.000000
1294974.790566,0.000000,1.000000,5.000000,-2.000000,-1.000000,-1.000000,0.000000,-2.000000
1294974.796332,-2.000000,-6.000000,-6.000000,-4.000000,-4.000000,1.000000,-1.000000,0.000000
1294974.796359,-1.000000,-1.000000,1.000000,6.000000,2.000000,2.000000,0.000000,1.000000
1294974.818245,1.000000,-2.000000,5.000000,3.000000,3.000000,1.000000,0.000000,-2.000000
1294974.818277,2.000000,-8.000000,-10.000000,-12.000000,-7.000000,0.000000,0.000000,-2.000000
1294974.848259,1.000000,6.000000,4.000000,-1.000000,1.000000,0.000000,-1.000000,0.000000
1294974.848270,1.000000,-7.000000,-6.000000,4.000000,3.000000,3.000000,0.000000,1.000000
1294974.863213,-1.000000,5.000000,14.000000,5.000000,2.000000,-1.000000,0.000000,0.000000
1294974.863241,1.000000,-3.000000,-4.000000,-2.000000,-2.000000,-4.000000,-5.000000,-2.000000
1294974.893247,-7.000000,-11.000000,-6.000000,3.000000,5.000000,1.000000,0.000000,3.000000
1294974.893257,7.000000,24.000000,8.000000,-4.000000,-1.000000,2.000000,0.000000,1.000000
1294974.900771,-4.000000,-12.000000,-12.000000,-4.000000,2.000000,0.000000,-1.000000,-5.000000
1294974.900815,2.000000,-4.000000,-9.000000,1.000000,3.000000,-1.000000,1.000000,1.000000
1294974.915528,2.000000,1.000000,-5.000000,-3.000000,-3.000000,-1.000000,-1.000000,-5.000000
1294974.915539,-1.000000,0.000000,1.000000,-1.000000,0.000000,3.000000,0.000000,-2.000000
1294974.945690,1.000000,-3.000000,4.000000,8.000000,1.000000,0.000000,0.000000,-1.000000
1294974.945701,-5.000000,-6.000000,-6.000000,-5.000000,-4.000000,0.000000,-2.000000,-2.000000
1294974.983002,-6.000000,-5.000000,-9.000000,-3.000000,-1.000000,-1.000000,0.000000,0.000000
1294974.983025,1.000000,7.000000,3.000000,4.000000,0.000000,-1.000000,-2.000000,-3.000000
1294975.021035,-6.000000,-5.000000,-8.000000,4.000000,5.000000,0.000000,-1.000000,0.000000
1294975.021052,0.000000,1.000000,-5.000000,3.000000,2.000000,-1.000000,2.000000,-1.000000
1294975.028692,1.000000,8.000000,-6.000000,-8.000000,-4.000000,-1.000000,-2.000000,0.000000
1294975.028704,0.000000,-7.000000,-5.000000,-3.000000,1.000000,2.000000,-1.000000,-1.000000
1294975.029714,-3.000000,-8.000000,-4.000000,0.000000,0.000000,-1.000000,0.000000,-2.000000
1294975.029723,1.000000,1.000000,0.000000,0.000000,-1.000000,-3.000000,-2.000000,-2.000000
1294975.030403,-1.000000,-1.000000,-5.000000,-6.000000,-2.000000,-2.000000,-2.000000,-2.000000
1294975.030412,-2.000000,-9.000000,-8.000000,0.000000,-2.000000,0.000000,-2.000000,-4.000000
1294975.031243,-3.000000,-2.000000,7.000000,-1.000000,0.000000,-2.000000,0.000000,-1.000000
1294975.031253,-3.000000,-8.000000,-9.000000,-12.000000,-2.000000,-2.000000,-1.000000,-1.000000
1294975.066512,-3.000000,-2.000000,-9.000000,-10.000000,-5.000000,2.000000,-1.000000,-1.000000
1294975.066536,1.000000,3.000000,8.000000,15.000000,1.000000,1.000000,1.000000,-1.000000
1294975.073779,1.000000,-6.000000,-16.000000,-5.000000,0.000000,-1.000000,1.000000,0.000000
1294975.073800,1.000000,-1.000000,2.000000,1.000000,-1.000000,2.000000,-2.000000,0.000000
1294975.103346,0.000000,-1.000000,-2.000000,-5.000000,1.000000,-5.000000,0.000000,-2.000000
1294975.103425,-1.000000,0.000000,7.000000,-3.000000,-6.000000,-4.000000,-3.000000,-2.000000
1294975.133108,1.000000,-1.000000,-4.000000,0.000000,1.000000,-2.000000,-2.000000,-2.000000
1294975.133119,-4.000000,-5.000000,-4.000000,-1.000000,-3.000000,-4.000000,-3.000000,-2.000000
1294975.141337,1.000000,4.000000,5.000000,8.000000,6.000000,1.000000,0.000000,1.000000
1294975.141364,3.000000,0.000000,0.000000,-9.000000,-3.000000,2.000000,-2.000000,2.000000
1294975.141793,4.000000,3.000000,4.000000,2.000000,-4.000000,-1.000000,-1.000000,0.000000
1294975.141801,-1.000000,-3.000000,-5.000000,-8.000000,-1.000000,-3.000000,0.000000,-1.000000
1294975.142929,-3.000000,-5.000000,-10.000000,-7.000000,-2.000000,-2.000000,-3.000000,0.000000
1294975.142957,0.000000,12.000000,5.000000,-5.000000,-4.000000,-4.000000,-1.000000,-1.000000
1294975.144594,-1.000000,0.000000,0.000000,-2.000000,-4.000000,0.000000,1.000000,2.000000
1294975.144623,-5.000000,-4.000000,5.000000,5.000000,-1.000000,-2.000000,-1.000000,-4.000000
1294975.155917,0.000000,5.000000,-2.000000,-5.000000,-4.000000,-2.000000,-4.000000,-4.000000
1294975.155927,1.000000,8.000000,-3.000000,-5.000000,-1.000000,-5.000000,-2.000000,-1.000000
1294975.185697,2.000000,-2.000000,5.000000,-2.000000,-3.000000,-1.000000,0.000000,-1.000000
1294975.185709,-5.000000,-9.000000,-7.000000,-1.000000,5.000000,1.000000,-2.000000,1.000000
1294975.193109,2.000000,10.000000,12.000000,-3.000000,-5.000000,-4.000000,-4.000000,0.000000
1294975.193122,2.000000,7.000000,3.000000,-2.000000,-8.000000,-2.000000,-2.000000,3.000000
1294975.223331,0.000000,-3.000000,-22.000000,-12.000000,-2.000000,3.000000,-2.000000,-1.000000
1294975.223379,-1.000000,-5.000000,-5.000000,-1.000000,1.000000,-1.000000,-1.000000,1.000000
1294975.223860,-2.000000,-1.000000,1.000000,-6.000000,0.000000,0.000000,2.000000,-3.000000
1294975.223887,1.000000,1.000000,13.000000,-3.000000,-2.000000,-4.000000,0.000000,0.000000
1294975.230662,-2.000000,-5.000000,1.000000,-1.000000,-3.000000,-2.000000,-1.000000,-1.000000
1294975.230673,-4.000000,-4.000000,-15.000000,-4.000000,-3.000000,-2.000000,-5.000000,-3.000000
1294975.245707,-2.000000,-4.000000,1.000000,-2.000000,-2.000000,1.000000,-1.000000,-2.000000
1294975.245717,-2.000000,-2.000000,3.000000,-5.000000,-1.000000,-3.000000,-1.000000,-1.000000
1294975.260835,-2.000000,-6.000000,-2.000000,-5.000000,-4.000000,-5.000000,1.000000,-2.000000
1294975.260844,2.000000,-4.000000,-1.000000,3.000000,5.000000,1.000000,-1.000000,0.000000
1294975.262511,1.000000,1.000000,-1.000000,-7.000000,-6.000000,-2.000000,-3.000000,0.000000
1294975.262522,-3.000000,-1.000000,-2.000000,-4.000000,-1.000000,-3.000000,-3.000000,-3.000000
1294975.263179,1.000000,-1.000000,0.000000,5.000000,7.000000,-1.000000,1.000000,-1.000000
1294975.263187,-2.000000,-3.000000,-14.000000,-8.000000,-4.000000,-1.000000,-1.000000,-3.000000
1294975.264457,-2.000000,2.000000,4.000000,-11.000000,-4.000000,1.000000,2.000000,3.000000
1294975.264465,-6.000000,-10.000000,-15.000000,-6.000000,-5.000000,-5.000000,-2.000000,0.000000
1294975.290811,4.000000,8.000000,21.000000,11.000000,4.000000,2.000000,-1.000000,0.000000
1294975.290821,-1.000000,0.000000,-6.000000,-8.000000,-2.000000,2.000000,1.000000,-3.000000
1294975.305580,0.000000,0.000000,4.000000,1.000000,1.000000,1.000000,-2.000000,-3.000000
1294975.305589,0.000000,-3.000000,0.000000,-6.000000,-7.000000,-5.000000,0.000000,0.000000
1294975.342939,0.000000,2.000000,2.000000,8.000000,5.000000,2.000000,3.000000,2.000000
1294975.342959,0.000000,1.000000,-12.000000,-20.000000,-7.000000,-5.000000,1.000000,-1.000000
1294975.357951,-2.000000,-5.000000,3.000000,0.000000,2.000000,4.000000,0.000000,-1.000000
1294975.357961,0.000000,1.000000,-2.000000,7.000000,-1.000000,1.000000,-2.000000,2.000000
1294975.373406,-1.000000,-6.000000,7.000000,-1.000000,-1.000000,-1.000000,0.000000,-3.000000
1294975.373455,0.000000,-8.000000,-11.000000,-9.000000,-6.000000,-1.000000,-2.000000,-2.000000
1294975.374216,-2.000000,-4.000000,7.000000,-9.000000,-1.000000,-4.000000,0.000000,0.000000
1294975.374243,-3.000000,-3.000000,-6.000000,-3.000000,-4.000000,-1.000000,0.000000,0.000000
1294975.374911,0.000000,-3.000000,0.000000,8.000000,3.000000,0.000000,0.000000,1.000000
1294975.374931,0.000000,-3.000000,1.000000,-4.000000,-2.000000,0.000000,0.000000,1.000000
1294975.375358,1.000000,2.000000,-15.000000,4.000000,-6.000000,-1.000000,-3.000000,-2.000000
1294975.375365,0.000000,-3.000000,-4.000000,-14.000000,-6.000000,-3.000000,-1.000000,0.000000
1294975.376068,-2.000000,-1.000000,4.000000,7.000000,1.000000,-3.000000,0.000000,-1.000000
1294975.376095,-5.000000,-2.000000,-6.000000,8.000000,8.000000,3.000000,2.000000,-2.000000
1294975.380584,1.000000,-5.000000,-10.000000,0.000000,1.000000,-1.000000,-4.000000,0.000000
1294975.380613,1.000000,3.000000,0.000000,-3.000000,3.000000,0.000000,1.000000,-2.000000
1294975.395406,0.000000,-8.000000,-1.000000,4.000000,-5.000000,-2.000000,0.000000,-3.000000
1294975.395416,-2.000000,-5.000000,3.000000,1.000000,5.000000,0.000000,0.000000,0.000000
1294975.418268,0.000000,5.000000,0.000000,1.000000,-1.000000,0.000000,-1.000000,-1.000000
1294975.418302,-2.000000,-2.000000,-4.000000,-4.000000,3.000000,3.000000,0.000000,-3.000000
1294975.433199,-3.000000,-1.000000,-7.000000,-8.000000,-2.000000,-2.000000,-3.000000,-4.000000
1294975.433230,-1.000000,-4.000000,5.000000,0.000000,-8.000000,-3.000000,-1.000000,0.000000
1294975.463379,0.000000,5.000000,4.000000,3.000000,4.000000,-3.000000,-1.000000,-1.000000
1294975.463392,1.000000,1.000000,-1.000000,-11.000000,-12.000000,-3.000000,0.000000,0.000000
1294975.470726,-2.000000,-3.000000,-4.000000,1.000000,-2.000000,1.000000,-5.000000,-5.000000
1294975.470739,0.000000,-5.000000,-2.000000,-10.000000,-3.000000,-2.000000,-4.000000,-1.000000
1294975.500837,-2.000000,-4.000000,-4.000000,0.000000,-2.000000,-4.000000,0.000000,2.000000
1294975.500857,-3.000000,-2.000000,-3.000000,8.000000,-1.000000,1.000000,-1.000000,-2.000000
1294975.508027,-2.000000,-5.000000,-3.000000,8.000000,6.000000,3.000000,1.000000,-1.000000
1294975.508036,0.000000,-4.000000,-2.000000,-7.000000,2.000000,-1.000000,0.000000,0.000000
1294975.523525,-2.000000,2.000000,7.000000,10.000000,2.000000,-4.000000,-1.000000,0.000000
1294975.523554,-1.000000,-6.000000,-8.000000,0.000000,0.000000,2.000000,3.000000,0.000000
1294975.523631,-1.000000,4.000000,4.000000,-1.000000,4.000000,2.000000,-3.000000,-1.000000
1294975.523644,-3.000000,1.000000,0.000000,-6.000000,-7.000000,-3.000000,-5.000000,-2.000000
1294975.524223,-3.000000,2.000000,4.000000,1.000000,2.000000,1.000000,0.000000,-1.000000
1294975.524252,-1.000000,-11.000000,-11.000000,-7.000000,-3.000000,-1.000000,1.000000,-1.000000
1294975.538109,-1.000000,-5.000000,-4.000000,0.000000,-2.000000,-2.000000,-2.000000,-3.000000
1294975.538124,-3.000000,-4.000000,4.000000,0.000000,1.000000,1.000000,0.000000,-1.000000
1294975.538412,0.000000,1.000000,5.000000,1.000000,1.000000,0.000000,1.000000,2.000000
1294975.538421,0.000000,-7.000000,-2.000000,-4.000000,0.000000,0.000000,-4.000000,3.000000
1294975.538952,-4.000000,3.000000,11.000000,9.000000,2.000000,0.000000,0.000000,-3.000000
1294975.538973,0.000000,5.000000,-6.000000,-16.000000,-5.000000,0.000000,1.000000,0.000000
1294975.540449,0.000000,-4.000000,-1.000000,4.000000,1.000000,-1.000000,0.000000,0.000000
1294975.540475,-5.000000,4.000000,3.000000,-3.000000,-4.000000,-3.000000,-1.000000,-3.000000
1294975.560760,-2.000000,-2.000000,-3.000000,-2.000000,-1.000000,-3.000000,0.000000,-1.000000
1294975.560772,1.000000,3.000000,3.000000,1.000000,1.000000,-1.000000,1.000000,0.000000
1294975.576186,-4.000000,-5.000000,0.000000,4.000000,1.000000,-3.000000,1.000000,-4.000000
1294975.576198,-1.000000,-4.000000,-11.000000,-7.000000,-1.000000,-1.000000,-2.000000,0.000000
1294975.576696,3.000000,1.000000,13.000000,26.000000,-2.000000,3.000000,2.000000,0.000000
1294975.576706,1.000000,0.000000,-1.000000,-7.000000,-1.000000,-2.000000,-2.000000,-2.000000
1294975.583187,-1.000000,-1.000000,2.000000,0.000000,-5.000000,-3.000000,-1.000000,0.000000
1294975.583203,-3.000000,-3.000000,-1.000000,-8.000000,-3.000000,-2.000000,-3.000000,-2.000000
1294975.605673,0.000000,-1.000000,-2.000000,-5.000000,-2.000000,-2.000000,-2.000000,-1.000000
1294975.605683,1.000000,1.000000,7.000000,2.000000,0.000000,-2.000000,-2.000000,-3.000000
1294975.628398,-1.000000,-1.000000,6.000000,2.000000,2.000000,1.000000,-2.000000,-2.000000
1294975.628409,-1.000000,0.000000,2.000000,10.000000,0.000000,1.000000,2.000000,0.000000
1294975.658253,-3.000000,-6.000000,-24.000000,-18.000000,-5.000000,-1.000000,-1.000000,-2.000000
1294975.658264,-6.000000,0.000000,-10.000000,-3.000000,0.000000,-7.000000,-2.000000,-3.000000
1294975.695460,0.000000,6.000000,9.000000,9.000000,4.000000,9.000000,7.000000,1.000000
1294975.695470,-3.000000,0.000000,3.000000,4.000000,4.000000,1.000000,1.000000,-4.000000
1294975.695927,-1.000000,1.000000,5.000000,-3.000000,-3.000000,-2.000000,-4.000000,0.000000
1294975.695935,-1.000000,-12.000000,-7.000000,-3.000000,-4.000000,-3.000000,-2.000000,-2.000000
1294975.697098,0.000000,-1.000000,-1.000000,1.000000,0.000000,1.000000,1.000000,1.000000
1294975.697106,0.000000,1.000000,1.000000,7.000000,-1.000000,-5.000000,-3.000000,-1.000000
1294975.697769,-1.000000,-9.000000,-7.000000,-24.000000,-2.000000,5.000000,2.000000,-1.000000
1294975.697776,0.000000,13.000000,7.000000,-1.000000,-1.000000,3.000000,2.000000,-1.000000
1294975.698673,-3.000000,2.000000,4.000000,3.000000,0.000000,-3.000000,0.000000,-2.000000
1294975.698681,2.000000,-2.000000,-8.000000,-6.000000,-4.000000,-3.000000,-1.000000,-6.000000
1294975.718128,4.000000,-3.000000,-3.000000,3.000000,-1.000000,-1.000000,1.000000,0.000000
1294975.718139,1.000000,1.000000,-2.000000,0.000000,1.000000,-1.000000,0.000000,-1.000000
1294975.732964,0.000000,-5.000000,-4.000000,-4.000000,-2.000000,-5.000000,-1.000000,-3.000000
1294975.732973,1.000000,6.000000,5.000000,15.000000,1.000000,0.000000,0.000000,-3.000000
1294975.734082,-1.000000,2.000000,3.000000,-5.000000,2.000000,7.000000,2.000000,-2.000000
1294975.734099,-5.000000,2.000000,-1.000000,1.000000,4.000000,-1.000000,-3.000000,-1.000000
1294975.734595,0.000000,-5.000000,-1.000000,-4.000000,-2.000000,0.000000,-3.000000,5.000000
1294975.734623,1.000000,3.000000,3.000000,5.000000,0.000000,-3.000000,1.000000,-2.000000
1294975.740424,-1.000000,-3.000000,-18.000000,-7.000000,-3.000000,-1.000000,-2.000000,-1.000000
1294975.740453,0.000000,-2.000000,4.000000,-8.000000,-5.000000,-3.000000,-4.000000,-1.000000
1294975.748247,4.000000,12.000000,10.000000,11.000000,3.000000,3.000000,3.000000,-1.000000
1294975.748258,1.000000,9.000000,-8.000000,6.000000,3.000000,-5.000000,1.000000,-2.000000
1294975.777859,-3.000000,-1.000000,0.000000,-6.000000,-1.000000,-1.000000,2.000000,1.000000
1294975.777870,0.000000,2.000000,0.000000,-7.000000,-4.000000,2.000000,0.000000,-1.000000
1294975.800914,4.000000,-2.000000,-3.000000,-8.000000,-4.000000,-3.000000,-1.000000,-1.000000
1294975.800940,0.000000,-2.000000,-2.000000,3.000000,0.000000,-3.000000,-2.000000,1.000000
1294975.816054,-3.000000,-4.000000,-4.000000,-3.000000,1.000000,-2.000000,-4.000000,-5.000000
1294975.816067,-1.000000,-2.000000,0.000000,1.000000,0.000000,-3.000000,-1.000000,0.000000
1294975.816797,-3.000000,-4.000000,-2.000000,-5.000000,0.000000,0.000000,-3.000000,-3.000000
1294975.816836,1.000000,2.000000,-5.000000,-6.000000,2.000000,4.000000,2.000000,3.000000
1294975.817806,-2.000000,1.000000,1.000000,-3.000000,-2.000000,-1.000000,-2.000000,-1.000000
1294975.817814,-1.000000,-3.000000,6.000000,2.000000,-1.000000,0.000000,2.000000,-2.000000
1294975.818546,-1.000000,1.000000,0.000000,-1.000000,-1.000000,-2.000000,0.000000,-1.000000
1294975.818554,-5.000000,-4.000000,-13.000000,-5.000000,-2.000000,-1.000000,1.000000,-3.000000
1294975.830548,-1.000000,-1.000000,-3.000000,1.000000,-2.000000,-1.000000,-3.000000,2.000000
1294975.830565,3.000000,9.000000,11.000000,11.000000,6.000000,1.000000,-3.000000,-3.000000
1294975.838315,0.000000,-3.000000,-3.000000,-10.000000,-2.000000,-1.000000,4.000000,3.000000
1294975.838345,3.000000,-3.000000,7.000000,4.000000,0.000000,0.000000,-2.000000,2.000000
1294975.853332,-5.000000,-4.000000,-3.000000,-5.000000,-7.000000,-3.000000,0.000000,-3.000000
1294975.853364,-1.000000,-6.000000,-1.000000,-6.000000,-4.000000,0.000000,-3.000000,-2.000000
1294975.853828,0.000000,-3.000000,-4.000000,4.000000,4.000000,0.000000,1.000000,-1.000000
1294975.853855,-3.000000,-5.000000,0.000000,-4.000000,-1.000000,1.000000,3.000000,1.000000
1294975.860567,-1.000000,-10.000000,-5.000000,-8.000000,-5.000000,0.000000,-3.000000,2.000000
1294975.860582,1.000000,-2.000000,8.000000,12.000000,6.000000,3.000000,4.000000,-3.000000
1294975.898245,-2.000000,-6.000000,-5.000000,-3.000000,-5.000000,-3.000000,-4.000000,0.000000
1294975.898256,-2.000000,-7.000000,-9.000000,-4.000000,-1.000000,3.000000,1.000000,-2.000000
1294975.913034,-3.000000,-1.000000,-5.000000,-1.000000,-4.000000,-1.000000,-2.000000,-2.000000
1294975.913066,-4.000000,2.000000,-3.000000,-5.000000,-5.000000,-3.000000,0.000000,-3.000000
1294975.927974,-1.000000,3.000000,-5.000000,-3.000000,0.000000,0.000000,0.000000,1.000000
1294975.927984,0.000000,-3.000000,-3.000000,1.000000,1.000000,-3.000000,1.000000,-1.000000
1294975.929018,0.000000,12.000000,14.000000,-5.000000,2.000000,1.000000,-1.000000,-1.000000
1294975.929026,0.000000,3.000000,4.000000,9.000000,1.000000,-1.000000,-3.000000,-3.000000
1294975.930575,0.000000,-2.000000,-7.000000,5.000000,1.000000,2.000000,1.000000,-5.000000
1294975.930585,-4.000000,-5.000000,-5.000000,-5.000000,-4.000000,-3.000000,-5.000000,-3.000000
1294975.931413,-1.000000,-1.000000,3.000000,1.000000,-3.000000,-2.000000,-1.000000,1.000000
1294975.931421,-3.000000,-2.000000,-4.000000,0.000000,-1.000000,-1.000000,-3.000000,-1.000000
1294975.936162,-4.000000,-5.000000,0.000000,-8.000000,1.000000,2.000000,0.000000,-1.000000
1294975.936171,1.000000,-2.000000,1.000000,-11.000000,-1.000000,0.000000,-4.000000,1.000000
1294975.973103,8.000000,18.000000,0.000000,4.000000,1.000000,1.000000,-1.000000,2.000000
1294975.973149,-4.000000,0.000000,-5.000000,-4.000000,-2.000000,1.000000,0.000000,-1.000000
1294975.974081,-5.000000,-6.000000,0.000000,-5.000000,-3.000000,-1.000000,-3.000000,-4.000000
1294975.974108,-1.000000,2.000000,5.000000,6.000000,1.000000,-1.000000,2.000000,0.000000
1294975.974886,0.000000,-2.000000,-10.000000,-2.000000,-2.000000,-3.000000,-1.000000,-1.000000
1294975.974912,-3.000000,-7.000000,-12.000000,-13.000000,-5.000000,-2.000000,0.000000,-2.000000
1294976.025790,3.000000,6.000000,9.000000,7.000000,6.000000,3.000000,1.000000,3.000000
1294976.025801,-1.000000,-1.000000,-2.000000,-1.000000,-1.000000,2.000000,2.000000,3.000000
1294976.048069,-3.000000,-5.000000,1.000000,3.000000,0.000000,-6.000000,-2.000000,-3.000000
1294976.048080,-4.000000,-4.000000,-4.000000,-8.000000,-5.000000,-4.000000,-3.000000,0.000000
1294976.055964,1.000000,4.000000,3.000000,-2.000000,-1.000000,2.000000,2.000000,0.000000
1294976.055978,-3.000000,-7.000000,-3.000000,-1.000000,-3.000000,-2.000000,1.000000,-4.000000
1294976.056531,-2.000000,-5.000000,1.000000,6.000000,-4.000000,-3.000000,-1.000000,-2.000000
1294976.056569,2.000000,6.000000,0.000000,0.000000,3.000000,3.000000,1.000000,0.000000
1294976.058743,-1.000000,-5.000000,-5.000000,3.000000,-1.000000,1.000000,-1.000000,1.000000
1294976.058760,-4.000000,-4.000000,2.000000,-1.000000,0.000000,-1.000000,-2.000000,-1.000000
1294976.062882,3.000000,3.000000,1.000000,1.000000,-2.000000,0.000000,2.000000,1.000000
1294976.062905,-2.000000,-2.000000,4.000000,8.000000,1.000000,-4.000000,0.000000,0.000000
1294976.085663,-2.000000,-4.000000,-2.000000,-2.000000,0.000000,-2.000000,-4.000000,-2.000000
1294976.085673,1.000000,3.000000,9.000000,1.000000,1.000000,1.000000,1.000000,1.000000
1294976.093176,-1.000000,-3.000000,-6.000000,-4.000000,-6.000000,-3.000000,-2.000000,-2.000000
1294976.093185,1.000000,-2.000000,4.000000,-4.000000,-1.000000,-2.000000,-3.000000,0.000000
1294976.130723,-2.000000,-8.000000,-20.000000,-6.000000,3.000000,-1.000000,-1.000000,-2.000000
1294976.130734,1.000000,9.000000,6.000000,-5.000000,-2.000000,0.000000,1.000000,0.000000
1294976.138362,1.000000,-10.000000,-10.000000,-6.000000,-1.000000,2.000000,0.000000,0.000000
1294976.138395,-5.000000,-4.000000,0.000000,11.000000,1.000000,-2.000000,1.000000,-3.000000
1294976.153019,-3.000000,-10.000000,-14.000000,-4.000000,2.000000,0.000000,0.000000,-1.000000
1294976.153080,2.000000,11.000000,12.000000,-8.000000,-11.000000,0.000000,-2.000000,2.000000
1294976.175806,1.000000,-2.000000,2.000000,1.000000,2.000000,0.000000,-2.000000,-2.000000
1294976.175816,-4.000000,-1.000000,-13.000000,-5.000000,-1.000000,-1.000000,-2.000000,-3.000000
1294976.205598,0.000000,-6.000000,-3.000000,-1.000000,-5.000000,-5.000000,-4.000000,0.000000
1294976.205612,1.000000,-3.000000,2.000000,-6.000000,0.000000,-2.000000,-1.000000,-1.000000
1294976.206507,1.000000,1.000000,6.000000,-3.000000,-3.000000,-2.000000,-1.000000,1.000000
1294976.206517,1.000000,6.000000,3.000000,-3.000000,2.000000,2.000000,-3.000000,-1.000000
1294976.207289,1.000000,-1.000000,-9.000000,6.000000,-1.000000,-4.000000,-2.000000,-2.000000
1294976.207307,-1.000000,-5.000000,-3.000000,-8.000000,-5.000000,0.000000,-2.000000,-1.000000
1294976.208060,0.000000,-1.000000,1.000000,7.000000,0.000000,4.000000,1.000000,0.000000
1294976.208069,-2.000000,-15.000000,-6.000000,9.000000,8.000000,-2.000000,-2.000000,-3.000000
1294976.209467,0.000000,-3.000000,6.000000,-8.000000,-3.000000,-1.000000,1.000000,-2.000000
1294976.209502,0.000000,0.000000,-2.000000,-10.000000,-1.000000,-1.000000,-1.000000,0.000000
1294976.228022,-4.000000,-2.000000,-6.000000,-12.000000,-5.000000,-4.000000,-2.000000,-4.000000
1294976.228031,2.000000,-1.000000,-2.000000,-17.000000,-6.000000,2.000000,2.000000,1.000000
1294976.235703,0.000000,6.000000,17.000000,13.000000,6.000000,0.000000,0.000000,-2.000000
1294976.235733,0.000000,2.000000,-12.000000,-3.000000,-5.000000,-4.000000,0.000000,0.000000
1294976.265776,0.000000,-3.000000,-3.000000,-1.000000,-3.000000,-2.000000,-2.000000,-2.000000
1294976.265788,1.000000,0.000000,3.000000,3.000000,-1.000000,0.000000,0.000000,0.000000
1294976.280583,-4.000000,3.000000,3.000000,1.000000,-1.000000,-1.000000,-1.000000,-2.000000
1294976.280594,1.000000,6.000000,-3.000000,-3.000000,0.000000,-3.000000,-4.000000,-2.000000
1294976.288694,0.000000,-4.000000,-2.000000,0.000000,2.000000,1.000000,-1.000000,0.000000
1294976.288734,-2.000000,-3.000000,-12.000000,-4.000000,-5.000000,-2.000000,-6.000000,0.000000
1294976.289076,-3.000000,-2.000000,5.000000,-2.000000,-3.000000,-4.000000,-2.000000,-4.000000
1294976.289098,0.000000,-3.000000,-2.000000,0.000000,-2.000000,-1.000000,-1.000000,-3.000000
1294976.290410,-1.000000,-1.000000,3.000000,2.000000,2.000000,2.000000,2.000000,1.000000
1294976.290432,5.000000,8.000000,-1.000000,-3.000000,-1.000000,-1.000000,0.000000,-1.000000
1294976.291324,-4.000000,-2.000000,3.000000,4.000000,3.000000,-4.000000,-1.000000,-2.000000
1294976.291346,2.000000,4.000000,8.000000,15.000000,5.000000,5.000000,4.000000,4.000000
1294976.326156,0.000000,2.000000,9.000000,1.000000,-2.000000,-3.000000,-1.000000,0.000000
1294976.326187,2.000000,4.000000,4.000000,8.000000,0.000000,-1.000000,0.000000,-1.000000
1294976.340421,-3.000000,-4.000000,0.000000,3.000000,-2.000000,-2.000000,-1.000000,-4.000000
1294976.340431,0.000000,-7.000000,-10.000000,-9.000000,-4.000000,-4.000000,-6.000000,-4.000000
1294976.363310,1.000000,8.000000,5.000000,-1.000000,8.000000,5.000000,4.000000,0.000000
1294976.363320,-5.000000,-1.000000,0.000000,3.000000,0.000000,2.000000,-1.000000,1.000000
1294976.393054,0.000000,-7.000000,-9.000000,-1.000000,-1.000000,-4.000000,0.000000,0.000000
1294976.393078,-2.000000,3.000000,12.000000,1.000000,-2.000000,-3.000000,-3.000000,-4.000000
1294976.408266,-3.000000,-9.000000,-8.000000,-4.000000,-5.000000,-4.000000,-1.000000,-5.000000
1294976.408277,0.000000,-1.000000,3.000000,1.000000,-2.000000,1.000000,-1.000000,-1.000000
1294976.416121,0.000000,2.000000,1.000000,-2.000000,-1.000000,-5.000000,-1.000000,1.000000
1294976.416130,-2.000000,3.000000,2.000000,-2.000000,7.000000,2.000000,1.000000,1.000000
1294976.416511,0.000000,0.000000,-5.000000,-15.000000,-9.000000,-5.000000,-5.000000,2.000000
1294976.416520,-1.000000,-4.000000,-15.000000,4.000000,-3.000000,-2.000000,-1.000000,-2.000000
1294976.417382,2.000000,2.000000,0.000000,-1.000000,-1.000000,0.000000,-2.000000,0.000000
1294976.417392,-1.000000,-3.000000,-2.000000,-1.000000,0.000000,0.000000,-3.000000,-1.000000
1294976.430551,-4.000000,-4.000000,-3.000000,-3.000000,3.000000,0.000000,1.000000,-2.000000
1294976.430569,-2.000000,-3.000000,-3.000000,1.000000,0.000000,0.000000,-3.000000,-3.000000
1294976.431764,-1.000000,-3.000000,-6.000000,-2.000000,0.000000,-1.000000,-4.000000,-1.000000
1294976.431783,0.000000,3.000000,5.000000,-2.000000,3.000000,-4.000000,0.000000,3.000000
1294976.453320,-3.000000,-1.000000,5.000000,8.000000,1.000000,2.000000,0.000000,-2.000000
1294976.453333,1.000000,-3.000000,-3.000000,-7.000000,-10.000000,-6.000000,-3.000000,-4.000000
1294976.483231,1.000000,-1.000000,9.000000,20.000000,-1.000000,4.000000,0.000000,3.000000
1294976.483282,0.000000,-1.000000,-8.000000,-3.000000,-1.000000,0.000000,0.000000,0.000000
1294976.490493,-5.000000,-3.000000,-2.000000,-7.000000,-5.000000,-3.000000,1.000000,-1.000000
1294976.490517,2.000000,-2.000000,-4.000000,2.000000,-1.000000,-1.000000,0.000000,1.000000
1294976.528545,-3.000000,-8.000000,3.000000,3.000000,-3.000000,-2.000000,-2.000000,-7.000000
1294976.528569,3.000000,11.000000,-3.000000,2.000000,1.000000,3.000000,1.000000,2.000000
1294976.529098,0.000000,-7.000000,-18.000000,-11.000000,-4.000000,1.000000,-2.000000,0.000000
1294976.529107,-1.000000,-1.000000,2.000000,2.000000,5.000000,-2.000000,-1.000000,-1.000000
1294976.530401,-3.000000,-7.000000,-2.000000,4.000000,0.000000,-3.000000,-3.000000,-3.000000
1294976.530410,0.000000,6.000000,11.000000,1.000000,-1.000000,0.000000,-2.000000,-1.000000
1294976.530968,-2.000000,-5.000000,-2.000000,0.000000,-2.000000,-2.000000,-2.000000,0.000000
1294976.530995,-1.000000,1.000000,11.000000,5.000000,3.000000,1.000000,-1.000000,1.000000
1294976.558214,-4.000000,-11.000000,0.000000,5.000000,1.000000,0.000000,0.000000,0.000000
1294976.558225,3.000000,8.000000,-3.000000,0.000000,2.000000,0.000000,1.000000,0.000000
1294976.558600,1.000000,17.000000,10.000000,-6.000000,-3.000000,0.000000,1.000000,0.000000
1294976.558609,-4.000000,-3.000000,-5.000000,-7.000000,-3.000000,-5.000000,-1.000000,0.000000
1294976.559931,-1.000000,2.000000,2.000000,1.000000,1.000000,2.000000,-2.000000,0.000000
1294976.559940,-1.000000,2.000000,-13.000000,8.000000,2.000000,0.000000,1.000000,-2.000000
1294976.565424,-3.000000,-4.000000,1.000000,4.000000,-1.000000,-3.000000,-4.000000,-3.000000
1294976.565437,-2.000000,-5.000000,4.000000,-3.000000,-3.000000,1.000000,2.000000,-2.000000
1294976.580508,1.000000,2.000000,-1.000000,-7.000000,5.000000,6.000000,1.000000,2.000000
1294976.580519,0.000000,-1.000000,1.000000,-4.000000,-5.000000,-3.000000,0.000000,-1.000000
1294976.603259,1.000000,-1.000000,-2.000000,1.000000,-1.000000,-3.000000,-3.000000,0.000000
1294976.603269,-1.000000,-2.000000,6.000000,-5.000000,-3.000000,-2.000000,-3.000000,-4.000000
1294976.617928,-2.000000,-6.000000,-22.000000,-6.000000,-4.000000,0.000000,1.000000,-5.000000
1294976.617945,1.000000,9.000000,16.000000,1.000000,-4.000000,1.000000,-1.000000,-2.000000
1294976.648278,-3.000000,-1.000000,-4.000000,-1.000000,0.000000,-5.000000,-1.000000,-2.000000
1294976.648291,0.000000,-2.000000,-8.000000,-7.000000,-4.000000,-4.000000,1.000000,2.000000
1294976.649222,-2.000000,-4.000000,0.000000,3.000000,3.000000,2.000000,-1.000000,0.000000
1294976.649236,-1.000000,-10.000000,10.000000,-1.000000,1.000000,-4.000000,-2.000000,-2.000000
1294976.649744,2.000000,-2.000000,-9.000000,3.000000,-1.000000,1.000000,-1.000000,3.000000
1294976.649755,-4.000000,-3.000000,-5.000000,1.000000,0.000000,0.000000,-2.000000,-2.000000
1294976.651218,-7.000000,-13.000000,-9.000000,-4.000000,0.000000,-3.000000,-4.000000,-2.000000
1294976.651229,-1.000000,-2.000000,5.000000,-3.000000,1.000000,-2.000000,-2.000000,-1.000000
1294976.651956,-4.000000,4.000000,0.000000,2.000000,2.000000,0.000000,-1.000000,-3.000000
1294976.651967,-4.000000,-1.000000,-1.000000,-3.000000,-2.000000,1.000000,-2.000000,-1.000000
1294976.685580,0.000000,1.000000,4.000000,1.000000,1.000000,-3.000000,2.000000,-1.000000
1294976.685590,1.000000,1.000000,-9.000000,-7.000000,-3.000000,-3.000000,-3.000000,-1.000000
1294976.692921,-4.000000,-5.000000,3.000000,12.000000,-1.000000,-1.000000,-1.000000,0.000000
1294976.692929,-1.000000,1.000000,-2.000000,-9.000000,-4.000000,-2.000000,0.000000,2.000000
1294976.730510,1.000000,-3.000000,-9.000000,-3.000000,2.000000,0.000000,1.000000,0.000000
1294976.730539,0.000000,2.000000,0.000000,0.000000,2.000000,-1.000000,0.000000,-3.000000
1294976.738054,0.000000,-4.000000,-2.000000,7.000000,0.000000,-2.000000,-1.000000,-1.000000
1294976.738064,2.000000,4.000000,8.000000,0.000000,0.000000,0.000000,-3.000000,-1.000000
1294976.768315,-3.000000,3.000000,4.000000,2.000000,-4.000000,-4.000000,-2.000000,-1.000000
1294976.768333,3.000000,-11.000000,-3.000000,-2.000000,4.000000,2.000000,-1.000000,-1.000000
1294976.783163,4.000000,-3.000000,-8.000000,-1.000000,1.000000,1.000000,-2.000000,-2.000000
1294976.783204,-2.000000,-8.000000,-7.000000,0.000000,-2.000000,-3.000000,0.000000,-2.000000
1294976.820604,-4.000000,-5.000000,-3.000000,-5.000000,3.000000,0.000000,-2.000000,0.000000
1294976.820623,1.000000,-2.000000,1.000000,-4.000000,-1.000000,1.000000,-4.000000,0.000000
1294976.835970,1.000000,5.000000,4.000000,6.000000,-1.000000,-1.000000,0.000000,-2.000000
1294976.836002,-2.000000,-5.000000,-5.000000,2.000000,-4.000000,1.000000,1.000000,-1.000000
1294976.857912,-1.000000,-6.000000,-9.000000,-8.000000,-3.000000,-1.000000,-2.000000,-1.000000
1294976.857940,-1.000000,1.000000,5.000000,2.000000,-6.000000,-3.000000,-3.000000,-3.000000
1294976.881215,1.000000,-1.000000,5.000000,-1.000000,0.000000,1.000000,-5.000000,1.000000
1294976.881237,0.000000,-5.000000,-13.000000,-11.000000,-4.000000,-5.000000,0.000000,0.000000
1294976.882294,0.000000,2.000000,0.000000,1.000000,-2.000000,-2.000000,1.000000,0.000000
1294976.882305,-2.000000,-4.000000,-1.000000,-3.000000,-5.000000,-2.000000,-3.000000,-4.000000
1294976.883020,-4.000000,-5.000000,-10.000000,-14.000000,-6.000000,-3.000000,0.000000,-3.000000
1294976.883031,-3.000000,-1.000000,0.000000,0.000000,0.000000,0.000000,-3.000000,-1.000000
1294976.884537,2.000000,8.000000,3.000000,2.000000,2.000000,-1.000000,1.000000,-2.000000
1294976.884548,-3.000000,-5.000000,-12.000000,2.000000,-5.000000,-5.000000,0.000000,0.000000
1294976.895415,-1.000000,-4.000000,0.000000,-3.000000,3.000000,0.000000,0.000000,1.000000
1294976.895426,0.000000,5.000000,-2.000000,0.000000,-1.000000,-3.000000,1.000000,-3.000000
1294976.910756,0.000000,-2.000000,-1.000000,-4.000000,-2.000000,0.000000,-2.000000,1.000000
1294976.910769,-1.000000,3.000000,-3.000000,18.000000,5.000000,1.000000,-4.000000,0.000000
1294976.963122,-1.000000,-2.000000,8.000000,5.000000,0.000000,0.000000,-1.000000,-2.000000
1294976.963150,0.000000,-3.000000,-1.000000,-8.000000,4.000000,5.000000,3.000000,1.000000
1294976.970665,-2.000000,-3.000000,-3.000000,0.000000,-1.000000,0.000000,0.000000,-3.000000
1294976.970675,-2.000000,-3.000000,3.000000,10.000000,-2.000000,-4.000000,-1.000000,2.000000
1294977.008037,2.000000,-3.000000,-1.000000,-3.000000,-4.000000,0.000000,0.000000,0.000000
1294977.008048,0.000000,-5.000000,1.000000,0.000000,4.000000,-2.000000,0.000000,0.000000
1294977.008491,1.000000,8.000000,8.000000,7.000000,1.000000,2.000000,2.000000,1.000000
1294977.008505,-5.000000,3.000000,-20.000000,-11.000000,-2.000000,-1.000000,-2.000000,-1.000000
1294977.009726,1.000000,-13.000000,-3.000000,9.000000,1.000000,6.000000,-1.000000,1.000000
1294977.009737,-2.000000,-7.000000,-4.000000,0.000000,-2.000000,-2.000000,-1.000000,-2.000000
1294977.010369,2.000000,-5.000000,-4.000000,6.000000,0.000000,-1.000000,1.000000,-4.000000
1294977.010379,-3.000000,6.000000,8.000000,-2.000000,-1.000000,2.000000,2.000000,-1.000000
1294977.015798,0.000000,-3.000000,-3.000000,-3.000000,-5.000000,-2.000000,0.000000,-5.000000
1294977.015812,0.000000,4.000000,-1.000000,5.000000,2.000000,-2.000000,-2.000000,0.000000
1294977.039217,-4.000000,-4.000000,-4.000000,5.000000,7.000000,-2.000000,1.000000,-2.000000
1294977.039270,-1.000000,3.000000,8.000000,-12.000000,-6.000000,0.000000,-2.000000,-2.000000
1294977.061499,0.000000,-4.000000,-17.000000,3.000000,3.000000,2.000000,-1.000000,3.000000
1294977.061523,2.000000,-3.000000,-16.000000,-4.000000,1.000000,0.000000,0.000000,-1.000000
1294977.076326,-2.000000,-1.000000,14.000000,4.000000,0.000000,-4.000000,-2.000000,-2.000000
1294977.076352,-3.000000,-9.000000,2.000000,2.000000,0.000000,-1.000000,-3.000000,-2.000000
1294977.098452,-2.000000,-1.000000,0.000000,3.000000,1.000000,-1.000000,-1.000000,-1.000000
1294977.098469,-3.000000,-4.000000,-8.000000,-1.000000,-3.000000,0.000000,-3.000000,-4.000000
1294977.105740,-3.000000,-3.000000,1.000000,8.000000,8.000000,1.000000,-4.000000,-4.000000
1294977.105755,0.000000,-4.000000,-15.000000,-14.000000,-3.000000,1.000000,1.000000,1.000000
1294977.120977,0.000000,-1.000000,6.000000,14.000000,1.000000,0.000000,2.000000,2.000000
1294977.121181,0.000000,-2.000000,1.000000,-1.000000,4.000000,0.000000,-3.000000,-4.000000
1294977.121439,-2.000000,-3.000000,0.000000,-10.000000,-5.000000,-2.000000,1.000000,0.000000
1294977.121453,1.000000,1.000000,-3.000000,11.000000,3.000000,-2.000000,1.000000,-2.000000
1294977.122382,3.000000,4.000000,-3.000000,-4.000000,2.000000,0.000000,-4.000000,0.000000
1294977.122401,2.000000,0.000000,-5.000000,0.000000,0.000000,-1.000000,-3.000000,-2.000000
1294977.124010,-3.000000,-2.000000,-8.000000,-11.000000,-13.000000,-5.000000,-4.000000,-7.000000
1294977.124039,-1.000000,-1.000000,5.000000,-2.000000,2.000000,4.000000,0.000000,0.000000
1294977.135466,-1.000000,-2.000000,6.000000,12.000000,6.000000,0.000000,0.000000,-2.000000
1294977.135483,1.000000,0.000000,-5.000000,-5.000000,0.000000,0.000000,3.000000,4.000000
1294977.158308,-1.000000,-6.000000,3.000000,-4.000000,-1.000000,-4.000000,-2.000000,-1.000000
1294977.158319,0.000000,0.000000,0.000000,-1.000000,3.000000,-1.000000,-3.000000,-2.000000
1294977.173254,1.000000,0.000000,-6.000000,1.000000,3.000000,0.000000,3.000000,-1.000000
1294977.173264,-1.000000,-4.000000,-1.000000,3.000000,0.000000,1.000000,3.000000,1.000000
1294977.203322,-1.000000,14.000000,7.000000,2.000000,-4.000000,0.000000,-1.000000,-3.000000
1294977.203335,0.000000,-4.000000,-10.000000,-5.000000,2.000000,1.000000,-2.000000,0.000000
1294977.248450,0.000000,0.000000,5.000000,-5.000000,-1.000000,0.000000,-2.000000,1.000000
1294977.248467,-1.000000,-2.000000,8.000000,3.000000,-1.000000,-1.000000,-1.000000,-1.000000
1294977.248917,0.000000,-1.000000,0.000000,-1.000000,-2.000000,-4.000000,-1.000000,1.000000
1294977.248928,-1.000000,-2.000000,-2.000000,-1.000000,-3.000000,-1.000000,-2.000000,0.000000
1294977.250081,-2.000000,5.000000,1.000000,-5.000000,-2.000000,0.000000,-1.000000,-3.000000
1294977.250094,1.000000,-5.000000,-5.000000,7.000000,7.000000,1.000000,2.000000,-1.000000
1294977.250620,6.000000,1.000000,6.000000,9.000000,-2.000000,2.000000,3.000000,-1.000000
1294977.250638,-3.000000,0.000000,0.000000,-4.000000,-3.000000,-2.000000,-3.000000,0.000000
1294977.251404,-5.000000,2.000000,7.000000,4.000000,-2.000000,-3.000000,1.000000,-3.000000
1294977.251416,-2.000000,-10.000000,-5.000000,-20.000000,-1.000000,-1.000000,-2.000000,1.000000
1294977.263164,0.000000,0.000000,1.000000,-3.000000,0.000000,2.000000,0.000000,0.000000
1294977.263182,-5.000000,-5.000000,-3.000000,-7.000000,-7.000000,1.000000,-5.000000,-4.000000
1294977.263689,-1.000000,-3.000000,1.000000,-2.000000,0.000000,0.000000,2.000000,-3.000000
1294977.263701,-4.000000,-3.000000,0.000000,-1.000000,0.000000,2.000000,-1.000000,0.000000
1294977.315876,6.000000,4.000000,11.000000,5.000000,1.000000,0.000000,-1.000000,1.000000
1294977.315919,-4.000000,1.000000,-6.000000,-2.000000,2.000000,-2.000000,-2.000000,1.000000
1294977.323330,-4.000000,0.000000,5.000000,7.000000,5.000000,0.000000,0.000000,0.000000
1294977.323344,-5.000000,-4.000000,-8.000000,-7.000000,-5.000000,-4.000000,-2.000000,-4.000000
1294977.353237,1.000000,-3.000000,-6.000000,-7.000000,-3.000000,-3.000000,0.000000,-1.000000
1294977.353253,2.000000,-1.000000,-11.000000,-4.000000,-2.000000,-1.000000,-1.000000,1.000000
1294977.360823,0.000000,-1.000000,4.000000,6.000000,1.000000,-1.000000,0.000000,0.000000
1294977.360854,-4.000000,-4.000000,-7.000000,1.000000,1.000000,-1.000000,1.000000,0.000000
1294977.361862,-3.000000,0.000000,3.000000,4.000000,-3.000000,-2.000000,-4.000000,-5.000000
1294977.361875,-1.000000,-4.000000,-4.000000,4.000000,5.000000,-1.000000,-3.000000,0.000000
1294977.363137,-2.000000,-1.000000,1.000000,-7.000000,0.000000,1.000000,0.000000,-2.000000
1294977.363161,-2.000000,-4.000000,-1.000000,0.000000,5.000000,2.000000,2.000000,-3.000000
1294977.364562,-2.000000,-2.000000,1.000000,-3.000000,-5.000000,2.000000,2.000000,-2.000000
1294977.364581,-1.000000,10.000000,12.000000,12.000000,-1.000000,-1.000000,-1.000000,0.000000
1294977.405936,-4.000000,-7.000000,-13.000000,-14.000000,-4.000000,-2.000000,2.000000,-1.000000
1294977.405950,-2.000000,0.000000,1.000000,10.000000,4.000000,-3.000000,-1.000000,-4.000000
1294977.413232,-2.000000,-2.000000,-2.000000,-12.000000,-4.000000,0.000000,1.000000,1.000000
1294977.413246,3.000000,-1.000000,-3.000000,4.000000,1.000000,-1.000000,0.000000,3.000000
1294977.443181,3.000000,-4.000000,-10.000000,-8.000000,-4.000000,-3.000000,-1.000000,0.000000
1294977.443209,-2.000000,1.000000,1.000000,15.000000,4.000000,2.000000,3.000000,2.000000
1294977.450696,-5.000000,-3.000000,-3.000000,-5.000000,1.000000,-1.000000,-2.000000,2.000000
1294977.450720,-1.000000,2.000000,-14.000000,0.000000,1.000000,4.000000,-1.000000,-3.000000
1294977.465658,1.000000,1.000000,8.000000,-3.000000,-1.000000,-1.000000,-1.000000,0.000000
1294977.465689,-3.000000,-2.000000,0.000000,-6.000000,-9.000000,-1.000000,1.000000,-1.000000
1294977.473317,-1.000000,-4.000000,-1.000000,-10.000000,-1.000000,0.000000,-2.000000,-2.000000
1294977.473327,-4.000000,-3.000000,-3.000000,4.000000,4.000000,-3.000000,0.000000,1.000000
1294977.481807,-3.000000,-3.000000,-2.000000,5.000000,-1.000000,0.000000,-3.000000,-1.000000
1294977.481838,-2.000000,1.000000,5.000000,0.000000,-1.000000,-3.000000,-2.000000,-4.000000
1294977.482504,0.000000,-3.000000,-10.000000,2.000000,0.000000,0.000000,-2.000000,0.000000
1294977.482513,-2.000000,-3.000000,-1.000000,-11.000000,-4.000000,-6.000000,-3.000000,-1.000000
1294977.495651,-5.000000,-9.000000,-6.000000,1.000000,-2.000000,-3.000000,0.000000,-2.000000
1294977.495662,2.000000,10.000000,10.000000,4.000000,5.000000,1.000000,-1.000000,0.000000
1294977.525861,-3.000000,-1.000000,-26.000000,-5.000000,-1.000000,1.000000,0.000000,-5.000000
1294977.525873,-5.000000,-12.000000,-4.000000,-1.000000,1.000000,-2.000000,-4.000000,-3.000000
1294977.540607,1.000000,-1.000000,1.000000,3.000000,1.000000,1.000000,-2.000000,-1.000000
1294977.540620,-3.000000,1.000000,1.000000,2.000000,3.000000,0.000000,-2.000000,-2.000000
1294977.570794,0.000000,4.000000,7.000000,0.000000,0.000000,0.000000,-2.000000,-4.000000
1294977.570808,-3.000000,-4.000000,-6.000000,-3.000000,1.000000,-2.000000,2.000000,2.000000
1294977.571199,0.000000,1.000000,0.000000,2.000000,-1.000000,-4.000000,-2.000000,-2.000000
1294977.571213,-7.000000,-6.000000,-3.000000,-4.000000,-4.000000,-5.000000,-3.000000,-3.000000
1294977.572209,0.000000,-1.000000,-3.000000,-1.000000,4.000000,-1.000000,-2.000000,0.000000
1294977.572219,1.000000,4.000000,6.000000,1.000000,-2.000000,1.000000,0.000000,0.000000
1294977.572873,-1.000000,-5.000000,-4.000000,-6.000000,-2.000000,-3.000000,0.000000,-4.000000
1294977.572883,-1.000000,3.000000,2.000000,-2.000000,0.000000,0.000000,-3.000000,0.000000
1294977.573691,-1.000000,-6.000000,-11.000000,-7.000000,0.000000,3.000000,1.000000,0.000000
1294977.573702,1.000000,1.000000,11.000000,-1.000000,-2.000000,-1.000000,-1.000000,-2.000000
1294977.577962,-1.000000,0.000000,1.000000,7.000000,1.000000,-1.000000,-1.000000,-2.000000
1294977.577972,1.000000,-4.000000,0.000000,-12.000000,-11.000000,-2.000000,0.000000,-1.000000
1294977.592856,0.000000,-3.000000,3.000000,11.000000,4.000000,1.000000,1.000000,0.000000
1294977.592869,0.000000,2.000000,10.000000,0.000000,2.000000,-1.000000,2.000000,-2.000000
1294977.594331,-2.000000,-11.000000,-16.000000,-8.000000,-4.000000,-1.000000,-1.000000,-3.000000
1294977.594346,-1.000000,2.000000,10.000000,-1.000000,-6.000000,-4.000000,-5.000000,-2.000000
1294977.637952,2.000000,-4.000000,-6.000000,-4.000000,3.000000,5.000000,3.000000,2.000000
1294977.637963,-1.000000,1.000000,-4.000000,-11.000000,-6.000000,-3.000000,-2.000000,-2.000000
1294977.675622,-4.000000,-4.000000,-1.000000,-4.000000,1.000000,3.000000,0.000000,-1.000000
1294977.675634,3.000000,-1.000000,7.000000,10.000000,3.000000,-3.000000,-3.000000,1.000000
1294977.683256,1.000000,-1.000000,6.000000,1.000000,0.000000,-3.000000,-1.000000,0.000000
1294977.683266,-3.000000,3.000000,-10.000000,-9.000000,-2.000000,-1.000000,0.000000,0.000000
1294977.713265,2.000000,-1.000000,0.000000,7.000000,4.000000,0.000000,-3.000000,-1.000000
1294977.713280,-1.000000,-7.000000,-1.000000,-6.000000,0.000000,0.000000,0.000000,-3.000000
1294977.713639,0.000000,-4.000000,-1.000000,4.000000,-2.000000,-3.000000,-1.000000,-2.000000
1294977.713649,2.000000,5.000000,-9.000000,-4.000000,1.000000,0.000000,1.000000,2.000000
1294977.714114,-2.000000,-12.000000,-6.000000,4.000000,3.000000,-2.000000,0.000000,2.000000
1294977.714129,-1.000000,-1.000000,4.000000,5.000000,0.000000,1.000000,0.000000,-1.000000
1294977.714684,-3.000000,-7.000000,-3.000000,7.000000,0.000000,0.000000,-2.000000,-2.000000
1294977.714694,-1.000000,5.000000,-4.000000,-4.000000,0.000000,-2.000000,-3.000000,-3.000000
1294977.716149,1.000000,-2.000000,-4.000000,-10.000000,-3.000000,-4.000000,-4.000000,0.000000
1294977.716165,0.000000,4.000000,5.000000,4.000000,0.000000,-4.000000,-2.000000,-3.000000
1294977.717024,-1.000000,-6.000000,0.000000,14.000000,3.000000,-1.000000,-2.000000,2.000000
1294977.717034,-1.000000,-5.000000,-3.000000,-12.000000,-7.000000,2.000000,-3.000000,-2.000000
1294977.727972,-2.000000,1.000000,4.000000,3.000000,-1.000000,0.000000,2.000000,3.000000
1294977.727982,0.000000,3.000000,5.000000,-2.000000,-2.000000,0.000000,0.000000,-1.000000
1294977.742943,0.000000,-12.000000,-17.000000,-6.000000,-4.000000,0.000000,-2.000000,0.000000
1294977.742971,-1.000000,4.000000,5.000000,1.000000,4.000000,-2.000000,0.000000,-2.000000
1294977.758317,-1.000000,4.000000,-3.000000,1.000000,-6.000000,-2.000000,0.000000,0.000000
1294977.758328,-4.000000,-2.000000,-7.000000,4.000000,3.000000,1.000000,0.000000,-3.000000
1294977.803263,0.000000,-1.000000,4.000000,3.000000,-3.000000,1.000000,0.000000,0.000000
1294977.803274,-1.000000,-1.000000,-4.000000,-7.000000,-1.000000,0.000000,0.000000,0.000000
1294977.819109,0.000000,-2.000000,3.000000,1.000000,-3.000000,1.000000,-3.000000,-3.000000
1294977.819141,-4.000000,-5.000000,-5.000000,-5.000000,0.000000,-2.000000,-1.000000,-1.000000
1294977.841853,2.000000,17.000000,-12.000000,-11.000000,-2.000000,-2.000000,-1.000000,-1.000000
1294977.841885,0.000000,-2.000000,5.000000,5.000000,7.000000,-2.000000,0.000000,-1.000000
1294977.848878,2.000000,-1.000000,-1.000000,-10.000000,-4.000000,-1.000000,0.000000,1.000000
1294977.848907,1.000000,-4.000000,2.000000,10.000000,2.000000,0.000000,3.000000,-1.000000
1294977.872421,0.000000,8.000000,9.000000,0.000000,0.000000,-1.000000,-4.000000,-2.000000
1294977.872464,-2.000000,-1.000000,-7.000000,-6.000000,-4.000000,0.000000,-3.000000,0.000000
1294977.874112,-1.000000,3.000000,11.000000,-4.000000,-4.000000,-2.000000,1.000000,-1.000000
1294977.874138,0.000000,-5.000000,0.000000,6.000000,2.000000,-2.000000,-2.000000,-1.000000
1294977.875463,0.000000,3.000000,0.000000,1.000000,3.000000,0.000000,-1.000000,-4.000000
1294977.875488,1.000000,-2.000000,-1.000000,-5.000000,-6.000000,-1.000000,4.000000,-1.000000
1294977.875757,0.000000,-5.000000,-1.000000,3.000000,-2.000000,0.000000,-2.000000,1.000000
1294977.875776,2.000000,0.000000,1.000000,8.000000,3.000000,0.000000,0.000000,1.000000
1294977.878988,-1.000000,1.000000,-2.000000,-7.000000,-5.000000,0.000000,-5.000000,-5.000000
1294977.879017,-1.000000,-7.000000,-4.000000,0.000000,1.000000,-1.000000,-1.000000,-4.000000
1294977.908525,-4.000000,-4.000000,5.000000,-8.000000,-3.000000,-2.000000,-4.000000,-1.000000
1294977.908796,4.000000,13.000000,0.000000,10.000000,2.000000,1.000000,0.000000,2.000000
1294977.909504,-1.000000,-1.000000,0.000000,-4.000000,-3.000000,-1.000000,0.000000,1.000000
1294977.909516,-5.000000,-3.000000,-5.000000,-9.000000,-1.000000,-3.000000,-3.000000,-5.000000
1294977.915700,0.000000,-1.000000,6.000000,7.000000,2.000000,-1.000000,-3.000000,-2.000000
1294977.915717,0.000000,-1.000000,2.000000,2.000000,-1.000000,-2.000000,0.000000,2.000000
1294977.917249,-4.000000,-2.000000,-11.000000,-9.000000,-6.000000,-3.000000,-2.000000,0.000000
1294977.917264,0.000000,5.000000,14.000000,-4.000000,-1.000000,-1.000000,1.000000,2.000000
1294977.930765,-3.000000,0.000000,-6.000000,-18.000000,-7.000000,-1.000000,-3.000000,-1.000000
1294977.930780,0.000000,5.000000,12.000000,19.000000,10.000000,0.000000,-4.000000,1.000000
1294977.945840,-2.000000,-7.000000,-4.000000,-9.000000,-4.000000,2.000000,1.000000,-1.000000
1294977.945850,1.000000,1.000000,1.000000,-6.000000,-4.000000,-4.000000,-3.000000,-2.000000
1294977.952928,1.000000,-1.000000,-9.000000,2.000000,-3.000000,-5.000000,3.000000,-2.000000
1294977.952938,-4.000000,-6.000000,-6.000000,2.000000,2.000000,-4.000000,0.000000,1.000000
1294977.961608,6.000000,4.000000,0.000000,-1.000000,0.000000,0.000000,0.000000,-1.000000
1294977.961619,-2.000000,-4.000000,-2.000000,1.000000,-2.000000,1.000000,-2.000000,-2.000000
1294977.968379,-5.000000,-4.000000,1.000000,0.000000,1.000000,-2.000000,1.000000,1.000000
1294977.968401,-1.000000,-2.000000,1.000000,-4.000000,-1.000000,-2.000000,-2.000000,0.000000
1294977.997977,0.000000,-1.000000,-10.000000,-6.000000,-1.000000,-4.000000,-2.000000,-1.000000
1294977.997989,-2.000000,-4.000000,1.000000,0.000000,-2.000000,-1.000000,-3.000000,-2.000000
1294978.005632,-1.000000,4.000000,8.000000,3.000000,-1.000000,0.000000,0.000000,0.000000
1294978.005645,0.000000,0.000000,-2.000000,-11.000000,0.000000,-1.000000,0.000000,-2.000000
1294978.027994,-6.000000,-8.000000,-11.000000,6.000000,-4.000000,-5.000000,-6.000000,0.000000
1294978.028004,0.000000,-1.000000,6.000000,0.000000,1.000000,-1.000000,2.000000,-3.000000
1294978.035656,0.000000,-3.000000,-2.000000,-2.000000,-1.000000,-1.000000,-1.000000,-2.000000
1294978.035665,-6.000000,-7.000000,-13.000000,-18.000000,-11.000000,-6.000000,-3.000000,-4.000000
1294978.072966,-1.000000,-2.000000,-5.000000,-4.000000,0.000000,0.000000,-2.000000,0.000000
1294978.072994,2.000000,1.000000,4.000000,3.000000,-3.000000,-3.000000,2.000000,-2.000000
1294978.073508,-3.000000,0.000000,-3.000000,-12.000000,-3.000000,-2.000000,1.000000,-6.000000
1294978.073519,0.000000,-1.000000,2.000000,18.000000,3.000000,-2.000000,-1.000000,-1.000000
1294978.074649,2.000000,0.000000,2.000000,-6.000000,2.000000,2.000000,-2.000000,2.000000
1294978.074656,-3.000000,-2.000000,-4.000000,-6.000000,-3.000000,0.000000,1.000000,-1.000000
1294978.075466,0.000000,3.000000,-1.000000,6.000000,-3.000000,-1.000000,1.000000,-1.000000
1294978.075497,-2.000000,-5.000000,1.000000,-2.000000,-1.000000,-1.000000,-2.000000,0.000000
1294978.076103,0.000000,8.000000,4.000000,0.000000,2.000000,1.000000,0.000000,1.000000
1294978.076111,2.000000,13.000000,3.000000,2.000000,-7.000000,-3.000000,1.000000,-2.000000
1294978.118101,-5.000000,-3.000000,-3.000000,4.000000,2.000000,-2.000000,0.000000,-2.000000
1294978.118126,0.000000,6.000000,11.000000,7.000000,-1.000000,-1.000000,-2.000000,-1.000000
1294978.148327,1.000000,9.000000,11.000000,0.000000,-3.000000,1.000000,-2.000000,-3.000000
1294978.148338,-2.000000,-5.000000,-2.000000,0.000000,0.000000,-2.000000,-2.000000,-1.000000
1294978.155750,-1.000000,-2.000000,-3.000000,-5.000000,-7.000000,0.000000,-3.000000,-2.000000
1294978.155764,0.000000,0.000000,-2.000000,-8.000000,-5.000000,-2.000000,0.000000,-3.000000
1294978.193882,1.000000,-6.000000,-3.000000,1.000000,3.000000,0.000000,1.000000,0.000000
1294978.193901,2.000000,-1.000000,-1.000000,3.000000,-2.000000,-2.000000,-1.000000,-2.000000
1294978.194030,-4.000000,0.000000,1.000000,-7.000000,-2.000000,-2.000000,0.000000,-2.000000
1294978.194037,-6.000000,-3.000000,-1.000000,-4.000000,0.000000,0.000000,-2.000000,-2.000000
1294978.194720,-3.000000,-6.000000,-7.000000,-7.000000,-6.000000,-4.000000,-2.000000,0.000000
1294978.194727,1.000000,-3.000000,-4.000000,4.000000,3.000000,-1.000000,2.000000,-3.000000
1294978.195427,0.000000,0.000000,-1.000000,-6.000000,-7.000000,-2.000000,-1.000000,-1.000000
1294978.195471,-2.000000,-3.000000,1.000000,3.000000,1.000000,1.000000,0.000000,1.000000
1294978.196217,0.000000,-3.000000,-2.000000,-6.000000,1.000000,3.000000,0.000000,-3.000000
1294978.196230,-2.000000,-4.000000,-2.000000,-5.000000,-3.000000,-1.000000,-1.000000,-3.000000
1294978.197224,-2.000000,-8.000000,-5.000000,5.000000,4.000000,-1.000000,-1.000000,0.000000
1294978.197250,2.000000,7.000000,5.000000,0.000000,-7.000000,1.000000,0.000000,-1.000000
1294978.223374,1.000000,16.000000,9.000000,-3.000000,-6.000000,0.000000,0.000000,3.000000
1294978.223388,-1.000000,0.000000,10.000000,6.000000,3.000000,-2.000000,0.000000,0.000000
1294978.245566,-1.000000,-7.000000,-18.000000,-12.000000,1.000000,-1.000000,0.000000,0.000000
1294978.245617,-2.000000,-3.000000,-3.000000,2.000000,-1.000000,0.000000,0.000000,3.000000
1294978.268247,3.000000,13.000000,8.000000,-1.000000,0.000000,3.000000,-3.000000,-1.000000
1294978.268257,1.000000,-3.000000,0.000000,6.000000,2.000000,0.000000,3.000000,-2.000000
1294978.283022,-1.000000,-2.000000,-2.000000,-9.000000,-3.000000,-2.000000,-1.000000,-2.000000
1294978.283032,-4.000000,3.000000,-5.000000,0.000000,0.000000,3.000000,-1.000000,-1.000000
1294978.283472,-1.000000,-4.000000,-8.000000,-3.000000,-1.000000,-3.000000,-1.000000,1.000000
1294978.283483,-3.000000,2.000000,9.000000,10.000000,4.000000,-2.000000,-1.000000,-2.000000
1294978.284628,0.000000,-4.000000,-3.000000,-4.000000,-3.000000,2.000000,-1.000000,3.000000
1294978.284637,-2.000000,-10.000000,-11.000000,0.000000,3.000000,-3.000000,-1.000000,-3.000000
1294978.285256,0.000000,7.000000,-2.000000,-4.000000,0.000000,-3.000000,0.000000,1.000000
1294978.285384,-5.000000,-6.000000,1.000000,4.000000,4.000000,1.000000,-1.000000,0.000000
1294978.286331,1.000000,4.000000,12.000000,6.000000,2.000000,-1.000000,0.000000,1.000000
1294978.286341,-2.000000,13.000000,6.000000,-3.000000,-1.000000,-2.000000,-2.000000,0.000000
1294978.316151,-3.000000,-21.000000,-11.000000,-9.000000,-3.000000,-4.000000,-1.000000,-3.000000
1294978.316225,2.000000,12.000000,-5.000000,-1.000000,2.000000,2.000000,2.000000,1.000000
1294978.316619,0.000000,-2.000000,3.000000,3.000000,-3.000000,0.000000,-1.000000,1.000000
1294978.316658,2.000000,0.000000,8.000000,4.000000,3.000000,1.000000,-1.000000,-2.000000
1294978.317969,-4.000000,-6.000000,-8.000000,-2.000000,-4.000000,-4.000000,-1.000000,1.000000
1294978.317996,2.000000,0.000000,-1.000000,-11.000000,-4.000000,0.000000,0.000000,-3.000000
1294978.351825,-1.000000,0.000000,0.000000,-7.000000,-7.000000,-2.000000,-4.000000,1.000000
1294978.351856,-2.000000,-12.000000,-10.000000,3.000000,1.000000,-5.000000,-2.000000,0.000000
1294978.395835,0.000000,-1.000000,5.000000,2.000000,-7.000000,-5.000000,1.000000,3.000000
1294978.395950,0.000000,1.000000,-1.000000,3.000000,3.000000,4.000000,0.000000,0.000000
1294978.396198,1.000000,-8.000000,2.000000,-12.000000,-8.000000,-3.000000,-1.000000,1.000000
1294978.396212,0.000000,-1.000000,-2.000000,-1.000000,0.000000,-4.000000,-4.000000,-1.000000
1294978.397403,-1.000000,5.000000,4.000000,3.000000,2.000000,-1.000000,1.000000,0.000000
1294978.397417,-2.000000,-2.000000,-2.000000,14.000000,2.000000,-1.000000,-3.000000,-2.000000
1294978.398121,0.000000,-3.000000,-3.000000,-9.000000,5.000000,6.000000,2.000000,-1.000000
1294978.398188,3.000000,9.000000,-2.000000,3.000000,-1.000000,2.000000,-2.000000,-1.000000
1294978.399894,1.000000,3.000000,7.000000,-1.000000,-2.000000,-2.000000,-1.000000,-1.000000
1294978.399924,-1.000000,0.000000,3.000000,1.000000,0.000000,-2.000000,-1.000000,2.000000
1294978.425529,-4.000000,2.000000,-3.000000,-11.000000,-4.000000,-1.000000,-3.000000,-3.000000
1294978.425544,1.000000,-1.000000,-8.000000,-7.000000,0.000000,1.000000,2.000000,-2.000000
1294978.426474,-1.000000,-7.000000,-6.000000,-2.000000,1.000000,-3.000000,3.000000,0.000000
1294978.426484,0.000000,-2.000000,2.000000,4.000000,2.000000,0.000000,1.000000,-1.000000
1294978.427399,-4.000000,0.000000,-3.000000,-1.000000,-2.000000,1.000000,1.000000,0.000000
1294978.427415,0.000000,-3.000000,-2.000000,0.000000,-1.000000,0.000000,-1.000000,-1.000000
1294978.463160,1.000000,-3.000000,1.000000,-2.000000,0.000000,-2.000000,0.000000,-2.000000
1294978.463172,-1.000000,-1.000000,-2.000000,1.000000,-1.000000,-1.000000,1.000000,-1.000000
1294978.470700,-3.000000,-3.000000,-9.000000,-26.000000,-17.000000,-10.000000,-6.000000,-5.000000
1294978.470710,2.000000,1.000000,6.000000,3.000000,7.000000,5.000000,2.000000,1.000000
1294978.500621,-2.000000,0.000000,1.000000,6.000000,4.000000,1.000000,-5.000000,1.000000
1294978.500633,-1.000000,0.000000,-10.000000,-2.000000,-4.000000,-3.000000,-4.000000,-2.000000
1294978.508061,0.000000,1.000000,3.000000,-1.000000,-4.000000,1.000000,1.000000,0.000000
1294978.508071,-3.000000,-3.000000,2.000000,2.000000,3.000000,-1.000000,-2.000000,-2.000000
1294978.523171,0.000000,-2.000000,-9.000000,-10.000000,-4.000000,-1.000000,0.000000,-3.000000
1294978.523183,2.000000,-1.000000,2.000000,8.000000,3.000000,-2.000000,2.000000,1.000000
1294978.523719,-3.000000,-5.000000,-11.000000,-22.000000,-11.000000,-3.000000,-3.000000,-5.000000
1294978.523730,0.000000,0.000000,4.000000,0.000000,1.000000,2.000000,0.000000,0.000000
1294978.524939,-2.000000,-1.000000,-1.000000,6.000000,4.000000,0.000000,0.000000,-1.000000
1294978.524949,-5.000000,-11.000000,-16.000000,-20.000000,-7.000000,-2.000000,-1.000000,-3.000000
1294978.525573,3.000000,8.000000,7.000000,11.000000,0.000000,1.000000,3.000000,0.000000
1294978.525583,3.000000,7.000000,5.000000,3.000000,1.000000,4.000000,-3.000000,1.000000
1294978.545744,-4.000000,-2.000000,-3.000000,-5.000000,-3.000000,-3.000000,-2.000000,-1.000000
1294978.545763,-2.000000,-4.000000,-1.000000,-6.000000,4.000000,3.000000,-1.000000,-2.000000
1294978.546462,2.000000,-4.000000,-10.000000,-3.000000,-1.000000,0.000000,0.000000,0.000000
1294978.546471,-3.000000,3.000000,1.000000,0.000000,-2.000000,0.000000,-2.000000,-4.000000
1294978.547464,3.000000,0.000000,2.000000,-2.000000,-3.000000,0.000000,-3.000000,-2.000000
1294978.547473,-3.000000,-3.000000,-2.000000,-5.000000,-2.000000,-2.000000,0.000000,-3.000000
1294978.560629,0.000000,2.000000,0.000000,4.000000,2.000000,0.000000,0.000000,0.000000
1294978.560639,-2.000000,-3.000000,-11.000000,-8.000000,-2.000000,0.000000,-1.000000,-3.000000
1294978.590616,-4.000000,1.000000,2.000000,9.000000,3.000000,0.000000,-1.000000,-2.000000
1294978.590626,-2.000000,-9.000000,-8.000000,-7.000000,1.000000,1.000000,1.000000,0.000000
1294978.628121,1.000000,6.000000,9.000000,5.000000,0.000000,1.000000,2.000000,-1.000000
1294978.628146,-1.000000,1.000000,1.000000,-3.000000,-2.000000,-4.000000,-4.000000,-3.000000
1294978.635401,-2.000000,-4.000000,-2.000000,1.000000,2.000000,-1.000000,-3.000000,2.000000
1294978.635411,-3.000000,-6.000000,2.000000,-1.000000,-4.000000,0.000000,-3.000000,-4.000000
1294978.680613,1.000000,6.000000,-6.000000,-10.000000,0.000000,2.000000,0.000000,2.000000
1294978.680623,-1.000000,-7.000000,-13.000000,2.000000,1.000000,-1.000000,-2.000000,-1.000000
1294978.703279,2.000000,15.000000,22.000000,8.000000,1.000000,-4.000000,2.000000,1.000000
1294978.703290,-1.000000,-2.000000,-6.000000,-3.000000,-4.000000,0.000000,-2.000000,0.000000
1294978.763290,-1.000000,3.000000,-4.000000,-2.000000,1.000000,0.000000,1.000000,-1.000000
1294978.763319,1.000000,2.000000,3.000000,4.000000,4.000000,-1.000000,-1.000000,0.000000
1294978.785479,0.000000,-4.000000,-7.000000,1.000000,-3.000000,-2.000000,-2.000000,-1.000000
1294978.785489,1.000000,1.000000,8.000000,9.000000,-1.000000,-2.000000,-1.000000,-1.000000
1294978.786512,-2.000000,4.000000,11.000000,13.000000,-2.000000,-1.000000,-3.000000,0.000000
1294978.786520,3.000000,9.000000,10.000000,21.000000,16.000000,7.000000,5.000000,1.000000
1294978.787147,-3.000000,-6.000000,-20.000000,-11.000000,-7.000000,-5.000000,-1.000000,-2.000000
1294978.787154,0.000000,1.000000,-1.000000,-11.000000,-2.000000,2.000000,-2.000000,-2.000000
1294978.788066,-1.000000,-1.000000,0.000000,-3.000000,0.000000,2.000000,-1.000000,-1.000000
1294978.788074,-2.000000,-2.000000,0.000000,-1.000000,1.000000,0.000000,-2.000000,0.000000
1294978.823073,-2.000000,-2.000000,-4.000000,-5.000000,-4.000000,-2.000000,-4.000000,-2.000000
1294978.823084,-2.000000,-4.000000,-2.000000,1.000000,-4.000000,-4.000000,-3.000000,-3.000000
1294978.868527,0.000000,-3.000000,1.000000,-1.000000,-4.000000,2.000000,-2.000000,0.000000
1294978.868567,-2.000000,3.000000,-2.000000,4.000000,0.000000,0.000000,-3.000000,0.000000
1294978.890565,1.000000,-4.000000,-6.000000,-11.000000,-6.000000,1.000000,-2.000000,1.000000
1294978.890575,0.000000,3.000000,8.000000,9.000000,4.000000,-2.000000,1.000000,1.000000
1294978.913041,0.000000,-3.000000,-16.000000,-18.000000,-9.000000,-4.000000,-3.000000,-1.000000
1294978.913061,-1.000000,7.000000,-16.000000,3.000000,3.000000,3.000000,-2.000000,0.000000
1294978.928034,-6.000000,-16.000000,5.000000,8.000000,5.000000,-1.000000,-4.000000,0.000000
1294978.928044,1.000000,2.000000,-5.000000,-16.000000,-6.000000,-2.000000,-1.000000,-4.000000
1294978.935699,-4.000000,-4.000000,-6.000000,-6.000000,-1.000000,-6.000000,1.000000,0.000000
1294978.935728,0.000000,-5.000000,0.000000,2.000000,0.000000,-2.000000,-3.000000,-5.000000
1294978.958192,2.000000,-2.000000,-3.000000,3.000000,-3.000000,0.000000,0.000000,1.000000
1294978.958203,-3.000000,-9.000000,-5.000000,-2.000000,6.000000,0.000000,1.000000,-1.000000
1294978.965617,3.000000,0.000000,1.000000,2.000000,-4.000000,-1.000000,0.000000,-3.000000
1294978.965627,0.000000,-1.000000,-4.000000,-5.000000,-3.000000,-2.000000,-1.000000,0.000000
1294978.980824,-4.000000,-5.000000,0.000000,-1.000000,-2.000000,-1.000000,-3.000000,0.000000
1294978.980834,1.000000,2.000000,1.000000,-1.000000,-5.000000,-1.000000,-1.000000,-4.000000
1294978.988273,-1.000000,-2.000000,2.000000,1.000000,1.000000,-1.000000,-3.000000,-4.000000
1294978.988284,1.000000,11.000000,5.000000,-11.000000,-2.000000,1.000000,-1.000000,1.000000
1294979.002943,-3.000000,-8.000000,-2.000000,-3.000000,-10.000000,-3.000000,1.000000,-3.000000
1294979.002953,1.000000,-2.000000,-1.000000,-1.000000,5.000000,-4.000000,-2.000000,0.000000
1294979.017857,-4.000000,1.000000,4.000000,-3.000000,-4.000000,0.000000,-1.000000,0.000000
1294979.017866,0.000000,1.000000,-4.000000,-2.000000,-11.000000,1.000000,1.000000,-2.000000
1294979.025755,3.000000,-4.000000,3.000000,-1.000000,1.000000,2.000000,1.000000,1.000000
1294979.025766,-1.000000,-5.000000,-8.000000,-5.000000,0.000000,0.000000,-1.000000,-2.000000
1294979.027132,-2.000000,-1.000000,2.000000,-1.000000,1.000000,-4.000000,-3.000000,0.000000
1294979.027141,4.000000,-4.000000,-8.000000,10.000000,-1.000000,2.000000,0.000000,4.000000
1294979.029187,-3.000000,1.000000,-7.000000,-5.000000,7.000000,1.000000,-1.000000,-3.000000
1294979.029197,-2.000000,-1.000000,1.000000,9.000000,2.000000,-3.000000,-2.000000,-2.000000
1294979.070586,-3.000000,-5.000000,-7.000000,-3.000000,-1.000000,0.000000,-1.000000,0.000000
1294979.070595,-2.000000,-3.000000,2.000000,-3.000000,-2.000000,-1.000000,-2.000000,0.000000
1294979.078332,1.000000,8.000000,13.000000,22.000000,8.000000,2.000000,-1.000000,1.000000
1294979.078342,3.000000,4.000000,-9.000000,-3.000000,-2.000000,-3.000000,1.000000,-2.000000
1294979.100600,1.000000,-1.000000,1.000000,-12.000000,-8.000000,-4.000000,-2.000000,0.000000
1294979.100611,0.000000,2.000000,-3.000000,4.000000,4.000000,1.000000,-1.000000,-6.000000
1294979.108093,-5.000000,-6.000000,0.000000,3.000000,7.000000,2.000000,0.000000,-3.000000
1294979.108102,1.000000,4.000000,11.000000,4.000000,-2.000000,0.000000,-1.000000,-3.000000
1294979.145699,0.000000,1.000000,1.000000,-1.000000,-3.000000,0.000000,1.000000,-3.000000
1294979.145736,-1.000000,1.000000,-4.000000,0.000000,-2.000000,1.000000,-2.000000,-1.000000
1294979.146730,-3.000000,-11.000000,-10.000000,0.000000,0.000000,0.000000,-2.000000,-2.000000
1294979.146750,-2.000000,8.000000,4.000000,-5.000000,-8.000000,0.000000,0.000000,1.000000
1294979.190481,-1.000000,-2.000000,-2.000000,4.000000,-3.000000,-3.000000,-1.000000,0.000000
1294979.190502,-2.000000,0.000000,2.000000,-13.000000,-8.000000,-5.000000,-4.000000,-3.000000
1294979.205870,2.000000,-2.000000,-4.000000,-7.000000,-2.000000,-1.000000,0.000000,-1.000000
1294979.205880,-4.000000,-1.000000,-4.000000,4.000000,7.000000,2.000000,-1.000000,-4.000000
1294979.236562,-3.000000,-9.000000,-6.000000,-15.000000,-8.000000,0.000000,-1.000000,2.000000
1294979.236590,-1.000000,3.000000,2.000000,1.000000,-4.000000,-1.000000,-4.000000,1.000000
1294979.238021,-3.000000,-4.000000,-19.000000,-8.000000,-2.000000,0.000000,-3.000000,-5.000000
1294979.238065,-1.000000,0.000000,-1.000000,-4.000000,-3.000000,0.000000,-3.000000,-1.000000
1294979.239640,-2.000000,-12.000000,-3.000000,-2.000000,-1.000000,0.000000,-1.000000,1.000000
1294979.239986,-3.000000,-1.000000,-6.000000,-9.000000,-8.000000,-3.000000,-7.000000,-3.000000
1294979.240667,-2.000000,-3.000000,-6.000000,-5.000000,-3.000000,-1.000000,-1.000000,-2.000000
1294979.240692,1.000000,9.000000,13.000000,3.000000,-2.000000,-1.000000,0.000000,1.000000
1294979.260117,2.000000,-3.000000,-4.000000,-1.000000,-2.000000,-3.000000,0.000000,1.000000
1294979.260139,0.000000,0.000000,0.000000,-2.000000,1.000000,1.000000,-1.000000,1.000000
1294979.260502,0.000000,0.000000,-1.000000,-8.000000,-5.000000,-1.000000,-2.000000,-1.000000
1294979.260526,-3.000000,-4.000000,-3.000000,4.000000,0.000000,-1.000000,-1.000000,-3.000000
1294979.318195,-3.000000,-8.000000,8.000000,-4.000000,2.000000,1.000000,0.000000,-1.000000
1294979.318206,4.000000,24.000000,0.000000,15.000000,7.000000,5.000000,2.000000,4.000000
1294979.340694,0.000000,-5.000000,0.000000,0.000000,-2.000000,1.000000,2.000000,-2.000000
1294979.340709,-6.000000,-11.000000,-11.000000,-4.000000,-2.000000,-1.000000,-1.000000,-4.000000
1294979.355572,-2.000000,6.000000,1.000000,-6.000000,-1.000000,-1.000000,-3.000000,1.000000
1294979.355583,-3.000000,-4.000000,-10.000000,-3.000000,3.000000,-1.000000,-3.000000,0.000000
1294979.355875,0.000000,2.000000,3.000000,-2.000000,2.000000,-1.000000,0.000000,-3.000000
1294979.355886,1.000000,-1.000000,3.000000,-2.000000,-3.000000,-1.000000,-1.000000,0.000000
1294979.358051,-1.000000,1.000000,1.000000,-6.000000,-6.000000,0.000000,0.000000,-3.000000
1294979.358061,2.000000,0.000000,1.000000,5.000000,4.000000,0.000000,-1.000000,0.000000
1294979.377973,0.000000,8.000000,2.000000,-1.000000,-2.000000,0.000000,3.000000,-2.000000
1294979.377989,-1.000000,-6.000000,-2.000000,-5.000000,-2.000000,-4.000000,-3.000000,1.000000
1294979.378944,3.000000,6.000000,3.000000,6.000000,0.000000,1.000000,-4.000000,-2.000000
1294979.378961,2.000000,0.000000,10.000000,6.000000,2.000000,3.000000,-1.000000,0.000000
1294979.379800,2.000000,-1.000000,-7.000000,-6.000000,-12.000000,-7.000000,-1.000000,1.000000
1294979.379808,3.000000,9.000000,9.000000,2.000000,3.000000,0.000000,-1.000000,-3.000000
1294979.423061,-4.000000,-8.000000,-7.000000,-6.000000,-8.000000,1.000000,0.000000,-1.000000
1294979.423090,0.000000,4.000000,5.000000,-4.000000,0.000000,-1.000000,-1.000000,1.000000
1294979.460873,-1.000000,-5.000000,0.000000,4.000000,1.000000,0.000000,-1.000000,0.000000
1294979.460893,-3.000000,-4.000000,-3.000000,-3.000000,0.000000,-3.000000,0.000000,2.000000
1294979.461730,-2.000000,2.000000,-6.000000,-6.000000,-1.000000,0.000000,-1.000000,-2.000000
1294979.461740,-3.000000,-5.000000,1.000000,-1.000000,-1.000000,0.000000,-1.000000,0.000000
1294979.462301,-1.000000,0.000000,0.000000,2.000000,1.000000,3.000000,-1.000000,0.000000
1294979.462316,-4.000000,-2.000000,1.000000,0.000000,0.000000,-3.000000,-1.000000,-3.000000
1294979.463555,-3.000000,-4.000000,-6.000000,1.000000,-2.000000,-3.000000,-1.000000,-2.000000
1294979.463565,1.000000,0.000000,-1.000000,12.000000,7.000000,3.000000,-1.000000,-4.000000
1294979.469101,1.000000,-2.000000,-16.000000,-10.000000,-3.000000,-1.000000,0.000000,0.000000
1294979.469121,-1.000000,0.000000,0.000000,-3.000000,-1.000000,-1.000000,-4.000000,0.000000
1294979.505838,-3.000000,0.000000,0.000000,2.000000,-5.000000,1.000000,2.000000,-2.000000
1294979.505851,2.000000,-3.000000,0.000000,-3.000000,-7.000000,-1.000000,0.000000,-2.000000
1294979.520588,-1.000000,-3.000000,-2.000000,-1.000000,-1.000000,1.000000,-1.000000,-2.000000
1294979.520601,-3.000000,15.000000,15.000000,0.000000,3.000000,-1.000000,0.000000,0.000000
1294979.520901,-1.000000,-8.000000,-5.000000,5.000000,3.000000,-1.000000,-1.000000,2.000000
1294979.520911,4.000000,9.000000,-5.000000,-12.000000,3.000000,3.000000,3.000000,2.000000
1294979.543366,-1.000000,-2.000000,3.000000,1.000000,1.000000,-2.000000,0.000000,-1.000000
1294979.543389,1.000000,3.000000,-3.000000,-7.000000,-5.000000,-4.000000,-2.000000,-3.000000
1294979.558139,-1.000000,3.000000,6.000000,9.000000,-1.000000,0.000000,1.000000,-2.000000
1294979.558152,-5.000000,-13.000000,-6.000000,-7.000000,-2.000000,2.000000,3.000000,0.000000
1294979.610527,-1.000000,-1.000000,0.000000,1.000000,1.000000,1.000000,-1.000000,-4.000000
1294979.610540,-1.000000,2.000000,3.000000,-5.000000,0.000000,0.000000,3.000000,1.000000
1294979.618122,0.000000,4.000000,-1.000000,-2.000000,-1.000000,1.000000,-3.000000,1.000000
1294979.618136,-1.000000,-5.000000,-5.000000,8.000000,1.000000,-1.000000,-3.000000,-4.000000
1294979.619076,1.000000,1.000000,8.000000,-4.000000,6.000000,4.000000,1.000000,-1.000000
1294979.619086,1.000000,1.000000,6.000000,4.000000,3.000000,2.000000,-2.000000,-1.000000
1294979.625502,3.000000,9.000000,8.000000,9.000000,1.000000,-1.000000,-1.000000,0.000000
1294979.625517,-1.000000,0.000000,8.000000,-7.000000,-4.000000,-3.000000,-2.000000,-1.000000
1294979.633159,1.000000,-2.000000,-6.000000,7.000000,1.000000,1.000000,-1.000000,2.000000
1294979.633171,1.000000,14.000000,12.000000,6.000000,2.000000,1.000000,0.000000,0.000000
1294979.655608,-1.000000,-5.000000,3.000000,0.000000,1.000000,2.000000,-1.000000,-1.000000
1294979.655632,-1.000000,-5.000000,-10.000000,-3.000000,0.000000,-3.000000,1.000000,-1.000000
1294979.670624,-1.000000,-4.000000,9.000000,5.000000,-3.000000,-3.000000,-2.000000,-2.000000
1294979.670636,1.000000,1.000000,-4.000000,-2.000000,0.000000,-2.000000,-3.000000,-1.000000
1294979.685846,-1.000000,-1.000000,0.000000,1.000000,3.000000,1.000000,2.000000,2.000000
1294979.685859,-1.000000,-2.000000,-2.000000,-3.000000,-4.000000,-3.000000,0.000000,-1.000000
1294979.700675,2.000000,-3.000000,0.000000,3.000000,4.000000,-1.000000,-1.000000,0.000000
1294979.700690,-2.000000,0.000000,0.000000,10.000000,6.000000,1.000000,0.000000,-3.000000
1294979.701049,2.000000,-2.000000,3.000000,-7.000000,1.000000,1.000000,0.000000,1.000000
1294979.701076,0.000000,-4.000000,-12.000000,-3.000000,-1.000000,0.000000,-4.000000,-1.000000
1294979.702181,0.000000,-4.000000,-4.000000,-3.000000,0.000000,-3.000000,-4.000000,0.000000
1294979.702191,-5.000000,-8.000000,-10.000000,-7.000000,-3.000000,-2.000000,-1.000000,-3.000000
1294979.703825,2.000000,10.000000,1.000000,-3.000000,-3.000000,-2.000000,-1.000000,1.000000
1294979.703837,-1.000000,-3.000000,-1.000000,3.000000,2.000000,3.000000,2.000000,1.000000
1294979.745699,-3.000000,-12.000000,-2.000000,2.000000,0.000000,-3.000000,-3.000000,-2.000000
1294979.745712,2.000000,-9.000000,2.000000,-5.000000,-7.000000,-2.000000,-1.000000,-1.000000
1294979.760694,-2.000000,-5.000000,-7.000000,-6.000000,1.000000,3.000000,-1.000000,-3.000000
1294979.760707,-1.000000,4.000000,7.000000,9.000000,1.000000,1.000000,-1.000000,0.000000
1294979.790714,0.000000,-8.000000,-6.000000,-1.000000,2.000000,1.000000,-1.000000,1.000000
1294979.790743,-2.000000,-6.000000,2.000000,-4.000000,-4.000000,-1.000000,-4.000000,-3.000000
1294979.798291,2.000000,6.000000,5.000000,8.000000,3.000000,-1.000000,-4.000000,0.000000
1294979.798320,-4.000000,-2.000000,-9.000000,-6.000000,-2.000000,-3.000000,-3.000000,-3.000000
1294979.820539,-3.000000,-1.000000,-2.000000,-14.000000,-7.000000,-1.000000,-2.000000,1.000000
1294979.820566,1.000000,2.000000,8.000000,8.000000,1.000000,3.000000,1.000000,-1.000000
1294979.821150,1.000000,-2.000000,-9.000000,-6.000000,-3.000000,-1.000000,0.000000,1.000000
1294979.821158,1.000000,-4.000000,-2.000000,-7.000000,-3.000000,-4.000000,1.000000,-3.000000
1294979.821622,1.000000,-7.000000,-2.000000,-2.000000,-1.000000,-1.000000,0.000000,1.000000
1294979.821630,-2.000000,-3.000000,-5.000000,-2.000000,-1.000000,-3.000000,-1.000000,0.000000
1294979.822183,0.000000,10.000000,4.000000,7.000000,4.000000,0.000000,1.000000,2.000000
1294979.822316,-2.000000,-3.000000,-4.000000,-4.000000,-3.000000,2.000000,-1.000000,2.000000
1294979.823728,1.000000,3.000000,11.000000,-1.000000,-3.000000,-5.000000,-1.000000,-2.000000
1294979.823736,-5.000000,-7.000000,-11.000000,3.000000,3.000000,1.000000,-1.000000,-2.000000
1294979.888090,2.000000,13.000000,0.000000,4.000000,4.000000,5.000000,1.000000,0.000000
1294979.888124,0.000000,-4.000000,6.000000,10.000000,4.000000,0.000000,1.000000,1.000000
1294979.895569,-2.000000,1.000000,-4.000000,-11.000000,-8.000000,-6.000000,-2.000000,0.000000
1294979.895588,1.000000,5.000000,4.000000,-8.000000,-6.000000,-1.000000,1.000000,2.000000
1294979.910756,2.000000,0.000000,7.000000,5.000000,1.000000,-1.000000,0.000000,-3.000000
1294979.910767,1.000000,2.000000,-6.000000,-6.000000,3.000000,2.000000,0.000000,-2.000000
1294979.933109,0.000000,2.000000,-6.000000,-1.000000,0.000000,0.000000,-4.000000,1.000000
1294979.933119,0.000000,-2.000000,-2.000000,1.000000,0.000000,-3.000000,-1.000000,-1.000000
1294979.934083,-4.000000,-7.000000,-20.000000,-4.000000,-1.000000,-2.000000,-3.000000,0.000000
1294979.934093,2.000000,9.000000,5.000000,-3.000000,-1.000000,0.000000,3.000000,4.000000
1294979.934815,-2.000000,-2.000000,1.000000,-1.000000,1.000000,0.000000,0.000000,-2.000000
1294979.934824,-1.000000,-11.000000,1.000000,7.000000,-3.000000,-3.000000,-3.000000,1.000000
1294979.936114,3.000000,0.000000,1.000000,0.000000,-3.000000,0.000000,-2.000000,1.000000
1294979.936140,0.000000,-6.000000,-6.000000,0.000000,2.000000,-2.000000,-1.000000,-5.000000
1294979.942360,0.000000,4.000000,2.000000,-2.000000,5.000000,4.000000,2.000000,0.000000
1294979.942370,-1.000000,0.000000,2.000000,7.000000,-2.000000,-4.000000,-4.000000,0.000000
1294979.963370,0.000000,2.000000,9.000000,12.000000,-1.000000,-5.000000,-1.000000,-2.000000
1294979.963432,-2.000000,-2.000000,-1.000000,0.000000,0.000000,-1.000000,1.000000,1.000000
1294979.978444,-3.000000,-1.000000,-9.000000,-4.000000,-1.000000,-1.000000,0.000000,0.000000
1294979.978469,-3.000000,0.000000,2.000000,-2.000000,1.000000,2.000000,-1.000000,-2.000000
1294980.008713,2.000000,-1.000000,0.000000,-2.000000,-7.000000,1.000000,2.000000,5.000000
1294980.008737,1.000000,1.000000,2.000000,11.000000,-1.000000,-2.000000,-3.000000,-2.000000
1294980.016035,0.000000,-2.000000,-4.000000,-14.000000,-4.000000,-2.000000,-3.000000,-4.000000
1294980.016104,-3.000000,-2.000000,0.000000,-5.000000,3.000000,2.000000,2.000000,-4.000000
1294980.068617,-2.000000,1.000000,0.000000,6.000000,4.000000,-2.000000,-4.000000,-2.000000
1294980.068828,-2.000000,-2.000000,-3.000000,-4.000000,0.000000,-2.000000,-1.000000,1.000000
1294980.069085,-2.000000,-2.000000,-4.000000,-2.000000,-4.000000,3.000000,-1.000000,-1.000000
1294980.069096,-1.000000,1.000000,-1.000000,-4.000000,-5.000000,-1.000000,1.000000,-4.000000
1294980.069945,-1.000000,3.000000,-6.000000,-4.000000,-3.000000,-1.000000,-2.000000,-1.000000
1294980.069967,-1.000000,4.000000,5.000000,6.000000,0.000000,2.000000,2.000000,-1.000000
1294980.071200,-1.000000,-3.000000,-1.000000,-3.000000,0.000000,-4.000000,-1.000000,-1.000000
1294980.071212,-4.000000,-9.000000,-9.000000,-7.000000,-1.000000,-1.000000,-2.000000,1.000000
1294980.072065,-1.000000,-1.000000,16.000000,10.000000,2.000000,1.000000,-2.000000,1.000000
1294980.072076,4.000000,14.000000,-28.000000,-13.000000,-6.000000,-2.000000,-4.000000,0.000000
1294980.090718,-1.000000,-1.000000,-1.000000,-2.000000,-1.000000,-4.000000,0.000000,-2.000000
1294980.090853,1.000000,-1.000000,-10.000000,-1.000000,-2.000000,1.000000,-1.000000,0.000000
1294980.091930,0.000000,0.000000,6.000000,2.000000,2.000000,-2.000000,-1.000000,-1.000000
1294980.091942,0.000000,2.000000,10.000000,4.000000,-3.000000,0.000000,-3.000000,0.000000
1294980.098161,-1.000000,-13.000000,-15.000000,-7.000000,1.000000,1.000000,-1.000000,0.000000
1294980.098173,-2.000000,1.000000,0.000000,-2.000000,-1.000000,1.000000,2.000000,-3.000000
1294980.135598,4.000000,15.000000,10.000000,6.000000,-2.000000,1.000000,0.000000,-1.000000
1294980.135611,2.000000,-2.000000,-2.000000,5.000000,1.000000,2.000000,2.000000,1.000000
1294980.150911,-4.000000,-4.000000,2.000000,-2.000000,3.000000,2.000000,0.000000,1.000000
1294980.150926,0.000000,10.000000,6.000000,3.000000,0.000000,0.000000,-2.000000,-3.000000
1294980.173698,-2.000000,-11.000000,-18.000000,-18.000000,-6.000000,-1.000000,-1.000000,-4.000000
1294980.173722,-1.000000,-3.000000,9.000000,12.000000,0.000000,-1.000000,-1.000000,-1.000000
1294980.174147,-2.000000,-2.000000,-4.000000,-7.000000,-4.000000,-2.000000,-2.000000,-2.000000
1294980.174158,-1.000000,-5.000000,-2.000000,-12.000000,1.000000,-1.000000,-3.000000,2.000000
1294980.175480,-3.000000,0.000000,2.000000,3.000000,2.000000,-2.000000,-1.000000,-2.000000
1294980.175504,2.000000,7.000000,1.000000,0.000000,-5.000000,-1.000000,-1.000000,0.000000
1294980.176306,2.000000,2.000000,-5.000000,-3.000000,-4.000000,2.000000,0.000000,0.000000
1294980.176331,-5.000000,-9.000000,-1.000000,-4.000000,-2.000000,-4.000000,-2.000000,-1.000000
1294980.180722,-1.000000,-3.000000,-6.000000,-2.000000,-2.000000,-2.000000,-2.000000,-1.000000
1294980.180735,1.000000,-5.000000,-3.000000,-4.000000,-2.000000,5.000000,1.000000,2.000000
1294980.188721,-2.000000,-6.000000,-17.000000,-3.000000,-1.000000,-1.000000,-1.000000,-1.000000
1294980.188749,-3.000000,-3.000000,10.000000,1.000000,4.000000,0.000000,2.000000,-1.000000
1294980.210650,4.000000,11.000000,5.000000,2.000000,1.000000,-2.000000,-3.000000,-2.000000
1294980.210662,-5.000000,-7.000000,-12.000000,-9.000000,-2.000000,-1.000000,-2.000000,-5.000000
1294980.225583,0.000000,6.000000,12.000000,2.000000,-1.000000,-1.000000,-3.000000,1.000000
1294980.225592,-3.000000,-4.000000,-3.000000,0.000000,-3.000000,-2.000000,-2.000000,3.000000
1294980.233238,1.000000,0.000000,3.000000,-1.000000,2.000000,-3.000000,-1.000000,-3.000000
1294980.233248,-3.000000,-5.000000,-1.000000,0.000000,-4.000000,-3.000000,-4.000000,0.000000
1294980.293317,1.000000,1.000000,1.000000,-6.000000,-1.000000,3.000000,0.000000,-1.000000
1294980.293327,0.000000,-5.000000,-12.000000,-1.000000,-3.000000,0.000000,-4.000000,-3.000000
1294980.300791,-1.000000,0.000000,8.000000,-3.000000,-3.000000,-1.000000,-2.000000,0.000000
1294980.300820,-5.000000,-5.000000,4.000000,7.000000,2.000000,-1.000000,-1.000000,-2.000000
1294980.345782,2.000000,-2.000000,-1.000000,-1.000000,5.000000,1.000000,2.000000,-3.000000
1294980.345793,-4.000000,1.000000,1.000000,-1.000000,-3.000000,-1.000000,-5.000000,-2.000000
1294980.367974,0.000000,-6.000000,-5.000000,-5.000000,-3.000000,-3.000000,1.000000,-1.000000
1294980.367985,2.000000,12.000000,9.000000,4.000000,2.000000,-1.000000,3.000000,-1.000000
1294980.390791,-3.000000,-6.000000,-8.000000,2.000000,2.000000,0.000000,2.000000,-1.000000
1294980.390802,-2.000000,3.000000,3.000000,-4.000000,1.000000,3.000000,0.000000,-2.000000
1294980.413028,-6.000000,-7.000000,-5.000000,-4.000000,-1.000000,-3.000000,0.000000,-2.000000
1294980.413057,-3.000000,-3.000000,-9.000000,-2.000000,-5.000000,-3.000000,-1.000000,-2.000000
1294980.413420,0.000000,-10.000000,-3.000000,0.000000,3.000000,0.000000,1.000000,-1.000000
1294980.413447,-1.000000,2.000000,2.000000,0.000000,-3.000000,-1.000000,-5.000000,-1.000000
1294980.414026,-1.000000,-3.000000,-11.000000,-3.000000,2.000000,0.000000,-4.000000,-4.000000
1294980.414047,-2.000000,-6.000000,3.000000,-2.000000,-3.000000,-2.000000,0.000000,-3.000000
1294980.414681,-2.000000,-5.000000,1.000000,-1.000000,1.000000,-1.000000,4.000000,-3.000000
1294980.414702,1.000000,-3.000000,-3.000000,9.000000,3.000000,-1.000000,-1.000000,-2.000000
1294980.415334,-3.000000,-4.000000,0.000000,1.000000,1.000000,0.000000,2.000000,-2.000000
1294980.415355,0.000000,5.000000,6.000000,-6.000000,-3.000000,0.000000,-3.000000,-2.000000
1294980.416838,-4.000000,-3.000000,-2.000000,2.000000,-3.000000,-1.000000,0.000000,-3.000000
1294980.416847,-2.000000,-2.000000,0.000000,-6.000000,-3.000000,-3.000000,-1.000000,0.000000
1294980.428067,2.000000,-1.000000,-3.000000,3.000000,5.000000,2.000000,1.000000,-1.000000
1294980.428084,0.000000,1.000000,-2.000000,-4.000000,0.000000,0.000000,0.000000,-3.000000
1294980.450528,-1.000000,-4.000000,0.000000,-2.000000,-1.000000,-1.000000,-2.000000,-4.000000
1294980.450538,-3.000000,-7.000000,-10.000000,4.000000,-4.000000,-1.000000,-1.000000,-4.000000
1294980.458269,2.000000,11.000000,16.000000,7.000000,2.000000,1.000000,-2.000000,2.000000
1294980.458288,0.000000,-4.000000,-5.000000,-3.000000,-3.000000,-5.000000,-2.000000,-2.000000
1294980.488022,-4.000000,-5.000000,-1.000000,-3.000000,4.000000,-1.000000,-3.000000,1.000000
1294980.488032,-1.000000,-2.000000,-6.000000,-7.000000,1.000000,4.000000,-1.000000,0.000000
1294980.488576,1.000000,-4.000000,-1.000000,-1.000000,-4.000000,-5.000000,-3.000000,-3.000000
1294980.488585,-2.000000,-5.000000,-17.000000,-7.000000,0.000000,1.000000,-2.000000,-1.000000
1294980.489706,0.000000,-1.000000,3.000000,1.000000,-3.000000,-2.000000,0.000000,-3.000000
1294980.489716,-1.000000,2.000000,2.000000,-7.000000,-2.000000,-1.000000,0.000000,1.000000
1294980.490673,-4.000000,-8.000000,-20.000000,-11.000000,-1.000000,-3.000000,-3.000000,-3.000000
1294980.490688,-5.000000,-7.000000,1.000000,-3.000000,-4.000000,-2.000000,-3.000000,-1.000000
1294980.502944,1.000000,1.000000,3.000000,-1.000000,3.000000,6.000000,3.000000,2.000000
1294980.502955,3.000000,3.000000,4.000000,5.000000,0.000000,1.000000,4.000000,-3.000000
1294980.533125,0.000000,-5.000000,-2.000000,3.000000,2.000000,-4.000000,0.000000,-1.000000
1294980.533138,0.000000,1.000000,-7.000000,-4.000000,-6.000000,-1.000000,-1.000000,-2.000000
1294980.534144,-1.000000,-1.000000,5.000000,-9.000000,-3.000000,0.000000,-1.000000,1.000000
1294980.534159,1.000000,-5.000000,-12.000000,0.000000,3.000000,0.000000,-1.000000,0.000000
1294980.534737,-3.000000,5.000000,3.000000,4.000000,0.000000,-1.000000,-2.000000,-1.000000
1294980.534748,0.000000,-3.000000,-2.000000,2.000000,-4.000000,-2.000000,0.000000,0.000000
1294980.536433,-1.000000,1.000000,1.000000,-2.000000,-1.000000,0.000000,-2.000000,0.000000
1294980.536444,2.000000,6.000000,0.000000,3.000000,3.000000,-1.000000,-1.000000,-3.000000
1294980.570790,-1.000000,-4.000000,2.000000,-7.000000,-3.000000,-3.000000,-3.000000,-1.000000
1294980.570800,3.000000,3.000000,-11.000000,-9.000000,-6.000000,-3.000000,-6.000000,-3.000000
1294980.615775,-4.000000,3.000000,15.000000,-3.000000,-1.000000,-1.000000,-2.000000,-3.000000
1294980.615785,0.000000,0.000000,1.000000,-3.000000,-3.000000,-2.000000,-1.000000,-1.000000
1294980.623315,-2.000000,-5.000000,-5.000000,1.000000,5.000000,-2.000000,-2.000000,-1.000000
1294980.623325,-2.000000,-7.000000,-1.000000,-4.000000,3.000000,-1.000000,-1.000000,-2.000000
1294980.645507,0.000000,2.000000,-4.000000,-1.000000,-1.000000,-2.000000,-2.000000,-1.000000
1294980.645530,-2.000000,8.000000,4.000000,-7.000000,-6.000000,-3.000000,0.000000,0.000000
1294980.653265,1.000000,0.000000,-1.000000,5.000000,3.000000,1.000000,0.000000,-4.000000
1294980.653275,1.000000,-1.000000,-6.000000,-2.000000,5.000000,3.000000,0.000000,2.000000
1294980.690646,0.000000,3.000000,-5.000000,0.000000,1.000000,0.000000,-1.000000,1.000000
1294980.690662,0.000000,-2.000000,8.000000,8.000000,-2.000000,-3.000000,-5.000000,0.000000
1294980.728015,-4.000000,-6.000000,-13.000000,-4.000000,1.000000,-3.000000,-3.000000,-4.000000
1294980.728038,-1.000000,12.000000,18.000000,1.000000,-2.000000,0.000000,2.000000,0.000000
1294980.728359,-1.000000,2.000000,5.000000,-2.000000,1.000000,-1.000000,-3.000000,1.000000
1294980.728367,0.000000,-3.000000,-4.000000,1.000000,2.000000,2.000000,-1.000000,1.000000
1294980.729009,-2.000000,-3.000000,-8.000000,-6.000000,-4.000000,-5.000000,-2.000000,-4.000000
1294980.729018,-2.000000,-7.000000,-8.000000,-8.000000,-3.000000,-4.000000,-3.000000,-3.000000
1294980.729788,-2.000000,-9.000000,-3.000000,4.000000,1.000000,1.000000,0.000000,0.000000
1294980.729800,0.000000,1.000000,3.000000,4.000000,-2.000000,0.000000,-1.000000,0.000000
1294980.730947,-2.000000,-2.000000,-8.000000,-4.000000,-4.000000,-3.000000,-3.000000,-4.000000
1294980.730956,1.000000,-5.000000,2.000000,-6.000000,0.000000,-1.000000,-1.000000,-2.000000
1294980.735422,3.000000,8.000000,6.000000,-2.000000,-1.000000,2.000000,1.000000,7.000000
1294980.735434,0.000000,5.000000,7.000000,11.000000,2.000000,-2.000000,0.000000,-2.000000
1294980.743000,1.000000,-3.000000,-9.000000,-8.000000,-2.000000,1.000000,2.000000,-3.000000
1294980.743011,1.000000,2.000000,10.000000,-3.000000,2.000000,-3.000000,-5.000000,-3.000000
1294980.766201,2.000000,-5.000000,-7.000000,-2.000000,-2.000000,-3.000000,-3.000000,-3.000000
1294980.766212,0.000000,5.000000,6.000000,0.000000,-3.000000,1.000000,2.000000,-1.000000
1294980.766697,-1.000000,0.000000,-1.000000,4.000000,2.000000,-3.000000,-2.000000,-3.000000
1294980.766707,-2.000000,-4.000000,-9.000000,-1.000000,1.000000,2.000000,0.000000,1.000000
1294980.773371,1.000000,5.000000,0.000000,0.000000,-2.000000,-5.000000,-2.000000,0.000000
1294980.773386,-2.000000,-5.000000,-1.000000,2.000000,-1.000000,2.000000,-1.000000,-1.000000
1294980.780611,0.000000,-6.000000,-10.000000,-16.000000,-9.000000,-4.000000,-2.000000,2.000000
1294980.780623,-3.000000,-6.000000,-3.000000,0.000000,2.000000,-2.000000,-2.000000,-3.000000
1294980.833051,3.000000,6.000000,5.000000,-2.000000,0.000000,-1.000000,2.000000,2.000000
1294980.833086,3.000000,3.000000,-2.000000,2.000000,0.000000,1.000000,-1.000000,0.000000
1294980.848005,-3.000000,-11.000000,-9.000000,-6.000000,0.000000,0.000000,-3.000000,0.000000
1294980.848028,-1.000000,3.000000,2.000000,-5.000000,-3.000000,-1.000000,-1.000000,-1.000000
1294980.870849,-1.000000,2.000000,-4.000000,-4.000000,-1.000000,0.000000,-1.000000,-3.000000
1294980.870864,-1.000000,-4.000000,2.000000,5.000000,-1.000000,-2.000000,-1.000000,0.000000
1294980.894841,-1.000000,1.000000,4.000000,-1.000000,-1.000000,-1.000000,0.000000,-1.000000
1294980.894912,-4.000000,-2.000000,-1.000000,2.000000,5.000000,1.000000,0.000000,-1.000000
1294980.896311,-1.000000,-1.000000,-5.000000,-3.000000,-2.000000,-2.000000,-1.000000,-2.000000
1294980.896372,-2.000000,-1.000000,-4.000000,0.000000,-1.000000,-2.000000,0.000000,-2.000000
1294980.898838,-3.000000,0.000000,-2.000000,-2.000000,-5.000000,-1.000000,-4.000000,0.000000
1294980.898898,-4.000000,-4.000000,2.000000,1.000000,-2.000000,-3.000000,0.000000,-1.000000
1294980.899748,-2.000000,2.000000,5.000000,1.000000,2.000000,-1.000000,-2.000000,3.000000
1294980.899777,-4.000000,-13.000000,-9.000000,-12.000000,-4.000000,-2.000000,1.000000,-1.000000
1294980.901671,1.000000,0.000000,1.000000,5.000000,0.000000,1.000000,-1.000000,1.000000
1294980.901739,1.000000,4.000000,17.000000,7.000000,3.000000,0.000000,0.000000,-2.000000
1294980.931706,-2.000000,-4.000000,-11.000000,1.000000,1.000000,0.000000,-3.000000,-4.000000
1294980.931741,0.000000,3.000000,3.000000,-1.000000,-1.000000,0.000000,-1.000000,3.000000
1294980.946815,0.000000,-1.000000,-3.000000,-4.000000,-4.000000,-6.000000,-4.000000,-2.000000
1294980.946850,-2.000000,0.000000,-1.000000,1.000000,0.000000,1.000000,0.000000,1.000000
1294980.983656,4.000000,3.000000,17.000000,5.000000,3.000000,0.000000,-2.000000,2.000000
1294980.983680,-3.000000,-2.000000,-22.000000,-7.000000,-1.000000,1.000000,-3.000000,2.000000
1294980.998193,2.000000,0.000000,0.000000,-2.000000,-2.000000,-2.000000,-3.000000,0.000000
1294980.998205,1.000000,-4.000000,-1.000000,-2.000000,-3.000000,-2.000000,-4.000000,-3.000000
1294981.006045,0.000000,5.000000,6.000000,-6.000000,-1.000000,0.000000,1.000000,-1.000000
1294981.006074,-5.000000,-5.000000,-1.000000,0.000000,-5.000000,0.000000,-1.000000,-1.000000
1294981.006550,-2.000000,-4.000000,1.000000,3.000000,0.000000,2.000000,1.000000,1.000000
1294981.006577,1.000000,0.000000,-1.000000,7.000000,-3.000000,-1.000000,0.000000,0.000000
1294981.008929,-1.000000,-5.000000,-3.000000,-10.000000,0.000000,2.000000,0.000000,2.000000
1294981.008973,0.000000,2.000000,6.000000,15.000000,0.000000,0.000000,-1.000000,-3.000000
1294981.013505,-4.000000,-5.000000,-20.000000,-20.000000,-5.000000,2.000000,-2.000000,-3.000000
1294981.013554,1.000000,-5.000000,1.000000,0.000000,2.000000,1.000000,3.000000,0.000000
1294981.020614,3.000000,1.000000,4.000000,1.000000,0.000000,-2.000000,-1.000000,-2.000000
1294981.020643,0.000000,3.000000,4.000000,2.000000,-1.000000,-2.000000,-2.000000,1.000000
1294981.043523,-2.000000,-6.000000,-8.000000,0.000000,2.000000,-2.000000,0.000000,-2.000000
1294981.043572,-2.000000,-2.000000,-2.000000,-1.000000,1.000000,-3.000000,0.000000,-3.000000
1294981.050571,0.000000,0.000000,4.000000,-6.000000,-6.000000,0.000000,0.000000,-3.000000
1294981.050581,2.000000,3.000000,13.000000,3.000000,3.000000,1.000000,-1.000000,-2.000000
1294981.073310,-6.000000,-11.000000,-24.000000,-9.000000,0.000000,1.000000,1.000000,-3.000000
1294981.073320,0.000000,3.000000,17.000000,4.000000,0.000000,-3.000000,1.000000,2.000000
1294981.088062,0.000000,-4.000000,-5.000000,0.000000,0.000000,-2.000000,-2.000000,-1.000000
1294981.088091,1.000000,2.000000,2.000000,1.000000,2.000000,1.000000,-2.000000,1.000000
1294981.089025,3.000000,-4.000000,-2.000000,-7.000000,-5.000000,-1.000000,-4.000000,-1.000000
1294981.089034,0.000000,0.000000,-1.000000,-4.000000,-3.000000,0.000000,-2.000000,-1.000000
1294981.089745,0.000000,2.000000,8.000000,6.000000,-1.000000,0.000000,0.000000,-1.000000
1294981.089753,0.000000,-3.000000,-18.000000,-13.000000,-1.000000,0.000000,2.000000,-1.000000
1294981.125422,0.000000,-3.000000,-11.000000,0.000000,2.000000,2.000000,1.000000,-2.000000
1294981.125446,-1.000000,2.000000,15.000000,23.000000,4.000000,0.000000,2.000000,-2.000000
1294981.125815,1.000000,-3.000000,-12.000000,-12.000000,2.000000,4.000000,2.000000,4.000000
1294981.125835,2.000000,14.000000,15.000000,1.000000,0.000000,0.000000,-2.000000,1.000000
1294981.127013,2.000000,-4.000000,1.000000,0.000000,2.000000,1.000000,-3.000000,1.000000
1294981.127034,-4.000000,-3.000000,-3.000000,-3.000000,1.000000,0.000000,-3.000000,-3.000000
1294981.127659,-3.000000,2.000000,1.000000,3.000000,0.000000,-1.000000,-2.000000,-2.000000
1294981.127681,-2.000000,-1.000000,-2.000000,-5.000000,-3.000000,-2.000000,-2.000000,0.000000
1294981.133057,2.000000,-1.000000,10.000000,7.000000,1.000000,-5.000000,-1.000000,1.000000
1294981.133067,3.000000,9.000000,0.000000,4.000000,1.000000,3.000000,-1.000000,0.000000
1294981.148282,-2.000000,5.000000,6.000000,-2.000000,-3.000000,-4.000000,-3.000000,-3.000000
1294981.148293,1.000000,7.000000,-3.000000,-1.000000,-1.000000,-3.000000,-2.000000,-3.000000
1294981.185869,-2.000000,-8.000000,1.000000,-4.000000,-6.000000,-3.000000,-3.000000,-2.000000
1294981.185882,-2.000000,-3.000000,4.000000,5.000000,0.000000,-2.000000,-2.000000,1.000000
1294981.200607,-8.000000,-8.000000,-1.000000,-6.000000,-6.000000,-3.000000,-3.000000,-3.000000
1294981.200619,0.000000,-2.000000,-5.000000,3.000000,5.000000,0.000000,1.000000,1.000000
1294981.231061,1.000000,-4.000000,-9.000000,-1.000000,-1.000000,2.000000,-1.000000,1.000000
1294981.231078,-4.000000,1.000000,3.000000,-13.000000,-6.000000,0.000000,-4.000000,-5.000000
1294981.238646,1.000000,1.000000,16.000000,24.000000,10.000000,2.000000,0.000000,-2.000000
1294981.238663,-1.000000,2.000000,-12.000000,1.000000,-2.000000,-1.000000,1.000000,1.000000
1294981.268017,3.000000,0.000000,-4.000000,-1.000000,1.000000,2.000000,0.000000,-1.000000
1294981.268043,-3.000000,-6.000000,-5.000000,-24.000000,-13.000000,-8.000000,-4.000000,-3.000000
1294981.283284,-2.000000,1.000000,-2.000000,0.000000,0.000000,-3.000000,-4.000000,0.000000
1294981.283294,1.000000,-3.000000,2.000000,-1.000000,0.000000,0.000000,-2.000000,1.000000
1294981.298364,-1.000000,-4.000000,-1.000000,2.000000,-1.000000,-2.000000,-2.000000,-3.000000
1294981.298388,-1.000000,-9.000000,-11.000000,-15.000000,-3.000000,-4.000000,-3.000000,-3.000000
1294981.320783,1.000000,1.000000,15.000000,27.000000,4.000000,0.000000,0.000000,2.000000
1294981.320795,-3.000000,-2.000000,-11.000000,-16.000000,-6.000000,-2.000000,-1.000000,-2.000000
1294981.328349,-1.000000,-4.000000,-1.000000,-7.000000,1.000000,-1.000000,-1.000000,-1.000000
1294981.328362,-1.000000,-2.000000,1.000000,0.000000,1.000000,-3.000000,-4.000000,-1.000000
1294981.335802,0.000000,1.000000,4.000000,-1.000000,0.000000,-2.000000,-1.000000,2.000000
1294981.335815,-3.000000,-3.000000,-3.000000,7.000000,1.000000,-2.000000,0.000000,-2.000000
1294981.366217,2.000000,-2.000000,6.000000,-1.000000,-7.000000,-3.000000,-1.000000,-3.000000
1294981.366240,-3.000000,-5.000000,-5.000000,-7.000000,0.000000,-3.000000,-1.000000,0.000000
1294981.366877,-3.000000,-2.000000,-6.000000,1.000000,1.000000,1.000000,4.000000,1.000000
1294981.366903,0.000000,-5.000000,-4.000000,-1.000000,-1.000000,0.000000,-2.000000,0.000000
1294981.367311,0.000000,2.000000,18.000000,3.000000,0.000000,-5.000000,0.000000,0.000000
1294981.367319,-4.000000,-9.000000,-8.000000,7.000000,2.000000,-3.000000,0.000000,-3.000000
1294981.367901,-1.000000,-5.000000,-20.000000,-8.000000,0.000000,1.000000,-1.000000,2.000000
1294981.367911,-1.000000,-2.000000,-1.000000,-6.000000,-4.000000,1.000000,-1.000000,-2.000000
1294981.368558,-1.000000,1.000000,-3.000000,1.000000,1.000000,0.000000,-1.000000,-3.000000
1294981.368566,0.000000,-4.000000,2.000000,0.000000,-3.000000,-3.000000,1.000000,0.000000
1294981.388835,2.000000,1.000000,4.000000,-2.000000,1.000000,0.000000,-1.000000,-4.000000
1294981.388859,-4.000000,-7.000000,-2.000000,-4.000000,-2.000000,-1.000000,-5.000000,-2.000000
1294981.404059,-3.000000,-2.000000,-8.000000,-12.000000,-5.000000,1.000000,3.000000,-1.000000
1294981.404083,-4.000000,-8.000000,-5.000000,-2.000000,-3.000000,-1.000000,-3.000000,-1.000000
1294981.448221,5.000000,17.000000,13.000000,3.000000,-1.000000,-2.000000,-2.000000,-3.000000
1294981.448233,0.000000,2.000000,-1.000000,9.000000,0.000000,0.000000,-1.000000,-1.000000
1294981.455473,-1.000000,-4.000000,-3.000000,-9.000000,-3.000000,2.000000,1.000000,1.000000
1294981.455500,-1.000000,1.000000,4.000000,0.000000,-2.000000,1.000000,-1.000000,-3.000000
1294981.456497,-2.000000,-3.000000,-16.000000,-10.000000,-3.000000,0.000000,-4.000000,1.000000
1294981.456505,3.000000,9.000000,14.000000,6.000000,0.000000,0.000000,1.000000,-3.000000
1294981.457201,3.000000,3.000000,-7.000000,0.000000,-3.000000,0.000000,-1.000000,-1.000000
1294981.457209,-2.000000,-1.000000,7.000000,-1.000000,-2.000000,-2.000000,-1.000000,-2.000000
1294981.459143,-3.000000,-2.000000,-2.000000,4.000000,-5.000000,-1.000000,-3.000000,-2.000000
1294981.459154,-2.000000,-1.000000,1.000000,4.000000,-2.000000,0.000000,-1.000000,0.000000
1294981.478502,0.000000,4.000000,4.000000,7.000000,2.000000,2.000000,1.000000,-1.000000
1294981.478532,-1.000000,-3.000000,-4.000000,-3.000000,-1.000000,0.000000,0.000000,-3.000000
1294981.479459,-1.000000,-1.000000,-1.000000,-6.000000,-4.000000,-7.000000,-4.000000,-1.000000
1294981.479471,0.000000,4.000000,-9.000000,-4.000000,-2.000000,0.000000,-4.000000,-1.000000
1294981.485771,2.000000,0.000000,0.000000,-2.000000,0.000000,-2.000000,0.000000,-4.000000
1294981.485794,1.000000,-3.000000,7.000000,9.000000,3.000000,1.000000,0.000000,1.000000
1294981.500432,-2.000000,-4.000000,2.000000,-6.000000,-4.000000,-3.000000,-2.000000,0.000000
1294981.500455,-1.000000,-1.000000,-8.000000,-14.000000,-4.000000,-6.000000,-4.000000,-2.000000
1294981.515792,-1.000000,4.000000,0.000000,-1.000000,0.000000,-1.000000,1.000000,-1.000000
1294981.515802,-1.000000,8.000000,0.000000,8.000000,0.000000,0.000000,-1.000000,-2.000000
1294981.560710,-3.000000,-6.000000,-3.000000,-7.000000,-6.000000,-4.000000,-7.000000,-2.000000
1294981.560721,0.000000,-3.000000,6.000000,-2.000000,-3.000000,0.000000,-1.000000,-2.000000
1294981.568281,-2.000000,1.000000,1.000000,0.000000,-3.000000,0.000000,-1.000000,-1.000000
1294981.568291,-4.000000,-4.000000,-1.000000,-3.000000,-2.000000,-3.000000,-5.000000,-1.000000
1294981.598233,2.000000,5.000000,1.000000,-5.000000,-4.000000,-3.000000,0.000000,0.000000
1294981.598244,3.000000,1.000000,0.000000,-7.000000,0.000000,0.000000,0.000000,0.000000
1294981.598759,-4.000000,-6.000000,-9.000000,-15.000000,0.000000,0.000000,-3.000000,-4.000000
1294981.598767,3.000000,0.000000,12.000000,10.000000,-2.000000,-2.000000,1.000000,0.000000
1294981.599672,-2.000000,-6.000000,-16.000000,-4.000000,-1.000000,-2.000000,0.000000,0.000000
1294981.599680,1.000000,-7.000000,-5.000000,-3.000000,-1.000000,0.000000,0.000000,-1.000000
1294981.600337,-4.000000,3.000000,-1.000000,1.000000,-2.000000,-1.000000,-3.000000,0.000000
1294981.600345,-2.000000,-3.000000,-6.000000,1.000000,-1.000000,0.000000,-2.000000,0.000000
1294981.600987,-2.000000,-3.000000,-22.000000,-13.000000,-5.000000,-5.000000,-3.000000,-2.000000
1294981.600994,-3.000000,2.000000,-6.000000,-10.000000,-4.000000,-3.000000,-3.000000,1.000000
1294981.605355,2.000000,5.000000,3.000000,-5.000000,0.000000,0.000000,0.000000,-1.000000
1294981.605365,1.000000,1.000000,-6.000000,-5.000000,0.000000,-4.000000,0.000000,1.000000
1294981.613208,-1.000000,-4.000000,-6.000000,-1.000000,-5.000000,-1.000000,-1.000000,1.000000
1294981.613220,-2.000000,1.000000,1.000000,5.000000,0.000000,-1.000000,-2.000000,1.000000
1294981.644327,-5.000000,2.000000,-9.000000,-11.000000,-1.000000,-1.000000,0.000000,-2.000000
1294981.644364,2.000000,13.000000,13.000000,1.000000,-5.000000,-3.000000,-2.000000,0.000000
1294981.667066,-4.000000,-4.000000,-4.000000,2.000000,2.000000,2.000000,0.000000,0.000000
1294981.667100,1.000000,5.000000,5.000000,7.000000,1.000000,-1.000000,0.000000,2.000000
1294981.682141,-4.000000,-10.000000,-6.000000,-7.000000,-1.000000,-1.000000,0.000000,-5.000000
1294981.682175,5.000000,13.000000,-5.000000,5.000000,0.000000,-2.000000,-1.000000,1.000000
1294981.703264,-2.000000,-1.000000,11.000000,6.000000,3.000000,0.000000,2.000000,-3.000000
1294981.703289,-1.000000,-3.000000,-5.000000,1.000000,0.000000,-1.000000,0.000000,-2.000000
1294981.725560,2.000000,-2.000000,-6.000000,-13.000000,-2.000000,-3.000000,-3.000000,0.000000
1294981.725585,-2.000000,-2.000000,-5.000000,2.000000,1.000000,3.000000,1.000000,3.000000
1294981.726577,-1.000000,-6.000000,0.000000,-1.000000,-5.000000,-1.000000,-4.000000,-2.000000
1294981.726593,0.000000,4.000000,7.000000,1.000000,1.000000,-1.000000,-1.000000,-4.000000
1294981.727337,0.000000,-7.000000,-5.000000,-4.000000,-1.000000,-3.000000,2.000000,-4.000000
1294981.727365,2.000000,6.000000,1.000000,-2.000000,2.000000,4.000000,2.000000,1.000000
1294981.727805,-1.000000,8.000000,13.000000,0.000000,2.000000,1.000000,0.000000,-1.000000
1294981.727814,-2.000000,-3.000000,-3.000000,0.000000,-2.000000,0.000000,-1.000000,-1.000000
1294981.728501,1.000000,2.000000,-2.000000,0.000000,-1.000000,-2.000000,1.000000,-2.000000
1294981.728526,-3.000000,-3.000000,-3.000000,8.000000,0.000000,-3.000000,0.000000,1.000000
1294981.732846,-1.000000,2.000000,1.000000,-6.000000,-3.000000,-5.000000,-3.000000,-2.000000
1294981.732856,-5.000000,-8.000000,-6.000000,3.000000,0.000000,1.000000,0.000000,2.000000
1294981.755755,-4.000000,-2.000000,2.000000,-8.000000,-6.000000,-3.000000,-1.000000,-2.000000
1294981.755766,2.000000,3.000000,7.000000,13.000000,2.000000,-4.000000,-2.000000,-1.000000
1294981.777947,1.000000,-6.000000,-3.000000,-2.000000,-2.000000,1.000000,2.000000,-1.000000
1294981.777957,0.000000,-4.000000,-11.000000,-12.000000,-7.000000,-5.000000,-3.000000,-1.000000
1294981.793382,-2.000000,-7.000000,-6.000000,0.000000,-2.000000,-1.000000,-2.000000,-3.000000
1294981.793394,2.000000,11.000000,14.000000,2.000000,2.000000,0.000000,-1.000000,1.000000
1294981.815474,0.000000,-2.000000,1.000000,-3.000000,0.000000,1.000000,-4.000000,-2.000000
1294981.815484,-4.000000,-7.000000,-4.000000,1.000000,-1.000000,0.000000,1.000000,-1.000000
1294981.830680,-2.000000,-1.000000,1.000000,3.000000,-1.000000,-3.000000,-3.000000,-1.000000
1294981.830689,2.000000,3.000000,-1.000000,4.000000,0.000000,0.000000,-1.000000,-1.000000
1294981.845840,-3.000000,-5.000000,-8.000000,0.000000,-3.000000,-2.000000,-2.000000,-3.000000
1294981.845852,0.000000,-9.000000,-3.000000,-3.000000,-3.000000,-3.000000,1.000000,-1.000000
1294981.853086,3.000000,9.000000,1.000000,-1.000000,0.000000,-1.000000,0.000000,-1.000000
1294981.853095,2.000000,1.000000,11.000000,1.000000,1.000000,-1.000000,1.000000,2.000000
1294981.854151,-4.000000,-4.000000,0.000000,-9.000000,-3.000000,-3.000000,-1.000000,-1.000000
1294981.854178,2.000000,2.000000,0.000000,2.000000,1.000000,-2.000000,-3.000000,-2.000000
1294981.855443,-3.000000,3.000000,5.000000,3.000000,0.000000,-5.000000,-2.000000,1.000000
1294981.855470,0.000000,3.000000,12.000000,9.000000,2.000000,2.000000,-2.000000,-1.000000
1294981.856436,-3.000000,-7.000000,-14.000000,-7.000000,-1.000000,0.000000,0.000000,0.000000
1294981.856444,0.000000,-2.000000,-2.000000,1.000000,3.000000,-1.000000,1.000000,0.000000
1294981.875452,-2.000000,-8.000000,-2.000000,-2.000000,-3.000000,-2.000000,-3.000000,-3.000000
1294981.875460,-1.000000,3.000000,5.000000,-1.000000,3.000000,0.000000,1.000000,3.000000
1294981.890747,0.000000,-7.000000,4.000000,-4.000000,-2.000000,0.000000,0.000000,-3.000000
1294981.890757,-5.000000,-7.000000,-4.000000,2.000000,1.000000,-3.000000,-2.000000,-1.000000
1294981.905852,1.000000,-1.000000,6.000000,12.000000,-2.000000,1.000000,1.000000,1.000000
1294981.905882,-3.000000,1.000000,3.000000,-4.000000,-5.000000,-3.000000,-3.000000,-2.000000
1294981.943335,-3.000000,-1.000000,-10.000000,-9.000000,-5.000000,1.000000,0.000000,-1.000000
1294981.943380,-1.000000,-3.000000,3.000000,1.000000,-1.000000,0.000000,-3.000000,-2.000000
1294981.960229,1.000000,-1.000000,0.000000,5.000000,-2.000000,1.000000,-1.000000,-3.000000
1294981.960583,-1.000000,-1.000000,0.000000,-7.000000,0.000000,1.000000,-3.000000,-3.000000
1294981.961014,-4.000000,2.000000,-2.000000,-1.000000,2.000000,0.000000,0.000000,0.000000
1294981.961173,0.000000,2.000000,5.000000,-2.000000,-3.000000,-1.000000,1.000000,-2.000000
1294981.962910,1.000000,3.000000,1.000000,-10.000000,0.000000,2.000000,-4.000000,-1.000000
1294981.962963,-4.000000,-6.000000,-34.000000,-11.000000,0.000000,1.000000,-3.000000,-1.000000
1294981.963949,3.000000,-2.000000,14.000000,21.000000,0.000000,2.000000,1.000000,-2.000000
1294981.963984,-5.000000,-3.000000,-1.000000,1.000000,-3.000000,-3.000000,-2.000000,-1.000000
1294981.964287,-2.000000,-9.000000,-15.000000,-4.000000,3.000000,1.000000,1.000000,1.000000
1294981.964305,3.000000,10.000000,15.000000,-3.000000,0.000000,-4.000000,0.000000,-1.000000
1294981.966246,-1.000000,-16.000000,-12.000000,-1.000000,6.000000,0.000000,-2.000000,-2.000000
1294981.966418,-2.000000,-13.000000,-1.000000,2.000000,-1.000000,2.000000,0.000000,1.000000
1294981.981099,2.000000,6.000000,3.000000,-1.000000,0.000000,-1.000000,2.000000,1.000000
1294981.981121,-1.000000,0.000000,-1.000000,2.000000,1.000000,-3.000000,0.000000,0.000000
1294982.011238,-4.000000,-5.000000,4.000000,2.000000,1.000000,-3.000000,-2.000000,-3.000000
1294982.011342,-3.000000,-5.000000,-8.000000,-4.000000,-6.000000,-3.000000,-2.000000,-2.000000
1294982.033447,-1.000000,0.000000,-7.000000,-1.000000,-2.000000,-2.000000,-3.000000,0.000000
1294982.033460,0.000000,-2.000000,4.000000,0.000000,1.000000,-2.000000,-1.000000,-1.000000
1294982.040712,-1.000000,-1.000000,1.000000,0.000000,2.000000,0.000000,2.000000,1.000000
1294982.040725,0.000000,-4.000000,-20.000000,-9.000000,-6.000000,-3.000000,-5.000000,-2.000000
1294982.070697,-2.000000,3.000000,9.000000,13.000000,13.000000,5.000000,4.000000,0.000000
1294982.070711,2.000000,-3.000000,5.000000,13.000000,1.000000,2.000000,3.000000,-1.000000
1294982.078359,3.000000,18.000000,8.000000,0.000000,0.000000,0.000000,0.000000,0.000000
1294982.078403,-2.000000,-6.000000,-6.000000,-11.000000,-4.000000,1.000000,-1.000000,0.000000
1294982.079350,4.000000,2.000000,2.000000,1.000000,-2.000000,-3.000000,-3.000000,-1.000000
1294982.079364,-5.000000,-8.000000,-14.000000,-26.000000,-6.000000,-4.000000,-6.000000,-5.000000
1294982.081118,0.000000,-1.000000,-1.000000,-1.000000,0.000000,-5.000000,-3.000000,1.000000
1294982.081129,-1.000000,-2.000000,-6.000000,-1.000000,-2.000000,-2.000000,-2.000000,0.000000
1294982.081981,1.000000,3.000000,-1.000000,-7.000000,-4.000000,-4.000000,-2.000000,0.000000
1294982.081992,-3.000000,-8.000000,5.000000,7.000000,-1.000000,-2.000000,-1.000000,-2.000000
1294982.115936,-5.000000,-9.000000,-7.000000,-2.000000,-2.000000,-3.000000,-4.000000,-3.000000
1294982.115950,2.000000,6.000000,-3.000000,-1.000000,2.000000,-2.000000,-2.000000,1.000000
1294982.123445,0.000000,-2.000000,-1.000000,-2.000000,-10.000000,0.000000,-1.000000,0.000000
1294982.123459,0.000000,-3.000000,-7.000000,1.000000,2.000000,0.000000,-3.000000,-2.000000
1294982.138259,-2.000000,-5.000000,4.000000,3.000000,-8.000000,-2.000000,-2.000000,-1.000000
1294982.138270,1.000000,1.000000,-1.000000,-8.000000,-9.000000,1.000000,1.000000,-3.000000
1294982.152860,-1.000000,-4.000000,-6.000000,8.000000,24.000000,9.000000,2.000000,4.000000
1294982.152892,-1.000000,-3.000000,-6.000000,-3.000000,-2.000000,-1.000000,1.000000,0.000000
1294982.153904,2.000000,4.000000,11.000000,-9.000000,-7.000000,-4.000000,-4.000000,-4.000000
1294982.153931,1.000000,-1.000000,-2.000000,2.000000,0.000000,0.000000,-1.000000,1.000000
1294982.154567,3.000000,-3.000000,-10.000000,-9.000000,1.000000,-1.000000,-2.000000,-1.000000
1294982.154574,-4.000000,-3.000000,-1.000000,-4.000000,-4.000000,-1.000000,-2.000000,-2.000000
1294982.156144,-2.000000,-3.000000,-1.000000,15.000000,8.000000,1.000000,1.000000,-1.000000
1294982.156171,1.000000,-5.000000,-6.000000,-3.000000,-2.000000,0.000000,-6.000000,-1.000000
1294982.198052,0.000000,5.000000,-1.000000,-5.000000,-1.000000,-2.000000,1.000000,-1.000000
1294982.198077,-3.000000,-4.000000,-2.000000,-4.000000,-1.000000,-1.000000,0.000000,-1.000000
1294982.220800,-1.000000,-3.000000,1.000000,1.000000,-1.000000,-4.000000,0.000000,-2.000000
1294982.220810,-2.000000,-4.000000,-10.000000,1.000000,1.000000,-1.000000,0.000000,0.000000
1294982.243800,0.000000,-5.000000,-8.000000,-4.000000,5.000000,1.000000,-1.000000,0.000000
1294982.243823,-2.000000,1.000000,3.000000,0.000000,-1.000000,0.000000,0.000000,-1.000000
1294982.251625,2.000000,-10.000000,5.000000,-2.000000,1.000000,1.000000,1.000000,-2.000000
1294982.251648,3.000000,2.000000,-13.000000,-7.000000,2.000000,1.000000,1.000000,0.000000
1294982.281036,0.000000,3.000000,13.000000,2.000000,0.000000,2.000000,1.000000,-1.000000
1294982.281090,-2.000000,-4.000000,-3.000000,5.000000,1.000000,-1.000000,0.000000,-4.000000
1294982.281331,0.000000,4.000000,-5.000000,-10.000000,-3.000000,0.000000,1.000000,2.000000
1294982.281346,2.000000,5.000000,2.000000,1.000000,3.000000,-1.000000,-2.000000,1.000000
1294982.281784,-1.000000,-3.000000,-1.000000,-4.000000,1.000000,1.000000,-1.000000,-4.000000
1294982.281796,0.000000,-1.000000,1.000000,2.000000,-5.000000,-3.000000,-4.000000,-4.000000
1294982.282921,-5.000000,-6.000000,-14.000000,-18.000000,-7.000000,-2.000000,-2.000000,-3.000000
1294982.282952,3.000000,9.000000,3.000000,6.000000,-4.000000,-2.000000,-2.000000,1.000000
1294982.284591,-2.000000,-3.000000,-3.000000,-4.000000,0.000000,1.000000,-1.000000,-1.000000
1294982.284604,-2.000000,-6.000000,3.000000,2.000000,3.000000,-2.000000,-4.000000,1.000000
1294982.288572,3.000000,13.000000,8.000000,0.000000,-1.000000,1.000000,1.000000,1.000000
1294982.288596,1.000000,-1.000000,2.000000,7.000000,-2.000000,-2.000000,0.000000,-4.000000
1294982.311018,-3.000000,0.000000,2.000000,-21.000000,-7.000000,-3.000000,-3.000000,-3.000000
1294982.311032,-1.000000,-7.000000,-2.000000,8.000000,5.000000,1.000000,-1.000000,-3.000000
1294982.312108,2.000000,3.000000,7.000000,-3.000000,-2.000000,1.000000,0.000000,4.000000
1294982.312141,0.000000,0.000000,1.000000,6.000000,-3.000000,-5.000000,-4.000000,-1.000000
1294982.318336,3.000000,-3.000000,-18.000000,-7.000000,0.000000,-1.000000,-1.000000,-2.000000
1294982.318346,-1.000000,0.000000,-6.000000,-6.000000,-5.000000,-1.000000,1.000000,-2.000000
1294982.355802,-1.000000,-3.000000,2.000000,1.000000,-3.000000,-6.000000,1.000000,-3.000000
1294982.355812,-2.000000,5.000000,7.000000,-2.000000,0.000000,-3.000000,-3.000000,-2.000000
1294982.393033,0.000000,-1.000000,-3.000000,-11.000000,0.000000,0.000000,-1.000000,1.000000
1294982.393043,-1.000000,-4.000000,-6.000000,7.000000,-5.000000,-2.000000,1.000000,0.000000
1294982.394011,1.000000,13.000000,12.000000,1.000000,3.000000,0.000000,-1.000000,0.000000
1294982.394019,-1.000000,-10.000000,-6.000000,-4.000000,-17.000000,-1.000000,-1.000000,-2.000000
1294982.394794,0.000000,0.000000,-1.000000,-4.000000,1.000000,-2.000000,-3.000000,-2.000000
1294982.394803,-2.000000,-1.000000,-2.000000,-1.000000,-2.000000,-6.000000,-2.000000,-1.000000
1294982.396173,0.000000,0.000000,0.000000,-4.000000,4.000000,5.000000,0.000000,-1.000000
1294982.396182,-1.000000,-1.000000,4.000000,6.000000,1.000000,0.000000,1.000000,0.000000
1294982.396941,0.000000,-4.000000,-6.000000,-2.000000,-2.000000,-1.000000,-4.000000,-1.000000
1294982.396949,-2.000000,1.000000,-2.000000,-8.000000,-1.000000,2.000000,1.000000,0.000000
1294982.400337,0.000000,-1.000000,7.000000,-2.000000,0.000000,-1.000000,-1.000000,-4.000000
1294982.400345,2.000000,-1.000000,-7.000000,3.000000,-3.000000,-1.000000,-2.000000,-1.000000
1294982.408651,0.000000,1.000000,4.000000,3.000000,-1.000000,-1.000000,1.000000,0.000000
1294982.408659,-1.000000,-3.000000,-4.000000,5.000000,4.000000,-1.000000,1.000000,-1.000000
1294982.430797,2.000000,4.000000,-3.000000,-22.000000,-3.000000,-2.000000,-3.000000,0.000000
1294982.430812,0.000000,0.000000,2.000000,20.000000,-6.000000,2.000000,2.000000,2.000000
1294982.438328,-4.000000,8.000000,0.000000,1.000000,-1.000000,0.000000,1.000000,-2.000000
1294982.438336,0.000000,-7.000000,7.000000,-6.000000,1.000000,-3.000000,2.000000,1.000000
1294982.439670,5.000000,14.000000,1.000000,0.000000,7.000000,3.000000,1.000000,0.000000
1294982.439681,-1.000000,1.000000,-2.000000,-2.000000,2.000000,-4.000000,-1.000000,-4.000000
1294982.446136,0.000000,-3.000000,-1.000000,2.000000,-8.000000,-3.000000,-6.000000,-1.000000
1294982.446146,-2.000000,-4.000000,-1.000000,-10.000000,-6.000000,-2.000000,-4.000000,-3.000000
1294982.475477,-1.000000,-1.000000,0.000000,4.000000,4.000000,0.000000,1.000000,1.000000
1294982.475487,-3.000000,-4.000000,-5.000000,-5.000000,3.000000,0.000000,-1.000000,-3.000000
1294982.513065,0.000000,5.000000,3.000000,4.000000,5.000000,2.000000,1.000000,-1.000000
1294982.513094,0.000000,-4.000000,-12.000000,-7.000000,-3.000000,-5.000000,-3.000000,-5.000000
1294982.520570,-2.000000,-1.000000,4.000000,-1.000000,0.000000,0.000000,-1.000000,0.000000
1294982.520579,1.000000,-3.000000,10.000000,2.000000,-3.000000,-4.000000,-1.000000,-1.000000
1294982.543262,-3.000000,-1.000000,4.000000,2.000000,-2.000000,-4.000000,-2.000000,-1.000000
1294982.543273,-3.000000,-2.000000,-15.000000,-5.000000,1.000000,2.000000,-1.000000,-1.000000
1294982.558324,-2.000000,-2.000000,2.000000,-1.000000,-4.000000,-3.000000,-1.000000,0.000000
1294982.558354,-1.000000,-7.000000,-5.000000,-2.000000,0.000000,1.000000,0.000000,-1.000000
1294982.572976,1.000000,2.000000,0.000000,-3.000000,5.000000,-1.000000,-3.000000,2.000000
1294982.573004,-1.000000,-4.000000,1.000000,2.000000,2.000000,-2.000000,0.000000,0.000000
1294982.595751,1.000000,0.000000,5.000000,4.000000,3.000000,1.000000,0.000000,-4.000000
1294982.595761,-3.000000,-8.000000,-9.000000,-3.000000,1.000000,1.000000,3.000000,-1.000000
1294982.634312,0.000000,-2.000000,-5.000000,-12.000000,-6.000000,-3.000000,0.000000,-3.000000
1294982.634340,-3.000000,-4.000000,4.000000,-10.000000,-6.000000,-1.000000,-1.000000,-1.000000
1294982.635357,-2.000000,-2.000000,-1.000000,-10.000000,-4.000000,-1.000000,-4.000000,-3.000000
1294982.635365,-3.000000,-2.000000,-5.000000,-4.000000,-2.000000,-4.000000,0.000000,-6.000000
1294982.637498,-1.000000,-8.000000,1.000000,7.000000,6.000000,0.000000,0.000000,-1.000000
1294982.637508,-1.000000,-3.000000,9.000000,5.000000,-2.000000,-1.000000,1.000000,1.000000
1294982.664088,-1.000000,-2.000000,2.000000,-3.000000,0.000000,0.000000,0.000000,1.000000
1294982.664141,-4.000000,0.000000,6.000000,8.000000,4.000000,2.000000,-1.000000,1.000000
1294982.672567,-1.000000,1.000000,-1.000000,-23.000000,-7.000000,-2.000000,-1.000000,0.000000
1294982.672606,1.000000,-5.000000,0.000000,6.000000,2.000000,-1.000000,-1.000000,1.000000
1294982.672778,0.000000,-5.000000,-10.000000,0.000000,0.000000,-3.000000,1.000000,-3.000000
1294982.672809,0.000000,8.000000,5.000000,0.000000,-8.000000,-5.000000,-3.000000,-3.000000
1294982.674177,-1.000000,-5.000000,-7.000000,-1.000000,4.000000,3.000000,-2.000000,-1.000000
1294982.674197,3.000000,6.000000,2.000000,-3.000000,-5.000000,-3.000000,0.000000,1.000000
1294982.678690,-2.000000,-5.000000,-3.000000,-2.000000,-2.000000,1.000000,-2.000000,-1.000000
1294982.678714,-3.000000,-1.000000,-4.000000,-4.000000,-2.000000,-2.000000,-3.000000,-2.000000
1294982.715717,-1.000000,1.000000,1.000000,6.000000,4.000000,3.000000,0.000000,-1.000000
1294982.715732,1.000000,0.000000,1.000000,-3.000000,-6.000000,-4.000000,0.000000,-3.000000
1294982.723162,0.000000,1.000000,-10.000000,-7.000000,2.000000,-1.000000,-4.000000,0.000000
1294982.723176,0.000000,-5.000000,10.000000,15.000000,3.000000,2.000000,-1.000000,0.000000
1294982.775853,-2.000000,21.000000,5.000000,-4.000000,-3.000000,1.000000,1.000000,-2.000000
1294982.775868,0.000000,-11.000000,-6.000000,-5.000000,-3.000000,-3.000000,-2.000000,-4.000000
1294982.791178,-3.000000,-4.000000,3.000000,6.000000,1.000000,-1.000000,1.000000,4.000000
1294982.791206,-1.000000,3.000000,9.000000,1.000000,-5.000000,1.000000,-1.000000,-3.000000
1294982.792040,-2.000000,-3.000000,-17.000000,-9.000000,-7.000000,0.000000,0.000000,-1.000000
1294982.792052,2.000000,0.000000,-4.000000,7.000000,2.000000,1.000000,-1.000000,4.000000
1294982.799822,1.000000,5.000000,9.000000,10.000000,4.000000,1.000000,0.000000,-1.000000
1294982.799857,-1.000000,-6.000000,-4.000000,-3.000000,5.000000,1.000000,0.000000,-2.000000
1294982.844248,0.000000,-9.000000,-5.000000,2.000000,1.000000,-1.000000,0.000000,1.000000
1294982.844280,3.000000,8.000000,1.000000,-1.000000,-3.000000,1.000000,0.000000,-1.000000
1294982.873159,-3.000000,-1.000000,0.000000,0.000000,1.000000,-3.000000,-2.000000,-2.000000
1294982.873174,0.000000,-1.000000,-3.000000,1.000000,2.000000,0.000000,0.000000,-1.000000
1294982.902974,-2.000000,2.000000,1.000000,-4.000000,-11.000000,-1.000000,-3.000000,-3.000000
1294982.902985,1.000000,-8.000000,-17.000000,-5.000000,5.000000,1.000000,-1.000000,-1.000000
1294982.903362,2.000000,0.000000,5.000000,-12.000000,-4.000000,-1.000000,2.000000,-1.000000
1294982.903389,-1.000000,-1.000000,-2.000000,0.000000,-1.000000,0.000000,2.000000,-1.000000
1294982.910880,-1.000000,-8.000000,-2.000000,-1.000000,1.000000,1.000000,2.000000,-4.000000
1294982.910912,-3.000000,1.000000,2.000000,2.000000,-1.000000,-3.000000,-3.000000,2.000000
1294982.911357,-2.000000,3.000000,2.000000,3.000000,-5.000000,-4.000000,-2.000000,-2.000000
1294982.911366,2.000000,8.000000,4.000000,-2.000000,-2.000000,1.000000,1.000000,1.000000
1294982.911842,-1.000000,1.000000,2.000000,-9.000000,-4.000000,2.000000,0.000000,0.000000
1294982.911875,-1.000000,1.000000,-4.000000,10.000000,5.000000,4.000000,1.000000,0.000000
1294982.913430,2.000000,3.000000,13.000000,13.000000,4.000000,0.000000,-2.000000,-2.000000
1294982.913439,-1.000000,-1.000000,-14.000000,-7.000000,-3.000000,-3.000000,-1.000000,1.000000
1294982.948116,0.000000,-1.000000,-2.000000,5.000000,1.000000,-1.000000,-2.000000,0.000000
1294982.948126,4.000000,6.000000,6.000000,5.000000,6.000000,-1.000000,0.000000,-2.000000
1294982.963112,-2.000000,-5.000000,2.000000,0.000000,3.000000,-2.000000,0.000000,-3.000000
1294982.963123,1.000000,4.000000,-2.000000,-6.000000,-3.000000,-1.000000,-3.000000,-3.000000
1294982.985601,0.000000,0.000000,11.000000,4.000000,1.000000,1.000000,2.000000,1.000000
1294982.985630,0.000000,-4.000000,-4.000000,-2.000000,-1.000000,-1.000000,-3.000000,2.000000
1294983.000811,1.000000,-11.000000,-14.000000,-6.000000,-1.000000,0.000000,0.000000,2.000000
1294983.000823,-1.000000,11.000000,19.000000,11.000000,9.000000,2.000000,-1.000000,1.000000
1294983.001285,1.000000,-11.000000,-8.000000,-5.000000,1.000000,1.000000,-2.000000,-2.000000
1294983.001293,0.000000,4.000000,-3.000000,-6.000000,-9.000000,-4.000000,-1.000000,0.000000
1294983.002167,-2.000000,0.000000,4.000000,18.000000,-4.000000,-3.000000,-2.000000,-1.000000
1294983.002175,-1.000000,-3.000000,-18.000000,-17.000000,3.000000,4.000000,0.000000,0.000000
1294983.002842,0.000000,-6.000000,6.000000,6.000000,3.000000,-3.000000,-2.000000,-4.000000
1294983.002850,1.000000,-1.000000,-10.000000,-7.000000,-1.000000,1.000000,-2.000000,-2.000000
1294983.003696,-1.000000,0.000000,3.000000,5.000000,-1.000000,-1.000000,1.000000,-4.000000
1294983.003704,1.000000,-2.000000,1.000000,-10.000000,0.000000,-1.000000,-1.000000,2.000000
1294983.031060,-1.000000,0.000000,-4.000000,8.000000,-3.000000,-4.000000,-4.000000,-3.000000
1294983.031069,1.000000,-1.000000,0.000000,-7.000000,3.000000,5.000000,4.000000,-3.000000
1294983.031510,-2.000000,-8.000000,-8.000000,0.000000,-4.000000,-6.000000,-4.000000,2.000000
1294983.031536,-1.000000,2.000000,-3.000000,-4.000000,-4.000000,0.000000,-3.000000,-3.000000
1294983.033004,-4.000000,0.000000,0.000000,5.000000,2.000000,1.000000,-3.000000,-3.000000
1294983.033013,-1.000000,-4.000000,-1.000000,-6.000000,-5.000000,0.000000,-3.000000,0.000000
1294983.053213,0.000000,4.000000,-1.000000,6.000000,4.000000,1.000000,1.000000,1.000000
1294983.053224,-1.000000,-1.000000,-8.000000,-4.000000,-2.000000,0.000000,0.000000,2.000000
1294983.075783,-1.000000,2.000000,15.000000,1.000000,0.000000,-2.000000,0.000000,1.000000
1294983.075796,0.000000,0.000000,-4.000000,-2.000000,-1.000000,-3.000000,0.000000,0.000000
1294983.091454,1.000000,0.000000,2.000000,6.000000,2.000000,1.000000,-1.000000,-2.000000
1294983.091477,-3.000000,-3.000000,0.000000,-8.000000,-6.000000,-4.000000,-3.000000,-5.000000
1294983.120629,-2.000000,0.000000,3.000000,-2.000000,1.000000,-2.000000,-4.000000,-2.000000
