# participant_id: P7
# gesture: baseline
# trial_number: 2
# stream_name: Myo_EMG
# stream_type: emg
# timestamp: 20260420_151414
# samples: 5382
# duration_sec: 30.383
# nominal_sample_rate: 200.0
# effective_sample_rate: 177.11
#
timestamp,emg_1,emg_2,emg_3,emg_4,emg_5,emg_6,emg_7,emg_8
1302746.001179,1.000000,1.000000,-2.000000,-9.000000,-4.000000,-2.000000,-2.000000,0.000000
1302746.001211,3.000000,0.000000,-7.000000,-9.000000,-8.000000,-3.000000,-1.000000,2.000000
1302746.008611,-2.000000,-4.000000,-4.000000,-6.000000,-4.000000,-5.000000,0.000000,0.000000
1302746.008622,-3.000000,-3.000000,0.000000,-2.000000,-3.000000,2.000000,-1.000000,-2.000000
1302746.016046,-6.000000,4.000000,9.000000,9.000000,11.000000,5.000000,0.000000,-6.000000
1302746.016056,0.000000,1.000000,-8.000000,-1.000000,0.000000,-6.000000,-2.000000,-4.000000
1302746.031225,3.000000,-3.000000,1.000000,-7.000000,-6.000000,-3.000000,2.000000,4.000000
1302746.031247,-1.000000,-1.000000,2.000000,6.000000,5.000000,4.000000,-4.000000,-1.000000
1302746.053594,-4.000000,0.000000,-1.000000,-2.000000,0.000000,-2.000000,-1.000000,-1.000000
1302746.053604,2.000000,0.000000,-9.000000,-13.000000,-9.000000,-4.000000,0.000000,6.000000
1302746.068833,-2.000000,3.000000,16.000000,12.000000,4.000000,4.000000,2.000000,-9.000000
1302746.068845,-2.000000,-3.000000,-5.000000,-4.000000,-6.000000,-3.000000,-3.000000,1.000000
1302746.091130,1.000000,1.000000,-8.000000,-8.000000,-7.000000,-2.000000,-2.000000,-2.000000
1302746.091151,2.000000,-2.000000,1.000000,5.000000,3.000000,6.000000,-3.000000,2.000000
1302746.113914,2.000000,-3.000000,-2.000000,-4.000000,-4.000000,-2.000000,-1.000000,0.000000
1302746.113927,-2.000000,-5.000000,-6.000000,-5.000000,-7.000000,-5.000000,-1.000000,7.000000
1302746.121193,3.000000,-2.000000,-7.000000,-9.000000,-9.000000,-3.000000,-3.000000,-1.000000
1302746.121206,1.000000,1.000000,2.000000,1.000000,0.000000,1.000000,-1.000000,2.000000
1302746.128442,-2.000000,1.000000,5.000000,7.000000,8.000000,3.000000,-3.000000,-4.000000
1302746.128453,1.000000,-3.000000,-1.000000,-4.000000,-9.000000,-6.000000,-2.000000,2.000000
1302746.128964,1.000000,-5.000000,-1.000000,0.000000,5.000000,5.000000,1.000000,0.000000
1302746.128983,0.000000,5.000000,0.000000,-2.000000,5.000000,-3.000000,-1.000000,0.000000
1302746.129539,-1.000000,-3.000000,-5.000000,-6.000000,-3.000000,-2.000000,-1.000000,-1.000000
1302746.129560,-4.000000,3.000000,3.000000,6.000000,-4.000000,-3.000000,-1.000000,-6.000000
1302746.130193,1.000000,-3.000000,-2.000000,-6.000000,-10.000000,-3.000000,1.000000,1.000000
1302746.130202,-2.000000,1.000000,-2.000000,5.000000,6.000000,2.000000,-1.000000,0.000000
1302746.130991,-2.000000,-1.000000,-1.000000,3.000000,7.000000,2.000000,-4.000000,-1.000000
1302746.130999,-1.000000,-3.000000,-3.000000,1.000000,-1.000000,2.000000,2.000000,-1.000000
1302746.136028,-4.000000,1.000000,2.000000,7.000000,-3.000000,1.000000,-1.000000,-5.000000
1302746.136045,2.000000,-1.000000,-8.000000,-11.000000,-4.000000,-3.000000,-1.000000,2.000000
1302746.151106,1.000000,2.000000,5.000000,4.000000,-6.000000,-5.000000,-2.000000,0.000000
1302746.151131,0.000000,-3.000000,0.000000,2.000000,0.000000,-3.000000,-1.000000,-4.000000
1302746.151718,1.000000,-2.000000,-7.000000,-8.000000,-6.000000,-3.000000,-1.000000,0.000000
1302746.151728,1.000000,2.000000,1.000000,4.000000,1.000000,1.000000,2.000000,-4.000000
1302746.196120,-6.000000,-1.000000,2.000000,3.000000,2.000000,4.000000,2.000000,-5.000000
1302746.196131,-4.000000,-2.000000,-1.000000,-3.000000,0.000000,0.000000,-3.000000,0.000000
1302746.203619,-3.000000,0.000000,-4.000000,0.000000,-1.000000,-6.000000,-2.000000,0.000000
1302746.203628,2.000000,2.000000,2.000000,8.000000,7.000000,4.000000,1.000000,-2.000000
1302746.226155,-4.000000,1.000000,2.000000,0.000000,-1.000000,-2.000000,-2.000000,-1.000000
1302746.226166,1.000000,-7.000000,-3.000000,-3.000000,-4.000000,-1.000000,-3.000000,3.000000
1302746.240942,-5.000000,-7.000000,-6.000000,-2.000000,-5.000000,-3.000000,-2.000000,0.000000
1302746.240957,-3.000000,0.000000,-2.000000,-2.000000,4.000000,0.000000,2.000000,-3.000000
1302746.249248,0.000000,-1.000000,-6.000000,-11.000000,-11.000000,-5.000000,-1.000000,3.000000
1302746.249258,5.000000,3.000000,3.000000,2.000000,0.000000,0.000000,0.000000,-1.000000
1302746.249762,-2.000000,3.000000,6.000000,6.000000,4.000000,2.000000,-5.000000,-4.000000
1302746.249770,1.000000,-1.000000,-3.000000,-6.000000,-2.000000,0.000000,-3.000000,1.000000
1302746.250284,1.000000,-2.000000,-4.000000,-1.000000,1.000000,-4.000000,-1.000000,1.000000
1302746.250292,-3.000000,2.000000,1.000000,7.000000,6.000000,0.000000,5.000000,-4.000000
1302746.251117,-2.000000,2.000000,-1.000000,-3.000000,-2.000000,-4.000000,0.000000,0.000000
1302746.251126,0.000000,0.000000,-1.000000,-7.000000,-1.000000,-3.000000,-1.000000,4.000000
1302746.271182,1.000000,-1.000000,-8.000000,-5.000000,-7.000000,-5.000000,1.000000,0.000000
1302746.271192,0.000000,0.000000,0.000000,-2.000000,3.000000,1.000000,0.000000,0.000000
1302746.272639,-5.000000,-11.000000,-2.000000,-4.000000,6.000000,-1.000000,0.000000,-5.000000
1302746.272657,-3.000000,-4.000000,-2.000000,0.000000,0.000000,-3.000000,-1.000000,0.000000
1302746.273197,0.000000,-3.000000,3.000000,4.000000,-1.000000,1.000000,-1.000000,-1.000000
1302746.273213,0.000000,1.000000,0.000000,4.000000,7.000000,0.000000,-1.000000,-4.000000
1302746.286061,-2.000000,-4.000000,-3.000000,0.000000,-4.000000,-4.000000,-2.000000,-3.000000
1302746.286071,1.000000,-1.000000,-5.000000,-2.000000,-5.000000,-1.000000,-2.000000,1.000000
1302746.308707,2.000000,0.000000,2.000000,-1.000000,3.000000,-4.000000,-3.000000,-1.000000
1302746.308718,-2.000000,0.000000,2.000000,3.000000,1.000000,-1.000000,0.000000,0.000000
1302746.316190,-2.000000,-4.000000,-1.000000,-9.000000,-7.000000,-3.000000,1.000000,2.000000
1302746.316218,1.000000,-2.000000,2.000000,-4.000000,-5.000000,-1.000000,1.000000,0.000000
1302746.330928,-2.000000,1.000000,1.000000,4.000000,2.000000,1.000000,0.000000,-3.000000
1302746.330938,-4.000000,2.000000,0.000000,-8.000000,-1.000000,-4.000000,1.000000,0.000000
1302746.332635,0.000000,2.000000,3.000000,9.000000,6.000000,0.000000,-3.000000,-4.000000
1302746.332646,5.000000,2.000000,1.000000,8.000000,7.000000,3.000000,0.000000,-2.000000
1302746.346570,0.000000,0.000000,2.000000,0.000000,-1.000000,-4.000000,-4.000000,1.000000
1302746.346580,-1.000000,2.000000,-2.000000,-3.000000,-5.000000,-1.000000,-1.000000,1.000000
1302746.347355,-4.000000,2.000000,2.000000,2.000000,-1.000000,0.000000,1.000000,-1.000000
1302746.347363,0.000000,-5.000000,3.000000,-3.000000,-5.000000,-1.000000,-4.000000,0.000000
1302746.354200,1.000000,-4.000000,-8.000000,-10.000000,-6.000000,-2.000000,3.000000,5.000000
1302746.354213,-2.000000,1.000000,-1.000000,2.000000,0.000000,0.000000,-3.000000,-2.000000
1302746.368776,0.000000,0.000000,-3.000000,-7.000000,-2.000000,1.000000,-4.000000,-2.000000
1302746.368788,0.000000,-2.000000,-3.000000,3.000000,-1.000000,3.000000,-1.000000,-1.000000
1302746.391653,-1.000000,0.000000,-7.000000,-3.000000,-3.000000,0.000000,0.000000,3.000000
1302746.391663,-4.000000,1.000000,1.000000,6.000000,7.000000,0.000000,1.000000,1.000000
1302746.392394,-3.000000,-3.000000,-3.000000,-4.000000,-1.000000,-5.000000,-2.000000,-1.000000
1302746.392402,0.000000,-2.000000,-3.000000,3.000000,-3.000000,-4.000000,2.000000,0.000000
1302746.413588,0.000000,-1.000000,-4.000000,-6.000000,0.000000,0.000000,0.000000,-1.000000
1302746.413604,-1.000000,1.000000,-1.000000,-4.000000,-3.000000,-2.000000,-3.000000,-1.000000
1302746.428882,-1.000000,-4.000000,-4.000000,-7.000000,-4.000000,-4.000000,-2.000000,-1.000000
1302746.428912,-4.000000,0.000000,0.000000,-4.000000,-6.000000,3.000000,3.000000,-4.000000
1302746.450965,-1.000000,0.000000,2.000000,2.000000,1.000000,0.000000,-4.000000,-5.000000
1302746.450983,-5.000000,-1.000000,-1.000000,-5.000000,-3.000000,0.000000,-3.000000,-1.000000
1302746.473697,-1.000000,-5.000000,-5.000000,-3.000000,-2.000000,0.000000,3.000000,0.000000
1302746.473708,-3.000000,2.000000,4.000000,12.000000,3.000000,1.000000,-2.000000,-6.000000
1302746.489201,1.000000,-1.000000,-2.000000,-4.000000,-3.000000,1.000000,0.000000,-1.000000
1302746.489212,-3.000000,1.000000,-5.000000,-4.000000,-11.000000,-3.000000,-1.000000,0.000000
1302746.489675,-1.000000,-1.000000,4.000000,6.000000,1.000000,-4.000000,-2.000000,1.000000
1302746.489685,2.000000,1.000000,-1.000000,-9.000000,1.000000,-4.000000,-3.000000,-2.000000
1302746.490950,1.000000,-5.000000,-6.000000,-5.000000,-6.000000,-5.000000,-1.000000,1.000000
1302746.490960,-1.000000,1.000000,3.000000,3.000000,0.000000,2.000000,-2.000000,0.000000
1302746.491762,-4.000000,-2.000000,-1.000000,3.000000,4.000000,2.000000,2.000000,-3.000000
1302746.491772,2.000000,-1.000000,-4.000000,-4.000000,-7.000000,-4.000000,0.000000,-1.000000
1302746.503993,0.000000,-2.000000,-2.000000,-2.000000,4.000000,1.000000,-2.000000,-2.000000
1302746.504035,1.000000,-4.000000,2.000000,-7.000000,-3.000000,-3.000000,-1.000000,0.000000
1302746.504862,-3.000000,-3.000000,-6.000000,-3.000000,-5.000000,-8.000000,0.000000,1.000000
1302746.504877,0.000000,-2.000000,3.000000,3.000000,-2.000000,2.000000,-3.000000,-3.000000
1302746.549158,1.000000,-3.000000,0.000000,-1.000000,3.000000,2.000000,-2.000000,-4.000000
1302746.549189,0.000000,0.000000,-1.000000,2.000000,-1.000000,-1.000000,-2.000000,0.000000
1302746.549527,0.000000,0.000000,-3.000000,7.000000,-1.000000,2.000000,0.000000,-1.000000
1302746.549534,-3.000000,-3.000000,3.000000,6.000000,1.000000,-1.000000,1.000000,-2.000000
1302746.550947,0.000000,0.000000,-3.000000,-1.000000,3.000000,-1.000000,-2.000000,2.000000
1302746.550957,5.000000,-1.000000,-1.000000,-7.000000,-5.000000,-2.000000,-6.000000,-5.000000
1302746.551733,-1.000000,-5.000000,-2.000000,1.000000,0.000000,2.000000,1.000000,-2.000000
1302746.551741,-4.000000,0.000000,1.000000,-1.000000,-3.000000,-2.000000,-2.000000,-3.000000
1302746.563509,-1.000000,-3.000000,-5.000000,-2.000000,-8.000000,-2.000000,0.000000,1.000000
1302746.563536,2.000000,3.000000,1.000000,3.000000,4.000000,1.000000,0.000000,-1.000000
1302746.571295,-3.000000,-1.000000,-1.000000,2.000000,2.000000,1.000000,0.000000,-3.000000
1302746.571307,0.000000,-6.000000,-5.000000,-1.000000,-7.000000,-2.000000,-3.000000,-1.000000
1302746.608634,0.000000,-2.000000,-2.000000,4.000000,2.000000,1.000000,0.000000,1.000000
1302746.608644,-1.000000,5.000000,2.000000,5.000000,2.000000,3.000000,-1.000000,-1.000000
1302746.616002,-2.000000,-4.000000,-5.000000,0.000000,-2.000000,-1.000000,0.000000,0.000000
1302746.616031,0.000000,-3.000000,-7.000000,-7.000000,-5.000000,1.000000,1.000000,1.000000
1302746.631324,0.000000,-1.000000,-1.000000,-5.000000,2.000000,-3.000000,-3.000000,-3.000000
1302746.631335,0.000000,-5.000000,-6.000000,-8.000000,-6.000000,0.000000,-1.000000,1.000000
1302746.646405,-1.000000,-8.000000,-3.000000,-4.000000,-2.000000,-7.000000,0.000000,-1.000000
1302746.646441,-2.000000,-6.000000,-3.000000,6.000000,2.000000,5.000000,-3.000000,-2.000000
1302746.676323,-1.000000,-1.000000,-3.000000,-3.000000,0.000000,0.000000,-2.000000,-1.000000
1302746.676334,-2.000000,0.000000,1.000000,-1.000000,-2.000000,-3.000000,1.000000,-1.000000
1302746.683613,-2.000000,-2.000000,-2.000000,6.000000,-3.000000,-4.000000,-1.000000,2.000000
1302746.683623,2.000000,3.000000,4.000000,5.000000,5.000000,4.000000,-3.000000,-3.000000
1302746.706220,-3.000000,-5.000000,-1.000000,0.000000,6.000000,0.000000,2.000000,-3.000000
1302746.706233,-4.000000,-4.000000,-4.000000,-6.000000,-4.000000,-2.000000,-2.000000,1.000000
1302746.713495,-2.000000,-2.000000,2.000000,0.000000,9.000000,2.000000,-5.000000,0.000000
1302746.713505,-1.000000,-1.000000,-9.000000,2.000000,-1.000000,-4.000000,1.000000,-2.000000
1302746.728564,0.000000,0.000000,2.000000,-3.000000,0.000000,-3.000000,-5.000000,-1.000000
1302746.728576,1.000000,1.000000,2.000000,-4.000000,-3.000000,-5.000000,0.000000,2.000000
1302746.729049,-2.000000,-3.000000,-1.000000,-5.000000,-3.000000,0.000000,-3.000000,-3.000000
1302746.729063,-4.000000,0.000000,0.000000,-4.000000,-2.000000,-3.000000,0.000000,0.000000
1302746.730302,1.000000,1.000000,-3.000000,3.000000,0.000000,0.000000,-2.000000,-1.000000
1302746.730312,-1.000000,-6.000000,1.000000,-6.000000,-7.000000,-1.000000,-2.000000,0.000000
1302746.731004,-1.000000,-1.000000,-4.000000,-5.000000,-6.000000,-1.000000,-1.000000,3.000000
1302746.731016,-3.000000,-1.000000,-2.000000,-4.000000,-3.000000,0.000000,0.000000,-2.000000
1302746.731887,-1.000000,4.000000,6.000000,2.000000,-3.000000,-1.000000,-3.000000,-2.000000
1302746.731897,-3.000000,0.000000,2.000000,-1.000000,-5.000000,1.000000,0.000000,-3.000000
1302746.751505,-2.000000,0.000000,1.000000,1.000000,-1.000000,-1.000000,0.000000,-4.000000
1302746.751522,-3.000000,-3.000000,-2.000000,-2.000000,-3.000000,0.000000,-4.000000,2.000000
1302746.752334,-1.000000,2.000000,1.000000,5.000000,0.000000,0.000000,-1.000000,-4.000000
1302746.752353,2.000000,2.000000,-1.000000,-7.000000,-1.000000,-1.000000,-2.000000,3.000000
1302746.766403,-5.000000,-4.000000,-6.000000,-9.000000,-5.000000,-3.000000,-2.000000,0.000000
1302746.766415,-3.000000,-1.000000,-2.000000,3.000000,4.000000,-1.000000,-3.000000,-1.000000
1302746.781188,-1.000000,1.000000,-1.000000,-5.000000,0.000000,-1.000000,-1.000000,0.000000
1302746.781198,2.000000,1.000000,0.000000,-1.000000,-6.000000,0.000000,0.000000,0.000000
1302746.803705,1.000000,1.000000,-3.000000,-1.000000,0.000000,1.000000,0.000000,-4.000000
1302746.803716,-5.000000,0.000000,1.000000,2.000000,6.000000,1.000000,0.000000,-3.000000
1302746.826358,-3.000000,-4.000000,-3.000000,2.000000,-4.000000,-1.000000,-3.000000,-3.000000
1302746.826383,0.000000,-1.000000,-7.000000,-8.000000,-2.000000,2.000000,1.000000,-1.000000
1302746.827396,-3.000000,-1.000000,2.000000,4.000000,5.000000,1.000000,-1.000000,-1.000000
1302746.827403,2.000000,3.000000,2.000000,6.000000,6.000000,-4.000000,0.000000,-1.000000
1302746.827813,1.000000,-1.000000,-5.000000,-7.000000,-7.000000,-4.000000,-5.000000,3.000000
1302746.827821,-4.000000,0.000000,-4.000000,1.000000,-5.000000,2.000000,0.000000,1.000000
1302746.829330,4.000000,3.000000,4.000000,0.000000,-3.000000,-4.000000,1.000000,-3.000000
1302746.829374,5.000000,0.000000,-3.000000,-7.000000,-2.000000,1.000000,-1.000000,-1.000000
1302746.830209,-1.000000,2.000000,2.000000,-3.000000,1.000000,0.000000,-2.000000,0.000000
1302746.830260,0.000000,1.000000,7.000000,12.000000,4.000000,2.000000,-5.000000,-3.000000
1302746.841753,0.000000,-1.000000,-2.000000,-4.000000,-3.000000,0.000000,1.000000,-4.000000
1302746.841771,0.000000,-3.000000,0.000000,0.000000,-5.000000,-2.000000,0.000000,-2.000000
1302746.848509,-3.000000,1.000000,-1.000000,-2.000000,2.000000,0.000000,-2.000000,-4.000000
1302746.848519,-1.000000,-2.000000,-1.000000,-1.000000,-4.000000,-1.000000,-4.000000,-1.000000
1302746.864499,1.000000,-3.000000,-3.000000,-2.000000,-3.000000,-1.000000,-2.000000,3.000000
1302746.864515,-1.000000,0.000000,3.000000,4.000000,-1.000000,1.000000,-3.000000,-1.000000
1302746.865001,3.000000,0.000000,0.000000,-1.000000,0.000000,-1.000000,0.000000,-2.000000
1302746.865009,0.000000,1.000000,1.000000,-10.000000,-5.000000,-2.000000,-2.000000,4.000000
1302746.901297,0.000000,2.000000,0.000000,5.000000,1.000000,0.000000,-2.000000,1.000000
1302746.901308,-5.000000,2.000000,3.000000,0.000000,0.000000,4.000000,1.000000,1.000000
1302746.908824,-2.000000,-2.000000,-4.000000,-7.000000,-4.000000,-3.000000,0.000000,-4.000000
1302746.908835,2.000000,-2.000000,-3.000000,-1.000000,1.000000,-2.000000,-1.000000,0.000000
1302746.946720,-7.000000,2.000000,0.000000,4.000000,1.000000,-1.000000,-2.000000,-6.000000
1302746.946730,-4.000000,-6.000000,-2.000000,-6.000000,-4.000000,-4.000000,-3.000000,-1.000000
1302746.947264,0.000000,-2.000000,1.000000,-3.000000,-2.000000,-5.000000,-2.000000,0.000000
1302746.947273,-2.000000,-1.000000,-2.000000,-4.000000,-2.000000,1.000000,-1.000000,-2.000000
1302746.948476,1.000000,-1.000000,0.000000,2.000000,1.000000,-3.000000,-4.000000,0.000000
1302746.948484,-3.000000,0.000000,-6.000000,-11.000000,-5.000000,-4.000000,0.000000,1.000000
1302746.949228,-2.000000,1.000000,-1.000000,1.000000,0.000000,3.000000,-2.000000,2.000000
1302746.949236,-1.000000,0.000000,4.000000,2.000000,7.000000,3.000000,1.000000,-4.000000
1302746.961728,2.000000,-2.000000,-3.000000,1.000000,-4.000000,-2.000000,-1.000000,0.000000
1302746.961737,0.000000,1.000000,1.000000,0.000000,0.000000,3.000000,-1.000000,2.000000
1302746.968533,0.000000,-4.000000,-2.000000,-6.000000,-7.000000,-3.000000,-4.000000,-1.000000
1302746.968545,-1.000000,-3.000000,-7.000000,-1.000000,-7.000000,-6.000000,-4.000000,-1.000000
1302746.984582,-1.000000,-3.000000,1.000000,4.000000,2.000000,-2.000000,1.000000,-1.000000
1302746.984592,-1.000000,2.000000,8.000000,2.000000,3.000000,-2.000000,-1.000000,1.000000
1302746.985485,-1.000000,1.000000,-4.000000,-3.000000,-1.000000,1.000000,-2.000000,-1.000000
1302746.985494,3.000000,0.000000,-4.000000,0.000000,-1.000000,-4.000000,1.000000,1.000000
1302746.998840,-3.000000,-2.000000,2.000000,5.000000,0.000000,2.000000,-1.000000,-3.000000
1302746.998852,-2.000000,0.000000,-5.000000,3.000000,-1.000000,1.000000,-4.000000,1.000000
1302747.006731,3.000000,-1.000000,-3.000000,-4.000000,-7.000000,-5.000000,-1.000000,-1.000000
1302747.006742,-1.000000,1.000000,0.000000,5.000000,2.000000,1.000000,-3.000000,-2.000000
1302747.043836,-3.000000,-2.000000,1.000000,-2.000000,-4.000000,-6.000000,-4.000000,1.000000
1302747.043847,0.000000,-7.000000,-7.000000,1.000000,-4.000000,-6.000000,-2.000000,1.000000
1302747.058671,-2.000000,0.000000,0.000000,2.000000,6.000000,-1.000000,1.000000,-2.000000
1302747.058688,-1.000000,-1.000000,0.000000,-1.000000,0.000000,-6.000000,-2.000000,-2.000000
1302747.081027,-3.000000,-5.000000,-8.000000,-7.000000,-2.000000,-1.000000,-2.000000,-3.000000
1302747.081060,1.000000,0.000000,5.000000,8.000000,4.000000,1.000000,-4.000000,2.000000
1302747.081531,-3.000000,0.000000,0.000000,-2.000000,0.000000,1.000000,-4.000000,-1.000000
1302747.081560,1.000000,-1.000000,2.000000,-3.000000,-4.000000,-4.000000,0.000000,-1.000000
1302747.082768,0.000000,-3.000000,-5.000000,-1.000000,-1.000000,2.000000,-1.000000,4.000000
1302747.082791,-1.000000,0.000000,2.000000,2.000000,0.000000,-4.000000,4.000000,0.000000
1302747.083721,0.000000,1.000000,-2.000000,-5.000000,1.000000,-2.000000,-1.000000,-2.000000
1302747.083741,1.000000,2.000000,3.000000,2.000000,-7.000000,-1.000000,-1.000000,5.000000
1302747.104042,0.000000,-4.000000,-7.000000,-4.000000,-7.000000,2.000000,0.000000,0.000000
1302747.104053,1.000000,-2.000000,-2.000000,-1.000000,7.000000,2.000000,-2.000000,0.000000
1302747.105422,-1.000000,3.000000,8.000000,2.000000,0.000000,1.000000,-1.000000,0.000000
1302747.105433,1.000000,-2.000000,-6.000000,0.000000,0.000000,1.000000,1.000000,1.000000
1302747.106223,-4.000000,3.000000,-6.000000,-6.000000,0.000000,1.000000,-1.000000,-2.000000
1302747.106233,-3.000000,-1.000000,3.000000,3.000000,0.000000,0.000000,-1.000000,-5.000000
1302747.126126,-2.000000,3.000000,5.000000,2.000000,-1.000000,-3.000000,-1.000000,0.000000
1302747.126135,0.000000,-4.000000,-4.000000,-6.000000,-7.000000,-3.000000,-2.000000,-1.000000
1302747.141322,-1.000000,-5.000000,-2.000000,-4.000000,1.000000,-1.000000,0.000000,-1.000000
1302747.141333,1.000000,-4.000000,0.000000,4.000000,2.000000,-1.000000,-3.000000,-4.000000
1302747.178532,-3.000000,0.000000,-5.000000,0.000000,-1.000000,-4.000000,1.000000,0.000000
1302747.178543,-3.000000,5.000000,-1.000000,0.000000,0.000000,2.000000,0.000000,1.000000
1302747.178963,-2.000000,-3.000000,-6.000000,-3.000000,2.000000,0.000000,2.000000,-2.000000
1302747.178973,0.000000,-4.000000,-1.000000,8.000000,1.000000,-1.000000,0.000000,2.000000
1302747.180173,1.000000,-1.000000,-6.000000,-7.000000,-6.000000,-4.000000,3.000000,1.000000
1302747.180221,-3.000000,0.000000,-1.000000,-2.000000,-2.000000,-1.000000,0.000000,2.000000
1302747.181091,-4.000000,1.000000,1.000000,4.000000,-2.000000,-2.000000,-4.000000,-4.000000
1302747.181100,3.000000,-1.000000,-4.000000,-6.000000,-5.000000,-5.000000,-1.000000,2.000000
1302747.182444,3.000000,-3.000000,2.000000,5.000000,5.000000,1.000000,0.000000,-1.000000
1302747.182462,-4.000000,-2.000000,0.000000,2.000000,-1.000000,-1.000000,1.000000,-3.000000
1302747.185889,-2.000000,-1.000000,-3.000000,-3.000000,0.000000,-1.000000,-2.000000,0.000000
1302747.185897,-4.000000,-3.000000,-3.000000,-5.000000,-3.000000,-1.000000,1.000000,-2.000000
1302747.223575,-2.000000,2.000000,2.000000,6.000000,7.000000,1.000000,0.000000,-1.000000
1302747.223609,1.000000,-3.000000,-1.000000,-9.000000,-6.000000,-3.000000,-4.000000,0.000000
1302747.238732,-1.000000,-2.000000,-6.000000,-5.000000,-3.000000,-1.000000,0.000000,-2.000000
1302747.238742,-2.000000,-1.000000,2.000000,3.000000,2.000000,3.000000,-1.000000,-2.000000
1302747.253757,0.000000,-1.000000,0.000000,0.000000,-2.000000,-2.000000,2.000000,-3.000000
1302747.253779,1.000000,0.000000,-3.000000,-8.000000,-4.000000,-2.000000,-4.000000,-1.000000
1302747.261206,-1.000000,0.000000,-1.000000,1.000000,2.000000,3.000000,-1.000000,2.000000
1302747.261228,0.000000,-3.000000,2.000000,2.000000,0.000000,5.000000,-3.000000,-3.000000
1302747.283611,-3.000000,-5.000000,-1.000000,-3.000000,-6.000000,-4.000000,1.000000,0.000000
1302747.283621,1.000000,1.000000,4.000000,-2.000000,7.000000,3.000000,1.000000,-3.000000
1302747.306229,-6.000000,3.000000,2.000000,4.000000,-3.000000,2.000000,-3.000000,-1.000000
1302747.306240,-2.000000,-1.000000,4.000000,3.000000,0.000000,-4.000000,2.000000,1.000000
1302747.336411,-3.000000,3.000000,-4.000000,-4.000000,-4.000000,-4.000000,0.000000,-3.000000
1302747.336430,-1.000000,2.000000,-2.000000,-3.000000,-1.000000,-6.000000,1.000000,0.000000
1302747.338379,-5.000000,-6.000000,-3.000000,-7.000000,-1.000000,-4.000000,-1.000000,0.000000
1302747.338546,-2.000000,-2.000000,2.000000,6.000000,2.000000,1.000000,0.000000,-3.000000
1302747.339214,-3.000000,2.000000,2.000000,6.000000,7.000000,1.000000,2.000000,-5.000000
1302747.339286,-4.000000,-5.000000,1.000000,-5.000000,-5.000000,-3.000000,1.000000,-2.000000
1302747.339356,1.000000,1.000000,-1.000000,-2.000000,3.000000,-4.000000,-3.000000,-1.000000
1302747.339361,0.000000,0.000000,0.000000,4.000000,-1.000000,-1.000000,-4.000000,2.000000
1302747.343868,0.000000,0.000000,2.000000,-1.000000,2.000000,0.000000,-2.000000,-7.000000
1302747.343878,-3.000000,-4.000000,-3.000000,-1.000000,-1.000000,-1.000000,-1.000000,0.000000
1302747.381535,0.000000,-4.000000,-1.000000,-4.000000,-4.000000,-1.000000,-2.000000,3.000000
1302747.381556,2.000000,3.000000,9.000000,8.000000,7.000000,1.000000,2.000000,0.000000
1302747.396236,-3.000000,-3.000000,-3.000000,-1.000000,0.000000,-1.000000,3.000000,-2.000000
1302747.396256,-5.000000,-8.000000,-9.000000,-12.000000,-4.000000,-6.000000,1.000000,-1.000000
1302747.418752,0.000000,-1.000000,1.000000,4.000000,-1.000000,2.000000,-2.000000,-2.000000
1302747.418764,-5.000000,-2.000000,-2.000000,-1.000000,3.000000,0.000000,-4.000000,-2.000000
1302747.419225,1.000000,0.000000,-3.000000,-4.000000,-4.000000,-3.000000,-1.000000,1.000000
1302747.419233,-1.000000,-4.000000,-6.000000,0.000000,-2.000000,0.000000,0.000000,-1.000000
1302747.420306,-2.000000,1.000000,4.000000,5.000000,5.000000,1.000000,1.000000,-2.000000
1302747.420314,0.000000,-3.000000,-5.000000,-5.000000,-2.000000,1.000000,1.000000,-1.000000
1302747.421168,1.000000,1.000000,-3.000000,-3.000000,-3.000000,-4.000000,1.000000,3.000000
1302747.421182,-1.000000,-3.000000,2.000000,2.000000,3.000000,3.000000,-2.000000,-2.000000
1302747.422385,-3.000000,-6.000000,-5.000000,-5.000000,-1.000000,-1.000000,-4.000000,-2.000000
1302747.422393,-2.000000,0.000000,-2.000000,0.000000,-12.000000,-3.000000,1.000000,0.000000
1302747.433601,0.000000,-1.000000,2.000000,-1.000000,4.000000,2.000000,-1.000000,2.000000
1302747.433611,1.000000,-1.000000,0.000000,-5.000000,-1.000000,1.000000,1.000000,-2.000000
1302747.441779,-3.000000,-1.000000,-5.000000,-8.000000,-7.000000,-4.000000,3.000000,-1.000000
1302747.441788,-2.000000,-3.000000,1.000000,1.000000,0.000000,-1.000000,-1.000000,1.000000
1302747.455979,-4.000000,2.000000,3.000000,3.000000,6.000000,-1.000000,-3.000000,0.000000
1302747.455993,-1.000000,1.000000,2.000000,4.000000,-1.000000,-1.000000,2.000000,-3.000000
1302747.457325,-2.000000,0.000000,-3.000000,-1.000000,3.000000,-1.000000,-3.000000,1.000000
1302747.457341,-2.000000,-1.000000,5.000000,2.000000,2.000000,4.000000,1.000000,-2.000000
1302747.463417,-1.000000,-1.000000,-5.000000,-3.000000,-2.000000,0.000000,-2.000000,-3.000000
1302747.463440,-2.000000,-10.000000,-3.000000,-4.000000,-7.000000,-5.000000,0.000000,2.000000
1302747.501071,-1.000000,0.000000,0.000000,0.000000,-3.000000,-1.000000,1.000000,0.000000
1302747.501081,0.000000,-1.000000,1.000000,5.000000,-2.000000,-1.000000,0.000000,-1.000000
1302747.516313,0.000000,-1.000000,-3.000000,-14.000000,-9.000000,-1.000000,-1.000000,0.000000
1302747.516324,-1.000000,-5.000000,1.000000,-3.000000,-1.000000,5.000000,-4.000000,-4.000000
1302747.538957,-3.000000,-1.000000,-4.000000,-2.000000,2.000000,-2.000000,-6.000000,-2.000000
1302747.539078,-1.000000,2.000000,-1.000000,-2.000000,0.000000,-1.000000,-1.000000,1.000000
1302747.539352,-3.000000,-5.000000,-4.000000,-2.000000,0.000000,-7.000000,-3.000000,1.000000
1302747.539369,0.000000,3.000000,3.000000,8.000000,3.000000,4.000000,-2.000000,-1.000000
1302747.540552,0.000000,0.000000,0.000000,-4.000000,-2.000000,1.000000,0.000000,1.000000
1302747.540566,1.000000,-6.000000,-9.000000,-2.000000,-4.000000,0.000000,1.000000,-2.000000
1302747.541018,-2.000000,0.000000,1.000000,-1.000000,-6.000000,-4.000000,1.000000,-2.000000
1302747.541048,-5.000000,0.000000,0.000000,0.000000,4.000000,-2.000000,-2.000000,-4.000000
1302747.542846,0.000000,0.000000,2.000000,-1.000000,-2.000000,-3.000000,0.000000,2.000000
1302747.542864,-4.000000,-5.000000,-4.000000,4.000000,0.000000,0.000000,0.000000,0.000000
1302747.546307,2.000000,4.000000,2.000000,-1.000000,0.000000,1.000000,0.000000,-1.000000
1302747.546372,0.000000,-5.000000,-1.000000,3.000000,-1.000000,-5.000000,-1.000000,-3.000000
1302747.561901,1.000000,-3.000000,0.000000,-3.000000,-1.000000,0.000000,0.000000,3.000000
1302747.561913,-2.000000,4.000000,2.000000,4.000000,3.000000,-2.000000,0.000000,-1.000000
1302747.583714,0.000000,-1.000000,-3.000000,-10.000000,-2.000000,0.000000,-2.000000,-4.000000
1302747.583752,-1.000000,-6.000000,-10.000000,-8.000000,-4.000000,-5.000000,0.000000,4.000000
1302747.613935,-3.000000,0.000000,0.000000,3.000000,2.000000,8.000000,-2.000000,0.000000
1302747.613953,1.000000,-1.000000,1.000000,0.000000,1.000000,-1.000000,0.000000,-2.000000
1302747.621079,-1.000000,6.000000,1.000000,-3.000000,-1.000000,-1.000000,3.000000,2.000000
1302747.621107,-4.000000,-5.000000,0.000000,-2.000000,-2.000000,0.000000,-2.000000,-2.000000
1302747.658831,3.000000,-1.000000,1.000000,7.000000,5.000000,2.000000,1.000000,-2.000000
1302747.658856,-3.000000,-1.000000,2.000000,-2.000000,-1.000000,-1.000000,1.000000,0.000000
1302747.673472,-1.000000,1.000000,-2.000000,1.000000,-4.000000,-6.000000,0.000000,-2.000000
1302747.673489,-1.000000,2.000000,1.000000,2.000000,2.000000,1.000000,-1.000000,-3.000000
1302747.674680,-4.000000,0.000000,-5.000000,2.000000,-4.000000,-3.000000,-3.000000,3.000000
1302747.674709,5.000000,-1.000000,-2.000000,-2.000000,-1.000000,-2.000000,-3.000000,-3.000000
1302747.675312,-2.000000,-4.000000,1.000000,1.000000,-1.000000,0.000000,-2.000000,0.000000
1302747.675338,0.000000,0.000000,1.000000,2.000000,2.000000,0.000000,0.000000,-1.000000
1302747.695895,3.000000,2.000000,-2.000000,-7.000000,-8.000000,-1.000000,-2.000000,-1.000000
1302747.695905,1.000000,-4.000000,-1.000000,3.000000,0.000000,1.000000,-2.000000,0.000000
1302747.697348,-1.000000,-4.000000,-8.000000,-8.000000,-1.000000,-5.000000,-2.000000,-2.000000
1302747.697362,2.000000,-1.000000,-1.000000,-11.000000,2.000000,-2.000000,-3.000000,0.000000
1302747.710987,-1.000000,-4.000000,-1.000000,2.000000,1.000000,-2.000000,2.000000,-2.000000
1302747.710997,-1.000000,0.000000,-3.000000,2.000000,5.000000,0.000000,0.000000,-2.000000
1302747.733749,-2.000000,-2.000000,-3.000000,-3.000000,-1.000000,-4.000000,0.000000,-1.000000
1302747.733760,0.000000,-3.000000,-4.000000,-9.000000,-4.000000,-3.000000,-2.000000,0.000000
1302747.741159,1.000000,-1.000000,5.000000,-3.000000,4.000000,1.000000,-1.000000,-1.000000
1302747.741189,0.000000,-1.000000,-6.000000,-4.000000,-3.000000,-1.000000,-1.000000,0.000000
1302747.778681,1.000000,-10.000000,-8.000000,-12.000000,-10.000000,1.000000,-2.000000,-3.000000
1302747.778703,-1.000000,-1.000000,6.000000,-3.000000,2.000000,-2.000000,-1.000000,-1.000000
1302747.793799,0.000000,-1.000000,2.000000,5.000000,3.000000,5.000000,2.000000,0.000000
1302747.793812,-1.000000,-1.000000,-2.000000,-4.000000,0.000000,-3.000000,-4.000000,-1.000000
1302747.794787,0.000000,0.000000,-2.000000,-1.000000,3.000000,-3.000000,4.000000,0.000000
1302747.794796,1.000000,0.000000,4.000000,1.000000,2.000000,1.000000,-3.000000,-1.000000
1302747.795254,-2.000000,-3.000000,-4.000000,-2.000000,-4.000000,0.000000,-2.000000,1.000000
1302747.795261,0.000000,-3.000000,-6.000000,-4.000000,-7.000000,-4.000000,-2.000000,3.000000
1302747.796546,0.000000,2.000000,2.000000,3.000000,-1.000000,-2.000000,0.000000,-1.000000
1302747.796554,0.000000,0.000000,-3.000000,2.000000,2.000000,-1.000000,2.000000,-3.000000
1302747.800912,1.000000,-4.000000,1.000000,3.000000,6.000000,2.000000,-1.000000,-1.000000
1302747.800920,-2.000000,-3.000000,-3.000000,-4.000000,0.000000,1.000000,3.000000,-2.000000
1302747.816146,-1.000000,0.000000,1.000000,-4.000000,-6.000000,2.000000,-3.000000,-2.000000
1302747.816156,-3.000000,1.000000,2.000000,9.000000,5.000000,4.000000,4.000000,-2.000000
1302747.838596,0.000000,0.000000,-3.000000,-5.000000,-4.000000,2.000000,0.000000,2.000000
1302747.838607,-4.000000,0.000000,-5.000000,-9.000000,-3.000000,0.000000,2.000000,2.000000
1302747.860990,-4.000000,0.000000,2.000000,3.000000,1.000000,-2.000000,-1.000000,-1.000000
1302747.861001,0.000000,-1.000000,-2.000000,-1.000000,-2.000000,2.000000,0.000000,-2.000000
1302747.891317,-4.000000,-3.000000,-6.000000,-6.000000,-1.000000,-4.000000,-3.000000,-1.000000
1302747.891328,3.000000,-5.000000,-1.000000,-4.000000,-5.000000,-3.000000,2.000000,-2.000000
1302747.898647,-2.000000,-1.000000,3.000000,2.000000,-2.000000,0.000000,-1.000000,-3.000000
1302747.898658,-3.000000,-2.000000,-1.000000,1.000000,-1.000000,-3.000000,0.000000,-1.000000
1302747.936435,-1.000000,-2.000000,-2.000000,-8.000000,0.000000,0.000000,-4.000000,0.000000
1302747.936447,-1.000000,0.000000,4.000000,2.000000,4.000000,1.000000,-2.000000,-3.000000
1302747.951021,-1.000000,1.000000,4.000000,-2.000000,2.000000,1.000000,1.000000,-2.000000
1302747.951031,1.000000,1.000000,-6.000000,-1.000000,2.000000,1.000000,1.000000,0.000000
1302747.973559,-1.000000,-7.000000,-5.000000,-2.000000,-7.000000,-4.000000,-2.000000,-5.000000
1302747.973569,0.000000,0.000000,2.000000,-2.000000,0.000000,0.000000,0.000000,2.000000
1302747.981322,-1.000000,-2.000000,0.000000,8.000000,6.000000,2.000000,-2.000000,1.000000
1302747.981333,3.000000,0.000000,5.000000,4.000000,6.000000,3.000000,0.000000,0.000000
1302748.012022,4.000000,-2.000000,-1.000000,0.000000,0.000000,-1.000000,0.000000,-4.000000
1302748.012305,-2.000000,-2.000000,-4.000000,-4.000000,-1.000000,-3.000000,0.000000,1.000000
1302748.012672,-2.000000,1.000000,1.000000,5.000000,-1.000000,0.000000,-1.000000,-3.000000
1302748.012691,0.000000,-8.000000,1.000000,-2.000000,-1.000000,-2.000000,1.000000,0.000000
1302748.013078,1.000000,0.000000,3.000000,0.000000,2.000000,1.000000,2.000000,0.000000
1302748.013086,1.000000,-5.000000,-7.000000,-5.000000,-1.000000,-1.000000,-1.000000,0.000000
1302748.014114,2.000000,-3.000000,-4.000000,-6.000000,-5.000000,-3.000000,-1.000000,0.000000
1302748.014141,-1.000000,-5.000000,1.000000,2.000000,0.000000,0.000000,0.000000,-2.000000
1302748.018569,-1.000000,0.000000,0.000000,0.000000,-4.000000,-3.000000,-1.000000,0.000000
1302748.018603,-2.000000,-1.000000,-2.000000,-3.000000,0.000000,-2.000000,0.000000,-1.000000
1302748.033720,-4.000000,2.000000,0.000000,1.000000,7.000000,-1.000000,-3.000000,-2.000000
1302748.033733,-1.000000,1.000000,0.000000,-1.000000,-4.000000,1.000000,-2.000000,-5.000000
1302748.056471,-1.000000,-6.000000,-2.000000,-5.000000,0.000000,1.000000,-1.000000,0.000000
1302748.056484,2.000000,-1.000000,-4.000000,-1.000000,-1.000000,2.000000,-3.000000,2.000000
1302748.071064,1.000000,1.000000,5.000000,-1.000000,0.000000,1.000000,1.000000,-2.000000
1302748.071092,1.000000,-1.000000,-2.000000,-5.000000,1.000000,-1.000000,0.000000,-2.000000
1302748.086389,-4.000000,1.000000,2.000000,13.000000,3.000000,-4.000000,0.000000,-3.000000
1302748.086399,-1.000000,0.000000,0.000000,0.000000,1.000000,-1.000000,-2.000000,-3.000000
1302748.101165,0.000000,-2.000000,3.000000,2.000000,2.000000,2.000000,1.000000,-1.000000
1302748.101182,2.000000,1.000000,2.000000,-3.000000,-3.000000,-4.000000,-1.000000,3.000000
1302748.116136,1.000000,2.000000,-1.000000,-1.000000,3.000000,2.000000,-3.000000,-3.000000
1302748.116146,-2.000000,0.000000,3.000000,1.000000,-1.000000,-5.000000,-1.000000,-3.000000
1302748.138560,-1.000000,0.000000,2.000000,-5.000000,-1.000000,0.000000,-3.000000,-4.000000
1302748.138642,0.000000,1.000000,0.000000,-1.000000,4.000000,-4.000000,1.000000,-2.000000
1302748.139774,-4.000000,0.000000,3.000000,2.000000,3.000000,-3.000000,-3.000000,-4.000000
1302748.139792,-1.000000,-1.000000,-4.000000,-6.000000,-4.000000,-3.000000,-1.000000,0.000000
1302748.140314,-2.000000,-2.000000,1.000000,-10.000000,-3.000000,0.000000,-3.000000,0.000000
1302748.140322,1.000000,-2.000000,0.000000,2.000000,0.000000,-2.000000,3.000000,-1.000000
1302748.141549,0.000000,-3.000000,5.000000,-1.000000,2.000000,-1.000000,-3.000000,-3.000000
1302748.141566,2.000000,1.000000,-3.000000,-4.000000,-8.000000,0.000000,-4.000000,0.000000
1302748.153443,-1.000000,-2.000000,-1.000000,3.000000,2.000000,2.000000,-1.000000,-3.000000
1302748.153454,-2.000000,4.000000,3.000000,1.000000,-1.000000,-2.000000,-2.000000,2.000000
1302748.168729,-2.000000,-4.000000,-1.000000,6.000000,-3.000000,-1.000000,-3.000000,-2.000000
1302748.168742,-3.000000,-1.000000,2.000000,3.000000,6.000000,4.000000,-1.000000,-4.000000
1302748.169417,-2.000000,-6.000000,-4.000000,-2.000000,-5.000000,-8.000000,0.000000,0.000000
1302748.169426,-2.000000,-1.000000,-3.000000,-5.000000,-4.000000,-1.000000,2.000000,0.000000
1302748.213829,-1.000000,2.000000,-1.000000,-4.000000,3.000000,-1.000000,-1.000000,-2.000000
1302748.213839,-1.000000,-2.000000,-3.000000,-3.000000,1.000000,1.000000,-2.000000,-2.000000
1302748.229010,-1.000000,-2.000000,-5.000000,-1.000000,-4.000000,-5.000000,-1.000000,-4.000000
1302748.229035,2.000000,3.000000,3.000000,3.000000,2.000000,-3.000000,1.000000,0.000000
1302748.252255,-1.000000,0.000000,-1.000000,0.000000,2.000000,0.000000,-1.000000,-1.000000
1302748.252294,-1.000000,-1.000000,-4.000000,-2.000000,-2.000000,0.000000,1.000000,-1.000000
1302748.252802,-2.000000,1.000000,1.000000,-1.000000,-1.000000,-3.000000,-1.000000,-1.000000
1302748.252832,-5.000000,3.000000,4.000000,5.000000,2.000000,1.000000,2.000000,-1.000000
1302748.254686,-3.000000,2.000000,-5.000000,-1.000000,2.000000,-4.000000,-2.000000,-1.000000
1302748.254704,0.000000,-3.000000,1.000000,0.000000,1.000000,0.000000,-3.000000,1.000000
1302748.255197,-2.000000,-3.000000,-1.000000,0.000000,3.000000,-1.000000,-2.000000,-4.000000
1302748.255250,0.000000,0.000000,-1.000000,-6.000000,-1.000000,-2.000000,0.000000,2.000000
1302748.256024,-2.000000,0.000000,0.000000,-3.000000,-5.000000,-1.000000,0.000000,1.000000
1302748.256047,0.000000,-1.000000,-5.000000,-5.000000,-10.000000,-4.000000,2.000000,1.000000
1302748.273753,0.000000,-1.000000,-2.000000,-5.000000,0.000000,-1.000000,0.000000,-1.000000
1302748.273776,-3.000000,-2.000000,1.000000,3.000000,6.000000,4.000000,2.000000,-3.000000
1302748.274167,-2.000000,-1.000000,-5.000000,-5.000000,-5.000000,-5.000000,0.000000,1.000000
1302748.274179,0.000000,-1.000000,3.000000,3.000000,-1.000000,0.000000,0.000000,-1.000000
1302748.288883,-1.000000,2.000000,0.000000,4.000000,2.000000,2.000000,0.000000,0.000000
1302748.288897,2.000000,-4.000000,-4.000000,-7.000000,-4.000000,-1.000000,-1.000000,1.000000
1302748.311310,1.000000,-4.000000,-2.000000,-8.000000,-5.000000,-3.000000,-1.000000,1.000000
1302748.311321,-2.000000,-5.000000,-4.000000,0.000000,-2.000000,0.000000,-2.000000,-3.000000
1302748.356149,-5.000000,2.000000,2.000000,1.000000,-2.000000,3.000000,-1.000000,1.000000
1302748.356159,-1.000000,-3.000000,-4.000000,-13.000000,-3.000000,-7.000000,0.000000,0.000000
1302748.371614,-1.000000,-2.000000,5.000000,2.000000,0.000000,1.000000,-2.000000,-1.000000
1302748.371626,1.000000,4.000000,3.000000,6.000000,3.000000,3.000000,0.000000,-2.000000
1302748.372267,0.000000,3.000000,-1.000000,-1.000000,-2.000000,-6.000000,-1.000000,-2.000000
1302748.372289,2.000000,0.000000,-2.000000,-1.000000,0.000000,2.000000,0.000000,3.000000
1302748.372763,-2.000000,3.000000,2.000000,5.000000,1.000000,2.000000,-2.000000,-6.000000
1302748.372785,-1.000000,3.000000,-4.000000,-3.000000,-3.000000,0.000000,-2.000000,-1.000000
1302748.374462,-3.000000,1.000000,0.000000,-1.000000,-3.000000,-2.000000,1.000000,-3.000000
1302748.374493,3.000000,0.000000,0.000000,-7.000000,-5.000000,-2.000000,-1.000000,0.000000
1302748.375036,3.000000,-2.000000,3.000000,4.000000,-1.000000,0.000000,0.000000,-2.000000
1302748.375052,0.000000,-3.000000,-6.000000,-6.000000,-3.000000,0.000000,-2.000000,-1.000000
1302748.393491,0.000000,-4.000000,3.000000,5.000000,-1.000000,1.000000,2.000000,-1.000000
1302748.393508,-8.000000,-2.000000,2.000000,1.000000,3.000000,-5.000000,-5.000000,-1.000000
1302748.393957,0.000000,-4.000000,-7.000000,-5.000000,-4.000000,-4.000000,0.000000,3.000000
1302748.393965,-1.000000,2.000000,2.000000,6.000000,-5.000000,1.000000,1.000000,0.000000
1302748.416732,-5.000000,2.000000,2.000000,0.000000,-7.000000,-5.000000,-3.000000,1.000000
1302748.416757,-3.000000,1.000000,-4.000000,-3.000000,3.000000,-2.000000,0.000000,-2.000000
1302748.431253,1.000000,0.000000,3.000000,2.000000,-3.000000,1.000000,-3.000000,-2.000000
1302748.431283,-3.000000,-1.000000,-1.000000,-3.000000,1.000000,1.000000,-1.000000,-4.000000
1302748.453748,0.000000,-2.000000,3.000000,0.000000,0.000000,-4.000000,2.000000,1.000000
1302748.453759,3.000000,3.000000,-3.000000,-2.000000,3.000000,-3.000000,1.000000,1.000000
1302748.491322,-5.000000,0.000000,0.000000,5.000000,1.000000,3.000000,-1.000000,-3.000000
1302748.491333,-3.000000,-2.000000,-1.000000,-6.000000,-7.000000,-4.000000,-3.000000,-2.000000
1302748.513530,1.000000,-2.000000,-5.000000,-7.000000,-7.000000,-2.000000,0.000000,1.000000
1302748.513539,5.000000,0.000000,1.000000,0.000000,1.000000,-1.000000,0.000000,1.000000
1302748.528678,0.000000,2.000000,-2.000000,-1.000000,-2.000000,-1.000000,-4.000000,0.000000
1302748.528689,-2.000000,-1.000000,-2.000000,-6.000000,-1.000000,-1.000000,1.000000,0.000000
1302748.551186,-5.000000,-2.000000,-2.000000,7.000000,0.000000,0.000000,0.000000,-1.000000
1302748.551198,-1.000000,-5.000000,-2.000000,-9.000000,-3.000000,2.000000,1.000000,-5.000000
1302748.565979,0.000000,-3.000000,-7.000000,0.000000,0.000000,1.000000,-1.000000,4.000000
1302748.565990,0.000000,4.000000,-2.000000,7.000000,0.000000,-5.000000,0.000000,0.000000
1302748.566362,1.000000,-5.000000,-1.000000,0.000000,-2.000000,1.000000,0.000000,-1.000000
1302748.566370,-4.000000,-2.000000,5.000000,9.000000,4.000000,2.000000,-1.000000,-5.000000
1302748.567062,0.000000,-1.000000,-4.000000,-5.000000,-4.000000,-5.000000,1.000000,1.000000
1302748.567073,0.000000,-6.000000,-7.000000,-7.000000,-2.000000,3.000000,1.000000,5.000000
1302748.567689,-2.000000,0.000000,3.000000,10.000000,2.000000,2.000000,-1.000000,-1.000000
1302748.567718,-4.000000,-2.000000,-3.000000,-10.000000,-5.000000,-2.000000,-1.000000,-3.000000
1302748.568325,-1.000000,-1.000000,0.000000,-5.000000,-1.000000,1.000000,1.000000,-6.000000
1302748.568349,0.000000,0.000000,-3.000000,-1.000000,-4.000000,-3.000000,-3.000000,1.000000
1302748.569085,0.000000,-1.000000,-2.000000,-5.000000,-5.000000,2.000000,2.000000,-3.000000
1302748.569093,-4.000000,1.000000,0.000000,8.000000,5.000000,4.000000,1.000000,-1.000000
1302748.588726,1.000000,1.000000,4.000000,3.000000,-1.000000,2.000000,3.000000,-1.000000
1302748.588739,0.000000,-1.000000,-5.000000,2.000000,0.000000,2.000000,-1.000000,1.000000
1302748.589321,-4.000000,-4.000000,-4.000000,-6.000000,-8.000000,-8.000000,-1.000000,1.000000
1302748.589330,3.000000,0.000000,4.000000,4.000000,0.000000,3.000000,1.000000,0.000000
1302748.611717,2.000000,0.000000,0.000000,0.000000,1.000000,-1.000000,-2.000000,-4.000000
1302748.611731,0.000000,-2.000000,0.000000,2.000000,-3.000000,-3.000000,-1.000000,1.000000
1302748.612172,-2.000000,-2.000000,-1.000000,-1.000000,2.000000,1.000000,1.000000,-3.000000
1302748.612200,0.000000,-4.000000,-2.000000,2.000000,4.000000,0.000000,-1.000000,-1.000000
1302748.626297,-4.000000,-3.000000,1.000000,-5.000000,-7.000000,2.000000,-3.000000,-5.000000
1302748.626308,0.000000,-2.000000,0.000000,-1.000000,0.000000,2.000000,2.000000,1.000000
1302748.633720,-2.000000,-3.000000,-1.000000,6.000000,2.000000,-3.000000,0.000000,-3.000000
1302748.633733,-2.000000,0.000000,-3.000000,-8.000000,-1.000000,-1.000000,0.000000,2.000000
1302748.648723,0.000000,-3.000000,-6.000000,-9.000000,-1.000000,2.000000,0.000000,3.000000
1302748.648776,-1.000000,1.000000,5.000000,5.000000,-1.000000,1.000000,-1.000000,2.000000
1302748.649281,-3.000000,-2.000000,-2.000000,3.000000,-3.000000,-1.000000,0.000000,0.000000
1302748.649290,-3.000000,-1.000000,-6.000000,-1.000000,-2.000000,-3.000000,1.000000,1.000000
1302748.678882,-2.000000,-6.000000,-5.000000,2.000000,2.000000,-3.000000,0.000000,0.000000
1302748.678895,-4.000000,-1.000000,-1.000000,2.000000,2.000000,-3.000000,-2.000000,-4.000000
1302748.693669,4.000000,2.000000,0.000000,-5.000000,-1.000000,-1.000000,1.000000,3.000000
1302748.693682,0.000000,4.000000,0.000000,3.000000,1.000000,3.000000,-1.000000,0.000000
1302748.708499,-3.000000,4.000000,2.000000,4.000000,5.000000,0.000000,0.000000,-5.000000
1302748.708509,-1.000000,0.000000,-1.000000,-2.000000,-4.000000,-4.000000,-2.000000,1.000000
1302748.723902,0.000000,-7.000000,-7.000000,-4.000000,0.000000,-1.000000,-2.000000,1.000000
1302748.723915,-2.000000,1.000000,-1.000000,5.000000,4.000000,1.000000,-1.000000,1.000000
1302748.731737,-2.000000,-3.000000,0.000000,-2.000000,-3.000000,1.000000,-1.000000,-1.000000
1302748.731748,0.000000,-6.000000,0.000000,-10.000000,-4.000000,-6.000000,0.000000,0.000000
1302748.732232,2.000000,-1.000000,-1.000000,3.000000,-1.000000,-2.000000,-1.000000,-4.000000
1302748.732242,-4.000000,3.000000,2.000000,-1.000000,0.000000,-2.000000,-1.000000,-4.000000
1302748.733462,4.000000,-4.000000,1.000000,-4.000000,-4.000000,0.000000,-5.000000,-1.000000
1302748.733472,0.000000,-1.000000,3.000000,-1.000000,2.000000,-1.000000,-4.000000,0.000000
1302748.734279,-4.000000,2.000000,-1.000000,6.000000,2.000000,-4.000000,0.000000,-3.000000
1302748.734289,3.000000,0.000000,1.000000,0.000000,0.000000,-1.000000,1.000000,-3.000000
1302748.738681,3.000000,1.000000,-3.000000,-5.000000,1.000000,-2.000000,2.000000,2.000000
1302748.738693,-1.000000,4.000000,1.000000,4.000000,0.000000,1.000000,1.000000,0.000000
1302748.760903,-1.000000,1.000000,-4.000000,-7.000000,-5.000000,-4.000000,-1.000000,-1.000000
1302748.760914,-3.000000,-4.000000,-6.000000,-5.000000,-7.000000,0.000000,-1.000000,-2.000000
1302748.769184,-1.000000,2.000000,2.000000,6.000000,-3.000000,3.000000,0.000000,-3.000000
1302748.769193,-3.000000,-1.000000,-1.000000,2.000000,2.000000,0.000000,0.000000,-2.000000
1302748.769928,-3.000000,-3.000000,-2.000000,-2.000000,-1.000000,-5.000000,-1.000000,1.000000
1302748.769941,1.000000,3.000000,3.000000,4.000000,-1.000000,-1.000000,-1.000000,1.000000
1302748.791272,-1.000000,3.000000,1.000000,-6.000000,1.000000,1.000000,-1.000000,-4.000000
1302748.791284,1.000000,0.000000,2.000000,7.000000,-2.000000,-3.000000,-2.000000,2.000000
1302748.806009,1.000000,4.000000,3.000000,-5.000000,4.000000,1.000000,-3.000000,3.000000
1302748.806019,-1.000000,1.000000,2.000000,-1.000000,5.000000,0.000000,2.000000,-3.000000
1302748.821126,-2.000000,0.000000,1.000000,-3.000000,1.000000,-4.000000,0.000000,0.000000
1302748.821136,-1.000000,-3.000000,-7.000000,-7.000000,-6.000000,-3.000000,-2.000000,-3.000000
1302748.828872,-3.000000,0.000000,4.000000,2.000000,1.000000,-1.000000,-1.000000,-2.000000
1302748.828884,1.000000,0.000000,0.000000,4.000000,1.000000,1.000000,2.000000,-3.000000
1302748.843965,1.000000,-1.000000,0.000000,1.000000,-4.000000,-5.000000,-3.000000,0.000000
1302748.843977,3.000000,2.000000,-1.000000,0.000000,2.000000,2.000000,-1.000000,-1.000000
1302748.844714,1.000000,-1.000000,-3.000000,0.000000,2.000000,-4.000000,0.000000,-4.000000
1302748.844744,1.000000,-1.000000,-4.000000,-3.000000,2.000000,-1.000000,0.000000,1.000000
1302748.846117,1.000000,-2.000000,0.000000,-4.000000,-3.000000,-3.000000,-3.000000,0.000000
1302748.846152,-2.000000,-1.000000,-3.000000,1.000000,1.000000,-1.000000,-2.000000,-4.000000
1302748.850769,2.000000,-1.000000,-6.000000,-14.000000,1.000000,-1.000000,-1.000000,-2.000000
1302748.850795,0.000000,-5.000000,-2.000000,-7.000000,-4.000000,-7.000000,1.000000,1.000000
1302748.866323,1.000000,2.000000,1.000000,2.000000,-1.000000,1.000000,-1.000000,0.000000
1302748.866334,-5.000000,-1.000000,-2.000000,-5.000000,3.000000,2.000000,-2.000000,-4.000000
1302748.873750,-2.000000,1.000000,5.000000,2.000000,-4.000000,-6.000000,2.000000,4.000000
1302748.873761,1.000000,-3.000000,-4.000000,-3.000000,-2.000000,2.000000,-3.000000,0.000000
1302748.889039,-4.000000,-3.000000,2.000000,6.000000,7.000000,2.000000,-1.000000,-3.000000
1302748.889048,-1.000000,-6.000000,-4.000000,-3.000000,-2.000000,1.000000,-1.000000,1.000000
1302748.889898,-1.000000,-4.000000,-3.000000,-8.000000,-6.000000,-3.000000,1.000000,0.000000
1302748.889907,-2.000000,1.000000,3.000000,10.000000,3.000000,3.000000,4.000000,-2.000000
1302748.911327,-2.000000,-3.000000,-1.000000,2.000000,-2.000000,-6.000000,-1.000000,-2.000000
1302748.911338,4.000000,-2.000000,-2.000000,-5.000000,0.000000,-3.000000,0.000000,-1.000000
1302748.926219,-3.000000,5.000000,-3.000000,3.000000,0.000000,-3.000000,-1.000000,0.000000
1302748.926229,0.000000,0.000000,0.000000,3.000000,2.000000,-3.000000,-1.000000,-1.000000
1302748.971357,0.000000,0.000000,3.000000,-1.000000,-2.000000,-2.000000,1.000000,-1.000000
1302748.971410,-2.000000,-4.000000,3.000000,0.000000,1.000000,1.000000,-3.000000,1.000000
1302748.971846,-2.000000,-1.000000,3.000000,8.000000,5.000000,1.000000,0.000000,-4.000000
1302748.971854,-3.000000,-3.000000,-5.000000,-7.000000,-9.000000,-4.000000,-1.000000,-3.000000
1302748.972731,0.000000,-3.000000,0.000000,-2.000000,-5.000000,-2.000000,-2.000000,1.000000
1302748.972739,-3.000000,2.000000,5.000000,4.000000,4.000000,-4.000000,1.000000,-5.000000
1302748.973405,3.000000,-5.000000,-1.000000,-6.000000,-1.000000,-4.000000,-4.000000,1.000000
1302748.973414,2.000000,-2.000000,-2.000000,-10.000000,-4.000000,-1.000000,-2.000000,-1.000000
1302748.974993,3.000000,-1.000000,-3.000000,3.000000,5.000000,2.000000,2.000000,-4.000000
1302748.975002,-4.000000,-1.000000,0.000000,-4.000000,0.000000,-6.000000,0.000000,-5.000000
1302748.978350,-1.000000,2.000000,6.000000,6.000000,4.000000,3.000000,0.000000,-4.000000
1302748.978365,-1.000000,-3.000000,-3.000000,-5.000000,-3.000000,-3.000000,0.000000,-1.000000
1302749.001313,1.000000,-3.000000,-5.000000,-3.000000,-2.000000,-3.000000,0.000000,1.000000
1302749.001323,-3.000000,-2.000000,5.000000,4.000000,1.000000,-1.000000,0.000000,-2.000000
1302749.002347,-1.000000,-1.000000,-1.000000,1.000000,0.000000,-1.000000,-1.000000,-2.000000
1302749.002355,-4.000000,-1.000000,-7.000000,-4.000000,-7.000000,-4.000000,3.000000,-1.000000
1302749.008837,-3.000000,-3.000000,-3.000000,0.000000,5.000000,2.000000,-1.000000,-3.000000
1302749.008848,-1.000000,-2.000000,-1.000000,-1.000000,3.000000,0.000000,-2.000000,0.000000
1302749.046418,1.000000,-7.000000,-7.000000,-6.000000,-3.000000,-5.000000,3.000000,-1.000000
1302749.046431,-2.000000,-3.000000,1.000000,-1.000000,-1.000000,2.000000,1.000000,-4.000000
1302749.061420,0.000000,-4.000000,-2.000000,1.000000,4.000000,5.000000,-2.000000,1.000000
1302749.061432,-3.000000,-4.000000,-5.000000,-3.000000,-2.000000,-1.000000,0.000000,-5.000000
1302749.084108,-1.000000,0.000000,1.000000,2.000000,-2.000000,-1.000000,0.000000,-1.000000
1302749.084128,-1.000000,4.000000,3.000000,1.000000,0.000000,1.000000,-3.000000,-3.000000
1302749.098921,-3.000000,-4.000000,-9.000000,7.000000,-3.000000,3.000000,-1.000000,3.000000
1302749.099281,0.000000,-1.000000,-5.000000,-12.000000,-1.000000,-1.000000,-3.000000,-1.000000
1302749.100133,2.000000,3.000000,0.000000,0.000000,2.000000,-3.000000,0.000000,-4.000000
1302749.100153,-8.000000,-8.000000,-8.000000,-3.000000,-2.000000,-4.000000,-1.000000,-7.000000
1302749.106210,-1.000000,-4.000000,-2.000000,-8.000000,-4.000000,-8.000000,-2.000000,1.000000
1302749.106280,1.000000,-3.000000,1.000000,0.000000,0.000000,1.000000,1.000000,-2.000000
1302749.107565,-4.000000,0.000000,3.000000,8.000000,2.000000,1.000000,-1.000000,0.000000
1302749.107585,-4.000000,0.000000,2.000000,-1.000000,0.000000,-2.000000,-4.000000,2.000000
1302749.108653,1.000000,-3.000000,4.000000,-2.000000,0.000000,-2.000000,2.000000,-1.000000
1302749.108682,3.000000,0.000000,-7.000000,-3.000000,1.000000,3.000000,0.000000,-2.000000
1302749.121446,0.000000,-3.000000,2.000000,-3.000000,-1.000000,-3.000000,-3.000000,-1.000000
1302749.121467,0.000000,0.000000,2.000000,-2.000000,-1.000000,-3.000000,-2.000000,0.000000
1302749.143725,0.000000,0.000000,-6.000000,-1.000000,-8.000000,-4.000000,-1.000000,0.000000
1302749.143742,-4.000000,2.000000,1.000000,-7.000000,-5.000000,0.000000,-1.000000,-3.000000
1302749.166340,-2.000000,-3.000000,1.000000,5.000000,8.000000,3.000000,0.000000,-1.000000
1302749.166355,-1.000000,-6.000000,-2.000000,-3.000000,-3.000000,0.000000,-2.000000,3.000000
1302749.188701,-2.000000,2.000000,2.000000,4.000000,2.000000,-4.000000,-1.000000,-1.000000
1302749.188714,-6.000000,-9.000000,0.000000,6.000000,7.000000,3.000000,-1.000000,-4.000000
1302749.203715,-4.000000,-3.000000,-1.000000,-5.000000,-5.000000,-3.000000,-1.000000,-2.000000
1302749.203725,4.000000,1.000000,1.000000,-4.000000,-2.000000,-4.000000,-2.000000,2.000000
1302749.226988,-4.000000,0.000000,0.000000,0.000000,3.000000,0.000000,-3.000000,-4.000000
1302749.227092,-2.000000,0.000000,-2.000000,-5.000000,4.000000,-2.000000,-3.000000,-1.000000
1302749.227287,-1.000000,-1.000000,-1.000000,-4.000000,-8.000000,-2.000000,-3.000000,2.000000
1302749.227295,-2.000000,-3.000000,-2.000000,-2.000000,-3.000000,3.000000,0.000000,-1.000000
1302749.227693,4.000000,1.000000,-3.000000,4.000000,-1.000000,-5.000000,-3.000000,-2.000000
1302749.227715,0.000000,0.000000,1.000000,-1.000000,-1.000000,1.000000,1.000000,-1.000000
1302749.229231,0.000000,-1.000000,-3.000000,-7.000000,-3.000000,0.000000,-4.000000,0.000000
1302749.229239,0.000000,-4.000000,2.000000,3.000000,-2.000000,-5.000000,1.000000,-1.000000
1302749.230035,4.000000,-3.000000,-3.000000,-8.000000,-8.000000,-2.000000,1.000000,2.000000
1302749.230064,-1.000000,-1.000000,-1.000000,4.000000,7.000000,3.000000,0.000000,-4.000000
1302749.248406,2.000000,3.000000,4.000000,5.000000,3.000000,0.000000,-2.000000,-3.000000
1302749.248432,-3.000000,-1.000000,-4.000000,-2.000000,-6.000000,-5.000000,0.000000,0.000000
1302749.256317,3.000000,1.000000,-3.000000,0.000000,0.000000,-2.000000,-3.000000,-1.000000
1302749.256327,-3.000000,2.000000,4.000000,7.000000,3.000000,4.000000,-2.000000,-1.000000
1302749.263864,3.000000,0.000000,-3.000000,-2.000000,-4.000000,3.000000,2.000000,-1.000000
1302749.263875,-4.000000,-5.000000,-3.000000,-1.000000,-4.000000,-1.000000,-2.000000,0.000000
1302749.286266,2.000000,-2.000000,-4.000000,-1.000000,-2.000000,0.000000,0.000000,1.000000
1302749.286278,-3.000000,-1.000000,-1.000000,2.000000,0.000000,3.000000,0.000000,-2.000000
1302749.293658,-3.000000,-2.000000,-1.000000,-11.000000,-7.000000,-8.000000,-1.000000,1.000000
1302749.293667,0.000000,-4.000000,0.000000,2.000000,1.000000,-1.000000,2.000000,-2.000000
1302749.323405,0.000000,-2.000000,-9.000000,4.000000,-1.000000,2.000000,2.000000,-2.000000
1302749.323434,-2.000000,-2.000000,0.000000,-4.000000,-2.000000,2.000000,-1.000000,-4.000000
1302749.323983,1.000000,-2.000000,0.000000,5.000000,1.000000,0.000000,0.000000,0.000000
1302749.323994,0.000000,1.000000,-2.000000,2.000000,2.000000,3.000000,0.000000,-3.000000
1302749.325252,0.000000,1.000000,-1.000000,-5.000000,2.000000,-1.000000,0.000000,-1.000000
1302749.325260,1.000000,-5.000000,-2.000000,-4.000000,-10.000000,-3.000000,-1.000000,4.000000
1302749.325893,-1.000000,-2.000000,-1.000000,-7.000000,-4.000000,0.000000,0.000000,0.000000
1302749.325909,-5.000000,-5.000000,-3.000000,2.000000,0.000000,-2.000000,0.000000,-2.000000
1302749.327600,1.000000,-3.000000,-7.000000,-9.000000,-6.000000,-3.000000,-3.000000,2.000000
1302749.327610,-5.000000,-3.000000,-4.000000,-5.000000,-1.000000,2.000000,1.000000,-1.000000
1302749.338781,1.000000,-1.000000,-2.000000,0.000000,4.000000,2.000000,-1.000000,-4.000000
1302749.338799,-2.000000,1.000000,-3.000000,-3.000000,-5.000000,0.000000,-5.000000,-1.000000
1302749.339730,2.000000,-1.000000,-1.000000,0.000000,1.000000,-3.000000,-2.000000,0.000000
1302749.339751,-2.000000,-4.000000,1.000000,3.000000,2.000000,3.000000,0.000000,-3.000000
1302749.360969,0.000000,-1.000000,-4.000000,-2.000000,-3.000000,-1.000000,-7.000000,-3.000000
1302749.360998,3.000000,1.000000,-4.000000,-3.000000,-4.000000,-3.000000,-3.000000,1.000000
1302749.362321,3.000000,3.000000,2.000000,-2.000000,3.000000,-5.000000,2.000000,3.000000
1302749.362329,-1.000000,2.000000,-2.000000,0.000000,1.000000,1.000000,0.000000,-2.000000
1302749.383479,1.000000,-3.000000,-6.000000,-14.000000,-4.000000,0.000000,1.000000,-4.000000
1302749.383488,-2.000000,-4.000000,3.000000,0.000000,-4.000000,1.000000,-3.000000,-1.000000
1302749.398798,-2.000000,-5.000000,-3.000000,0.000000,1.000000,3.000000,-3.000000,-2.000000
1302749.398810,-3.000000,-4.000000,-4.000000,-2.000000,-3.000000,-2.000000,0.000000,1.000000
1302749.421371,0.000000,4.000000,5.000000,7.000000,5.000000,3.000000,-1.000000,-2.000000
1302749.421386,1.000000,2.000000,-2.000000,1.000000,2.000000,3.000000,2.000000,-4.000000
1302749.436006,2.000000,-1.000000,1.000000,-6.000000,-1.000000,-2.000000,1.000000,1.000000
1302749.436021,3.000000,1.000000,-4.000000,-1.000000,-5.000000,-5.000000,-1.000000,0.000000
1302749.443920,-2.000000,2.000000,2.000000,2.000000,8.000000,3.000000,-1.000000,-1.000000
1302749.443929,0.000000,-7.000000,3.000000,2.000000,-4.000000,3.000000,2.000000,1.000000
1302749.444541,-1.000000,-1.000000,-6.000000,-7.000000,-6.000000,-6.000000,0.000000,1.000000
1302749.444555,-3.000000,-2.000000,1.000000,7.000000,7.000000,-1.000000,-2.000000,-1.000000
1302749.445807,-1.000000,0.000000,-4.000000,-1.000000,1.000000,-2.000000,-2.000000,-4.000000
1302749.445815,1.000000,1.000000,-3.000000,-4.000000,0.000000,-4.000000,0.000000,2.000000
1302749.446757,2.000000,1.000000,1.000000,0.000000,0.000000,2.000000,-3.000000,-3.000000
1302749.446766,-4.000000,4.000000,3.000000,0.000000,5.000000,3.000000,-5.000000,-3.000000
1302749.458828,1.000000,1.000000,-4.000000,-4.000000,2.000000,0.000000,1.000000,0.000000
1302749.458841,-1.000000,-5.000000,-2.000000,-4.000000,0.000000,-1.000000,2.000000,-1.000000
1302749.459372,-1.000000,-3.000000,1.000000,3.000000,4.000000,1.000000,0.000000,1.000000
1302749.459381,-2.000000,-5.000000,0.000000,0.000000,-8.000000,-6.000000,-4.000000,-1.000000
1302749.481515,0.000000,-5.000000,-2.000000,-4.000000,-2.000000,1.000000,-1.000000,-2.000000
1302749.481531,-3.000000,-6.000000,1.000000,2.000000,1.000000,-1.000000,-3.000000,-3.000000
1302749.482321,-2.000000,-2.000000,0.000000,7.000000,-1.000000,-3.000000,0.000000,0.000000
1302749.482329,-2.000000,-2.000000,0.000000,-6.000000,-6.000000,-2.000000,-2.000000,-1.000000
1302749.526373,0.000000,-3.000000,-5.000000,-2.000000,-4.000000,-5.000000,-2.000000,2.000000
1302749.526386,3.000000,4.000000,6.000000,14.000000,5.000000,5.000000,2.000000,1.000000
1302749.533675,0.000000,0.000000,-3.000000,-12.000000,-5.000000,2.000000,1.000000,-3.000000
1302749.533688,0.000000,-1.000000,-4.000000,-2.000000,-4.000000,-2.000000,-2.000000,2.000000
1302749.556001,-3.000000,-5.000000,-4.000000,-2.000000,5.000000,4.000000,0.000000,1.000000
1302749.556031,-2.000000,-2.000000,1.000000,6.000000,-5.000000,-3.000000,1.000000,-1.000000
1302749.563815,-5.000000,-10.000000,-7.000000,-10.000000,-4.000000,-5.000000,-1.000000,-1.000000
1302749.563829,1.000000,-6.000000,-6.000000,-10.000000,-2.000000,0.000000,-1.000000,0.000000
1302749.564732,-2.000000,-1.000000,-4.000000,-3.000000,-3.000000,0.000000,-2.000000,-1.000000
1302749.564745,-1.000000,0.000000,-2.000000,1.000000,-3.000000,-2.000000,-5.000000,0.000000
1302749.565249,0.000000,0.000000,-3.000000,2.000000,0.000000,1.000000,-3.000000,-4.000000
1302749.565258,-1.000000,-1.000000,5.000000,2.000000,3.000000,5.000000,-2.000000,-2.000000
1302749.579044,-1.000000,-4.000000,1.000000,4.000000,-3.000000,-3.000000,-4.000000,2.000000
1302749.579055,-1.000000,-2.000000,0.000000,-5.000000,-1.000000,0.000000,1.000000,1.000000
1302749.580663,1.000000,0.000000,-3.000000,-6.000000,-7.000000,-6.000000,0.000000,1.000000
1302749.580674,3.000000,-3.000000,3.000000,4.000000,0.000000,-4.000000,-1.000000,-3.000000
1302749.601262,-3.000000,-2.000000,0.000000,2.000000,1.000000,-1.000000,-1.000000,2.000000
1302749.601279,-1.000000,-5.000000,-1.000000,-8.000000,-5.000000,2.000000,-3.000000,2.000000
1302749.602115,-3.000000,-6.000000,0.000000,5.000000,2.000000,-3.000000,-1.000000,-3.000000
1302749.602130,0.000000,3.000000,4.000000,0.000000,5.000000,9.000000,1.000000,-4.000000
1302749.603046,0.000000,-3.000000,-3.000000,2.000000,-3.000000,0.000000,1.000000,1.000000
1302749.603074,-1.000000,-6.000000,-6.000000,-7.000000,-4.000000,2.000000,0.000000,2.000000
1302749.623618,-3.000000,-2.000000,1.000000,3.000000,4.000000,4.000000,-2.000000,-2.000000
1302749.623629,4.000000,-4.000000,-3.000000,-6.000000,-5.000000,-2.000000,0.000000,0.000000
1302749.638751,1.000000,-4.000000,-2.000000,-3.000000,-6.000000,-6.000000,-2.000000,1.000000
1302749.638765,3.000000,3.000000,-1.000000,2.000000,2.000000,-2.000000,0.000000,0.000000
1302749.653607,-6.000000,2.000000,-1.000000,-1.000000,1.000000,5.000000,1.000000,-3.000000
1302749.653617,-1.000000,-2.000000,-1.000000,-9.000000,-9.000000,-3.000000,0.000000,-2.000000
1302749.661326,2.000000,0.000000,-2.000000,2.000000,1.000000,-2.000000,-1.000000,0.000000
1302749.661337,-5.000000,-1.000000,-2.000000,-4.000000,0.000000,-2.000000,-5.000000,0.000000
1302749.683357,-2.000000,0.000000,0.000000,1.000000,-3.000000,1.000000,-1.000000,-1.000000
1302749.683367,-1.000000,-2.000000,-4.000000,-6.000000,-4.000000,1.000000,0.000000,0.000000
1302749.698502,0.000000,-1.000000,-1.000000,3.000000,1.000000,3.000000,1.000000,1.000000
1302749.698531,0.000000,-3.000000,-5.000000,-3.000000,2.000000,-1.000000,0.000000,-1.000000
1302749.699614,-2.000000,-2.000000,-5.000000,-2.000000,-8.000000,-6.000000,1.000000,2.000000
1302749.699623,-1.000000,1.000000,0.000000,-2.000000,-1.000000,-3.000000,0.000000,4.000000
1302749.700274,-3.000000,0.000000,3.000000,4.000000,-5.000000,1.000000,2.000000,-2.000000
1302749.700282,2.000000,-4.000000,-5.000000,-8.000000,-4.000000,-1.000000,-4.000000,-1.000000
1302749.701891,-4.000000,-5.000000,-5.000000,-3.000000,2.000000,1.000000,0.000000,3.000000
1302749.701900,-4.000000,-1.000000,3.000000,6.000000,4.000000,-3.000000,0.000000,-4.000000
1302749.721640,1.000000,2.000000,-5.000000,1.000000,-1.000000,-3.000000,-3.000000,-1.000000
1302749.721837,-4.000000,-2.000000,1.000000,3.000000,0.000000,2.000000,0.000000,-1.000000
1302749.722698,1.000000,-2.000000,1.000000,2.000000,1.000000,-1.000000,-1.000000,-1.000000
1302749.722717,-4.000000,-2.000000,-7.000000,-8.000000,-7.000000,-3.000000,-3.000000,-3.000000
1302749.723137,0.000000,-7.000000,-7.000000,-16.000000,-9.000000,-1.000000,1.000000,2.000000
1302749.723145,-1.000000,0.000000,2.000000,5.000000,1.000000,0.000000,2.000000,1.000000
1302749.743841,-2.000000,-2.000000,-6.000000,-4.000000,-3.000000,-2.000000,-1.000000,-3.000000
1302749.743864,0.000000,-1.000000,-3.000000,-12.000000,-6.000000,-2.000000,-1.000000,1.000000
1302749.759114,-4.000000,1.000000,0.000000,0.000000,3.000000,-1.000000,-2.000000,0.000000
1302749.759150,-1.000000,-2.000000,-1.000000,7.000000,3.000000,1.000000,-1.000000,-4.000000
1302749.803636,-2.000000,0.000000,3.000000,0.000000,-4.000000,-2.000000,0.000000,2.000000
1302749.803647,-2.000000,-3.000000,-1.000000,-2.000000,-3.000000,0.000000,2.000000,-1.000000
1302749.819146,-3.000000,-1.000000,2.000000,1.000000,1.000000,4.000000,-1.000000,-1.000000
1302749.819302,1.000000,0.000000,-3.000000,-5.000000,-4.000000,-2.000000,-2.000000,-2.000000
1302749.820386,-3.000000,-4.000000,-1.000000,-3.000000,-3.000000,-3.000000,2.000000,2.000000
1302749.820439,1.000000,2.000000,7.000000,3.000000,3.000000,2.000000,-3.000000,-1.000000
1302749.820644,2.000000,-3.000000,-4.000000,-2.000000,1.000000,0.000000,1.000000,-1.000000
1302749.820651,-1.000000,-3.000000,-5.000000,-5.000000,-4.000000,-6.000000,-4.000000,1.000000
1302749.821991,-1.000000,-1.000000,-1.000000,-2.000000,-2.000000,-4.000000,-2.000000,-1.000000
1302749.822001,-2.000000,-2.000000,5.000000,8.000000,3.000000,0.000000,-4.000000,-2.000000
1302749.833496,-3.000000,-7.000000,-4.000000,-7.000000,-7.000000,-6.000000,1.000000,1.000000
1302749.833506,-3.000000,-1.000000,-2.000000,1.000000,2.000000,-1.000000,-2.000000,-2.000000
1302749.856224,-4.000000,-1.000000,0.000000,-4.000000,-4.000000,-1.000000,-5.000000,0.000000
1302749.856234,1.000000,3.000000,1.000000,-3.000000,-2.000000,-3.000000,-2.000000,0.000000
1302749.878621,-1.000000,-2.000000,3.000000,-4.000000,-1.000000,-4.000000,0.000000,1.000000
1302749.878632,0.000000,0.000000,-5.000000,4.000000,3.000000,0.000000,-1.000000,1.000000
1302749.879688,-2.000000,-3.000000,-3.000000,-5.000000,-6.000000,-2.000000,-3.000000,1.000000
1302749.879699,0.000000,-2.000000,4.000000,-6.000000,-2.000000,2.000000,3.000000,0.000000
1302749.880138,-1.000000,0.000000,-1.000000,1.000000,2.000000,-1.000000,1.000000,-3.000000
1302749.880145,-3.000000,2.000000,-4.000000,-2.000000,0.000000,-2.000000,0.000000,-1.000000
1302749.881597,1.000000,3.000000,2.000000,0.000000,-5.000000,-2.000000,1.000000,1.000000
1302749.881623,0.000000,-4.000000,0.000000,2.000000,8.000000,5.000000,-1.000000,0.000000
1302749.886210,1.000000,3.000000,-1.000000,-2.000000,0.000000,0.000000,2.000000,-1.000000
1302749.886220,0.000000,-3.000000,-3.000000,-7.000000,1.000000,1.000000,1.000000,-3.000000
1302749.894329,2.000000,-1.000000,0.000000,3.000000,-3.000000,-2.000000,-1.000000,0.000000
1302749.894338,1.000000,-1.000000,2.000000,2.000000,5.000000,2.000000,1.000000,2.000000
1302749.901414,-1.000000,-5.000000,0.000000,0.000000,-4.000000,-4.000000,-1.000000,-1.000000
1302749.901443,-1.000000,4.000000,2.000000,0.000000,-1.000000,3.000000,-2.000000,-2.000000
1302749.916853,1.000000,-1.000000,-1.000000,7.000000,5.000000,3.000000,-1.000000,2.000000
1302749.916868,-3.000000,0.000000,2.000000,-4.000000,-4.000000,-5.000000,0.000000,-2.000000
1302749.923587,0.000000,-4.000000,-4.000000,-15.000000,-7.000000,-1.000000,-3.000000,0.000000
1302749.923615,3.000000,1.000000,1.000000,4.000000,2.000000,-1.000000,0.000000,-2.000000
1302749.939432,0.000000,0.000000,3.000000,1.000000,1.000000,0.000000,-3.000000,-2.000000
1302749.939443,-2.000000,-8.000000,-2.000000,-12.000000,-9.000000,0.000000,-2.000000,-1.000000
1302749.953710,-4.000000,-2.000000,0.000000,1.000000,-2.000000,-2.000000,-3.000000,-1.000000
1302749.953746,-1.000000,-4.000000,-2.000000,1.000000,5.000000,2.000000,0.000000,-4.000000
1302749.954853,-2.000000,3.000000,-5.000000,-3.000000,-1.000000,0.000000,1.000000,-3.000000
1302749.954860,0.000000,-1.000000,1.000000,2.000000,-1.000000,0.000000,-1.000000,0.000000
1302749.960841,2.000000,0.000000,1.000000,5.000000,7.000000,3.000000,2.000000,0.000000
1302749.960850,-1.000000,-1.000000,-4.000000,-4.000000,-1.000000,0.000000,-3.000000,-4.000000
1302749.998756,-1.000000,-1.000000,-1.000000,1.000000,1.000000,-3.000000,1.000000,-2.000000
1302749.998771,1.000000,2.000000,1.000000,-1.000000,-4.000000,1.000000,2.000000,-2.000000
1302750.013585,1.000000,2.000000,-1.000000,4.000000,3.000000,-4.000000,-3.000000,-3.000000
1302750.013596,3.000000,-2.000000,-6.000000,-6.000000,-2.000000,0.000000,-1.000000,1.000000
1302750.036286,0.000000,2.000000,-3.000000,-4.000000,2.000000,-2.000000,0.000000,-1.000000
1302750.036297,2.000000,2.000000,6.000000,10.000000,4.000000,1.000000,0.000000,3.000000
1302750.058445,1.000000,-3.000000,-2.000000,-1.000000,-2.000000,2.000000,1.000000,-1.000000
1302750.058459,0.000000,0.000000,1.000000,1.000000,-4.000000,1.000000,-3.000000,1.000000
1302750.059620,0.000000,-1.000000,0.000000,6.000000,-3.000000,-1.000000,0.000000,0.000000
1302750.059638,1.000000,1.000000,-5.000000,-8.000000,1.000000,1.000000,-3.000000,-1.000000
1302750.060160,-1.000000,-2.000000,-3.000000,-4.000000,-5.000000,-1.000000,0.000000,0.000000
1302750.060169,-3.000000,-1.000000,5.000000,5.000000,3.000000,-2.000000,0.000000,-3.000000
1302750.061384,1.000000,0.000000,-2.000000,-2.000000,1.000000,-1.000000,-2.000000,0.000000
1302750.061410,0.000000,-3.000000,-2.000000,-3.000000,-6.000000,-5.000000,0.000000,3.000000
1302750.081230,0.000000,1.000000,2.000000,0.000000,1.000000,-1.000000,-2.000000,-1.000000
1302750.081242,-2.000000,0.000000,4.000000,4.000000,-1.000000,-3.000000,-4.000000,-1.000000
1302750.082182,0.000000,-1.000000,1.000000,-7.000000,-7.000000,-4.000000,-3.000000,-1.000000
1302750.082190,-3.000000,-5.000000,-4.000000,4.000000,0.000000,1.000000,2.000000,-3.000000
1302750.082984,0.000000,1.000000,2.000000,-3.000000,-6.000000,-6.000000,-1.000000,-3.000000
1302750.082993,3.000000,1.000000,-3.000000,-4.000000,0.000000,-3.000000,2.000000,2.000000
1302750.112582,-4.000000,1.000000,1.000000,0.000000,-4.000000,1.000000,-3.000000,0.000000
1302750.112610,-7.000000,-7.000000,-2.000000,2.000000,-5.000000,-3.000000,1.000000,-1.000000
1302750.119541,1.000000,-4.000000,-4.000000,-4.000000,-1.000000,2.000000,-2.000000,0.000000
1302750.119568,-1.000000,7.000000,3.000000,0.000000,2.000000,-1.000000,-1.000000,-3.000000
1302750.156441,-1.000000,-1.000000,1.000000,-2.000000,0.000000,1.000000,-2.000000,-3.000000
1302750.156459,-5.000000,-4.000000,-5.000000,-6.000000,-5.000000,-1.000000,-1.000000,0.000000
1302750.171296,-2.000000,-5.000000,-1.000000,3.000000,-1.000000,-2.000000,0.000000,-1.000000
1302750.171313,-1.000000,2.000000,-6.000000,-3.000000,-1.000000,0.000000,-3.000000,-3.000000
1302750.172536,-6.000000,-1.000000,0.000000,-1.000000,-6.000000,-1.000000,-2.000000,-2.000000
1302750.172552,0.000000,-1.000000,0.000000,-6.000000,-2.000000,-3.000000,-3.000000,0.000000
1302750.173199,-3.000000,0.000000,-4.000000,4.000000,4.000000,-3.000000,-3.000000,1.000000
1302750.173231,-1.000000,-1.000000,1.000000,2.000000,3.000000,0.000000,-3.000000,-4.000000
1302750.174680,-2.000000,1.000000,-4.000000,-4.000000,-5.000000,-3.000000,1.000000,-3.000000
1302750.174714,-3.000000,-1.000000,1.000000,-5.000000,-3.000000,-1.000000,0.000000,-4.000000
1302750.193869,-1.000000,-2.000000,0.000000,0.000000,2.000000,3.000000,0.000000,-1.000000
1302750.193886,-6.000000,-7.000000,-2.000000,-1.000000,-9.000000,-2.000000,-4.000000,-2.000000
1302750.195067,-5.000000,-2.000000,-2.000000,1.000000,-2.000000,-5.000000,-4.000000,-5.000000
1302750.195083,-2.000000,4.000000,-3.000000,1.000000,0.000000,9.000000,3.000000,0.000000
1302750.201708,-3.000000,-2.000000,3.000000,4.000000,0.000000,-5.000000,-1.000000,-1.000000
1302750.201746,-1.000000,4.000000,2.000000,3.000000,3.000000,0.000000,0.000000,1.000000
1302750.238565,0.000000,1.000000,1.000000,2.000000,6.000000,-2.000000,2.000000,-3.000000
1302750.238594,1.000000,0.000000,-1.000000,-3.000000,-3.000000,-1.000000,1.000000,0.000000
1302750.245982,0.000000,2.000000,2.000000,-3.000000,0.000000,0.000000,-1.000000,1.000000
1302750.245991,-1.000000,0.000000,-5.000000,2.000000,-1.000000,1.000000,-3.000000,-4.000000
1302750.276163,-1.000000,-3.000000,0.000000,0.000000,0.000000,-1.000000,1.000000,-1.000000
1302750.276175,3.000000,1.000000,2.000000,-2.000000,-3.000000,-2.000000,-2.000000,1.000000
1302750.283610,-1.000000,1.000000,-2.000000,1.000000,1.000000,4.000000,1.000000,3.000000
1302750.283620,0.000000,2.000000,1.000000,1.000000,-1.000000,-1.000000,1.000000,0.000000
1302750.291841,-2.000000,-4.000000,1.000000,-2.000000,-8.000000,-2.000000,-2.000000,-1.000000
1302750.291853,-3.000000,-1.000000,-2.000000,3.000000,2.000000,0.000000,1.000000,-2.000000
1302750.292183,-2.000000,-3.000000,0.000000,-7.000000,0.000000,0.000000,0.000000,-1.000000
1302750.292218,-3.000000,-2.000000,-2.000000,-2.000000,-4.000000,-2.000000,-1.000000,3.000000
1302750.293848,0.000000,0.000000,5.000000,-1.000000,-1.000000,4.000000,0.000000,1.000000
1302750.293859,-3.000000,1.000000,2.000000,2.000000,-4.000000,0.000000,-3.000000,-2.000000
1302750.313819,1.000000,-4.000000,-2.000000,-4.000000,-2.000000,0.000000,-3.000000,0.000000
1302750.313833,-3.000000,-4.000000,-5.000000,-5.000000,-2.000000,-2.000000,-1.000000,-1.000000
1302750.314921,-6.000000,2.000000,2.000000,3.000000,0.000000,1.000000,0.000000,0.000000
1302750.314932,-1.000000,-5.000000,0.000000,2.000000,-5.000000,-4.000000,-1.000000,-1.000000
1302750.336337,-2.000000,-3.000000,-2.000000,-3.000000,0.000000,-2.000000,1.000000,-1.000000
1302750.336347,-2.000000,2.000000,1.000000,5.000000,1.000000,0.000000,-2.000000,-4.000000
1302750.366367,-2.000000,1.000000,2.000000,-1.000000,2.000000,2.000000,3.000000,1.000000
1302750.366396,0.000000,-5.000000,-8.000000,-9.000000,-6.000000,3.000000,3.000000,3.000000
1302750.388541,-1.000000,-5.000000,3.000000,2.000000,2.000000,-2.000000,-2.000000,-2.000000
1302750.388570,-5.000000,7.000000,2.000000,3.000000,0.000000,4.000000,-2.000000,0.000000
1302750.411427,2.000000,-4.000000,-7.000000,-4.000000,-4.000000,-1.000000,-2.000000,0.000000
1302750.411440,0.000000,-5.000000,-4.000000,-4.000000,2.000000,-3.000000,-1.000000,-1.000000
1302750.433595,-4.000000,3.000000,-1.000000,2.000000,3.000000,3.000000,-3.000000,-1.000000
1302750.433607,-4.000000,-1.000000,-2.000000,-4.000000,-2.000000,1.000000,1.000000,-3.000000
1302750.456416,3.000000,-2.000000,0.000000,-6.000000,-6.000000,-1.000000,-3.000000,3.000000
1302750.456428,-2.000000,3.000000,2.000000,3.000000,6.000000,6.000000,-3.000000,-1.000000
1302750.471200,1.000000,-1.000000,2.000000,7.000000,-1.000000,-1.000000,-1.000000,-1.000000
1302750.471211,-2.000000,0.000000,-3.000000,-6.000000,-6.000000,-1.000000,0.000000,-1.000000
1302750.478679,-2.000000,-6.000000,-5.000000,-8.000000,-7.000000,-2.000000,-3.000000,-5.000000
1302750.478701,-3.000000,-1.000000,-2.000000,0.000000,1.000000,-1.000000,-3.000000,0.000000
1302750.508650,0.000000,2.000000,2.000000,1.000000,1.000000,-2.000000,3.000000,-1.000000
1302750.508662,-1.000000,1.000000,5.000000,6.000000,2.000000,0.000000,-1.000000,-3.000000
1302750.532321,-1.000000,1.000000,0.000000,2.000000,2.000000,4.000000,1.000000,0.000000
1302750.532340,-4.000000,-3.000000,-5.000000,-1.000000,-6.000000,-4.000000,-3.000000,-3.000000
1302750.555036,-1.000000,-2.000000,-2.000000,1.000000,-3.000000,-2.000000,0.000000,-3.000000
1302750.555059,0.000000,0.000000,0.000000,-5.000000,-3.000000,-2.000000,-1.000000,1.000000
1302750.556469,-6.000000,-2.000000,0.000000,2.000000,3.000000,-2.000000,1.000000,3.000000
1302750.556486,-3.000000,2.000000,2.000000,4.000000,6.000000,-2.000000,-4.000000,-3.000000
1302750.557187,-3.000000,-4.000000,-2.000000,2.000000,1.000000,-1.000000,-1.000000,-4.000000
1302750.557206,0.000000,1.000000,4.000000,2.000000,1.000000,0.000000,-1.000000,0.000000
1302750.569394,-1.000000,-3.000000,-2.000000,4.000000,0.000000,2.000000,0.000000,-1.000000
1302750.569416,-1.000000,2.000000,1.000000,1.000000,4.000000,2.000000,1.000000,1.000000
1302750.591514,-3.000000,-2.000000,-2.000000,-3.000000,-6.000000,-3.000000,-4.000000,-3.000000
1302750.591530,-5.000000,0.000000,0.000000,5.000000,6.000000,2.000000,1.000000,-1.000000
1302750.599077,-1.000000,-2.000000,-1.000000,-2.000000,-4.000000,-7.000000,-2.000000,-2.000000
1302750.599092,4.000000,-1.000000,0.000000,-8.000000,-7.000000,-3.000000,-2.000000,1.000000
1302750.613894,-3.000000,-3.000000,-2.000000,7.000000,-2.000000,0.000000,2.000000,-2.000000
1302750.613949,-2.000000,2.000000,5.000000,5.000000,0.000000,-1.000000,0.000000,-1.000000
1302750.636322,-2.000000,-3.000000,-3.000000,-1.000000,-4.000000,-6.000000,-1.000000,3.000000
1302750.636337,-3.000000,-2.000000,1.000000,1.000000,-1.000000,1.000000,-6.000000,-3.000000
1302750.644541,-4.000000,-2.000000,3.000000,1.000000,1.000000,1.000000,-4.000000,-1.000000
1302750.644554,1.000000,1.000000,1.000000,0.000000,1.000000,0.000000,1.000000,-5.000000
1302750.644927,-1.000000,3.000000,2.000000,-3.000000,0.000000,2.000000,0.000000,0.000000
1302750.644939,0.000000,4.000000,1.000000,3.000000,1.000000,2.000000,1.000000,-2.000000
1302750.652257,-1.000000,-3.000000,-4.000000,-5.000000,-9.000000,-3.000000,-4.000000,0.000000
1302750.652284,-1.000000,-4.000000,-7.000000,-8.000000,-4.000000,-6.000000,-1.000000,0.000000
1302750.652764,-1.000000,-2.000000,2.000000,2.000000,3.000000,0.000000,-1.000000,4.000000
1302750.652775,-2.000000,-1.000000,5.000000,0.000000,-1.000000,0.000000,0.000000,3.000000
1302750.666111,-4.000000,0.000000,-8.000000,-8.000000,-4.000000,-3.000000,-1.000000,1.000000
1302750.666134,-2.000000,-3.000000,-3.000000,-1.000000,2.000000,-6.000000,-1.000000,-3.000000
1302750.666891,-1.000000,1.000000,4.000000,6.000000,-3.000000,0.000000,-2.000000,-4.000000
1302750.666903,2.000000,0.000000,-1.000000,-3.000000,2.000000,1.000000,1.000000,3.000000
1302750.674287,1.000000,-2.000000,-2.000000,8.000000,-5.000000,0.000000,0.000000,-3.000000
1302750.674301,-2.000000,0.000000,1.000000,7.000000,5.000000,2.000000,-3.000000,-2.000000
1302750.688850,3.000000,1.000000,-9.000000,-3.000000,-3.000000,-4.000000,-6.000000,0.000000
1302750.688864,-4.000000,1.000000,-3.000000,-5.000000,-2.000000,-3.000000,1.000000,1.000000
1302750.726314,-4.000000,-4.000000,0.000000,0.000000,3.000000,-1.000000,3.000000,1.000000
1302750.726325,-2.000000,-2.000000,-1.000000,-1.000000,0.000000,-2.000000,-2.000000,-3.000000
1302750.748652,1.000000,1.000000,-1.000000,-6.000000,-7.000000,-5.000000,2.000000,-1.000000
1302750.748671,-1.000000,-2.000000,-2.000000,0.000000,-1.000000,-3.000000,-3.000000,-1.000000
1302750.749660,-4.000000,0.000000,-1.000000,5.000000,-2.000000,1.000000,0.000000,1.000000
1302750.749671,-1.000000,-4.000000,3.000000,-3.000000,-5.000000,-2.000000,-3.000000,-1.000000
1302750.750173,1.000000,3.000000,-3.000000,2.000000,-4.000000,-1.000000,-2.000000,0.000000
1302750.750182,-5.000000,-1.000000,3.000000,5.000000,5.000000,4.000000,1.000000,-1.000000
1302750.751809,0.000000,0.000000,-4.000000,0.000000,3.000000,3.000000,2.000000,-3.000000
1302750.751833,-1.000000,0.000000,-6.000000,-9.000000,-2.000000,-4.000000,0.000000,3.000000
1302750.752622,0.000000,-2.000000,5.000000,3.000000,-4.000000,-1.000000,-3.000000,-1.000000
1302750.752635,-5.000000,-2.000000,-3.000000,-4.000000,-1.000000,-2.000000,-2.000000,-1.000000
1302750.755960,-2.000000,-3.000000,-5.000000,-9.000000,-6.000000,-5.000000,0.000000,-2.000000
1302750.755970,-1.000000,1.000000,-4.000000,-1.000000,2.000000,-2.000000,0.000000,-1.000000
1302750.771257,-1.000000,2.000000,-2.000000,-2.000000,1.000000,-2.000000,-2.000000,-3.000000
1302750.771270,-2.000000,-2.000000,5.000000,9.000000,1.000000,-2.000000,1.000000,-1.000000
1302750.786293,4.000000,-1.000000,-1.000000,-1.000000,1.000000,0.000000,-1.000000,0.000000
1302750.786305,-1.000000,0.000000,-3.000000,5.000000,4.000000,-2.000000,1.000000,-6.000000
1302750.786769,2.000000,0.000000,0.000000,-7.000000,3.000000,-1.000000,3.000000,-2.000000
1302750.786779,-3.000000,-3.000000,-1.000000,-10.000000,-5.000000,-2.000000,-4.000000,-2.000000
1302750.794234,1.000000,0.000000,2.000000,10.000000,0.000000,3.000000,2.000000,-1.000000
1302750.794249,-3.000000,-3.000000,-4.000000,-13.000000,2.000000,0.000000,1.000000,-2.000000
1302750.808548,0.000000,-3.000000,-4.000000,-4.000000,-8.000000,-3.000000,-1.000000,1.000000
1302750.808577,-4.000000,0.000000,-3.000000,0.000000,-4.000000,-3.000000,0.000000,-1.000000
1302750.846000,1.000000,-1.000000,6.000000,1.000000,5.000000,3.000000,0.000000,0.000000
1302750.846011,-2.000000,-3.000000,-3.000000,-1.000000,-3.000000,-2.000000,-4.000000,-1.000000
1302750.853499,1.000000,3.000000,-2.000000,4.000000,4.000000,1.000000,-1.000000,1.000000
1302750.853527,1.000000,2.000000,0.000000,2.000000,2.000000,1.000000,-4.000000,-2.000000
1302750.869004,0.000000,0.000000,3.000000,1.000000,0.000000,-1.000000,-1.000000,-1.000000
1302750.869013,3.000000,-1.000000,-1.000000,-5.000000,-5.000000,0.000000,-2.000000,0.000000
1302750.869566,-1.000000,-4.000000,-2.000000,2.000000,4.000000,-2.000000,1.000000,-3.000000
1302750.869573,-6.000000,0.000000,0.000000,4.000000,2.000000,0.000000,-3.000000,0.000000
1302750.871239,2.000000,1.000000,-2.000000,-7.000000,-2.000000,-5.000000,0.000000,-2.000000
1302750.871250,-2.000000,-4.000000,-2.000000,-4.000000,-3.000000,-3.000000,-3.000000,-3.000000
1302750.871854,-2.000000,-3.000000,-3.000000,-4.000000,5.000000,3.000000,0.000000,0.000000
1302750.871863,-2.000000,0.000000,-2.000000,4.000000,-2.000000,1.000000,0.000000,1.000000
1302750.891228,0.000000,1.000000,0.000000,-3.000000,-1.000000,-3.000000,-4.000000,-1.000000
1302750.891247,0.000000,-3.000000,1.000000,10.000000,1.000000,1.000000,-3.000000,-1.000000
1302750.891516,-2.000000,-1.000000,-2.000000,-3.000000,-1.000000,-1.000000,-4.000000,1.000000
1302750.891542,0.000000,-5.000000,-6.000000,-7.000000,-6.000000,-4.000000,-2.000000,1.000000
1302750.913648,0.000000,3.000000,2.000000,2.000000,1.000000,1.000000,2.000000,-2.000000
1302750.913658,2.000000,6.000000,4.000000,-4.000000,0.000000,-2.000000,-1.000000,-1.000000
1302750.914152,0.000000,-1.000000,2.000000,0.000000,1.000000,-4.000000,-4.000000,3.000000
1302750.914180,-3.000000,0.000000,-2.000000,-3.000000,-6.000000,3.000000,-2.000000,-3.000000
1302750.915439,-3.000000,0.000000,-3.000000,3.000000,6.000000,1.000000,0.000000,-4.000000
1302750.915447,1.000000,0.000000,0.000000,-2.000000,-3.000000,-6.000000,-6.000000,0.000000
1302750.928688,-3.000000,0.000000,-1.000000,-3.000000,-5.000000,-3.000000,-3.000000,-1.000000
1302750.928699,0.000000,1.000000,2.000000,-2.000000,4.000000,1.000000,3.000000,-2.000000
1302750.951208,-1.000000,-4.000000,-1.000000,0.000000,-4.000000,1.000000,1.000000,2.000000
1302750.951219,2.000000,-1.000000,-3.000000,-6.000000,-1.000000,-2.000000,-1.000000,0.000000
1302750.966372,0.000000,2.000000,2.000000,7.000000,1.000000,3.000000,-3.000000,-2.000000
1302750.966385,-1.000000,0.000000,2.000000,0.000000,-3.000000,-1.000000,-1.000000,0.000000
1302751.003777,-1.000000,3.000000,-4.000000,-10.000000,-7.000000,-2.000000,-3.000000,2.000000
1302751.003789,-2.000000,-1.000000,-3.000000,1.000000,1.000000,-6.000000,-4.000000,-1.000000
1302751.004229,1.000000,1.000000,0.000000,-1.000000,3.000000,-2.000000,-1.000000,-1.000000
1302751.004237,0.000000,-5.000000,-5.000000,-10.000000,-3.000000,-2.000000,-3.000000,-1.000000
1302751.005165,1.000000,2.000000,1.000000,2.000000,6.000000,-1.000000,1.000000,0.000000
1302751.005172,-1.000000,1.000000,2.000000,5.000000,2.000000,4.000000,0.000000,-4.000000
1302751.005869,-1.000000,-4.000000,2.000000,5.000000,3.000000,0.000000,-3.000000,-2.000000
1302751.005876,1.000000,-2.000000,1.000000,0.000000,0.000000,-3.000000,2.000000,-1.000000
1302751.007846,3.000000,-4.000000,-5.000000,-4.000000,0.000000,-6.000000,-1.000000,1.000000
1302751.007857,-3.000000,3.000000,3.000000,3.000000,2.000000,3.000000,0.000000,-1.000000
1302751.026027,-3.000000,-3.000000,1.000000,3.000000,-1.000000,1.000000,0.000000,-2.000000
1302751.026037,-1.000000,-3.000000,-2.000000,-6.000000,-6.000000,-3.000000,0.000000,1.000000
1302751.026584,-1.000000,4.000000,0.000000,2.000000,-5.000000,-5.000000,-2.000000,1.000000
1302751.026605,-4.000000,-3.000000,5.000000,13.000000,6.000000,1.000000,-4.000000,-1.000000
1302751.041036,-2.000000,-2.000000,1.000000,-7.000000,-3.000000,-4.000000,1.000000,0.000000
1302751.041046,1.000000,-2.000000,-3.000000,5.000000,1.000000,-1.000000,3.000000,0.000000
1302751.048850,-3.000000,0.000000,1.000000,2.000000,3.000000,1.000000,0.000000,-3.000000
1302751.048861,-1.000000,-3.000000,4.000000,3.000000,-3.000000,2.000000,-4.000000,-3.000000
1302751.063652,-3.000000,-2.000000,3.000000,-6.000000,-5.000000,-8.000000,-3.000000,-3.000000
1302751.063664,0.000000,1.000000,-5.000000,-3.000000,1.000000,1.000000,2.000000,-1.000000
1302751.071110,-3.000000,-4.000000,-3.000000,4.000000,2.000000,2.000000,0.000000,-2.000000
1302751.071132,-1.000000,-3.000000,-6.000000,-17.000000,-6.000000,-2.000000,0.000000,1.000000
1302751.116409,3.000000,-3.000000,0.000000,-2.000000,-2.000000,-3.000000,1.000000,0.000000
1302751.116422,-2.000000,0.000000,4.000000,0.000000,6.000000,4.000000,-1.000000,-2.000000
1302751.124043,0.000000,-1.000000,-1.000000,-5.000000,-5.000000,-4.000000,0.000000,0.000000
1302751.124059,2.000000,1.000000,-4.000000,0.000000,0.000000,1.000000,-1.000000,-3.000000
1302751.146098,-1.000000,-2.000000,0.000000,0.000000,0.000000,0.000000,2.000000,-3.000000
1302751.146108,-1.000000,-1.000000,-7.000000,0.000000,0.000000,-1.000000,-1.000000,-1.000000
1302751.153900,-3.000000,-2.000000,-5.000000,-7.000000,-7.000000,-1.000000,-3.000000,-1.000000
1302751.153913,3.000000,2.000000,-1.000000,0.000000,-4.000000,-1.000000,-3.000000,0.000000
1302751.168731,0.000000,-3.000000,-3.000000,1.000000,0.000000,1.000000,-1.000000,0.000000
1302751.168743,-1.000000,-1.000000,2.000000,6.000000,2.000000,5.000000,0.000000,-1.000000
1302751.191402,0.000000,-4.000000,-3.000000,-8.000000,2.000000,-3.000000,-2.000000,1.000000
1302751.191411,-1.000000,-4.000000,0.000000,-3.000000,-1.000000,1.000000,-3.000000,1.000000
1302751.192032,0.000000,2.000000,1.000000,0.000000,0.000000,2.000000,2.000000,-3.000000
1302751.192039,-5.000000,-6.000000,-6.000000,-1.000000,0.000000,1.000000,1.000000,2.000000
1302751.192675,-4.000000,0.000000,-3.000000,-1.000000,2.000000,1.000000,-1.000000,-1.000000
1302751.192683,-1.000000,-3.000000,-2.000000,-1.000000,-5.000000,-5.000000,-3.000000,-2.000000
1302751.194365,-3.000000,-2.000000,-3.000000,-1.000000,2.000000,-1.000000,-5.000000,0.000000
1302751.194381,0.000000,0.000000,-2.000000,1.000000,-4.000000,-3.000000,-1.000000,-6.000000
1302751.195135,2.000000,0.000000,-1.000000,-6.000000,1.000000,-1.000000,0.000000,-2.000000
1302751.195144,2.000000,2.000000,1.000000,-1.000000,-1.000000,3.000000,2.000000,4.000000
1302751.206284,-3.000000,-1.000000,4.000000,7.000000,3.000000,0.000000,-1.000000,-6.000000
1302751.206297,-4.000000,-4.000000,-2.000000,-3.000000,-5.000000,-4.000000,-1.000000,2.000000
1302751.206837,0.000000,-5.000000,-3.000000,-2.000000,-8.000000,-2.000000,-3.000000,-1.000000
1302751.206846,-1.000000,1.000000,0.000000,2.000000,2.000000,0.000000,-2.000000,-1.000000
1302751.221755,-1.000000,1.000000,-1.000000,2.000000,0.000000,-4.000000,0.000000,-4.000000
1302751.221766,-1.000000,1.000000,-5.000000,-3.000000,-4.000000,-5.000000,-2.000000,-1.000000
1302751.243804,2.000000,-2.000000,-2.000000,-4.000000,-1.000000,-1.000000,-3.000000,-2.000000
1302751.243816,-1.000000,0.000000,-4.000000,1.000000,-4.000000,2.000000,-2.000000,-3.000000
1302751.244667,-3.000000,-2.000000,4.000000,6.000000,3.000000,-3.000000,-2.000000,-1.000000
1302751.244675,1.000000,0.000000,-6.000000,-5.000000,0.000000,4.000000,2.000000,-1.000000
1302751.245417,-2.000000,0.000000,1.000000,10.000000,1.000000,0.000000,-1.000000,-1.000000
1302751.245425,-3.000000,-3.000000,-4.000000,-5.000000,-1.000000,-1.000000,2.000000,-3.000000
1302751.266622,1.000000,-1.000000,1.000000,-7.000000,-8.000000,-4.000000,-2.000000,0.000000
1302751.266639,-1.000000,-2.000000,-4.000000,-7.000000,-1.000000,-4.000000,-3.000000,-3.000000
1302751.267434,-2.000000,-2.000000,1.000000,0.000000,1.000000,-2.000000,-4.000000,-3.000000
1302751.267444,-4.000000,-5.000000,-6.000000,-3.000000,-7.000000,-1.000000,0.000000,-1.000000
1302751.281083,2.000000,-2.000000,-1.000000,0.000000,-1.000000,-3.000000,-3.000000,1.000000
1302751.281103,-2.000000,1.000000,2.000000,10.000000,3.000000,2.000000,1.000000,0.000000
1302751.288810,-1.000000,1.000000,3.000000,-2.000000,2.000000,0.000000,2.000000,-1.000000
1302751.288820,-2.000000,-3.000000,0.000000,6.000000,1.000000,-1.000000,2.000000,-1.000000
1302751.311181,-1.000000,1.000000,-1.000000,4.000000,2.000000,1.000000,1.000000,-1.000000
1302751.311192,0.000000,-2.000000,-1.000000,0.000000,-1.000000,-1.000000,2.000000,-2.000000
1302751.326181,0.000000,-3.000000,0.000000,-5.000000,-1.000000,-2.000000,-2.000000,-1.000000
1302751.326210,-1.000000,0.000000,3.000000,3.000000,3.000000,1.000000,0.000000,0.000000
1302751.341627,1.000000,-3.000000,1.000000,-4.000000,3.000000,-3.000000,0.000000,-2.000000
1302751.341656,-2.000000,2.000000,4.000000,3.000000,-6.000000,-6.000000,-2.000000,1.000000
1302751.342257,-1.000000,0.000000,1.000000,0.000000,1.000000,-1.000000,-2.000000,-2.000000
1302751.342268,-1.000000,-3.000000,-3.000000,-4.000000,0.000000,0.000000,0.000000,0.000000
1302751.343628,0.000000,2.000000,1.000000,4.000000,-1.000000,-2.000000,-1.000000,-4.000000
1302751.343637,0.000000,4.000000,3.000000,0.000000,-1.000000,-1.000000,-2.000000,1.000000
1302751.348513,-2.000000,0.000000,5.000000,4.000000,6.000000,3.000000,-3.000000,-2.000000
1302751.348541,-2.000000,-3.000000,-4.000000,-7.000000,-1.000000,-3.000000,-3.000000,1.000000
1302751.363482,2.000000,-1.000000,-5.000000,-7.000000,-2.000000,-1.000000,-3.000000,-1.000000
1302751.363493,2.000000,3.000000,3.000000,0.000000,0.000000,0.000000,1.000000,-3.000000
1302751.364243,-2.000000,-2.000000,1.000000,2.000000,0.000000,-2.000000,0.000000,-3.000000
1302751.364262,0.000000,-1.000000,-4.000000,-3.000000,-1.000000,-1.000000,-4.000000,3.000000
1302751.386735,-1.000000,0.000000,-1.000000,-1.000000,1.000000,-1.000000,-1.000000,-1.000000
1302751.386747,-4.000000,1.000000,-1.000000,3.000000,-1.000000,0.000000,-4.000000,-3.000000
1302751.387372,-3.000000,-1.000000,0.000000,-1.000000,1.000000,0.000000,-1.000000,0.000000
1302751.387379,-3.000000,-1.000000,-3.000000,-11.000000,-2.000000,-4.000000,-2.000000,-2.000000
1302751.408833,-1.000000,-1.000000,4.000000,12.000000,6.000000,-1.000000,-1.000000,-2.000000
1302751.408858,-2.000000,-6.000000,-4.000000,-1.000000,-4.000000,-1.000000,-2.000000,-1.000000
1302751.423519,-1.000000,1.000000,-2.000000,-6.000000,-4.000000,-3.000000,0.000000,0.000000
1302751.423548,3.000000,-1.000000,2.000000,2.000000,1.000000,1.000000,2.000000,-1.000000
1302751.446477,-4.000000,-3.000000,-6.000000,1.000000,3.000000,-1.000000,0.000000,1.000000
1302751.446492,-2.000000,-1.000000,-4.000000,-5.000000,-6.000000,-3.000000,-1.000000,-3.000000
1302751.468520,2.000000,-2.000000,1.000000,-4.000000,1.000000,-3.000000,-1.000000,0.000000
1302751.468548,-4.000000,2.000000,6.000000,6.000000,-2.000000,2.000000,0.000000,0.000000
1302751.484171,-3.000000,-1.000000,-3.000000,-5.000000,-4.000000,-6.000000,1.000000,-3.000000
1302751.484187,-2.000000,-2.000000,4.000000,5.000000,-3.000000,-1.000000,-3.000000,2.000000
1302751.484885,-6.000000,-1.000000,-1.000000,1.000000,1.000000,1.000000,-2.000000,-3.000000
1302751.484894,-3.000000,-4.000000,1.000000,1.000000,-2.000000,-3.000000,-4.000000,-3.000000
1302751.485918,-2.000000,-4.000000,-3.000000,-6.000000,-1.000000,0.000000,-2.000000,-1.000000
1302751.485927,1.000000,0.000000,3.000000,7.000000,1.000000,-2.000000,2.000000,-2.000000
1302751.486790,0.000000,0.000000,-2.000000,0.000000,-1.000000,3.000000,1.000000,-3.000000
1302751.486799,-4.000000,-3.000000,0.000000,-1.000000,-3.000000,0.000000,2.000000,-3.000000
1302751.498503,-2.000000,-1.000000,-3.000000,-2.000000,-1.000000,-4.000000,1.000000,-4.000000
1302751.498544,0.000000,-1.000000,3.000000,6.000000,0.000000,1.000000,1.000000,0.000000
1302751.499901,0.000000,0.000000,1.000000,3.000000,1.000000,-1.000000,-1.000000,-3.000000
1302751.499969,-3.000000,0.000000,-3.000000,-1.000000,-4.000000,-4.000000,-2.000000,-2.000000
1302751.506883,1.000000,-2.000000,-3.000000,-6.000000,-2.000000,-1.000000,-3.000000,4.000000
1302751.506904,-4.000000,4.000000,4.000000,0.000000,5.000000,0.000000,-1.000000,-1.000000
1302751.521538,-5.000000,-4.000000,-2.000000,-3.000000,-5.000000,1.000000,-2.000000,-1.000000
1302751.521578,-4.000000,-5.000000,-6.000000,-1.000000,-8.000000,-3.000000,0.000000,-3.000000
1302751.544240,2.000000,-3.000000,-2.000000,-5.000000,-1.000000,-2.000000,-1.000000,-1.000000
1302751.544278,1.000000,0.000000,-7.000000,-1.000000,4.000000,3.000000,-1.000000,0.000000
1302751.566080,-4.000000,-2.000000,2.000000,1.000000,-6.000000,-3.000000,-2.000000,-1.000000
1302751.566105,1.000000,-6.000000,1.000000,3.000000,2.000000,2.000000,1.000000,-2.000000
1302751.581306,-1.000000,3.000000,-1.000000,4.000000,4.000000,0.000000,-1.000000,0.000000
1302751.581316,-1.000000,-2.000000,-1.000000,-3.000000,-4.000000,-1.000000,0.000000,-3.000000
1302751.596754,-1.000000,-2.000000,-2.000000,-2.000000,-5.000000,-2.000000,3.000000,3.000000
1302751.596775,3.000000,-2.000000,-2.000000,-1.000000,0.000000,1.000000,-2.000000,0.000000
1302751.597263,3.000000,1.000000,2.000000,4.000000,0.000000,0.000000,-3.000000,0.000000
1302751.597273,2.000000,-2.000000,-1.000000,-1.000000,-4.000000,0.000000,3.000000,1.000000
1302751.603954,0.000000,3.000000,1.000000,2.000000,-3.000000,3.000000,-2.000000,1.000000
1302751.603983,-1.000000,-2.000000,-1.000000,1.000000,-3.000000,-4.000000,-3.000000,-1.000000
1302751.604901,-2.000000,-2.000000,-5.000000,-1.000000,-3.000000,-1.000000,1.000000,1.000000
1302751.604910,-1.000000,-5.000000,-6.000000,1.000000,0.000000,-2.000000,1.000000,-4.000000
1302751.618557,0.000000,-3.000000,-4.000000,-8.000000,-2.000000,0.000000,-1.000000,-1.000000
1302751.618567,-1.000000,1.000000,3.000000,3.000000,0.000000,-2.000000,-2.000000,-3.000000
1302751.620155,-1.000000,2.000000,-1.000000,-4.000000,-1.000000,0.000000,-3.000000,1.000000
1302751.620165,2.000000,-4.000000,-5.000000,-6.000000,-5.000000,-2.000000,-1.000000,1.000000
1302751.626277,-1.000000,-2.000000,-2.000000,5.000000,2.000000,3.000000,-1.000000,-3.000000
1302751.626288,2.000000,-2.000000,-2.000000,3.000000,2.000000,1.000000,0.000000,0.000000
1302751.641336,-1.000000,-4.000000,-1.000000,3.000000,-4.000000,-3.000000,0.000000,-1.000000
1302751.641355,-6.000000,0.000000,-5.000000,-4.000000,-5.000000,0.000000,-4.000000,-1.000000
1302751.656039,1.000000,1.000000,5.000000,3.000000,0.000000,1.000000,-2.000000,0.000000
1302751.656049,0.000000,-1.000000,-2.000000,-4.000000,-3.000000,-6.000000,1.000000,2.000000
1302751.678620,0.000000,-1.000000,-2.000000,2.000000,-4.000000,-1.000000,0.000000,3.000000
1302751.678634,-2.000000,2.000000,3.000000,0.000000,0.000000,-1.000000,0.000000,-3.000000
1302751.686215,0.000000,-3.000000,-3.000000,-1.000000,-1.000000,0.000000,-1.000000,-1.000000
1302751.686235,-2.000000,-2.000000,-3.000000,-5.000000,-5.000000,-6.000000,-6.000000,0.000000
1302751.708656,-3.000000,1.000000,2.000000,5.000000,3.000000,0.000000,-1.000000,2.000000
1302751.708666,-3.000000,-1.000000,-1.000000,1.000000,1.000000,1.000000,-3.000000,-3.000000
1302751.723824,-3.000000,-5.000000,-3.000000,-8.000000,-7.000000,-6.000000,-4.000000,-2.000000
1302751.723838,-1.000000,0.000000,0.000000,-3.000000,-3.000000,2.000000,-1.000000,0.000000
1302751.746357,0.000000,2.000000,2.000000,4.000000,1.000000,3.000000,-1.000000,-1.000000
1302751.746365,-3.000000,-3.000000,-4.000000,-3.000000,-3.000000,-2.000000,-3.000000,0.000000
1302751.747086,1.000000,-1.000000,-1.000000,3.000000,-2.000000,-1.000000,0.000000,-3.000000
1302751.747093,1.000000,0.000000,1.000000,3.000000,2.000000,0.000000,-2.000000,-3.000000
1302751.748760,-6.000000,-3.000000,-2.000000,-5.000000,-5.000000,0.000000,-1.000000,-3.000000
1302751.748771,2.000000,-4.000000,-7.000000,-8.000000,0.000000,3.000000,-3.000000,0.000000
1302751.749360,-1.000000,-2.000000,0.000000,-2.000000,0.000000,-1.000000,3.000000,2.000000
1302751.749371,-3.000000,3.000000,3.000000,0.000000,-2.000000,-3.000000,-1.000000,-3.000000
1302751.750035,-1.000000,-1.000000,-5.000000,-5.000000,-7.000000,-5.000000,0.000000,0.000000
1302751.750043,1.000000,1.000000,3.000000,0.000000,0.000000,0.000000,-3.000000,-1.000000
1302751.776235,0.000000,-2.000000,-1.000000,-1.000000,-4.000000,-2.000000,1.000000,0.000000
1302751.776302,3.000000,3.000000,1.000000,-1.000000,2.000000,3.000000,0.000000,-1.000000
1302751.783463,0.000000,-1.000000,3.000000,-4.000000,-1.000000,-1.000000,-4.000000,-1.000000
1302751.783472,0.000000,-4.000000,-4.000000,-6.000000,-2.000000,-3.000000,-2.000000,0.000000
1302751.798810,1.000000,-2.000000,-2.000000,0.000000,3.000000,1.000000,-1.000000,-1.000000
1302751.798821,-1.000000,-1.000000,2.000000,1.000000,-2.000000,-5.000000,0.000000,0.000000
1302751.821140,-2.000000,3.000000,-4.000000,1.000000,-3.000000,1.000000,-1.000000,-1.000000
1302751.821152,3.000000,-1.000000,3.000000,0.000000,-3.000000,-4.000000,0.000000,2.000000
1302751.822258,2.000000,1.000000,5.000000,2.000000,1.000000,2.000000,-4.000000,-3.000000
1302751.822270,-1.000000,-1.000000,0.000000,-2.000000,2.000000,-3.000000,1.000000,-2.000000
1302751.822954,2.000000,0.000000,-3.000000,-3.000000,-1.000000,-5.000000,-1.000000,-1.000000
1302751.822969,-1.000000,-1.000000,0.000000,0.000000,3.000000,0.000000,-3.000000,0.000000
1302751.824338,-1.000000,-1.000000,0.000000,-4.000000,-7.000000,-3.000000,-3.000000,-1.000000
1302751.824348,0.000000,-4.000000,-5.000000,-7.000000,-6.000000,-1.000000,-2.000000,1.000000
1302751.835972,-2.000000,-4.000000,0.000000,3.000000,4.000000,-3.000000,0.000000,1.000000
1302751.836005,-4.000000,1.000000,-1.000000,0.000000,0.000000,0.000000,0.000000,-3.000000
1302751.837451,2.000000,-2.000000,-7.000000,-7.000000,-3.000000,-2.000000,-4.000000,1.000000
1302751.837486,-2.000000,-3.000000,-3.000000,2.000000,0.000000,-1.000000,2.000000,3.000000
1302751.858572,0.000000,3.000000,2.000000,3.000000,5.000000,2.000000,-3.000000,0.000000
1302751.858582,-2.000000,-3.000000,0.000000,0.000000,-2.000000,4.000000,1.000000,-5.000000
1302751.859840,1.000000,-1.000000,1.000000,4.000000,2.000000,0.000000,-3.000000,0.000000
1302751.859847,1.000000,2.000000,2.000000,0.000000,-1.000000,1.000000,-2.000000,0.000000
1302751.866077,-4.000000,-3.000000,-2.000000,-6.000000,2.000000,0.000000,0.000000,0.000000
1302751.866106,0.000000,-6.000000,-6.000000,-6.000000,-7.000000,-5.000000,0.000000,-1.000000
1302751.881410,0.000000,-1.000000,1.000000,0.000000,-4.000000,0.000000,-1.000000,-4.000000
1302751.881447,4.000000,-1.000000,-2.000000,4.000000,1.000000,1.000000,-3.000000,-3.000000
1302751.896175,3.000000,-2.000000,-6.000000,-6.000000,0.000000,1.000000,-2.000000,-1.000000
1302751.896203,0.000000,-3.000000,4.000000,2.000000,3.000000,1.000000,1.000000,2.000000
1302751.910962,-2.000000,0.000000,4.000000,1.000000,2.000000,1.000000,-1.000000,-1.000000
1302751.910971,-4.000000,2.000000,-7.000000,-7.000000,-5.000000,0.000000,1.000000,-1.000000
1302751.919075,0.000000,-4.000000,-3.000000,-1.000000,0.000000,2.000000,-3.000000,-1.000000
1302751.919164,-1.000000,2.000000,1.000000,3.000000,3.000000,-1.000000,2.000000,-1.000000
1302751.941505,-2.000000,-4.000000,-1.000000,-5.000000,-3.000000,0.000000,-1.000000,-2.000000
1302751.941514,-2.000000,0.000000,-1.000000,1.000000,-5.000000,-1.000000,0.000000,0.000000
1302751.942178,1.000000,-1.000000,-1.000000,-1.000000,3.000000,4.000000,0.000000,-3.000000
1302751.942186,-1.000000,1.000000,-1.000000,6.000000,3.000000,-1.000000,-2.000000,-3.000000
1302751.943793,-2.000000,-6.000000,-3.000000,-8.000000,-7.000000,-3.000000,1.000000,0.000000
1302751.943824,-4.000000,1.000000,2.000000,-2.000000,-1.000000,-1.000000,-2.000000,-3.000000
1302751.956122,1.000000,5.000000,-1.000000,3.000000,-2.000000,0.000000,-1.000000,-1.000000
1302751.956152,0.000000,-4.000000,-5.000000,-4.000000,-6.000000,0.000000,-2.000000,-3.000000
1302751.957417,2.000000,0.000000,-2.000000,-2.000000,2.000000,2.000000,-2.000000,3.000000
1302751.957425,-3.000000,2.000000,-2.000000,0.000000,3.000000,3.000000,2.000000,-1.000000
1302751.978445,0.000000,1.000000,-3.000000,-5.000000,-4.000000,-5.000000,-1.000000,0.000000
1302751.978465,0.000000,1.000000,4.000000,4.000000,-1.000000,-5.000000,-1.000000,1.000000
1302751.979734,-2.000000,0.000000,1.000000,2.000000,2.000000,1.000000,0.000000,-1.000000
1302751.979744,-3.000000,-3.000000,2.000000,0.000000,1.000000,-2.000000,-2.000000,-1.000000
1302751.986033,-2.000000,-1.000000,4.000000,-6.000000,-1.000000,-5.000000,-1.000000,-1.000000
1302751.986044,-1.000000,-3.000000,-2.000000,5.000000,5.000000,3.000000,-1.000000,0.000000
1302752.001255,-2.000000,-1.000000,2.000000,1.000000,-1.000000,3.000000,-1.000000,-2.000000
1302752.001267,0.000000,2.000000,0.000000,0.000000,-3.000000,-2.000000,-6.000000,-1.000000
1302752.023604,-1.000000,-3.000000,-1.000000,4.000000,-2.000000,-2.000000,0.000000,-3.000000
1302752.023615,-1.000000,-2.000000,-3.000000,-5.000000,2.000000,-1.000000,-3.000000,-2.000000
1302752.053660,0.000000,1.000000,3.000000,0.000000,0.000000,-4.000000,-3.000000,-1.000000
1302752.053673,-3.000000,-3.000000,1.000000,-3.000000,1.000000,-4.000000,0.000000,1.000000
1302752.060888,1.000000,0.000000,0.000000,4.000000,3.000000,0.000000,1.000000,0.000000
1302752.060902,-1.000000,-2.000000,2.000000,5.000000,1.000000,5.000000,-1.000000,-2.000000
1302752.062055,2.000000,-1.000000,-4.000000,-11.000000,-4.000000,-3.000000,0.000000,1.000000
1302752.062076,-5.000000,1.000000,1.000000,0.000000,-3.000000,0.000000,-3.000000,-5.000000
1302752.062694,-4.000000,3.000000,2.000000,2.000000,6.000000,4.000000,-3.000000,-4.000000
1302752.062713,2.000000,1.000000,-2.000000,0.000000,-4.000000,-6.000000,0.000000,0.000000
1302752.064197,1.000000,1.000000,-1.000000,-1.000000,-1.000000,-2.000000,2.000000,-2.000000
1302752.064217,-3.000000,5.000000,3.000000,-3.000000,-3.000000,-3.000000,-3.000000,-3.000000
1302752.075929,-1.000000,1.000000,-3.000000,-2.000000,-3.000000,-5.000000,0.000000,0.000000
1302752.075962,4.000000,-2.000000,-1.000000,-6.000000,-3.000000,-2.000000,-1.000000,0.000000
1302752.077721,-2.000000,3.000000,0.000000,6.000000,-4.000000,0.000000,-1.000000,-1.000000
1302752.077732,-2.000000,0.000000,0.000000,-6.000000,0.000000,0.000000,-1.000000,-2.000000
1302752.099395,2.000000,-1.000000,-1.000000,-1.000000,-5.000000,-5.000000,-1.000000,0.000000
1302752.099412,-1.000000,-2.000000,0.000000,1.000000,3.000000,1.000000,-3.000000,1.000000
1302752.100029,-3.000000,-3.000000,-3.000000,9.000000,4.000000,3.000000,0.000000,-7.000000
1302752.100043,-4.000000,-1.000000,-1.000000,-6.000000,0.000000,-4.000000,-2.000000,-1.000000
1302752.106400,1.000000,-2.000000,-5.000000,-4.000000,-3.000000,-1.000000,0.000000,1.000000
1302752.106411,-2.000000,-1.000000,4.000000,1.000000,1.000000,0.000000,0.000000,-2.000000
1302752.121046,2.000000,1.000000,-1.000000,0.000000,-3.000000,-1.000000,0.000000,-2.000000
1302752.121058,-1.000000,-2.000000,-7.000000,-1.000000,-4.000000,-4.000000,-1.000000,1.000000
1302752.136294,-4.000000,-3.000000,0.000000,-3.000000,-4.000000,2.000000,0.000000,-5.000000
1302752.136306,-2.000000,3.000000,-4.000000,-3.000000,-4.000000,-5.000000,0.000000,-2.000000
1302752.158607,1.000000,-3.000000,-2.000000,-7.000000,-4.000000,-1.000000,-5.000000,-4.000000
1302752.158617,2.000000,3.000000,2.000000,-1.000000,-2.000000,2.000000,-1.000000,-3.000000
1302752.166353,1.000000,0.000000,0.000000,2.000000,1.000000,-2.000000,-1.000000,-4.000000
1302752.166363,1.000000,2.000000,0.000000,-4.000000,-4.000000,-3.000000,-1.000000,1.000000
1302752.174222,-3.000000,4.000000,-4.000000,-3.000000,1.000000,-5.000000,1.000000,3.000000
1302752.174232,-1.000000,2.000000,4.000000,13.000000,6.000000,1.000000,0.000000,-1.000000
1302752.174728,-3.000000,-2.000000,-5.000000,-4.000000,-5.000000,-3.000000,-4.000000,-2.000000
1302752.174736,-1.000000,-5.000000,-7.000000,1.000000,-2.000000,1.000000,-3.000000,0.000000
1302752.181336,1.000000,0.000000,4.000000,2.000000,2.000000,5.000000,-2.000000,0.000000
1302752.181348,-1.000000,-3.000000,0.000000,1.000000,-1.000000,-5.000000,1.000000,-3.000000
1302752.196187,2.000000,-3.000000,-8.000000,-1.000000,-3.000000,-2.000000,2.000000,-1.000000
1302752.196199,-4.000000,0.000000,2.000000,-1.000000,2.000000,1.000000,-3.000000,-1.000000
1302752.219226,-2.000000,3.000000,-5.000000,0.000000,-5.000000,0.000000,-5.000000,-5.000000
1302752.219236,-2.000000,0.000000,0.000000,0.000000,0.000000,-3.000000,-3.000000,-2.000000
1302752.219754,1.000000,-4.000000,-3.000000,0.000000,-3.000000,4.000000,0.000000,-1.000000
1302752.219765,0.000000,-3.000000,-1.000000,1.000000,3.000000,1.000000,-1.000000,-3.000000
1302752.221545,-1.000000,1.000000,0.000000,2.000000,-3.000000,-4.000000,0.000000,1.000000
1302752.221556,3.000000,-2.000000,0.000000,0.000000,0.000000,2.000000,0.000000,0.000000
1302752.233647,0.000000,0.000000,0.000000,-1.000000,0.000000,0.000000,-1.000000,1.000000
1302752.233660,1.000000,2.000000,3.000000,-1.000000,-1.000000,-4.000000,0.000000,-3.000000
1302752.256039,-2.000000,-2.000000,-6.000000,-4.000000,-8.000000,-2.000000,0.000000,1.000000
1302752.256049,2.000000,0.000000,0.000000,0.000000,-6.000000,1.000000,-3.000000,0.000000
1302752.263800,0.000000,0.000000,-1.000000,6.000000,1.000000,-2.000000,-4.000000,-3.000000
1302752.263811,-1.000000,-6.000000,-4.000000,-6.000000,-5.000000,-7.000000,-3.000000,0.000000
1302752.278918,2.000000,-2.000000,-2.000000,-2.000000,-4.000000,4.000000,1.000000,-2.000000
1302752.278931,-2.000000,0.000000,0.000000,3.000000,4.000000,-1.000000,1.000000,1.000000
1302752.301189,2.000000,0.000000,-4.000000,-2.000000,-2.000000,1.000000,-1.000000,-3.000000
1302752.301201,1.000000,-8.000000,-7.000000,-4.000000,-5.000000,0.000000,-3.000000,0.000000
1302752.331587,-2.000000,-1.000000,3.000000,2.000000,2.000000,-1.000000,2.000000,-3.000000
1302752.331602,-4.000000,1.000000,1.000000,-4.000000,1.000000,-2.000000,-3.000000,-3.000000
1302752.338778,-1.000000,-3.000000,-5.000000,-2.000000,-11.000000,-3.000000,0.000000,1.000000
1302752.338798,1.000000,0.000000,0.000000,0.000000,1.000000,2.000000,-2.000000,-2.000000
1302752.376331,-3.000000,2.000000,0.000000,-4.000000,-2.000000,-1.000000,1.000000,-2.000000
1302752.376343,0.000000,-1.000000,-4.000000,-3.000000,-1.000000,-2.000000,-1.000000,0.000000
1302752.383758,-2.000000,-2.000000,-2.000000,1.000000,2.000000,0.000000,1.000000,1.000000
1302752.383773,-1.000000,4.000000,1.000000,3.000000,-3.000000,-2.000000,-4.000000,-3.000000
1302752.391174,1.000000,0.000000,4.000000,-2.000000,2.000000,-3.000000,0.000000,-1.000000
1302752.391183,1.000000,1.000000,2.000000,1.000000,1.000000,-1.000000,1.000000,-1.000000
1302752.398491,-3.000000,1.000000,5.000000,-4.000000,1.000000,1.000000,-1.000000,-4.000000
1302752.398519,-1.000000,1.000000,-4.000000,-1.000000,-4.000000,-3.000000,-1.000000,0.000000
1302752.413785,0.000000,2.000000,-6.000000,2.000000,1.000000,0.000000,1.000000,0.000000
1302752.413798,-4.000000,1.000000,-1.000000,0.000000,3.000000,0.000000,0.000000,1.000000
1302752.414758,0.000000,3.000000,3.000000,-2.000000,-4.000000,3.000000,1.000000,-2.000000
1302752.414766,1.000000,-2.000000,1.000000,-8.000000,-3.000000,-6.000000,-2.000000,1.000000
1302752.415203,1.000000,-1.000000,-3.000000,-6.000000,-8.000000,-2.000000,-3.000000,-1.000000
1302752.415211,-3.000000,-1.000000,-3.000000,2.000000,2.000000,0.000000,2.000000,3.000000
1302752.415871,1.000000,1.000000,1.000000,3.000000,-1.000000,-1.000000,-2.000000,-1.000000
1302752.415880,-4.000000,-4.000000,0.000000,-5.000000,-1.000000,-5.000000,2.000000,2.000000
1302752.416556,-1.000000,1.000000,-2.000000,-3.000000,-6.000000,0.000000,-1.000000,0.000000
1302752.416567,-4.000000,-1.000000,-1.000000,3.000000,3.000000,0.000000,-2.000000,-4.000000
1302752.436216,-1.000000,-4.000000,-1.000000,5.000000,3.000000,0.000000,3.000000,-2.000000
1302752.436225,-3.000000,-4.000000,-2.000000,-2.000000,1.000000,0.000000,-2.000000,2.000000
1302752.451169,-2.000000,1.000000,3.000000,-2.000000,1.000000,0.000000,0.000000,-2.000000
1302752.451179,3.000000,-3.000000,-5.000000,-4.000000,-1.000000,-1.000000,-4.000000,-1.000000
1302752.473683,0.000000,-1.000000,-4.000000,-2.000000,-4.000000,-2.000000,-1.000000,2.000000
1302752.473695,-4.000000,5.000000,-1.000000,2.000000,-1.000000,-3.000000,-2.000000,0.000000
1302752.496320,-4.000000,5.000000,4.000000,-2.000000,0.000000,1.000000,0.000000,-2.000000
1302752.496331,4.000000,-1.000000,0.000000,-1.000000,1.000000,-3.000000,3.000000,0.000000
1302752.533532,-1.000000,-1.000000,1.000000,-4.000000,3.000000,0.000000,-1.000000,-3.000000
1302752.533553,-5.000000,2.000000,0.000000,0.000000,2.000000,-3.000000,-1.000000,-1.000000
1302752.534587,-5.000000,0.000000,0.000000,-1.000000,0.000000,0.000000,-1.000000,1.000000
1302752.534614,0.000000,-3.000000,-3.000000,-6.000000,-4.000000,2.000000,0.000000,-1.000000
1302752.535109,0.000000,-2.000000,0.000000,-1.000000,3.000000,2.000000,-1.000000,-1.000000
1302752.535135,-1.000000,-2.000000,-5.000000,-2.000000,-1.000000,-2.000000,0.000000,1.000000
1302752.548662,-4.000000,-5.000000,-3.000000,-4.000000,3.000000,0.000000,-2.000000,1.000000
1302752.548675,0.000000,-1.000000,-2.000000,-2.000000,-3.000000,-1.000000,-5.000000,0.000000
1302752.556402,-1.000000,-1.000000,2.000000,-1.000000,-2.000000,-3.000000,-3.000000,0.000000
1302752.556415,1.000000,-3.000000,-4.000000,-7.000000,-4.000000,-2.000000,-2.000000,0.000000
1302752.578439,1.000000,6.000000,1.000000,-1.000000,-1.000000,1.000000,-1.000000,2.000000
1302752.578468,-5.000000,-5.000000,1.000000,5.000000,4.000000,0.000000,0.000000,-2.000000
1302752.593988,0.000000,-2.000000,-5.000000,-3.000000,-3.000000,0.000000,-3.000000,-1.000000
1302752.593999,-1.000000,-1.000000,-4.000000,0.000000,2.000000,-4.000000,1.000000,-4.000000
1302752.608918,1.000000,-1.000000,0.000000,4.000000,3.000000,2.000000,-1.000000,-2.000000
1302752.608930,-3.000000,-3.000000,1.000000,0.000000,-5.000000,-6.000000,-5.000000,-3.000000
1302752.631093,-4.000000,0.000000,4.000000,-9.000000,-3.000000,-6.000000,0.000000,4.000000
1302752.631103,0.000000,-1.000000,3.000000,1.000000,-1.000000,-2.000000,-3.000000,-3.000000
1302752.653826,0.000000,0.000000,3.000000,2.000000,3.000000,4.000000,2.000000,1.000000
1302752.653840,4.000000,-2.000000,-5.000000,-6.000000,-2.000000,-3.000000,1.000000,-3.000000
1302752.654780,-2.000000,-3.000000,1.000000,-3.000000,-2.000000,-2.000000,-6.000000,1.000000
1302752.654790,2.000000,-1.000000,0.000000,1.000000,-1.000000,-3.000000,-3.000000,-1.000000
1302752.655384,-1.000000,-7.000000,-1.000000,-6.000000,-5.000000,-3.000000,2.000000,0.000000
1302752.655394,2.000000,-1.000000,-7.000000,-4.000000,1.000000,-1.000000,0.000000,0.000000
1302752.656588,-3.000000,1.000000,6.000000,6.000000,6.000000,-1.000000,2.000000,-1.000000
1302752.656597,-1.000000,-2.000000,-2.000000,1.000000,-4.000000,-5.000000,3.000000,-1.000000
1302752.668836,-3.000000,0.000000,-3.000000,-3.000000,0.000000,-1.000000,0.000000,-2.000000
1302752.668850,-3.000000,-2.000000,-2.000000,3.000000,3.000000,1.000000,-3.000000,-1.000000
1302752.669912,2.000000,-2.000000,-3.000000,-7.000000,-4.000000,-2.000000,-2.000000,-3.000000
1302752.669944,1.000000,0.000000,-3.000000,-3.000000,0.000000,0.000000,1.000000,2.000000
1302752.691748,-2.000000,1.000000,-4.000000,2.000000,2.000000,1.000000,-2.000000,0.000000
1302752.691782,-1.000000,0.000000,1.000000,1.000000,-1.000000,-3.000000,3.000000,-2.000000
1302752.693247,-2.000000,1.000000,-7.000000,-6.000000,-6.000000,-2.000000,-1.000000,-1.000000
1302752.693270,-1.000000,-1.000000,-4.000000,-5.000000,-3.000000,1.000000,0.000000,1.000000
1302752.699352,-4.000000,-4.000000,1.000000,-1.000000,1.000000,-3.000000,-3.000000,-10.000000
1302752.699376,0.000000,-2.000000,0.000000,-4.000000,-4.000000,-3.000000,-1.000000,0.000000
1302752.729497,3.000000,2.000000,6.000000,2.000000,0.000000,2.000000,-1.000000,2.000000
1302752.729516,-1.000000,1.000000,-4.000000,-5.000000,-1.000000,1.000000,-2.000000,1.000000
1302752.736234,-2.000000,-2.000000,-4.000000,-13.000000,2.000000,-1.000000,-2.000000,1.000000
1302752.736246,-3.000000,-5.000000,-3.000000,1.000000,-3.000000,-3.000000,-2.000000,0.000000
1302752.773892,-1.000000,-1.000000,0.000000,4.000000,2.000000,-1.000000,-3.000000,0.000000
1302752.773910,1.000000,1.000000,3.000000,-3.000000,-5.000000,-4.000000,-3.000000,0.000000
1302752.774303,-3.000000,2.000000,-6.000000,-6.000000,-4.000000,1.000000,0.000000,2.000000
1302752.774314,-5.000000,1.000000,5.000000,7.000000,4.000000,-1.000000,-1.000000,-3.000000
1302752.775309,-1.000000,-2.000000,-3.000000,-3.000000,1.000000,0.000000,-2.000000,0.000000
1302752.775319,2.000000,-2.000000,-6.000000,-10.000000,-1.000000,-6.000000,0.000000,3.000000
1302752.775952,0.000000,-2.000000,-2.000000,1.000000,3.000000,-2.000000,-3.000000,-3.000000
1302752.775962,-1.000000,-1.000000,6.000000,5.000000,0.000000,1.000000,0.000000,-2.000000
1302752.777973,1.000000,-6.000000,-3.000000,8.000000,-1.000000,5.000000,-1.000000,1.000000
1302752.777986,0.000000,1.000000,-3.000000,-8.000000,0.000000,0.000000,-1.000000,0.000000
1302752.788653,2.000000,2.000000,5.000000,10.000000,1.000000,-2.000000,0.000000,-1.000000
1302752.788665,2.000000,1.000000,2.000000,-3.000000,-1.000000,-2.000000,0.000000,0.000000
1302752.790392,-1.000000,-7.000000,-4.000000,-1.000000,0.000000,0.000000,-1.000000,-3.000000
1302752.790446,1.000000,2.000000,0.000000,1.000000,3.000000,-4.000000,3.000000,0.000000
1302752.812309,0.000000,1.000000,-3.000000,0.000000,1.000000,-2.000000,-2.000000,0.000000
1302752.812351,0.000000,-4.000000,-4.000000,-8.000000,-7.000000,-4.000000,2.000000,-3.000000
1302752.813755,-4.000000,-5.000000,-3.000000,2.000000,1.000000,-4.000000,1.000000,-2.000000
1302752.813988,-1.000000,1.000000,5.000000,2.000000,1.000000,4.000000,-2.000000,-4.000000
1302752.827378,1.000000,-3.000000,-1.000000,-3.000000,-5.000000,-3.000000,-2.000000,-3.000000
1302752.827408,-2.000000,-4.000000,-1.000000,-2.000000,0.000000,-3.000000,3.000000,-2.000000
1302752.856430,-1.000000,-1.000000,1.000000,6.000000,5.000000,-2.000000,-3.000000,-1.000000
1302752.856445,-3.000000,-3.000000,-1.000000,-4.000000,1.000000,1.000000,1.000000,-5.000000
1302752.871327,3.000000,2.000000,0.000000,-3.000000,-6.000000,-2.000000,-1.000000,2.000000
1302752.871343,1.000000,1.000000,1.000000,-5.000000,-1.000000,-1.000000,-2.000000,1.000000
1302752.872439,0.000000,3.000000,3.000000,2.000000,-4.000000,-3.000000,-1.000000,-3.000000
1302752.872454,-1.000000,-2.000000,-2.000000,-6.000000,0.000000,-3.000000,-6.000000,1.000000
1302752.873221,0.000000,-2.000000,-3.000000,0.000000,-2.000000,0.000000,2.000000,-2.000000
1302752.873253,-4.000000,-1.000000,4.000000,8.000000,5.000000,3.000000,1.000000,1.000000
1302752.874799,-1.000000,-1.000000,0.000000,-7.000000,-5.000000,-5.000000,1.000000,-1.000000
1302752.874815,2.000000,3.000000,0.000000,3.000000,7.000000,0.000000,-1.000000,-1.000000
1302752.886410,-3.000000,1.000000,-2.000000,2.000000,0.000000,1.000000,-1.000000,-4.000000
1302752.886420,0.000000,1.000000,0.000000,2.000000,-1.000000,-1.000000,-2.000000,1.000000
1302752.894169,0.000000,2.000000,-4.000000,-2.000000,-3.000000,-5.000000,1.000000,-1.000000
1302752.894177,-1.000000,4.000000,-1.000000,1.000000,2.000000,2.000000,-1.000000,-1.000000
1302752.908739,1.000000,1.000000,-2.000000,-3.000000,-3.000000,-5.000000,-2.000000,-2.000000
1302752.908751,-2.000000,-2.000000,-4.000000,-5.000000,-2.000000,-7.000000,-2.000000,-1.000000
1302752.909912,-3.000000,0.000000,3.000000,7.000000,2.000000,-1.000000,-1.000000,-3.000000
1302752.909921,0.000000,-4.000000,-1.000000,-6.000000,7.000000,5.000000,1.000000,-3.000000
1302752.931160,1.000000,-3.000000,-1.000000,-4.000000,-3.000000,-5.000000,0.000000,-1.000000
1302752.931170,-2.000000,-3.000000,-5.000000,3.000000,0.000000,0.000000,0.000000,-1.000000
1302752.932499,0.000000,3.000000,4.000000,2.000000,1.000000,-1.000000,-2.000000,-4.000000
1302752.932508,0.000000,-1.000000,-2.000000,0.000000,1.000000,-4.000000,3.000000,5.000000
1302752.946355,-1.000000,-2.000000,-2.000000,-3.000000,-4.000000,-3.000000,0.000000,-1.000000
1302752.946366,0.000000,1.000000,-3.000000,-3.000000,1.000000,-1.000000,0.000000,-2.000000
1302752.968676,-4.000000,-1.000000,0.000000,3.000000,0.000000,-3.000000,-3.000000,-2.000000
1302752.968688,0.000000,1.000000,1.000000,-3.000000,-2.000000,4.000000,-3.000000,-1.000000
1302752.991367,-3.000000,0.000000,-3.000000,1.000000,-1.000000,-1.000000,0.000000,0.000000
1302752.991380,0.000000,3.000000,1.000000,8.000000,5.000000,0.000000,0.000000,-2.000000
1302753.013769,-2.000000,-1.000000,-6.000000,-7.000000,0.000000,-3.000000,-4.000000,-1.000000
1302753.013781,-1.000000,-2.000000,-2.000000,-5.000000,-1.000000,4.000000,2.000000,3.000000
1302753.028612,0.000000,3.000000,3.000000,5.000000,3.000000,1.000000,1.000000,-2.000000
1302753.028622,-1.000000,-3.000000,-1.000000,-4.000000,1.000000,-4.000000,-7.000000,-2.000000
1302753.051889,-3.000000,-2.000000,0.000000,-8.000000,-2.000000,0.000000,-5.000000,3.000000
1302753.051899,-2.000000,3.000000,1.000000,8.000000,-2.000000,1.000000,-1.000000,-1.000000
1302753.066254,-1.000000,-1.000000,0.000000,-5.000000,-3.000000,-5.000000,0.000000,-1.000000
1302753.066313,0.000000,1.000000,-5.000000,1.000000,-2.000000,-2.000000,-1.000000,-1.000000
1302753.088934,0.000000,-2.000000,-4.000000,2.000000,-1.000000,0.000000,0.000000,2.000000
1302753.088946,3.000000,0.000000,-2.000000,4.000000,2.000000,-1.000000,4.000000,4.000000
1302753.111307,-2.000000,-4.000000,-3.000000,-6.000000,-4.000000,1.000000,0.000000,-2.000000
1302753.111334,0.000000,0.000000,0.000000,0.000000,8.000000,-1.000000,-2.000000,1.000000
1302753.133611,0.000000,-1.000000,1.000000,2.000000,-1.000000,2.000000,0.000000,0.000000
1302753.133621,2.000000,3.000000,4.000000,1.000000,1.000000,1.000000,-4.000000,-2.000000
1302753.134565,0.000000,1.000000,5.000000,7.000000,5.000000,2.000000,-3.000000,-3.000000
1302753.134573,2.000000,-1.000000,-4.000000,5.000000,1.000000,-2.000000,1.000000,-3.000000
1302753.136095,1.000000,1.000000,3.000000,-2.000000,0.000000,0.000000,2.000000,1.000000
1302753.136110,-5.000000,-3.000000,-4.000000,-5.000000,-6.000000,-1.000000,0.000000,-1.000000
1302753.141359,0.000000,-5.000000,-4.000000,-4.000000,-3.000000,-1.000000,-3.000000,0.000000
1302753.141371,-1.000000,-3.000000,2.000000,6.000000,-3.000000,2.000000,-3.000000,-1.000000
1302753.149489,-4.000000,1.000000,2.000000,-6.000000,-5.000000,-5.000000,0.000000,-2.000000
1302753.149501,-2.000000,-1.000000,-3.000000,-3.000000,-9.000000,-1.000000,1.000000,3.000000
1302753.163682,1.000000,-5.000000,3.000000,3.000000,1.000000,0.000000,-2.000000,0.000000
1302753.163694,-1.000000,2.000000,-2.000000,-4.000000,-2.000000,1.000000,-2.000000,-2.000000
1302753.178705,1.000000,2.000000,-4.000000,-9.000000,0.000000,-2.000000,0.000000,0.000000
1302753.178717,-1.000000,0.000000,-1.000000,-4.000000,0.000000,2.000000,-5.000000,2.000000
1302753.186400,-1.000000,-5.000000,-2.000000,0.000000,2.000000,-2.000000,1.000000,-5.000000
1302753.186414,-2.000000,1.000000,-2.000000,-2.000000,-2.000000,-3.000000,-4.000000,-5.000000
1302753.231389,1.000000,1.000000,0.000000,2.000000,-3.000000,1.000000,0.000000,3.000000
1302753.231403,-1.000000,0.000000,-1.000000,2.000000,4.000000,4.000000,-1.000000,0.000000
1302753.246200,2.000000,2.000000,4.000000,2.000000,-1.000000,-1.000000,1.000000,-1.000000
1302753.246212,4.000000,-2.000000,-5.000000,-7.000000,-4.000000,0.000000,0.000000,2.000000
1302753.269179,-2.000000,-1.000000,-2.000000,-4.000000,-3.000000,-3.000000,0.000000,-3.000000
1302753.269190,2.000000,1.000000,4.000000,0.000000,0.000000,0.000000,-1.000000,0.000000
1302753.269691,-1.000000,-3.000000,-1.000000,-6.000000,-6.000000,-4.000000,-1.000000,-1.000000
1302753.269699,0.000000,0.000000,-1.000000,-3.000000,0.000000,-1.000000,1.000000,0.000000
1302753.271330,-4.000000,-2.000000,-3.000000,-8.000000,-6.000000,-3.000000,-1.000000,-1.000000
1302753.271342,0.000000,2.000000,3.000000,-1.000000,5.000000,1.000000,1.000000,-3.000000
1302753.272499,-4.000000,-2.000000,4.000000,0.000000,0.000000,1.000000,-2.000000,2.000000
1302753.272508,-1.000000,-3.000000,2.000000,0.000000,-1.000000,0.000000,-2.000000,-2.000000
1302753.283729,-3.000000,0.000000,6.000000,7.000000,3.000000,-1.000000,2.000000,-2.000000
1302753.283740,-1.000000,0.000000,-1.000000,0.000000,-5.000000,2.000000,0.000000,0.000000
1302753.306145,-3.000000,-5.000000,-2.000000,-5.000000,-6.000000,0.000000,-5.000000,0.000000
1302753.306159,-3.000000,2.000000,-2.000000,0.000000,0.000000,1.000000,-1.000000,1.000000
1302753.328883,2.000000,-1.000000,4.000000,2.000000,1.000000,3.000000,-1.000000,-1.000000
1302753.328894,-1.000000,-2.000000,-7.000000,-5.000000,-3.000000,-6.000000,-3.000000,2.000000
1302753.358535,-3.000000,-3.000000,-1.000000,-5.000000,-3.000000,-1.000000,-4.000000,-4.000000
1302753.358544,-1.000000,-1.000000,-3.000000,-1.000000,-3.000000,1.000000,0.000000,-2.000000
1302753.366106,2.000000,0.000000,-8.000000,-10.000000,-6.000000,-3.000000,1.000000,1.000000
1302753.366117,-5.000000,-3.000000,-5.000000,2.000000,-3.000000,-1.000000,-2.000000,-3.000000
1302753.367111,-1.000000,0.000000,2.000000,5.000000,-1.000000,0.000000,-3.000000,-2.000000
1302753.367119,-3.000000,-1.000000,-2.000000,-2.000000,-3.000000,-1.000000,-2.000000,1.000000
1302753.367793,0.000000,1.000000,-3.000000,-1.000000,-3.000000,1.000000,-1.000000,-1.000000
1302753.367801,-4.000000,-1.000000,6.000000,15.000000,8.000000,2.000000,0.000000,-1.000000
1302753.388598,2.000000,-1.000000,0.000000,-4.000000,-2.000000,0.000000,-3.000000,0.000000
1302753.388610,-2.000000,0.000000,0.000000,0.000000,-2.000000,3.000000,0.000000,-1.000000
1302753.389087,-2.000000,-3.000000,-1.000000,3.000000,3.000000,1.000000,-3.000000,0.000000
1302753.389100,0.000000,-4.000000,0.000000,-7.000000,-2.000000,0.000000,-4.000000,0.000000
1302753.411282,2.000000,0.000000,-2.000000,-2.000000,-3.000000,1.000000,4.000000,0.000000
1302753.411293,3.000000,0.000000,1.000000,5.000000,4.000000,4.000000,-1.000000,-4.000000
1302753.426361,-4.000000,0.000000,-3.000000,1.000000,0.000000,-1.000000,-3.000000,-6.000000
1302753.426373,-2.000000,-4.000000,0.000000,2.000000,-6.000000,-1.000000,-2.000000,-1.000000
1302753.448491,-2.000000,2.000000,0.000000,-4.000000,0.000000,3.000000,0.000000,0.000000
1302753.448508,-1.000000,-2.000000,2.000000,0.000000,0.000000,-1.000000,1.000000,-2.000000
1302753.463928,1.000000,0.000000,-3.000000,-2.000000,0.000000,-4.000000,-1.000000,-1.000000
1302753.463941,2.000000,-1.000000,-2.000000,3.000000,1.000000,-2.000000,1.000000,0.000000
1302753.487892,0.000000,2.000000,0.000000,1.000000,0.000000,-2.000000,0.000000,-1.000000
1302753.487943,-5.000000,1.000000,-4.000000,-4.000000,-4.000000,-1.000000,-1.000000,-3.000000
1302753.490327,-1.000000,3.000000,-2.000000,-3.000000,1.000000,1.000000,-2.000000,-1.000000
1302753.490361,0.000000,1.000000,6.000000,7.000000,2.000000,0.000000,0.000000,-1.000000
1302753.490569,-1.000000,-3.000000,4.000000,6.000000,5.000000,-7.000000,-2.000000,1.000000
1302753.490614,-1.000000,-3.000000,-6.000000,-4.000000,-2.000000,0.000000,2.000000,-1.000000
