# participant_id: P7
# gesture: baseline
# trial_number: 1
# stream_name: Myo_EMG
# stream_type: emg
# timestamp: 20260420_150917
# samples: 5552
# duration_sec: 30.409
# nominal_sample_rate: 200.0
# effective_sample_rate: 182.54
#
timestamp,emg_1,emg_2,emg_3,emg_4,emg_5,emg_6,emg_7,emg_8
1302449.390648,1.000000,-1.000000,-8.000000,-5.000000,-1.000000,-2.000000,1.000000,-1.000000
1302449.390658,-2.000000,0.000000,-3.000000,1.000000,4.000000,-2.000000,2.000000,-3.000000
1302449.398149,-5.000000,18.000000,12.000000,2.000000,-15.000000,3.000000,1.000000,-3.000000
1302449.398178,6.000000,1.000000,-11.000000,-5.000000,4.000000,-1.000000,0.000000,3.000000
1302449.420513,-2.000000,-17.000000,-7.000000,8.000000,23.000000,-7.000000,-1.000000,-5.000000
1302449.420523,0.000000,2.000000,1.000000,-1.000000,-1.000000,1.000000,-2.000000,0.000000
1302449.420938,-6.000000,-4.000000,7.000000,4.000000,-4.000000,3.000000,2.000000,0.000000
1302449.420946,-3.000000,-23.000000,-18.000000,-11.000000,1.000000,-5.000000,2.000000,1.000000
1302449.422274,-4.000000,1.000000,0.000000,2.000000,-8.000000,-2.000000,-6.000000,-1.000000
1302449.422341,-3.000000,8.000000,11.000000,9.000000,-9.000000,5.000000,-3.000000,3.000000
1302449.423173,1.000000,-1.000000,-9.000000,-9.000000,-2.000000,-2.000000,2.000000,-1.000000
1302449.423181,-4.000000,-4.000000,-5.000000,-2.000000,5.000000,-2.000000,1.000000,-1.000000
1302449.443343,-5.000000,16.000000,7.000000,2.000000,-10.000000,0.000000,0.000000,1.000000
1302449.443355,-2.000000,-15.000000,-12.000000,0.000000,1.000000,-2.000000,1.000000,-6.000000
1302449.443790,-2.000000,-17.000000,-18.000000,-7.000000,9.000000,-6.000000,-2.000000,-1.000000
1302449.443798,-1.000000,2.000000,4.000000,9.000000,-5.000000,0.000000,1.000000,0.000000
1302449.450881,-4.000000,-6.000000,-1.000000,4.000000,0.000000,-3.000000,-2.000000,-1.000000
1302449.450893,2.000000,-15.000000,-11.000000,-9.000000,7.000000,-4.000000,3.000000,0.000000
1302449.465697,-2.000000,2.000000,2.000000,0.000000,2.000000,0.000000,-1.000000,-2.000000
1302449.465714,-1.000000,9.000000,14.000000,4.000000,-7.000000,5.000000,3.000000,0.000000
1302449.473132,-2.000000,-7.000000,-10.000000,-8.000000,-2.000000,-3.000000,-1.000000,-2.000000
1302449.473152,3.000000,5.000000,4.000000,2.000000,-1.000000,-1.000000,-2.000000,-3.000000
1302449.488478,-1.000000,17.000000,9.000000,1.000000,-1.000000,4.000000,1.000000,3.000000
1302449.488491,1.000000,-9.000000,-6.000000,0.000000,0.000000,-8.000000,-3.000000,0.000000
1302449.503238,-5.000000,-10.000000,-12.000000,-5.000000,2.000000,-7.000000,-3.000000,-7.000000
1302449.503250,1.000000,-3.000000,-4.000000,-10.000000,-5.000000,-2.000000,1.000000,-3.000000
1302449.525635,-3.000000,-4.000000,0.000000,4.000000,-1.000000,0.000000,2.000000,-2.000000
1302449.525647,0.000000,-16.000000,-14.000000,4.000000,7.000000,-6.000000,-1.000000,-1.000000
1302449.548570,-1.000000,0.000000,3.000000,-5.000000,5.000000,3.000000,1.000000,1.000000
1302449.548580,0.000000,4.000000,7.000000,3.000000,2.000000,7.000000,-1.000000,4.000000
1302449.549145,-1.000000,-5.000000,0.000000,-4.000000,-3.000000,-6.000000,-3.000000,0.000000
1302449.549154,-7.000000,-6.000000,-8.000000,-4.000000,-1.000000,-3.000000,-1.000000,-3.000000
1302449.550605,-2.000000,18.000000,13.000000,7.000000,-2.000000,4.000000,1.000000,2.000000
1302449.550618,-4.000000,-13.000000,-6.000000,0.000000,10.000000,-1.000000,-2.000000,1.000000
1302449.552157,1.000000,-9.000000,-12.000000,-11.000000,0.000000,-4.000000,1.000000,-5.000000
1302449.552167,1.000000,4.000000,4.000000,9.000000,3.000000,-1.000000,-1.000000,2.000000
1302449.563043,1.000000,-4.000000,-3.000000,-23.000000,-16.000000,-2.000000,-2.000000,0.000000
1302449.563060,2.000000,-16.000000,-16.000000,4.000000,5.000000,-3.000000,-2.000000,-3.000000
1302449.564508,-3.000000,1.000000,3.000000,2.000000,-2.000000,-3.000000,-3.000000,2.000000
1302449.564541,0.000000,13.000000,11.000000,0.000000,-13.000000,2.000000,-3.000000,1.000000
1302449.570448,-1.000000,1.000000,-5.000000,1.000000,-2.000000,-2.000000,-2.000000,-1.000000
1302449.570477,4.000000,7.000000,-4.000000,2.000000,-2.000000,-2.000000,-1.000000,-1.000000
1302449.608010,-1.000000,21.000000,13.000000,3.000000,-3.000000,5.000000,1.000000,-2.000000
1302449.608020,2.000000,-5.000000,-8.000000,-2.000000,-3.000000,-2.000000,-5.000000,1.000000
1302449.623468,-3.000000,-8.000000,-4.000000,-1.000000,6.000000,-3.000000,-2.000000,1.000000
1302449.623481,-3.000000,2.000000,1.000000,3.000000,-2.000000,-2.000000,0.000000,2.000000
1302449.645815,-7.000000,-14.000000,5.000000,13.000000,2.000000,-1.000000,-2.000000,-1.000000
1302449.645827,-2.000000,-15.000000,-16.000000,-3.000000,1.000000,-6.000000,-3.000000,-2.000000
1302449.660710,7.000000,11.000000,9.000000,-12.000000,1.000000,3.000000,1.000000,4.000000
1302449.660721,-1.000000,-2.000000,4.000000,-5.000000,-10.000000,-3.000000,-4.000000,-2.000000
1302449.683797,-3.000000,-2.000000,-1.000000,5.000000,9.000000,1.000000,-1.000000,-1.000000
1302449.683808,-4.000000,6.000000,-3.000000,-11.000000,-2.000000,-3.000000,-4.000000,-2.000000
1302449.684321,0.000000,12.000000,6.000000,3.000000,-6.000000,1.000000,-1.000000,0.000000
1302449.684331,-5.000000,-7.000000,4.000000,13.000000,2.000000,0.000000,-1.000000,-2.000000
1302449.685513,2.000000,-2.000000,-1.000000,-6.000000,3.000000,1.000000,-5.000000,1.000000
1302449.685523,-6.000000,-21.000000,-15.000000,-5.000000,5.000000,-4.000000,-3.000000,-3.000000
1302449.687513,-3.000000,-4.000000,-8.000000,0.000000,-2.000000,-6.000000,-1.000000,-2.000000
1302449.687526,1.000000,4.000000,-5.000000,-15.000000,-11.000000,-2.000000,0.000000,-2.000000
1302449.698193,2.000000,-3.000000,-4.000000,-4.000000,4.000000,-4.000000,-3.000000,-1.000000
1302449.698204,-1.000000,4.000000,3.000000,-1.000000,-3.000000,3.000000,-4.000000,-2.000000
1302449.720993,1.000000,-10.000000,-3.000000,-4.000000,-7.000000,-3.000000,-2.000000,-4.000000
1302449.721003,1.000000,-11.000000,-9.000000,-4.000000,10.000000,-4.000000,-2.000000,-3.000000
1302449.728163,1.000000,6.000000,0.000000,-2.000000,0.000000,2.000000,-2.000000,0.000000
1302449.728173,3.000000,1.000000,-1.000000,3.000000,-8.000000,-1.000000,1.000000,1.000000
1302449.750732,1.000000,-9.000000,-8.000000,-7.000000,-8.000000,-4.000000,4.000000,1.000000
1302449.750743,0.000000,5.000000,1.000000,3.000000,-6.000000,-1.000000,0.000000,2.000000
1302449.758053,1.000000,5.000000,13.000000,2.000000,-1.000000,3.000000,-2.000000,-2.000000
1302449.758063,-2.000000,-14.000000,-11.000000,1.000000,-1.000000,0.000000,-1.000000,-4.000000
1302449.780972,-3.000000,-5.000000,-5.000000,3.000000,0.000000,-7.000000,-1.000000,-2.000000
1302449.780985,-2.000000,4.000000,2.000000,0.000000,0.000000,-2.000000,-2.000000,0.000000
1302449.788036,1.000000,-6.000000,-5.000000,1.000000,-1.000000,0.000000,-1.000000,-3.000000
1302449.788047,4.000000,-11.000000,-11.000000,1.000000,7.000000,-5.000000,0.000000,1.000000
1302449.789180,-5.000000,-2.000000,2.000000,-10.000000,-3.000000,0.000000,-2.000000,0.000000
1302449.789189,-6.000000,-1.000000,1.000000,10.000000,-1.000000,2.000000,2.000000,-3.000000
1302449.789868,1.000000,-6.000000,-3.000000,3.000000,2.000000,-5.000000,-1.000000,-5.000000
1302449.789878,1.000000,11.000000,1.000000,4.000000,-3.000000,-3.000000,-1.000000,1.000000
1302449.791426,-1.000000,12.000000,15.000000,-2.000000,2.000000,7.000000,-4.000000,-1.000000
1302449.791435,-1.000000,-9.000000,-4.000000,-3.000000,-1.000000,-3.000000,-1.000000,1.000000
1302449.802923,-1.000000,-5.000000,-10.000000,1.000000,2.000000,-6.000000,0.000000,-4.000000
1302449.802932,-6.000000,9.000000,8.000000,1.000000,1.000000,1.000000,1.000000,1.000000
1302449.804340,0.000000,-7.000000,0.000000,2.000000,-2.000000,0.000000,-4.000000,-1.000000
1302449.804349,0.000000,-8.000000,-9.000000,-2.000000,-2.000000,-8.000000,-4.000000,1.000000
1302449.825899,-1.000000,1.000000,-2.000000,-1.000000,-5.000000,0.000000,1.000000,1.000000
1302449.825910,-4.000000,-2.000000,1.000000,4.000000,-1.000000,2.000000,-2.000000,0.000000
1302449.848090,-1.000000,-13.000000,-8.000000,-5.000000,3.000000,-7.000000,-2.000000,-5.000000
1302449.848100,-3.000000,3.000000,-2.000000,3.000000,0.000000,2.000000,-1.000000,-2.000000
1302449.855632,-3.000000,3.000000,8.000000,3.000000,-5.000000,4.000000,-3.000000,1.000000
1302449.855642,-2.000000,-1.000000,-4.000000,-1.000000,3.000000,-1.000000,1.000000,-1.000000
1302449.870876,-1.000000,1.000000,-5.000000,1.000000,1.000000,-6.000000,-4.000000,0.000000
1302449.870886,2.000000,9.000000,2.000000,-12.000000,-5.000000,3.000000,1.000000,-1.000000
1302449.878432,-5.000000,-6.000000,-10.000000,4.000000,1.000000,2.000000,0.000000,0.000000
1302449.878449,5.000000,-7.000000,-5.000000,-3.000000,-2.000000,-8.000000,-4.000000,-3.000000
1302449.879242,0.000000,1.000000,-2.000000,4.000000,13.000000,2.000000,2.000000,2.000000
1302449.879250,-5.000000,1.000000,4.000000,0.000000,-9.000000,0.000000,-2.000000,-1.000000
1302449.880046,-3.000000,-13.000000,-1.000000,-2.000000,-1.000000,-6.000000,-1.000000,-3.000000
1302449.880054,-3.000000,6.000000,-1.000000,-2.000000,0.000000,-2.000000,0.000000,-1.000000
1302449.915812,0.000000,8.000000,3.000000,10.000000,-1.000000,1.000000,-4.000000,-1.000000
1302449.915940,-2.000000,4.000000,-2.000000,-3.000000,-1.000000,2.000000,-1.000000,-3.000000
1302449.916364,3.000000,-1.000000,-6.000000,2.000000,8.000000,-1.000000,2.000000,0.000000
1302449.916372,-3.000000,12.000000,5.000000,8.000000,5.000000,4.000000,0.000000,2.000000
1302449.917208,0.000000,0.000000,-6.000000,-7.000000,-1.000000,1.000000,-4.000000,0.000000
1302449.917216,-2.000000,5.000000,-5.000000,2.000000,4.000000,-4.000000,1.000000,0.000000
1302449.918459,-5.000000,3.000000,1.000000,1.000000,2.000000,-2.000000,-1.000000,1.000000
1302449.918470,-2.000000,-4.000000,4.000000,2.000000,3.000000,2.000000,3.000000,-3.000000
1302449.923892,3.000000,-12.000000,-7.000000,9.000000,5.000000,-1.000000,2.000000,-3.000000
1302449.923901,-4.000000,8.000000,2.000000,9.000000,-1.000000,1.000000,1.000000,2.000000
1302449.938313,0.000000,2.000000,4.000000,-14.000000,-9.000000,5.000000,-1.000000,-3.000000
1302449.938340,2.000000,2.000000,2.000000,2.000000,-1.000000,2.000000,-4.000000,0.000000
1302449.975948,-4.000000,-5.000000,-8.000000,-8.000000,-4.000000,-6.000000,0.000000,0.000000
1302449.975960,-2.000000,10.000000,5.000000,8.000000,-4.000000,4.000000,-1.000000,1.000000
1302449.983313,0.000000,-3.000000,0.000000,4.000000,5.000000,1.000000,1.000000,3.000000
1302449.983326,0.000000,-17.000000,-9.000000,-10.000000,-8.000000,-3.000000,-2.000000,-3.000000
1302449.998043,-3.000000,4.000000,6.000000,-5.000000,-7.000000,1.000000,-1.000000,-2.000000
1302449.998088,-3.000000,1.000000,2.000000,9.000000,1.000000,-2.000000,2.000000,-2.000000
1302449.998441,-6.000000,-23.000000,-16.000000,-12.000000,5.000000,-5.000000,-1.000000,0.000000
1302449.998450,-2.000000,7.000000,-3.000000,-4.000000,-4.000000,-3.000000,-1.000000,-2.000000
1302449.999844,-1.000000,6.000000,8.000000,2.000000,-3.000000,3.000000,0.000000,-3.000000
1302449.999859,3.000000,2.000000,-2.000000,1.000000,1.000000,-5.000000,-1.000000,-2.000000
1302450.000561,-4.000000,0.000000,-1.000000,-2.000000,2.000000,3.000000,-2.000000,-6.000000
1302450.000569,-2.000000,14.000000,8.000000,1.000000,-12.000000,-1.000000,-3.000000,-1.000000
1302450.006300,-6.000000,-10.000000,-7.000000,-1.000000,-4.000000,-1.000000,-1.000000,2.000000
1302450.006343,3.000000,-14.000000,-13.000000,-10.000000,-3.000000,-5.000000,-3.000000,0.000000
1302450.020976,0.000000,7.000000,5.000000,7.000000,15.000000,3.000000,3.000000,1.000000
1302450.020989,-1.000000,-9.000000,6.000000,0.000000,3.000000,-1.000000,-1.000000,-3.000000
1302450.028904,-2.000000,-18.000000,-14.000000,-5.000000,2.000000,-7.000000,-2.000000,-1.000000
1302450.028916,-1.000000,2.000000,-2.000000,-3.000000,-16.000000,-1.000000,2.000000,-2.000000
1302450.042997,-1.000000,6.000000,8.000000,1.000000,-3.000000,0.000000,1.000000,-2.000000
1302450.043026,2.000000,1.000000,-4.000000,-1.000000,0.000000,-5.000000,-4.000000,1.000000
1302450.044459,3.000000,-1.000000,-5.000000,0.000000,-4.000000,-4.000000,-1.000000,-3.000000
1302450.044476,-1.000000,11.000000,9.000000,7.000000,-3.000000,3.000000,1.000000,2.000000
1302450.058428,-4.000000,-6.000000,-8.000000,-6.000000,1.000000,1.000000,-1.000000,-4.000000
1302450.058439,-1.000000,-7.000000,-4.000000,-9.000000,-5.000000,-8.000000,-3.000000,-6.000000
1302450.080818,-5.000000,2.000000,12.000000,16.000000,14.000000,6.000000,-2.000000,-1.000000
1302450.080833,0.000000,-9.000000,-3.000000,-4.000000,4.000000,0.000000,4.000000,-3.000000
1302450.103661,0.000000,-9.000000,-7.000000,-4.000000,1.000000,-7.000000,-4.000000,-1.000000
1302450.103672,1.000000,3.000000,2.000000,-9.000000,-6.000000,-2.000000,1.000000,-3.000000
1302450.119169,-4.000000,5.000000,6.000000,7.000000,-7.000000,-1.000000,0.000000,2.000000
1302450.119178,5.000000,-2.000000,0.000000,1.000000,5.000000,-1.000000,-2.000000,-4.000000
1302450.119651,-1.000000,0.000000,1.000000,-1.000000,2.000000,3.000000,0.000000,0.000000
1302450.119678,-1.000000,11.000000,2.000000,7.000000,-1.000000,5.000000,3.000000,1.000000
1302450.120553,2.000000,1.000000,3.000000,-14.000000,-15.000000,0.000000,-2.000000,-6.000000
1302450.120562,-5.000000,-21.000000,-12.000000,-5.000000,7.000000,-5.000000,-3.000000,-8.000000
1302450.121470,0.000000,4.000000,2.000000,0.000000,0.000000,-1.000000,-1.000000,3.000000
1302450.121479,-3.000000,1.000000,-5.000000,-7.000000,-8.000000,-3.000000,-5.000000,1.000000
1302450.126491,-5.000000,-3.000000,-1.000000,2.000000,11.000000,-1.000000,2.000000,-2.000000
1302450.126559,0.000000,-3.000000,2.000000,-5.000000,-5.000000,2.000000,-1.000000,-1.000000
1302450.133103,-4.000000,3.000000,4.000000,1.000000,-4.000000,2.000000,-4.000000,-5.000000
1302450.133119,-4.000000,-14.000000,-10.000000,-7.000000,-6.000000,-2.000000,-3.000000,-2.000000
1302450.156216,2.000000,6.000000,1.000000,-1.000000,2.000000,-2.000000,2.000000,-1.000000
1302450.156225,-6.000000,9.000000,6.000000,3.000000,-3.000000,5.000000,-2.000000,1.000000
1302450.157009,3.000000,-3.000000,-3.000000,-23.000000,-23.000000,-3.000000,-2.000000,-2.000000
1302450.157016,0.000000,-3.000000,-8.000000,-3.000000,3.000000,1.000000,1.000000,-1.000000
1302450.193066,-4.000000,1.000000,2.000000,0.000000,-5.000000,-3.000000,-3.000000,-2.000000
1302450.193096,-1.000000,-9.000000,-4.000000,4.000000,-2.000000,-5.000000,-3.000000,-2.000000
1302450.216254,0.000000,-17.000000,-8.000000,-7.000000,7.000000,-4.000000,-1.000000,2.000000
1302450.216277,-1.000000,4.000000,4.000000,-4.000000,-5.000000,3.000000,-1.000000,3.000000
1302450.253485,-1.000000,5.000000,4.000000,2.000000,-4.000000,5.000000,4.000000,2.000000
1302450.253497,-3.000000,-8.000000,0.000000,-3.000000,0.000000,-3.000000,-1.000000,-5.000000
1302450.260751,2.000000,8.000000,-5.000000,-10.000000,-13.000000,-3.000000,-2.000000,0.000000
1302450.260763,-1.000000,9.000000,6.000000,12.000000,-4.000000,1.000000,-1.000000,-2.000000
1302450.282942,0.000000,-2.000000,-4.000000,-21.000000,-1.000000,2.000000,0.000000,-1.000000
1302450.282955,-4.000000,-13.000000,-9.000000,2.000000,4.000000,-3.000000,4.000000,-5.000000
1302450.283410,-5.000000,6.000000,-1.000000,-5.000000,-8.000000,0.000000,2.000000,3.000000
1302450.283417,1.000000,-4.000000,-6.000000,8.000000,-3.000000,-1.000000,-4.000000,0.000000
1302450.284125,-9.000000,-6.000000,2.000000,6.000000,-5.000000,0.000000,0.000000,-2.000000
1302450.284133,0.000000,-7.000000,-2.000000,1.000000,-2.000000,-4.000000,-3.000000,-1.000000
1302450.284704,-2.000000,0.000000,-3.000000,1.000000,-1.000000,1.000000,4.000000,0.000000
1302450.284731,-1.000000,-6.000000,-9.000000,-4.000000,-3.000000,-7.000000,-1.000000,-3.000000
1302450.285309,-1.000000,4.000000,0.000000,-8.000000,-11.000000,2.000000,1.000000,1.000000
1302450.285336,-2.000000,3.000000,0.000000,-9.000000,-4.000000,1.000000,-3.000000,2.000000
1302450.286103,0.000000,-12.000000,-9.000000,2.000000,6.000000,-3.000000,0.000000,-6.000000
1302450.286129,-4.000000,-3.000000,4.000000,2.000000,-4.000000,-1.000000,1.000000,-6.000000
1302450.298296,-1.000000,4.000000,0.000000,-15.000000,6.000000,2.000000,-1.000000,-3.000000
1302450.298307,-1.000000,10.000000,5.000000,-8.000000,-12.000000,5.000000,2.000000,0.000000
1302450.313324,3.000000,0.000000,-2.000000,4.000000,0.000000,1.000000,1.000000,2.000000
1302450.313335,-4.000000,-4.000000,-11.000000,-9.000000,-4.000000,-6.000000,-3.000000,2.000000
1302450.320822,0.000000,-1.000000,6.000000,-1.000000,-1.000000,3.000000,-1.000000,2.000000
1302450.320857,1.000000,-3.000000,-10.000000,-9.000000,2.000000,-5.000000,0.000000,0.000000
1302450.343390,-2.000000,4.000000,3.000000,9.000000,4.000000,-3.000000,1.000000,1.000000
1302450.343401,0.000000,2.000000,-1.000000,0.000000,0.000000,-3.000000,-6.000000,-2.000000
1302450.351237,0.000000,-4.000000,0.000000,3.000000,-1.000000,-3.000000,0.000000,0.000000
1302450.351256,1.000000,-1.000000,-4.000000,-6.000000,4.000000,-4.000000,-5.000000,-3.000000
1302450.358607,-2.000000,6.000000,-3.000000,0.000000,5.000000,3.000000,-1.000000,-4.000000
1302450.358688,-3.000000,3.000000,-1.000000,-1.000000,-2.000000,1.000000,-2.000000,4.000000
1302450.359406,2.000000,0.000000,0.000000,-16.000000,-7.000000,-3.000000,0.000000,1.000000
1302450.359426,1.000000,-1.000000,-7.000000,-6.000000,0.000000,-3.000000,-1.000000,-2.000000
1302450.381156,0.000000,-8.000000,2.000000,1.000000,-6.000000,-1.000000,-1.000000,-5.000000
1302450.381184,-2.000000,-2.000000,-3.000000,-3.000000,-6.000000,1.000000,1.000000,-2.000000
1302450.381796,-2.000000,-6.000000,-5.000000,-1.000000,6.000000,-2.000000,-2.000000,0.000000
1302450.381804,-3.000000,-4.000000,0.000000,4.000000,3.000000,3.000000,1.000000,-2.000000
1302450.403322,-2.000000,2.000000,-3.000000,2.000000,-7.000000,-4.000000,-6.000000,1.000000
1302450.403381,-5.000000,-14.000000,-9.000000,-4.000000,-1.000000,-1.000000,1.000000,-2.000000
1302450.403729,5.000000,1.000000,-1.000000,10.000000,-2.000000,0.000000,0.000000,0.000000
1302450.403747,0.000000,10.000000,6.000000,-3.000000,-5.000000,-1.000000,-2.000000,-2.000000
1302450.405016,-2.000000,-11.000000,-6.000000,-2.000000,-4.000000,-3.000000,2.000000,-2.000000
1302450.405033,-1.000000,6.000000,-1.000000,0.000000,2.000000,-3.000000,-2.000000,-1.000000
1302450.418118,-4.000000,11.000000,-1.000000,-8.000000,-9.000000,5.000000,-2.000000,0.000000
1302450.418142,-2.000000,-7.000000,-1.000000,6.000000,3.000000,-4.000000,-3.000000,-2.000000
1302450.455684,-1.000000,-58.000000,-8.000000,-7.000000,2.000000,-5.000000,0.000000,-5.000000
1302450.455697,0.000000,17.000000,0.000000,7.000000,-1.000000,3.000000,0.000000,1.000000
1302450.463224,-3.000000,-3.000000,-4.000000,-2.000000,-2.000000,-3.000000,-4.000000,-3.000000
1302450.463234,1.000000,-13.000000,-5.000000,-12.000000,4.000000,-5.000000,-6.000000,-1.000000
1302450.478378,1.000000,3.000000,-4.000000,6.000000,1.000000,-3.000000,-1.000000,0.000000
1302450.478389,-4.000000,-3.000000,-1.000000,-10.000000,-6.000000,5.000000,2.000000,-1.000000
1302450.493066,-3.000000,-9.000000,2.000000,6.000000,-1.000000,-9.000000,-3.000000,-1.000000
1302450.493076,-1.000000,3.000000,-4.000000,-6.000000,-2.000000,-3.000000,-1.000000,0.000000
1302450.494234,-2.000000,2.000000,1.000000,5.000000,2.000000,1.000000,0.000000,-2.000000
1302450.494244,0.000000,-3.000000,3.000000,9.000000,-1.000000,-2.000000,-3.000000,-1.000000
1302450.494829,1.000000,-4.000000,-6.000000,-6.000000,3.000000,-2.000000,0.000000,-2.000000
1302450.494837,-2.000000,-1.000000,-3.000000,5.000000,-5.000000,-3.000000,-3.000000,2.000000
1302450.496468,0.000000,-5.000000,-1.000000,2.000000,-2.000000,-1.000000,-3.000000,-1.000000
1302450.496484,1.000000,-13.000000,-1.000000,6.000000,0.000000,-2.000000,-4.000000,1.000000
1302450.515623,-1.000000,-6.000000,-1.000000,-3.000000,-4.000000,-5.000000,0.000000,-1.000000
1302450.515633,-3.000000,4.000000,0.000000,0.000000,2.000000,-5.000000,0.000000,1.000000
1302450.516231,-4.000000,8.000000,6.000000,5.000000,2.000000,4.000000,-2.000000,0.000000
1302450.516240,1.000000,-1.000000,-4.000000,4.000000,-5.000000,0.000000,-4.000000,-4.000000
1302450.538181,1.000000,0.000000,-6.000000,-8.000000,2.000000,1.000000,2.000000,1.000000
1302450.538191,-1.000000,2.000000,1.000000,-1.000000,-8.000000,-1.000000,0.000000,1.000000
1302450.553273,-1.000000,1.000000,-2.000000,0.000000,1.000000,2.000000,0.000000,0.000000
1302450.553284,-2.000000,-14.000000,-8.000000,8.000000,10.000000,-5.000000,-3.000000,-4.000000
1302450.598377,1.000000,0.000000,-4.000000,1.000000,-5.000000,-1.000000,-2.000000,0.000000
1302450.598608,0.000000,7.000000,7.000000,7.000000,-1.000000,5.000000,-2.000000,-2.000000
1302450.598864,2.000000,-9.000000,-3.000000,-21.000000,-5.000000,-2.000000,-2.000000,3.000000
1302450.598890,2.000000,1.000000,-5.000000,-7.000000,-6.000000,-1.000000,-1.000000,-4.000000
1302450.613535,-7.000000,5.000000,8.000000,10.000000,0.000000,4.000000,0.000000,0.000000
1302450.613553,-3.000000,-8.000000,-5.000000,-6.000000,-13.000000,-7.000000,-3.000000,-2.000000
1302450.614469,2.000000,-7.000000,-6.000000,-6.000000,-2.000000,-6.000000,-1.000000,-4.000000
1302450.614497,3.000000,7.000000,8.000000,0.000000,-2.000000,-1.000000,-1.000000,1.000000
1302450.615467,-1.000000,2.000000,0.000000,1.000000,-3.000000,-4.000000,0.000000,0.000000
1302450.615476,-5.000000,-2.000000,-2.000000,3.000000,1.000000,5.000000,1.000000,1.000000
1302450.617171,3.000000,1.000000,-3.000000,-3.000000,-3.000000,-1.000000,-1.000000,3.000000
1302450.617198,3.000000,5.000000,-3.000000,0.000000,3.000000,-3.000000,0.000000,-1.000000
1302450.628187,-2.000000,-16.000000,-14.000000,-7.000000,4.000000,-7.000000,-2.000000,-5.000000
1302450.628197,-3.000000,4.000000,-3.000000,1.000000,-8.000000,4.000000,-1.000000,-1.000000
1302450.636083,-3.000000,-2.000000,5.000000,-2.000000,-2.000000,3.000000,0.000000,-1.000000
1302450.636113,6.000000,-5.000000,-13.000000,-3.000000,-2.000000,-1.000000,-1.000000,-1.000000
1302450.673192,-3.000000,6.000000,-4.000000,-5.000000,-9.000000,1.000000,-2.000000,0.000000
1302450.673202,-2.000000,7.000000,4.000000,6.000000,-2.000000,0.000000,-1.000000,-2.000000
1302450.680787,4.000000,-2.000000,4.000000,-1.000000,9.000000,0.000000,0.000000,-1.000000
1302450.680798,-4.000000,4.000000,-4.000000,-18.000000,-5.000000,-3.000000,0.000000,-4.000000
1302450.695610,2.000000,15.000000,8.000000,1.000000,-7.000000,4.000000,2.000000,1.000000
1302450.695644,1.000000,-6.000000,-6.000000,2.000000,0.000000,2.000000,-5.000000,0.000000
1302450.710563,-2.000000,-8.000000,-5.000000,-9.000000,1.000000,-3.000000,-2.000000,-1.000000
1302450.710591,-5.000000,3.000000,3.000000,0.000000,1.000000,1.000000,-2.000000,1.000000
1302450.733862,1.000000,4.000000,6.000000,9.000000,4.000000,1.000000,-3.000000,4.000000
1302450.733889,1.000000,-12.000000,-16.000000,-35.000000,-8.000000,-6.000000,-1.000000,-3.000000
1302450.734271,0.000000,4.000000,4.000000,3.000000,0.000000,-1.000000,-1.000000,0.000000
1302450.734296,-3.000000,5.000000,7.000000,7.000000,-11.000000,2.000000,1.000000,-3.000000
1302450.735638,-2.000000,-7.000000,-6.000000,-4.000000,-2.000000,-1.000000,-3.000000,3.000000
1302450.735656,0.000000,-6.000000,-3.000000,-1.000000,-10.000000,-1.000000,1.000000,0.000000
1302450.736403,-1.000000,8.000000,10.000000,12.000000,2.000000,4.000000,-2.000000,1.000000
1302450.736411,-5.000000,-16.000000,-6.000000,-7.000000,-3.000000,-1.000000,-3.000000,-3.000000
1302450.748003,-4.000000,-2.000000,3.000000,-1.000000,-4.000000,3.000000,0.000000,-1.000000
1302450.748017,-1.000000,-11.000000,-11.000000,3.000000,5.000000,-4.000000,-3.000000,-2.000000
1302450.749355,0.000000,-5.000000,-2.000000,-7.000000,-6.000000,1.000000,-2.000000,-3.000000
1302450.749367,-4.000000,7.000000,4.000000,2.000000,-6.000000,4.000000,1.000000,0.000000
1302450.755597,3.000000,3.000000,-3.000000,0.000000,0.000000,-3.000000,-1.000000,0.000000
1302450.755606,-4.000000,-4.000000,2.000000,4.000000,1.000000,3.000000,1.000000,-2.000000
1302450.808397,0.000000,6.000000,3.000000,9.000000,-3.000000,2.000000,1.000000,-3.000000
1302450.808409,2.000000,-3.000000,3.000000,1.000000,8.000000,1.000000,4.000000,2.000000
1302450.830751,1.000000,-9.000000,-10.000000,-1.000000,3.000000,-2.000000,-1.000000,-2.000000
1302450.830766,-1.000000,3.000000,4.000000,4.000000,-15.000000,1.000000,0.000000,0.000000
1302450.838491,-3.000000,-7.000000,-1.000000,-4.000000,1.000000,2.000000,0.000000,2.000000
1302450.838500,-1.000000,-9.000000,-8.000000,-7.000000,-10.000000,-4.000000,-2.000000,-5.000000
1302450.839079,-2.000000,-9.000000,-4.000000,-20.000000,-7.000000,-7.000000,-1.000000,-4.000000
1302450.839088,1.000000,3.000000,6.000000,7.000000,4.000000,2.000000,1.000000,1.000000
1302450.840378,0.000000,13.000000,5.000000,6.000000,1.000000,6.000000,-3.000000,-1.000000
1302450.840386,0.000000,4.000000,-5.000000,-7.000000,-1.000000,-1.000000,2.000000,0.000000
1302450.841219,-2.000000,-1.000000,-1.000000,-3.000000,3.000000,1.000000,-3.000000,-1.000000
1302450.841227,-6.000000,3.000000,3.000000,2.000000,-2.000000,4.000000,0.000000,-1.000000
1302450.853895,-1.000000,-1.000000,2.000000,2.000000,-7.000000,0.000000,-1.000000,-3.000000
1302450.853904,-3.000000,5.000000,-1.000000,1.000000,1.000000,1.000000,1.000000,2.000000
1302450.875588,7.000000,-2.000000,0.000000,-14.000000,-6.000000,-2.000000,2.000000,0.000000
1302450.875598,-2.000000,-6.000000,-1.000000,7.000000,10.000000,3.000000,1.000000,-3.000000
1302450.898382,-7.000000,-3.000000,3.000000,6.000000,-3.000000,2.000000,-3.000000,-6.000000
1302450.898393,-2.000000,-1.000000,-3.000000,-13.000000,-1.000000,2.000000,-2.000000,0.000000
1302450.905927,2.000000,-5.000000,5.000000,2.000000,5.000000,-3.000000,2.000000,1.000000
1302450.905938,-4.000000,6.000000,-2.000000,-6.000000,1.000000,-3.000000,1.000000,-2.000000
1302450.935572,1.000000,-12.000000,-4.000000,-26.000000,-21.000000,-1.000000,-4.000000,-1.000000
1302450.935601,0.000000,-9.000000,-8.000000,-4.000000,7.000000,-3.000000,-1.000000,-1.000000
1302450.950941,-2.000000,1.000000,1.000000,2.000000,-1.000000,-2.000000,-1.000000,-3.000000
1302450.950952,0.000000,-3.000000,1.000000,8.000000,-6.000000,0.000000,-2.000000,2.000000
1302450.965588,3.000000,1.000000,-3.000000,4.000000,4.000000,-3.000000,-2.000000,-3.000000
1302450.965598,-1.000000,6.000000,-4.000000,1.000000,-3.000000,0.000000,-2.000000,1.000000
1302450.972983,3.000000,13.000000,11.000000,1.000000,-11.000000,5.000000,1.000000,-1.000000
1302450.972992,5.000000,-9.000000,-6.000000,-6.000000,-1.000000,-4.000000,-1.000000,0.000000
1302450.974022,0.000000,-2.000000,-6.000000,0.000000,3.000000,-6.000000,-2.000000,2.000000
1302450.974050,-4.000000,6.000000,7.000000,7.000000,5.000000,5.000000,-1.000000,0.000000
1302450.974795,1.000000,6.000000,5.000000,1.000000,1.000000,1.000000,3.000000,-3.000000
1302450.974827,-4.000000,2.000000,2.000000,-1.000000,-3.000000,1.000000,0.000000,-1.000000
1302450.988366,2.000000,0.000000,-3.000000,-3.000000,1.000000,0.000000,-3.000000,0.000000
1302450.988377,0.000000,-2.000000,6.000000,9.000000,3.000000,1.000000,-1.000000,2.000000
1302450.989451,-1.000000,-2.000000,-8.000000,-7.000000,-8.000000,-3.000000,-1.000000,1.000000
1302450.989459,1.000000,-6.000000,-4.000000,-11.000000,2.000000,-4.000000,0.000000,-2.000000
1302451.010697,0.000000,-1.000000,-3.000000,-7.000000,-5.000000,0.000000,1.000000,-1.000000
1302451.010707,-4.000000,0.000000,5.000000,3.000000,-1.000000,1.000000,0.000000,-1.000000
1302451.033375,3.000000,-10.000000,-8.000000,-10.000000,-9.000000,-8.000000,-4.000000,-1.000000
1302451.033386,-7.000000,-13.000000,-4.000000,-4.000000,-5.000000,-1.000000,0.000000,-3.000000
1302451.048452,-6.000000,7.000000,8.000000,19.000000,2.000000,2.000000,0.000000,-1.000000
1302451.048464,2.000000,2.000000,-6.000000,-1.000000,0.000000,-2.000000,-2.000000,0.000000
1302451.085592,-1.000000,2.000000,-1.000000,-3.000000,-5.000000,-1.000000,-1.000000,-3.000000
1302451.085604,-6.000000,18.000000,9.000000,7.000000,-3.000000,5.000000,0.000000,1.000000
1302451.086012,-3.000000,-3.000000,4.000000,-2.000000,3.000000,-3.000000,-5.000000,-1.000000
1302451.086020,-7.000000,-22.000000,-11.000000,0.000000,2.000000,-4.000000,0.000000,-3.000000
1302451.087132,1.000000,9.000000,11.000000,7.000000,2.000000,7.000000,2.000000,-1.000000
1302451.087140,-1.000000,3.000000,-1.000000,6.000000,1.000000,-2.000000,-1.000000,-1.000000
1302451.093431,-4.000000,-10.000000,-7.000000,4.000000,-2.000000,-2.000000,-1.000000,-3.000000
1302451.093460,-2.000000,9.000000,2.000000,12.000000,4.000000,0.000000,3.000000,0.000000
1302451.108602,-1.000000,5.000000,8.000000,9.000000,9.000000,4.000000,1.000000,0.000000
1302451.108631,-2.000000,0.000000,0.000000,6.000000,-6.000000,0.000000,-4.000000,0.000000
1302451.109495,-2.000000,-16.000000,-5.000000,-16.000000,-2.000000,-6.000000,-1.000000,-3.000000
1302451.109503,0.000000,2.000000,2.000000,9.000000,5.000000,-3.000000,0.000000,-1.000000
1302451.116010,0.000000,2.000000,5.000000,-9.000000,-22.000000,5.000000,-2.000000,-1.000000
1302451.116054,1.000000,1.000000,-3.000000,-4.000000,4.000000,-1.000000,1.000000,2.000000
1302451.153370,-6.000000,1.000000,-7.000000,-1.000000,-2.000000,-3.000000,-4.000000,0.000000
1302451.153380,-5.000000,11.000000,2.000000,-1.000000,1.000000,5.000000,0.000000,2.000000
1302451.168222,0.000000,-4.000000,1.000000,6.000000,2.000000,0.000000,0.000000,0.000000
1302451.168246,-2.000000,-11.000000,-7.000000,-8.000000,3.000000,-7.000000,0.000000,1.000000
1302451.190975,5.000000,4.000000,0.000000,-5.000000,-8.000000,3.000000,1.000000,0.000000
1302451.190988,-10.000000,-5.000000,-1.000000,-11.000000,-2.000000,-3.000000,-1.000000,0.000000
1302451.213395,6.000000,-10.000000,-4.000000,8.000000,14.000000,-4.000000,1.000000,0.000000
1302451.213406,1.000000,6.000000,-1.000000,-10.000000,-10.000000,3.000000,-2.000000,-2.000000
1302451.228497,-3.000000,9.000000,11.000000,11.000000,6.000000,5.000000,-3.000000,1.000000
1302451.228508,-5.000000,-7.000000,-6.000000,-1.000000,-3.000000,-4.000000,-1.000000,-3.000000
1302451.229124,-2.000000,2.000000,1.000000,6.000000,-1.000000,-3.000000,-1.000000,-2.000000
1302451.229133,0.000000,9.000000,1.000000,2.000000,-5.000000,1.000000,0.000000,-4.000000
1302451.230534,0.000000,-6.000000,-8.000000,-16.000000,-12.000000,-1.000000,-1.000000,4.000000
1302451.230562,2.000000,-1.000000,4.000000,10.000000,7.000000,-6.000000,-3.000000,1.000000
1302451.232141,-1.000000,4.000000,-9.000000,-9.000000,-3.000000,-2.000000,-2.000000,2.000000
1302451.232169,0.000000,11.000000,15.000000,31.000000,19.000000,9.000000,1.000000,2.000000
1302451.235469,-4.000000,-6.000000,-4.000000,-11.000000,-13.000000,-2.000000,-3.000000,0.000000
1302451.235477,-5.000000,-2.000000,-5.000000,-7.000000,3.000000,-4.000000,-2.000000,0.000000
1302451.250716,3.000000,4.000000,-2.000000,5.000000,-1.000000,0.000000,2.000000,-1.000000
1302451.250727,-4.000000,4.000000,3.000000,-1.000000,-4.000000,-4.000000,4.000000,1.000000
1302451.265573,0.000000,-17.000000,-13.000000,-1.000000,3.000000,-5.000000,0.000000,-3.000000
1302451.265584,1.000000,1.000000,4.000000,3.000000,7.000000,5.000000,-2.000000,2.000000
1302451.288404,-1.000000,6.000000,-3.000000,-5.000000,-7.000000,1.000000,-4.000000,0.000000
1302451.288414,-1.000000,3.000000,2.000000,11.000000,4.000000,-5.000000,-2.000000,-3.000000
1302451.303240,-2.000000,-1.000000,-2.000000,-17.000000,-10.000000,-4.000000,-1.000000,2.000000
1302451.303257,-2.000000,9.000000,11.000000,9.000000,-4.000000,6.000000,1.000000,-1.000000
1302451.325835,0.000000,-1.000000,-6.000000,8.000000,0.000000,-3.000000,3.000000,2.000000
1302451.325849,-4.000000,-1.000000,-8.000000,-12.000000,-1.000000,-6.000000,1.000000,0.000000
1302451.326322,-3.000000,-1.000000,1.000000,2.000000,-6.000000,-3.000000,1.000000,-3.000000
1302451.326332,-3.000000,-4.000000,1.000000,0.000000,-4.000000,-3.000000,-3.000000,-1.000000
1302451.327334,-2.000000,-8.000000,-4.000000,-15.000000,7.000000,-4.000000,-1.000000,0.000000
1302451.327343,4.000000,4.000000,1.000000,-2.000000,-5.000000,-2.000000,0.000000,-4.000000
1302451.327988,-2.000000,3.000000,3.000000,-2.000000,1.000000,-3.000000,-1.000000,2.000000
1302451.327998,1.000000,-6.000000,-5.000000,-6.000000,-10.000000,3.000000,-1.000000,0.000000
1302451.329794,1.000000,0.000000,-6.000000,-2.000000,-6.000000,1.000000,0.000000,-1.000000
1302451.329805,-3.000000,13.000000,13.000000,11.000000,0.000000,6.000000,-3.000000,4.000000
1302451.340896,-4.000000,-7.000000,-2.000000,-10.000000,-4.000000,0.000000,3.000000,-1.000000
1302451.340910,0.000000,-7.000000,-6.000000,1.000000,4.000000,-7.000000,-1.000000,-2.000000
1302451.363051,-4.000000,0.000000,-1.000000,3.000000,-6.000000,1.000000,-2.000000,-1.000000
1302451.363061,-2.000000,-4.000000,-4.000000,-6.000000,-6.000000,-2.000000,-3.000000,0.000000
1302451.371130,0.000000,-23.000000,-12.000000,-6.000000,3.000000,-6.000000,-3.000000,-1.000000
1302451.371144,0.000000,3.000000,4.000000,-3.000000,-3.000000,-3.000000,2.000000,-4.000000
1302451.393286,-4.000000,-14.000000,-4.000000,10.000000,-5.000000,2.000000,-6.000000,-2.000000
1302451.393299,2.000000,-9.000000,1.000000,9.000000,2.000000,-3.000000,1.000000,-1.000000
1302451.408127,-5.000000,-4.000000,-4.000000,1.000000,-6.000000,-1.000000,1.000000,-3.000000
1302451.408137,6.000000,16.000000,5.000000,14.000000,2.000000,4.000000,1.000000,4.000000
1302451.430638,-4.000000,-5.000000,-4.000000,-6.000000,-1.000000,0.000000,-2.000000,-1.000000
1302451.430648,-3.000000,-7.000000,0.000000,4.000000,4.000000,-3.000000,-3.000000,-5.000000
1302451.431065,-1.000000,2.000000,2.000000,10.000000,5.000000,-1.000000,-1.000000,-3.000000
1302451.431074,-1.000000,-7.000000,4.000000,27.000000,-4.000000,-2.000000,-2.000000,0.000000
1302451.432369,3.000000,-6.000000,-9.000000,-7.000000,-2.000000,-3.000000,-1.000000,-5.000000
1302451.432379,1.000000,2.000000,0.000000,1.000000,1.000000,2.000000,-1.000000,-1.000000
1302451.432979,0.000000,-1.000000,1.000000,-6.000000,-7.000000,-3.000000,-1.000000,1.000000
1302451.432989,-1.000000,-11.000000,-7.000000,-14.000000,2.000000,0.000000,-3.000000,-2.000000
1302451.434513,2.000000,5.000000,7.000000,5.000000,2.000000,1.000000,-3.000000,0.000000
1302451.434523,-3.000000,3.000000,0.000000,5.000000,-1.000000,-1.000000,-2.000000,-1.000000
1302451.445747,-1.000000,-9.000000,-3.000000,-4.000000,1.000000,2.000000,-2.000000,-4.000000
1302451.445757,1.000000,0.000000,-8.000000,-7.000000,2.000000,-6.000000,-4.000000,0.000000
1302451.447037,-1.000000,7.000000,4.000000,6.000000,-2.000000,7.000000,-1.000000,-5.000000
1302451.447047,-4.000000,-12.000000,-9.000000,2.000000,0.000000,-4.000000,1.000000,-1.000000
1302451.461225,7.000000,-8.000000,-12.000000,-9.000000,-3.000000,-9.000000,2.000000,-1.000000
1302451.461236,-3.000000,-3.000000,-7.000000,-5.000000,7.000000,1.000000,0.000000,0.000000
1302451.468935,-2.000000,6.000000,7.000000,-6.000000,-10.000000,-1.000000,0.000000,-2.000000
1302451.468945,-3.000000,-9.000000,-4.000000,-1.000000,-5.000000,-2.000000,-2.000000,-3.000000
1302451.505930,-4.000000,-1.000000,-3.000000,-2.000000,0.000000,-3.000000,-2.000000,2.000000
1302451.505941,-1.000000,7.000000,4.000000,2.000000,-6.000000,3.000000,-1.000000,2.000000
1302451.513574,2.000000,0.000000,0.000000,1.000000,1.000000,3.000000,-3.000000,0.000000
1302451.513584,-2.000000,-8.000000,-7.000000,-5.000000,1.000000,-5.000000,-3.000000,-1.000000
1302451.514103,-4.000000,4.000000,7.000000,6.000000,-4.000000,-3.000000,-2.000000,-3.000000
1302451.514112,2.000000,-1.000000,-1.000000,5.000000,2.000000,1.000000,0.000000,-1.000000
1302451.516159,0.000000,-6.000000,-10.000000,-10.000000,1.000000,-4.000000,-1.000000,-5.000000
1302451.516171,-2.000000,2.000000,2.000000,3.000000,4.000000,4.000000,3.000000,-1.000000
1302451.520978,-3.000000,0.000000,0.000000,2.000000,-6.000000,-1.000000,1.000000,-4.000000
1302451.520991,3.000000,-12.000000,-8.000000,-8.000000,-3.000000,-3.000000,0.000000,-3.000000
1302451.543213,-5.000000,-2.000000,3.000000,-7.000000,-10.000000,-5.000000,-3.000000,-2.000000
1302451.543243,-4.000000,2.000000,11.000000,18.000000,17.000000,8.000000,-2.000000,-4.000000
1302451.565971,1.000000,-5.000000,-10.000000,-15.000000,-8.000000,-9.000000,0.000000,1.000000
1302451.565984,-8.000000,-6.000000,-6.000000,-4.000000,5.000000,-3.000000,-4.000000,0.000000
1302451.587950,1.000000,8.000000,3.000000,-4.000000,-7.000000,4.000000,1.000000,2.000000
1302451.587963,-2.000000,-6.000000,-6.000000,-2.000000,5.000000,-5.000000,-3.000000,1.000000
1302451.588563,-4.000000,-9.000000,-6.000000,-8.000000,-3.000000,-4.000000,1.000000,1.000000
1302451.588573,-10.000000,-16.000000,-6.000000,-2.000000,-4.000000,-4.000000,-3.000000,-3.000000
1302451.589780,-3.000000,-2.000000,8.000000,8.000000,-9.000000,3.000000,0.000000,0.000000
1302451.589801,3.000000,-8.000000,-6.000000,-4.000000,6.000000,-4.000000,-1.000000,-2.000000
1302451.590411,-1.000000,-1.000000,2.000000,0.000000,4.000000,-1.000000,-1.000000,-4.000000
1302451.590419,-3.000000,10.000000,2.000000,-3.000000,-8.000000,4.000000,1.000000,-1.000000
1302451.625796,2.000000,1.000000,3.000000,-6.000000,-10.000000,0.000000,-2.000000,-1.000000
1302451.625814,-1.000000,-3.000000,-3.000000,2.000000,8.000000,-2.000000,0.000000,-2.000000
1302451.648355,-2.000000,-21.000000,-7.000000,-18.000000,8.000000,-4.000000,-2.000000,-4.000000
1302451.648365,2.000000,9.000000,-1.000000,-2.000000,-5.000000,-3.000000,0.000000,0.000000
1302451.663970,-4.000000,-3.000000,3.000000,3.000000,-1.000000,1.000000,0.000000,0.000000
1302451.663982,8.000000,-10.000000,-9.000000,-10.000000,-4.000000,-1.000000,-1.000000,-1.000000
1302451.664333,-4.000000,-2.000000,1.000000,-3.000000,1.000000,0.000000,0.000000,-4.000000
1302451.664343,-5.000000,5.000000,8.000000,3.000000,-3.000000,0.000000,2.000000,-1.000000
1302451.664900,1.000000,-7.000000,-3.000000,-4.000000,0.000000,-2.000000,1.000000,-2.000000
1302451.664909,-1.000000,0.000000,-2.000000,3.000000,5.000000,-7.000000,-3.000000,0.000000
1302451.666446,-3.000000,-11.000000,-10.000000,-6.000000,1.000000,-5.000000,-3.000000,-4.000000
1302451.666457,-4.000000,7.000000,4.000000,-6.000000,3.000000,2.000000,0.000000,-3.000000
1302451.670711,1.000000,-3.000000,4.000000,8.000000,-1.000000,-5.000000,0.000000,1.000000
1302451.670723,0.000000,-15.000000,-14.000000,-8.000000,-7.000000,-7.000000,-4.000000,-4.000000
1302451.685644,-1.000000,9.000000,2.000000,7.000000,-3.000000,0.000000,2.000000,1.000000
1302451.685673,-4.000000,2.000000,6.000000,6.000000,4.000000,-1.000000,0.000000,2.000000
1302451.693307,-3.000000,-5.000000,-5.000000,-11.000000,2.000000,3.000000,-3.000000,-2.000000
1302451.693318,1.000000,-7.000000,-2.000000,-4.000000,-3.000000,0.000000,2.000000,-1.000000
1302451.700796,-2.000000,7.000000,4.000000,6.000000,-10.000000,2.000000,2.000000,2.000000
1302451.700809,2.000000,0.000000,0.000000,-5.000000,-2.000000,-1.000000,-4.000000,0.000000
1302451.708977,-3.000000,-8.000000,-8.000000,1.000000,6.000000,-2.000000,3.000000,1.000000
1302451.708989,-2.000000,4.000000,3.000000,0.000000,4.000000,3.000000,1.000000,-3.000000
1302451.724231,-2.000000,-3.000000,-3.000000,0.000000,-2.000000,2.000000,-2.000000,-3.000000
1302451.724284,0.000000,-10.000000,-5.000000,-3.000000,1.000000,-5.000000,-1.000000,-4.000000
1302451.745767,0.000000,-1.000000,-1.000000,4.000000,-1.000000,0.000000,-2.000000,0.000000
1302451.745779,3.000000,5.000000,9.000000,18.000000,-12.000000,5.000000,0.000000,0.000000
1302451.768095,2.000000,-3.000000,-1.000000,-1.000000,1.000000,2.000000,-1.000000,-1.000000
1302451.768125,1.000000,-5.000000,-8.000000,0.000000,1.000000,-5.000000,-1.000000,0.000000
1302451.783765,-1.000000,9.000000,0.000000,6.000000,-3.000000,1.000000,0.000000,-1.000000
1302451.783775,-3.000000,-5.000000,1.000000,10.000000,1.000000,1.000000,-2.000000,-1.000000
1302451.784311,0.000000,-7.000000,-7.000000,1.000000,1.000000,-3.000000,1.000000,-1.000000
1302451.784319,0.000000,7.000000,4.000000,2.000000,9.000000,1.000000,-1.000000,0.000000
1302451.785374,-1.000000,0.000000,-2.000000,-7.000000,-6.000000,-4.000000,-3.000000,-3.000000
1302451.785381,1.000000,-13.000000,-11.000000,0.000000,4.000000,-4.000000,-4.000000,0.000000
1302451.786157,1.000000,6.000000,4.000000,5.000000,-6.000000,1.000000,2.000000,0.000000
1302451.786165,1.000000,3.000000,4.000000,-10.000000,-9.000000,-2.000000,0.000000,1.000000
1302451.790874,5.000000,2.000000,-3.000000,-11.000000,-5.000000,-2.000000,1.000000,2.000000
1302451.790885,-2.000000,0.000000,-7.000000,-11.000000,-10.000000,-4.000000,-6.000000,-6.000000
1302451.798413,1.000000,11.000000,6.000000,11.000000,8.000000,1.000000,3.000000,-1.000000
1302451.798425,-2.000000,0.000000,-1.000000,-7.000000,-7.000000,-1.000000,-3.000000,-2.000000
1302451.820488,-1.000000,-6.000000,-10.000000,-5.000000,-2.000000,-6.000000,0.000000,-2.000000
1302451.820502,-2.000000,-1.000000,-3.000000,2.000000,3.000000,-2.000000,0.000000,1.000000
1302451.821002,-3.000000,-7.000000,-2.000000,1.000000,-1.000000,-3.000000,0.000000,-3.000000
1302451.821009,-5.000000,-15.000000,-10.000000,3.000000,9.000000,-5.000000,-3.000000,-2.000000
1302451.843371,1.000000,2.000000,-3.000000,-9.000000,-1.000000,1.000000,-2.000000,-1.000000
1302451.843383,-1.000000,4.000000,1.000000,5.000000,-3.000000,-3.000000,-3.000000,1.000000
1302451.858152,0.000000,-4.000000,-4.000000,-1.000000,-3.000000,-1.000000,-1.000000,1.000000
1302451.858162,-2.000000,10.000000,1.000000,-5.000000,-5.000000,-4.000000,-2.000000,-2.000000
1302451.880949,0.000000,12.000000,3.000000,4.000000,-2.000000,3.000000,1.000000,3.000000
1302451.880962,1.000000,-9.000000,-4.000000,-9.000000,-12.000000,-11.000000,-4.000000,-5.000000
1302451.903138,1.000000,-10.000000,-8.000000,-3.000000,8.000000,0.000000,-3.000000,0.000000
1302451.903200,2.000000,7.000000,5.000000,-5.000000,4.000000,4.000000,2.000000,2.000000
1302451.904197,1.000000,-4.000000,1.000000,0.000000,0.000000,0.000000,0.000000,-1.000000
1302451.904218,1.000000,-14.000000,-14.000000,-4.000000,5.000000,-3.000000,2.000000,-1.000000
1302451.904769,0.000000,-6.000000,0.000000,0.000000,-11.000000,-5.000000,-3.000000,-4.000000
1302451.904783,-3.000000,0.000000,1.000000,4.000000,-2.000000,-2.000000,-2.000000,3.000000
1302451.906085,0.000000,-5.000000,-3.000000,1.000000,-9.000000,1.000000,-1.000000,1.000000
1302451.906099,-6.000000,-2.000000,-5.000000,-9.000000,4.000000,-2.000000,-1.000000,-3.000000
1302451.907226,-4.000000,19.000000,10.000000,14.000000,-3.000000,4.000000,-2.000000,2.000000
1302451.907234,3.000000,-5.000000,-3.000000,-7.000000,5.000000,-1.000000,1.000000,-1.000000
1302451.917928,0.000000,-4.000000,-10.000000,3.000000,3.000000,-7.000000,-7.000000,-5.000000
1302451.917957,-2.000000,7.000000,4.000000,-5.000000,12.000000,3.000000,0.000000,-2.000000
1302451.918595,-2.000000,-1.000000,1.000000,-5.000000,1.000000,-1.000000,-3.000000,-1.000000
1302451.918622,-3.000000,-12.000000,-11.000000,-2.000000,-2.000000,-5.000000,3.000000,0.000000
1302451.940875,0.000000,-1.000000,1.000000,4.000000,1.000000,-5.000000,-3.000000,-2.000000
1302451.940889,0.000000,4.000000,1.000000,-2.000000,-12.000000,0.000000,-1.000000,-1.000000
1302451.941227,4.000000,-1.000000,0.000000,0.000000,13.000000,1.000000,2.000000,-3.000000
1302451.941237,-5.000000,-7.000000,-4.000000,-21.000000,-3.000000,-1.000000,-2.000000,-2.000000
1302451.948287,2.000000,12.000000,6.000000,7.000000,-1.000000,4.000000,1.000000,0.000000
1302451.948299,-1.000000,-5.000000,-6.000000,3.000000,0.000000,-1.000000,1.000000,1.000000
1302451.963081,1.000000,-8.000000,-3.000000,-11.000000,0.000000,-4.000000,3.000000,0.000000
1302451.963110,-3.000000,5.000000,5.000000,13.000000,8.000000,2.000000,-2.000000,-1.000000
1302452.000590,1.000000,2.000000,3.000000,-8.000000,-5.000000,-4.000000,-3.000000,-1.000000
1302452.000601,1.000000,-10.000000,-8.000000,-5.000000,2.000000,-2.000000,-1.000000,-1.000000
1302452.008123,-3.000000,8.000000,2.000000,-10.000000,0.000000,1.000000,0.000000,-4.000000
1302452.008133,-5.000000,6.000000,4.000000,3.000000,-5.000000,-3.000000,-1.000000,2.000000
1302452.023800,-4.000000,-10.000000,-5.000000,-3.000000,1.000000,0.000000,-5.000000,-1.000000
1302452.023811,1.000000,2.000000,2.000000,-4.000000,-3.000000,4.000000,0.000000,2.000000
1302452.024297,-4.000000,8.000000,6.000000,-3.000000,-12.000000,1.000000,-1.000000,-1.000000
1302452.024309,-1.000000,-2.000000,0.000000,1.000000,6.000000,0.000000,1.000000,-4.000000
1302452.025528,0.000000,-8.000000,-6.000000,-7.000000,-13.000000,-6.000000,-3.000000,-1.000000
1302452.025537,2.000000,6.000000,11.000000,18.000000,6.000000,3.000000,-1.000000,4.000000
1302452.026175,-2.000000,-4.000000,-3.000000,-3.000000,1.000000,-2.000000,-3.000000,-2.000000
1302452.026184,-8.000000,-4.000000,-7.000000,-7.000000,1.000000,-3.000000,-6.000000,-2.000000
1302452.045467,4.000000,6.000000,4.000000,4.000000,2.000000,3.000000,3.000000,4.000000
1302452.045481,-4.000000,-3.000000,0.000000,-2.000000,-3.000000,-1.000000,-1.000000,-4.000000
1302452.046071,2.000000,-11.000000,-8.000000,-2.000000,1.000000,-6.000000,-2.000000,-4.000000
1302452.046100,-5.000000,-6.000000,-5.000000,1.000000,-6.000000,-3.000000,-4.000000,0.000000
1302452.060841,0.000000,11.000000,5.000000,3.000000,-4.000000,3.000000,-1.000000,3.000000
1302452.060853,-1.000000,-1.000000,2.000000,4.000000,10.000000,-5.000000,-5.000000,-1.000000
1302452.061387,0.000000,-3.000000,-12.000000,-6.000000,-1.000000,-6.000000,-1.000000,0.000000
1302452.061395,0.000000,13.000000,11.000000,10.000000,2.000000,1.000000,0.000000,-3.000000
1302452.068371,0.000000,-4.000000,-1.000000,1.000000,2.000000,-1.000000,-6.000000,-3.000000
1302452.068383,-3.000000,-6.000000,-4.000000,1.000000,10.000000,-1.000000,0.000000,-2.000000
1302452.083256,0.000000,0.000000,0.000000,0.000000,1.000000,1.000000,-4.000000,0.000000
1302452.083268,-4.000000,1.000000,2.000000,7.000000,-4.000000,-1.000000,0.000000,0.000000
1302452.120955,-1.000000,-8.000000,-3.000000,-16.000000,9.000000,0.000000,1.000000,-1.000000
1302452.120968,2.000000,5.000000,-4.000000,6.000000,3.000000,-1.000000,-1.000000,-3.000000
1302452.135778,1.000000,14.000000,9.000000,-13.000000,-9.000000,3.000000,-5.000000,-1.000000
1302452.135790,-4.000000,-4.000000,-4.000000,5.000000,-1.000000,-4.000000,-4.000000,-3.000000
1302452.158309,-8.000000,-4.000000,-8.000000,-6.000000,1.000000,-2.000000,-2.000000,-1.000000
1302452.158321,2.000000,15.000000,6.000000,-2.000000,-1.000000,3.000000,-2.000000,-1.000000
1302452.180833,-1.000000,-11.000000,-7.000000,-4.000000,-6.000000,1.000000,-1.000000,0.000000
1302452.180846,3.000000,-5.000000,-13.000000,-13.000000,-2.000000,-6.000000,-1.000000,-1.000000
1302452.203419,-1.000000,5.000000,7.000000,6.000000,6.000000,-2.000000,-1.000000,2.000000
1302452.203442,-4.000000,4.000000,-1.000000,10.000000,4.000000,3.000000,-6.000000,0.000000
1302452.226320,3.000000,-9.000000,-8.000000,-10.000000,7.000000,-4.000000,1.000000,-5.000000
1302452.226343,1.000000,14.000000,15.000000,-10.000000,4.000000,0.000000,2.000000,2.000000
1302452.241262,-1.000000,7.000000,2.000000,1.000000,-9.000000,2.000000,0.000000,2.000000
1302452.241284,-7.000000,2.000000,2.000000,5.000000,7.000000,-1.000000,2.000000,0.000000
1302452.248790,-1.000000,-4.000000,-3.000000,-6.000000,-8.000000,-7.000000,-3.000000,-1.000000
1302452.248906,2.000000,7.000000,5.000000,2.000000,-5.000000,5.000000,-1.000000,0.000000
1302452.256271,1.000000,-1.000000,0.000000,3.000000,5.000000,5.000000,0.000000,0.000000
1302452.256295,0.000000,-11.000000,-7.000000,-4.000000,3.000000,-3.000000,-4.000000,-3.000000
1302452.263867,0.000000,9.000000,6.000000,-3.000000,-3.000000,4.000000,0.000000,0.000000
1302452.263898,-1.000000,-12.000000,-8.000000,0.000000,3.000000,-1.000000,0.000000,-2.000000
1302452.264706,-2.000000,1.000000,5.000000,18.000000,3.000000,0.000000,-4.000000,0.000000
1302452.264730,-1.000000,7.000000,8.000000,-1.000000,-7.000000,2.000000,-1.000000,0.000000
1302452.265709,2.000000,0.000000,3.000000,18.000000,3.000000,1.000000,3.000000,-1.000000
1302452.265727,1.000000,-6.000000,-10.000000,-5.000000,7.000000,-2.000000,0.000000,-1.000000
1302452.265854,1.000000,-6.000000,-7.000000,-4.000000,6.000000,-2.000000,2.000000,3.000000
1302452.265880,-3.000000,4.000000,5.000000,0.000000,-3.000000,3.000000,-1.000000,-2.000000
1302452.266573,-2.000000,0.000000,-10.000000,-15.000000,-9.000000,-5.000000,-3.000000,-2.000000
1302452.266590,-1.000000,10.000000,7.000000,6.000000,0.000000,2.000000,1.000000,2.000000
1302452.278902,-1.000000,-8.000000,-5.000000,9.000000,1.000000,-1.000000,2.000000,-2.000000
1302452.278933,1.000000,-12.000000,-7.000000,1.000000,2.000000,-3.000000,-2.000000,0.000000
1302452.279533,0.000000,-1.000000,4.000000,-12.000000,-2.000000,3.000000,-1.000000,1.000000
1302452.279552,3.000000,-2.000000,4.000000,5.000000,1.000000,-2.000000,-1.000000,0.000000
1302452.301159,-6.000000,-14.000000,-13.000000,0.000000,-1.000000,-4.000000,-4.000000,-1.000000
1302452.301170,-2.000000,-2.000000,1.000000,0.000000,-1.000000,5.000000,-3.000000,0.000000
1302452.301253,1.000000,0.000000,0.000000,-4.000000,-2.000000,0.000000,-1.000000,1.000000
1302452.301257,0.000000,2.000000,-8.000000,-7.000000,-5.000000,-2.000000,-6.000000,-2.000000
1302452.323346,-6.000000,-20.000000,-2.000000,8.000000,6.000000,-4.000000,-1.000000,-4.000000
1302452.323362,-2.000000,17.000000,8.000000,-8.000000,-18.000000,1.000000,0.000000,2.000000
1302452.330865,1.000000,-5.000000,-2.000000,-8.000000,-5.000000,-1.000000,1.000000,2.000000
1302452.330888,1.000000,-15.000000,-9.000000,14.000000,13.000000,-2.000000,4.000000,-2.000000
1302452.345793,2.000000,5.000000,-1.000000,-5.000000,-5.000000,-4.000000,1.000000,2.000000
1302452.345803,-4.000000,-1.000000,2.000000,-5.000000,-3.000000,-2.000000,-1.000000,-2.000000
1302452.353390,2.000000,-17.000000,-15.000000,-8.000000,3.000000,-1.000000,-3.000000,1.000000
1302452.353403,-3.000000,3.000000,-2.000000,14.000000,9.000000,-1.000000,0.000000,-1.000000
1302452.354504,-4.000000,7.000000,9.000000,7.000000,-4.000000,2.000000,-1.000000,1.000000
1302452.354513,1.000000,-8.000000,-9.000000,-3.000000,0.000000,-4.000000,-3.000000,-3.000000
1302452.360828,0.000000,7.000000,2.000000,5.000000,5.000000,0.000000,0.000000,0.000000
1302452.360846,-2.000000,11.000000,5.000000,1.000000,-11.000000,4.000000,-2.000000,1.000000
1302452.375578,0.000000,-8.000000,-5.000000,-1.000000,-5.000000,-4.000000,-3.000000,-5.000000
1302452.375588,2.000000,-6.000000,-5.000000,-7.000000,9.000000,-3.000000,0.000000,0.000000
1302452.398364,-2.000000,-2.000000,6.000000,-1.000000,3.000000,-1.000000,-2.000000,-4.000000
1302452.398377,-1.000000,-2.000000,-2.000000,-11.000000,-4.000000,-3.000000,-1.000000,3.000000
1302452.399251,-1.000000,-9.000000,-11.000000,-8.000000,-1.000000,-4.000000,1.000000,-2.000000
1302452.399260,1.000000,7.000000,11.000000,11.000000,6.000000,5.000000,0.000000,-3.000000
1302452.400033,2.000000,0.000000,3.000000,-4.000000,-6.000000,4.000000,-3.000000,0.000000
1302452.400041,-4.000000,-9.000000,-3.000000,-1.000000,-4.000000,-2.000000,0.000000,-1.000000
1302452.413872,6.000000,2.000000,1.000000,-1.000000,-1.000000,-6.000000,-3.000000,-1.000000
1302452.413887,-4.000000,3.000000,-1.000000,-12.000000,-20.000000,-2.000000,-2.000000,1.000000
1302452.420482,-2.000000,-3.000000,-4.000000,-14.000000,-3.000000,-4.000000,-1.000000,-3.000000
1302452.420496,3.000000,-10.000000,-4.000000,-2.000000,1.000000,-2.000000,4.000000,0.000000
1302452.450984,-5.000000,1.000000,-1.000000,5.000000,-3.000000,-2.000000,0.000000,0.000000
1302452.450996,1.000000,-5.000000,-5.000000,0.000000,1.000000,0.000000,0.000000,0.000000
1302452.458250,-1.000000,-17.000000,-12.000000,-6.000000,-1.000000,-7.000000,-3.000000,-2.000000
1302452.458262,3.000000,-5.000000,5.000000,-2.000000,-6.000000,-4.000000,-2.000000,0.000000
1302452.480968,-4.000000,5.000000,4.000000,-5.000000,-7.000000,2.000000,0.000000,-4.000000
1302452.480980,-4.000000,-4.000000,-12.000000,-16.000000,-6.000000,-6.000000,-1.000000,0.000000
1302452.495862,2.000000,6.000000,2.000000,9.000000,8.000000,0.000000,0.000000,0.000000
1302452.495874,-1.000000,5.000000,4.000000,1.000000,-5.000000,-3.000000,-1.000000,-4.000000
1302452.525962,-2.000000,1.000000,0.000000,2.000000,-8.000000,-1.000000,0.000000,-2.000000
1302452.525975,-5.000000,-22.000000,-14.000000,-7.000000,2.000000,-6.000000,-2.000000,-4.000000
1302452.533195,3.000000,3.000000,0.000000,-8.000000,3.000000,3.000000,0.000000,1.000000
1302452.533208,-3.000000,-1.000000,-1.000000,-4.000000,4.000000,-6.000000,-2.000000,-3.000000
1302452.555845,-2.000000,-13.000000,-13.000000,-8.000000,-2.000000,-9.000000,-2.000000,-5.000000
1302452.555868,-3.000000,2.000000,3.000000,3.000000,2.000000,-1.000000,-2.000000,-1.000000
1302452.563097,-1.000000,3.000000,0.000000,-1.000000,-10.000000,-1.000000,0.000000,0.000000
1302452.563106,1.000000,-3.000000,2.000000,1.000000,25.000000,4.000000,3.000000,-4.000000
1302452.578173,-1.000000,-10.000000,0.000000,-4.000000,0.000000,1.000000,1.000000,-1.000000
1302452.578185,0.000000,10.000000,8.000000,-4.000000,-13.000000,4.000000,0.000000,2.000000
1302452.600711,-4.000000,-9.000000,-3.000000,-4.000000,-1.000000,-1.000000,-1.000000,-4.000000
1302452.600732,0.000000,-2.000000,-12.000000,-1.000000,-1.000000,-5.000000,-2.000000,-1.000000
1302452.601814,-1.000000,-8.000000,-11.000000,-9.000000,-2.000000,-3.000000,0.000000,1.000000
1302452.601825,-7.000000,-5.000000,1.000000,6.000000,0.000000,-6.000000,-4.000000,-2.000000
1302452.603195,0.000000,-2.000000,0.000000,-1.000000,-1.000000,0.000000,1.000000,0.000000
1302452.603210,3.000000,0.000000,-14.000000,-15.000000,-1.000000,1.000000,-1.000000,0.000000
1302452.604665,-1.000000,-11.000000,-6.000000,-18.000000,-8.000000,-2.000000,-3.000000,-4.000000
1302452.604675,0.000000,0.000000,-4.000000,-6.000000,-8.000000,-4.000000,1.000000,-2.000000
1302452.615637,-2.000000,-1.000000,2.000000,5.000000,0.000000,0.000000,-3.000000,-1.000000
1302452.615647,-1.000000,8.000000,6.000000,11.000000,-5.000000,3.000000,0.000000,-2.000000
1302452.623990,2.000000,1.000000,-4.000000,-24.000000,-15.000000,-3.000000,1.000000,-1.000000
1302452.624001,-1.000000,1.000000,-8.000000,-4.000000,2.000000,-2.000000,3.000000,-1.000000
1302452.630967,2.000000,10.000000,7.000000,6.000000,-1.000000,-1.000000,1.000000,-1.000000
1302452.630980,-1.000000,2.000000,5.000000,5.000000,9.000000,4.000000,2.000000,1.000000
1302452.652903,-4.000000,-8.000000,-9.000000,-3.000000,4.000000,-6.000000,-2.000000,-3.000000
1302452.652913,-1.000000,-2.000000,7.000000,-6.000000,1.000000,2.000000,-1.000000,-1.000000
1302452.653717,-4.000000,-10.000000,-4.000000,7.000000,-4.000000,2.000000,-1.000000,-3.000000
1302452.653726,-2.000000,-13.000000,-6.000000,-18.000000,1.000000,-11.000000,-3.000000,-1.000000
1302452.690737,1.000000,1.000000,-1.000000,9.000000,3.000000,5.000000,0.000000,1.000000
1302452.690748,-3.000000,11.000000,3.000000,-4.000000,-9.000000,0.000000,-2.000000,3.000000
1302452.698316,0.000000,-4.000000,-2.000000,4.000000,3.000000,-1.000000,-2.000000,-1.000000
1302452.698339,1.000000,-3.000000,-4.000000,-9.000000,2.000000,-1.000000,0.000000,-3.000000
1302452.720467,-4.000000,8.000000,1.000000,2.000000,-2.000000,0.000000,-1.000000,0.000000
1302452.720483,-3.000000,-14.000000,-1.000000,-3.000000,3.000000,-5.000000,-4.000000,1.000000
1302452.721041,0.000000,-12.000000,-9.000000,-20.000000,-2.000000,-8.000000,-3.000000,-4.000000
1302452.721049,-1.000000,5.000000,5.000000,2.000000,2.000000,0.000000,-3.000000,2.000000
1302452.735672,0.000000,1.000000,-2.000000,2.000000,-5.000000,1.000000,1.000000,-2.000000
1302452.735702,0.000000,-8.000000,-3.000000,1.000000,9.000000,-4.000000,0.000000,0.000000
1302452.736082,-6.000000,-1.000000,-4.000000,-7.000000,-10.000000,-1.000000,0.000000,-3.000000
1302452.736109,-4.000000,8.000000,-1.000000,3.000000,-6.000000,6.000000,2.000000,-2.000000
1302452.737678,-2.000000,10.000000,4.000000,-5.000000,-7.000000,5.000000,0.000000,0.000000
1302452.737707,-3.000000,-15.000000,-3.000000,1.000000,-3.000000,-1.000000,-2.000000,-1.000000
1302452.751245,1.000000,-8.000000,-10.000000,0.000000,6.000000,1.000000,-2.000000,-1.000000
1302452.751335,1.000000,-7.000000,-1.000000,4.000000,-2.000000,-3.000000,-5.000000,-2.000000
1302452.752099,0.000000,-5.000000,4.000000,-3.000000,-9.000000,1.000000,-1.000000,1.000000
1302452.752142,2.000000,-7.000000,-8.000000,-2.000000,0.000000,0.000000,5.000000,3.000000
1302452.773546,4.000000,0.000000,5.000000,6.000000,10.000000,-2.000000,1.000000,0.000000
1302452.773555,0.000000,11.000000,4.000000,-11.000000,-11.000000,4.000000,-3.000000,0.000000
1302452.774429,-1.000000,-5.000000,-3.000000,-5.000000,-2.000000,0.000000,2.000000,-3.000000
1302452.774437,-3.000000,1.000000,-4.000000,5.000000,0.000000,-5.000000,-4.000000,-4.000000
1302452.795610,-4.000000,13.000000,20.000000,6.000000,9.000000,6.000000,2.000000,1.000000
1302452.795620,5.000000,-4.000000,-3.000000,2.000000,-4.000000,-2.000000,-3.000000,0.000000
1302452.803443,2.000000,-12.000000,-9.000000,0.000000,4.000000,-5.000000,-4.000000,-2.000000
1302452.803471,-2.000000,2.000000,3.000000,4.000000,1.000000,2.000000,3.000000,-2.000000
1302452.818142,-1.000000,4.000000,-1.000000,0.000000,-2.000000,1.000000,0.000000,-1.000000
1302452.818153,-2.000000,-5.000000,-5.000000,-9.000000,0.000000,-6.000000,-3.000000,-1.000000
1302452.825881,-1.000000,6.000000,4.000000,4.000000,-1.000000,2.000000,-1.000000,0.000000
1302452.825891,0.000000,8.000000,4.000000,4.000000,2.000000,5.000000,1.000000,1.000000
1302452.840730,-1.000000,-5.000000,-4.000000,2.000000,-9.000000,-1.000000,-2.000000,-1.000000
1302452.840740,-1.000000,3.000000,3.000000,-11.000000,-9.000000,-1.000000,0.000000,0.000000
1302452.848162,3.000000,10.000000,3.000000,0.000000,-3.000000,1.000000,-3.000000,1.000000
1302452.848180,-2.000000,-3.000000,2.000000,-6.000000,-4.000000,-2.000000,-5.000000,0.000000
1302452.885629,-2.000000,-8.000000,-4.000000,-1.000000,11.000000,-4.000000,1.000000,-5.000000
1302452.885639,1.000000,4.000000,0.000000,3.000000,1.000000,3.000000,3.000000,-1.000000
1302452.893066,0.000000,4.000000,2.000000,12.000000,8.000000,3.000000,0.000000,-2.000000
1302452.893085,1.000000,-2.000000,-5.000000,-5.000000,2.000000,-3.000000,-1.000000,-3.000000
1302452.908399,2.000000,15.000000,0.000000,-3.000000,-10.000000,1.000000,0.000000,0.000000
1302452.908411,2.000000,4.000000,9.000000,11.000000,1.000000,2.000000,1.000000,2.000000
1302452.915994,-1.000000,-2.000000,-9.000000,-10.000000,-8.000000,-7.000000,-4.000000,3.000000
1302452.916007,5.000000,9.000000,0.000000,3.000000,-2.000000,3.000000,0.000000,0.000000
1302452.953396,-3.000000,16.000000,5.000000,5.000000,4.000000,2.000000,2.000000,0.000000
1302452.953408,-2.000000,6.000000,3.000000,2.000000,-2.000000,-2.000000,-1.000000,1.000000
1302452.968478,-3.000000,-22.000000,-11.000000,-6.000000,-3.000000,-3.000000,-2.000000,-4.000000
1302452.968491,1.000000,7.000000,0.000000,7.000000,1.000000,-1.000000,-1.000000,-1.000000
1302452.975632,-1.000000,2.000000,0.000000,-17.000000,-8.000000,-3.000000,0.000000,-1.000000
1302452.975644,0.000000,5.000000,5.000000,-5.000000,-9.000000,-2.000000,0.000000,-3.000000
1302452.976927,-6.000000,-9.000000,-7.000000,-2.000000,4.000000,-8.000000,-4.000000,-5.000000
1302452.976944,6.000000,11.000000,4.000000,-8.000000,-6.000000,3.000000,4.000000,-1.000000
1302452.977487,-1.000000,12.000000,12.000000,-3.000000,-5.000000,3.000000,-1.000000,1.000000
1302452.977497,-4.000000,-1.000000,-2.000000,-3.000000,-4.000000,-3.000000,0.000000,0.000000
1302452.979070,-3.000000,-6.000000,-5.000000,0.000000,2.000000,-3.000000,-1.000000,-2.000000
1302452.979083,1.000000,5.000000,9.000000,-6.000000,3.000000,-3.000000,-5.000000,-3.000000
1302452.991292,-4.000000,12.000000,3.000000,2.000000,-4.000000,-1.000000,0.000000,-3.000000
1302452.991320,0.000000,-8.000000,-6.000000,3.000000,0.000000,-5.000000,0.000000,-1.000000
1302452.991974,2.000000,-7.000000,1.000000,5.000000,2.000000,-1.000000,2.000000,-1.000000
1302452.991982,6.000000,0.000000,0.000000,1.000000,-3.000000,0.000000,-4.000000,-3.000000
1302453.028095,-2.000000,-5.000000,-7.000000,2.000000,2.000000,0.000000,-3.000000,0.000000
1302453.028104,-1.000000,-15.000000,-10.000000,-1.000000,5.000000,-6.000000,-3.000000,-1.000000
1302453.035586,-3.000000,3.000000,-2.000000,-6.000000,-1.000000,0.000000,-1.000000,-1.000000
1302453.035614,-6.000000,-7.000000,3.000000,7.000000,2.000000,1.000000,-3.000000,0.000000
1302453.058402,-1.000000,2.000000,-5.000000,-14.000000,-5.000000,2.000000,-2.000000,1.000000
1302453.058413,0.000000,1.000000,-3.000000,-1.000000,-6.000000,-11.000000,-5.000000,0.000000
1302453.073015,-1.000000,8.000000,8.000000,2.000000,-9.000000,6.000000,0.000000,-1.000000
1302453.073029,1.000000,-1.000000,-2.000000,2.000000,3.000000,1.000000,-1.000000,0.000000
1302453.074122,-1.000000,-10.000000,-13.000000,-14.000000,-3.000000,-1.000000,0.000000,-2.000000
1302453.074129,4.000000,15.000000,22.000000,33.000000,23.000000,5.000000,-1.000000,-1.000000
1302453.074691,-2.000000,4.000000,5.000000,-1.000000,-6.000000,0.000000,-3.000000,0.000000
1302453.074698,1.000000,-10.000000,-11.000000,-19.000000,-7.000000,-3.000000,0.000000,-2.000000
1302453.076338,1.000000,7.000000,0.000000,-5.000000,-11.000000,-5.000000,-2.000000,-3.000000
1302453.076346,0.000000,9.000000,5.000000,9.000000,2.000000,7.000000,3.000000,1.000000
1302453.095635,-1.000000,14.000000,5.000000,-8.000000,-5.000000,2.000000,-1.000000,2.000000
1302453.095652,-2.000000,0.000000,-4.000000,0.000000,8.000000,3.000000,-1.000000,-3.000000
1302453.096260,0.000000,0.000000,-7.000000,-5.000000,6.000000,-3.000000,2.000000,-3.000000
1302453.096270,-1.000000,12.000000,5.000000,-11.000000,-7.000000,-4.000000,-1.000000,-1.000000
1302453.118327,-2.000000,-4.000000,-4.000000,3.000000,1.000000,-5.000000,0.000000,1.000000
1302453.118338,1.000000,-16.000000,-8.000000,-3.000000,7.000000,-2.000000,-2.000000,-3.000000
1302453.118923,1.000000,6.000000,2.000000,8.000000,6.000000,1.000000,-2.000000,0.000000
1302453.118937,0.000000,7.000000,7.000000,-5.000000,-11.000000,-2.000000,-2.000000,-1.000000
1302453.126279,-1.000000,-6.000000,-3.000000,-5.000000,9.000000,1.000000,0.000000,-2.000000
1302453.126322,0.000000,5.000000,-2.000000,0.000000,-2.000000,4.000000,1.000000,-2.000000
1302453.133196,-7.000000,8.000000,5.000000,0.000000,-3.000000,5.000000,-1.000000,1.000000
1302453.133229,2.000000,1.000000,-2.000000,-8.000000,-11.000000,-2.000000,0.000000,2.000000
1302453.170718,-2.000000,-4.000000,-6.000000,-4.000000,10.000000,0.000000,-3.000000,-3.000000
1302453.170729,2.000000,1.000000,1.000000,-1.000000,-11.000000,0.000000,-3.000000,2.000000
1302453.185966,3.000000,-2.000000,3.000000,2.000000,0.000000,-1.000000,2.000000,-2.000000
1302453.185977,-2.000000,-4.000000,2.000000,-1.000000,6.000000,-4.000000,-3.000000,1.000000
1302453.193879,0.000000,1.000000,-3.000000,-9.000000,-7.000000,-4.000000,-3.000000,-3.000000
1302453.193890,-2.000000,-8.000000,2.000000,12.000000,-4.000000,-2.000000,-5.000000,-1.000000
1302453.194421,0.000000,-9.000000,-3.000000,-21.000000,-12.000000,-2.000000,-1.000000,2.000000
1302453.194437,2.000000,3.000000,-1.000000,2.000000,1.000000,1.000000,-1.000000,0.000000
1302453.195516,-5.000000,7.000000,5.000000,6.000000,1.000000,7.000000,-2.000000,1.000000
1302453.195526,0.000000,-1.000000,-1.000000,-6.000000,-1.000000,-3.000000,0.000000,-6.000000
1302453.196382,0.000000,-4.000000,-8.000000,-15.000000,-4.000000,-4.000000,0.000000,-5.000000
1302453.196392,-2.000000,8.000000,6.000000,4.000000,2.000000,4.000000,1.000000,2.000000
1302453.208860,0.000000,-6.000000,-2.000000,-9.000000,3.000000,0.000000,0.000000,3.000000
1302453.208872,0.000000,-8.000000,-7.000000,-2.000000,6.000000,-5.000000,-1.000000,-5.000000
1302453.216338,-1.000000,2.000000,1.000000,-1.000000,-6.000000,-1.000000,-2.000000,5.000000
1302453.216360,-6.000000,-1.000000,-2.000000,-2.000000,-8.000000,2.000000,-2.000000,0.000000
1302453.232015,2.000000,-2.000000,1.000000,8.000000,10.000000,-3.000000,-2.000000,-1.000000
1302453.232203,1.000000,4.000000,-8.000000,-7.000000,-6.000000,-3.000000,-3.000000,0.000000
1302453.232649,-3.000000,5.000000,3.000000,9.000000,-4.000000,3.000000,0.000000,-1.000000
1302453.232670,-1.000000,0.000000,-3.000000,-17.000000,-12.000000,-2.000000,2.000000,-1.000000
1302453.246505,-3.000000,-9.000000,-9.000000,-2.000000,-2.000000,-4.000000,-1.000000,-3.000000
1302453.246519,-3.000000,7.000000,5.000000,1.000000,-5.000000,3.000000,2.000000,1.000000
1302453.253365,-3.000000,-11.000000,-4.000000,-1.000000,-2.000000,-3.000000,-5.000000,-3.000000
1302453.253380,1.000000,-8.000000,-7.000000,-20.000000,-4.000000,0.000000,-2.000000,3.000000
1302453.283408,3.000000,-6.000000,1.000000,-1.000000,-2.000000,-1.000000,2.000000,-2.000000
1302453.283423,-1.000000,-1.000000,-1.000000,5.000000,-1.000000,1.000000,-1.000000,-5.000000
1302453.291240,-2.000000,-6.000000,-7.000000,-7.000000,2.000000,-3.000000,1.000000,1.000000
1302453.291255,-1.000000,-7.000000,-3.000000,-1.000000,-2.000000,0.000000,-1.000000,0.000000
1302453.313413,-2.000000,10.000000,7.000000,11.000000,-2.000000,0.000000,-4.000000,-1.000000
1302453.313432,3.000000,2.000000,0.000000,-3.000000,-1.000000,3.000000,2.000000,4.000000
1302453.336340,-8.000000,-10.000000,-6.000000,0.000000,6.000000,-5.000000,-2.000000,-1.000000
1302453.336355,0.000000,6.000000,-2.000000,-2.000000,-15.000000,-1.000000,-3.000000,-4.000000
1302453.337060,-1.000000,1.000000,8.000000,17.000000,16.000000,2.000000,-2.000000,0.000000
1302453.337073,-2.000000,-13.000000,-9.000000,-6.000000,0.000000,-7.000000,-4.000000,-2.000000
1302453.337499,-5.000000,-4.000000,0.000000,5.000000,0.000000,-3.000000,-1.000000,-3.000000
1302453.337511,-3.000000,-2.000000,2.000000,-2.000000,-10.000000,-2.000000,-3.000000,-2.000000
1302453.338782,1.000000,-14.000000,-7.000000,-4.000000,-1.000000,-4.000000,-2.000000,1.000000
1302453.338795,-5.000000,-12.000000,-4.000000,0.000000,-5.000000,1.000000,1.000000,-3.000000
1302453.339600,-1.000000,8.000000,4.000000,2.000000,-7.000000,-3.000000,-4.000000,-1.000000
1302453.339612,-1.000000,-2.000000,4.000000,4.000000,-4.000000,1.000000,-3.000000,-1.000000
1302453.350855,-2.000000,2.000000,0.000000,4.000000,2.000000,-3.000000,-4.000000,-2.000000
1302453.350941,-1.000000,9.000000,6.000000,0.000000,-5.000000,-2.000000,-2.000000,1.000000
1302453.351547,-1.000000,-5.000000,-1.000000,1.000000,-1.000000,4.000000,-1.000000,1.000000
1302453.351573,-2.000000,-10.000000,-13.000000,-15.000000,-3.000000,-6.000000,-7.000000,-1.000000
1302453.388646,-1.000000,-1.000000,8.000000,12.000000,9.000000,1.000000,-1.000000,-1.000000
1302453.388662,-5.000000,-3.000000,4.000000,-1.000000,-11.000000,-4.000000,1.000000,0.000000
1302453.395894,3.000000,-8.000000,-3.000000,19.000000,15.000000,2.000000,-1.000000,-3.000000
1302453.395909,0.000000,2.000000,0.000000,-6.000000,-3.000000,2.000000,1.000000,1.000000
1302453.433870,-3.000000,3.000000,6.000000,2.000000,0.000000,3.000000,0.000000,-2.000000
1302453.433893,-1.000000,-8.000000,-10.000000,-7.000000,-11.000000,-7.000000,-2.000000,-6.000000
1302453.434169,-1.000000,5.000000,8.000000,7.000000,18.000000,6.000000,1.000000,4.000000
1302453.434185,-4.000000,-5.000000,-4.000000,0.000000,-6.000000,-1.000000,0.000000,-1.000000
1302453.435010,0.000000,-1.000000,-1.000000,-10.000000,-12.000000,-4.000000,-3.000000,2.000000
1302453.435022,-1.000000,-7.000000,-6.000000,-10.000000,4.000000,-4.000000,0.000000,-2.000000
1302453.435890,-3.000000,0.000000,0.000000,1.000000,-9.000000,2.000000,-2.000000,-2.000000
1302453.435902,-3.000000,-2.000000,4.000000,1.000000,-3.000000,3.000000,-1.000000,-2.000000
1302453.456813,-1.000000,-19.000000,-7.000000,-1.000000,6.000000,-5.000000,-3.000000,-2.000000
1302453.456845,-6.000000,-3.000000,0.000000,1.000000,6.000000,2.000000,-3.000000,-3.000000
1302453.471802,1.000000,5.000000,-5.000000,28.000000,8.000000,-2.000000,-3.000000,0.000000
1302453.471835,4.000000,12.000000,6.000000,-8.000000,-1.000000,1.000000,-1.000000,2.000000
1302453.487013,0.000000,-7.000000,-1.000000,-2.000000,-5.000000,-4.000000,-4.000000,0.000000
1302453.487044,1.000000,-8.000000,-11.000000,1.000000,5.000000,-2.000000,1.000000,-1.000000
1302453.523501,-3.000000,-3.000000,2.000000,2.000000,0.000000,-2.000000,0.000000,-3.000000
1302453.523516,-3.000000,-4.000000,1.000000,-3.000000,-6.000000,2.000000,-1.000000,-2.000000
1302453.530875,-3.000000,-14.000000,-9.000000,-19.000000,-9.000000,-13.000000,-5.000000,-4.000000
1302453.530890,-3.000000,-5.000000,-4.000000,-8.000000,-1.000000,-1.000000,-1.000000,2.000000
1302453.568396,-1.000000,9.000000,4.000000,4.000000,-1.000000,4.000000,2.000000,1.000000
1302453.568608,0.000000,-10.000000,-10.000000,0.000000,-1.000000,-3.000000,0.000000,-1.000000
1302453.568991,-3.000000,-1.000000,-3.000000,-5.000000,3.000000,-3.000000,-1.000000,-4.000000
1302453.568999,1.000000,14.000000,3.000000,-12.000000,-15.000000,1.000000,-1.000000,-4.000000
1302453.571167,1.000000,2.000000,1.000000,-11.000000,-4.000000,-1.000000,-1.000000,0.000000
1302453.571176,4.000000,8.000000,2.000000,-12.000000,-6.000000,0.000000,0.000000,-3.000000
1302453.583185,0.000000,-16.000000,-4.000000,-12.000000,-6.000000,-3.000000,0.000000,-6.000000
1302453.583200,-1.000000,2.000000,1.000000,7.000000,0.000000,0.000000,-2.000000,1.000000
1302453.584462,-5.000000,8.000000,2.000000,8.000000,0.000000,-2.000000,1.000000,-3.000000
1302453.584480,-1.000000,-6.000000,-1.000000,-5.000000,2.000000,-1.000000,-3.000000,-1.000000
1302453.606122,2.000000,3.000000,-4.000000,-7.000000,2.000000,-6.000000,0.000000,-2.000000
1302453.606134,-1.000000,13.000000,6.000000,2.000000,-10.000000,-2.000000,-1.000000,1.000000
1302453.650979,-5.000000,-6.000000,2.000000,10.000000,12.000000,-3.000000,-2.000000,0.000000
1302453.650989,-3.000000,-12.000000,-13.000000,-3.000000,2.000000,-1.000000,-2.000000,-6.000000
1302453.666013,-3.000000,3.000000,6.000000,3.000000,1.000000,2.000000,-1.000000,2.000000
1302453.666024,2.000000,-1.000000,-3.000000,-2.000000,-1.000000,-1.000000,-4.000000,0.000000
1302453.666847,-5.000000,-16.000000,-10.000000,-13.000000,-3.000000,-9.000000,-3.000000,-1.000000
1302453.666856,2.000000,7.000000,9.000000,-5.000000,15.000000,6.000000,3.000000,2.000000
1302453.667295,0.000000,6.000000,3.000000,-3.000000,-3.000000,4.000000,1.000000,0.000000
1302453.667304,-2.000000,-6.000000,-4.000000,-3.000000,-1.000000,-3.000000,-2.000000,-1.000000
1302453.668644,-2.000000,-4.000000,-5.000000,-5.000000,-4.000000,0.000000,-4.000000,-1.000000
1302453.668653,1.000000,9.000000,10.000000,14.000000,8.000000,6.000000,-3.000000,0.000000
1302453.673289,-1.000000,-11.000000,-5.000000,-3.000000,3.000000,-2.000000,0.000000,-1.000000
1302453.673301,0.000000,2.000000,5.000000,6.000000,3.000000,1.000000,1.000000,-5.000000
1302453.688723,4.000000,9.000000,1.000000,-6.000000,-4.000000,3.000000,0.000000,1.000000
1302453.688733,-3.000000,-6.000000,2.000000,-4.000000,-5.000000,-3.000000,-3.000000,0.000000
1302453.703233,-1.000000,3.000000,-3.000000,-1.000000,2.000000,1.000000,0.000000,2.000000
1302453.703244,4.000000,4.000000,4.000000,1.000000,-5.000000,0.000000,2.000000,-1.000000
1302453.711511,2.000000,-5.000000,-5.000000,5.000000,10.000000,1.000000,-1.000000,-3.000000
1302453.711522,-3.000000,-4.000000,-11.000000,-3.000000,-2.000000,-2.000000,1.000000,-2.000000
1302453.733451,1.000000,-5.000000,1.000000,12.000000,3.000000,1.000000,-5.000000,1.000000
1302453.733464,-4.000000,-7.000000,0.000000,-14.000000,-2.000000,-2.000000,-2.000000,1.000000
1302453.748062,1.000000,-10.000000,-6.000000,3.000000,4.000000,-1.000000,2.000000,-1.000000
1302453.748079,-1.000000,7.000000,2.000000,11.000000,8.000000,4.000000,0.000000,0.000000
1302453.755521,1.000000,0.000000,8.000000,7.000000,0.000000,1.000000,-1.000000,1.000000
1302453.755553,1.000000,-3.000000,-8.000000,0.000000,-3.000000,-4.000000,-2.000000,-1.000000
1302453.785800,0.000000,3.000000,-3.000000,0.000000,-3.000000,1.000000,1.000000,2.000000
1302453.785812,-5.000000,9.000000,2.000000,3.000000,-8.000000,1.000000,-1.000000,-2.000000
1302453.800595,-1.000000,-3.000000,-3.000000,-9.000000,0.000000,4.000000,-1.000000,1.000000
1302453.800623,-7.000000,-13.000000,-6.000000,-6.000000,2.000000,-11.000000,-2.000000,-3.000000
1302453.823514,3.000000,2.000000,-6.000000,3.000000,-8.000000,3.000000,-4.000000,-1.000000
1302453.823527,-1.000000,4.000000,-4.000000,4.000000,-1.000000,-6.000000,-2.000000,-4.000000
1302453.846934,3.000000,-12.000000,-10.000000,-2.000000,5.000000,-3.000000,2.000000,2.000000
1302453.846967,0.000000,1.000000,-3.000000,-8.000000,5.000000,4.000000,1.000000,0.000000
1302453.869638,1.000000,1.000000,6.000000,1.000000,-10.000000,-2.000000,-1.000000,-5.000000
1302453.869694,4.000000,-5.000000,-3.000000,3.000000,4.000000,-4.000000,-1.000000,1.000000
1302453.883461,-3.000000,12.000000,4.000000,0.000000,3.000000,3.000000,4.000000,0.000000
1302453.883480,1.000000,-1.000000,0.000000,-9.000000,0.000000,0.000000,-3.000000,1.000000
1302453.920485,5.000000,-10.000000,-7.000000,-17.000000,-14.000000,-6.000000,-1.000000,1.000000
1302453.920495,0.000000,2.000000,-4.000000,0.000000,2.000000,-2.000000,-1.000000,0.000000
1302453.929142,1.000000,-1.000000,4.000000,-15.000000,-12.000000,1.000000,3.000000,-1.000000
1302453.929177,-1.000000,11.000000,9.000000,17.000000,9.000000,2.000000,0.000000,-1.000000
1302453.930157,-1.000000,-6.000000,-3.000000,-15.000000,-9.000000,2.000000,1.000000,1.000000
1302453.930201,0.000000,0.000000,-5.000000,-3.000000,-3.000000,-5.000000,1.000000,-3.000000
1302453.931393,-1.000000,-14.000000,-9.000000,1.000000,1.000000,-5.000000,-4.000000,-4.000000
1302453.931401,1.000000,2.000000,0.000000,0.000000,-1.000000,1.000000,0.000000,-2.000000
1302453.943032,-3.000000,-5.000000,-4.000000,-8.000000,-16.000000,-3.000000,-4.000000,-2.000000
1302453.943047,0.000000,-5.000000,-3.000000,-2.000000,9.000000,-6.000000,0.000000,-2.000000
1302453.944596,-7.000000,0.000000,-4.000000,-14.000000,-12.000000,-2.000000,0.000000,-3.000000
1302453.944625,6.000000,13.000000,10.000000,2.000000,-4.000000,4.000000,-2.000000,0.000000
1302453.966022,0.000000,-2.000000,-2.000000,-10.000000,-2.000000,3.000000,0.000000,-1.000000
1302453.966033,1.000000,-3.000000,-5.000000,0.000000,4.000000,-7.000000,1.000000,-3.000000
1302454.003203,-5.000000,3.000000,3.000000,2.000000,-8.000000,2.000000,1.000000,-3.000000
1302454.003213,-2.000000,-13.000000,1.000000,7.000000,10.000000,5.000000,2.000000,-1.000000
1302454.010896,-4.000000,-12.000000,-13.000000,-4.000000,-7.000000,-3.000000,-6.000000,0.000000
1302454.010907,-6.000000,-4.000000,-1.000000,12.000000,-5.000000,-1.000000,-1.000000,-2.000000
1302454.025945,-2.000000,-4.000000,0.000000,-8.000000,-3.000000,0.000000,-1.000000,0.000000
1302454.025958,3.000000,2.000000,-8.000000,-11.000000,-4.000000,0.000000,0.000000,-3.000000
1302454.033243,0.000000,4.000000,5.000000,18.000000,8.000000,6.000000,-1.000000,2.000000
1302454.033255,3.000000,18.000000,8.000000,-1.000000,-9.000000,-5.000000,0.000000,2.000000
1302454.040966,4.000000,6.000000,0.000000,6.000000,6.000000,-5.000000,-1.000000,0.000000
1302454.040975,0.000000,6.000000,-6.000000,1.000000,0.000000,-4.000000,2.000000,1.000000
1302454.041672,2.000000,6.000000,5.000000,-1.000000,-9.000000,1.000000,-3.000000,-1.000000
1302454.041680,-2.000000,2.000000,-5.000000,-10.000000,-7.000000,-4.000000,-1.000000,0.000000
1302454.042305,-8.000000,-10.000000,-10.000000,10.000000,16.000000,0.000000,-3.000000,-4.000000
1302454.042314,5.000000,-3.000000,-4.000000,-1.000000,-2.000000,-2.000000,-2.000000,0.000000
1302454.042862,1.000000,1.000000,3.000000,-19.000000,-13.000000,2.000000,0.000000,2.000000
1302454.042871,-3.000000,-14.000000,-7.000000,-8.000000,0.000000,-7.000000,-2.000000,0.000000
1302454.063427,-5.000000,-7.000000,-1.000000,-1.000000,0.000000,-1.000000,-1.000000,-3.000000
1302454.063441,-5.000000,5.000000,8.000000,6.000000,-10.000000,0.000000,-3.000000,-3.000000
1302454.063821,1.000000,-5.000000,0.000000,5.000000,1.000000,2.000000,-5.000000,0.000000
1302454.063831,-1.000000,3.000000,-5.000000,-6.000000,7.000000,1.000000,-1.000000,1.000000
1302454.065384,-5.000000,-3.000000,2.000000,2.000000,-5.000000,-2.000000,-1.000000,-4.000000
1302454.065397,4.000000,2.000000,-2.000000,-10.000000,-6.000000,0.000000,0.000000,-1.000000
1302454.078275,-3.000000,5.000000,-7.000000,-7.000000,-3.000000,-5.000000,-5.000000,-3.000000
1302454.078287,1.000000,-5.000000,0.000000,-4.000000,6.000000,1.000000,0.000000,-1.000000
1302454.100887,0.000000,-6.000000,4.000000,2.000000,-5.000000,1.000000,-1.000000,0.000000
1302454.100899,0.000000,-15.000000,-11.000000,1.000000,6.000000,-2.000000,2.000000,-1.000000
1302454.108246,3.000000,5.000000,-4.000000,-11.000000,-6.000000,3.000000,0.000000,1.000000
1302454.108257,-6.000000,-2.000000,18.000000,9.000000,-3.000000,-2.000000,-2.000000,-4.000000
1302454.138715,-5.000000,-9.000000,-5.000000,8.000000,13.000000,3.000000,-1.000000,-4.000000
1302454.138725,7.000000,5.000000,1.000000,7.000000,4.000000,-3.000000,0.000000,1.000000
1302454.145867,0.000000,3.000000,3.000000,-3.000000,-12.000000,-3.000000,-3.000000,1.000000
1302454.145878,-4.000000,-9.000000,0.000000,7.000000,2.000000,-1.000000,1.000000,-2.000000
1302454.168448,-4.000000,-14.000000,-5.000000,-8.000000,3.000000,-3.000000,-2.000000,-3.000000
1302454.168471,-7.000000,-1.000000,5.000000,1.000000,-5.000000,0.000000,-1.000000,-1.000000
1302454.169071,1.000000,1.000000,-3.000000,3.000000,-2.000000,-2.000000,-2.000000,3.000000
1302454.169081,-3.000000,-9.000000,-14.000000,-16.000000,0.000000,-5.000000,-5.000000,-2.000000
1302454.183532,-3.000000,-5.000000,-4.000000,7.000000,4.000000,1.000000,-1.000000,-1.000000
1302454.183555,-2.000000,8.000000,7.000000,-20.000000,-16.000000,-3.000000,-1.000000,1.000000
1302454.184162,1.000000,2.000000,-1.000000,8.000000,-3.000000,0.000000,1.000000,3.000000
1302454.184180,-3.000000,1.000000,-2.000000,1.000000,2.000000,-4.000000,-1.000000,-1.000000
1302454.185419,-3.000000,-25.000000,-10.000000,0.000000,4.000000,-1.000000,-3.000000,-2.000000
1302454.185428,-2.000000,2.000000,-1.000000,6.000000,6.000000,-2.000000,-3.000000,-4.000000
1302454.186906,2.000000,-7.000000,-4.000000,-5.000000,-2.000000,-1.000000,-1.000000,2.000000
1302454.186915,-1.000000,-11.000000,-7.000000,-11.000000,-1.000000,-3.000000,-2.000000,0.000000
1302454.205809,-5.000000,-4.000000,-9.000000,-2.000000,1.000000,-2.000000,-4.000000,0.000000
1302454.205821,-1.000000,3.000000,9.000000,4.000000,5.000000,0.000000,-2.000000,-1.000000
1302454.220760,2.000000,-4.000000,-5.000000,-11.000000,2.000000,-1.000000,1.000000,3.000000
1302454.220771,1.000000,0.000000,-2.000000,2.000000,-1.000000,-2.000000,0.000000,-2.000000
1302454.228177,-4.000000,0.000000,4.000000,7.000000,1.000000,-8.000000,-2.000000,-3.000000
1302454.228195,1.000000,-3.000000,-5.000000,-5.000000,4.000000,-2.000000,1.000000,2.000000
1302454.265676,1.000000,-2.000000,-9.000000,-9.000000,-7.000000,-2.000000,1.000000,-3.000000
1302454.265687,-3.000000,0.000000,4.000000,-3.000000,-3.000000,1.000000,1.000000,0.000000
1302454.266134,1.000000,3.000000,2.000000,0.000000,0.000000,-3.000000,0.000000,1.000000
1302454.266148,4.000000,-1.000000,-5.000000,-7.000000,-7.000000,0.000000,3.000000,5.000000
1302454.267370,-2.000000,-1.000000,-2.000000,0.000000,6.000000,-3.000000,-2.000000,0.000000
1302454.267380,-8.000000,0.000000,7.000000,16.000000,-1.000000,1.000000,1.000000,-1.000000
1302454.268046,-5.000000,-11.000000,-7.000000,-3.000000,3.000000,-3.000000,-4.000000,0.000000
1302454.268070,2.000000,0.000000,-4.000000,9.000000,-8.000000,-1.000000,2.000000,3.000000
1302454.269631,-8.000000,-7.000000,5.000000,3.000000,0.000000,4.000000,1.000000,-2.000000
1302454.269652,0.000000,-13.000000,0.000000,4.000000,2.000000,-2.000000,2.000000,1.000000
1302454.280522,5.000000,3.000000,-7.000000,-9.000000,-2.000000,-1.000000,-1.000000,1.000000
1302454.280551,0.000000,10.000000,7.000000,18.000000,1.000000,6.000000,-3.000000,-2.000000
1302454.288334,0.000000,-8.000000,1.000000,9.000000,11.000000,1.000000,-2.000000,-1.000000
1302454.288345,1.000000,-12.000000,-11.000000,-8.000000,1.000000,-6.000000,-2.000000,0.000000
1302454.295892,-1.000000,0.000000,-1.000000,8.000000,-5.000000,-4.000000,-1.000000,-2.000000
1302454.295902,1.000000,3.000000,-2.000000,-2.000000,-1.000000,3.000000,0.000000,-1.000000
1302454.303935,-1.000000,-4.000000,0.000000,-3.000000,5.000000,-4.000000,0.000000,0.000000
1302454.303946,-2.000000,1.000000,-1.000000,3.000000,-3.000000,-2.000000,-1.000000,1.000000
1302454.318242,-1.000000,13.000000,6.000000,5.000000,-4.000000,4.000000,2.000000,-1.000000
1302454.318253,-1.000000,1.000000,3.000000,3.000000,1.000000,0.000000,-2.000000,-2.000000
1302454.340703,5.000000,-1.000000,-6.000000,1.000000,0.000000,-5.000000,-1.000000,3.000000
1302454.340714,1.000000,7.000000,10.000000,6.000000,-1.000000,-1.000000,-2.000000,1.000000
1302454.355824,0.000000,-10.000000,-7.000000,-2.000000,0.000000,-4.000000,-4.000000,-2.000000
1302454.355835,-3.000000,-8.000000,-9.000000,2.000000,7.000000,-1.000000,0.000000,-1.000000
1302454.378381,-2.000000,-1.000000,-2.000000,-3.000000,-1.000000,-1.000000,2.000000,1.000000
1302454.378392,-4.000000,2.000000,2.000000,8.000000,4.000000,1.000000,0.000000,1.000000
1302454.400946,0.000000,-5.000000,-4.000000,-6.000000,0.000000,-2.000000,-2.000000,1.000000
1302454.400970,-4.000000,1.000000,-5.000000,-6.000000,0.000000,2.000000,-1.000000,-1.000000
1302454.401859,-6.000000,-4.000000,4.000000,10.000000,2.000000,3.000000,-3.000000,2.000000
1302454.401869,0.000000,-1.000000,6.000000,1.000000,-4.000000,-5.000000,-1.000000,-2.000000
1302454.402378,0.000000,-6.000000,-8.000000,-17.000000,-7.000000,-4.000000,-3.000000,-5.000000
1302454.402388,3.000000,6.000000,-2.000000,3.000000,0.000000,0.000000,-2.000000,-2.000000
1302454.403674,1.000000,-5.000000,4.000000,5.000000,6.000000,-3.000000,-4.000000,2.000000
1302454.403684,0.000000,-12.000000,-6.000000,-5.000000,-1.000000,1.000000,0.000000,-2.000000
1302454.404585,-2.000000,-3.000000,-1.000000,8.000000,-7.000000,-5.000000,-4.000000,-3.000000
1302454.404596,-6.000000,-3.000000,-3.000000,-8.000000,-4.000000,3.000000,-3.000000,-1.000000
1302454.415541,1.000000,-8.000000,-5.000000,-4.000000,0.000000,-1.000000,1.000000,-3.000000
1302454.415569,-3.000000,4.000000,-1.000000,2.000000,0.000000,0.000000,0.000000,-2.000000
1302454.416380,0.000000,14.000000,10.000000,0.000000,-3.000000,2.000000,3.000000,1.000000
1302454.416389,1.000000,-10.000000,-3.000000,4.000000,0.000000,-6.000000,-1.000000,-3.000000
1302454.423803,0.000000,-4.000000,-2.000000,5.000000,8.000000,-5.000000,-3.000000,-2.000000
1302454.423814,-1.000000,5.000000,3.000000,-8.000000,-10.000000,1.000000,1.000000,2.000000
1302454.438448,2.000000,4.000000,0.000000,-12.000000,-7.000000,-4.000000,-4.000000,-1.000000
1302454.438461,1.000000,-12.000000,-11.000000,2.000000,8.000000,1.000000,-1.000000,2.000000
1302454.460744,-2.000000,5.000000,-2.000000,3.000000,0.000000,-1.000000,-2.000000,-4.000000
1302454.460756,2.000000,-2.000000,0.000000,-5.000000,-11.000000,1.000000,-1.000000,1.000000
1302454.483434,1.000000,-8.000000,-9.000000,-4.000000,-4.000000,-7.000000,-2.000000,-2.000000
1302454.483446,-3.000000,6.000000,-3.000000,5.000000,-1.000000,-1.000000,-1.000000,-2.000000
1302454.498160,-2.000000,14.000000,9.000000,0.000000,-3.000000,6.000000,-1.000000,-2.000000
1302454.498172,-3.000000,-5.000000,0.000000,17.000000,2.000000,-4.000000,-6.000000,-4.000000
1302454.498606,3.000000,2.000000,6.000000,12.000000,4.000000,0.000000,1.000000,-3.000000
1302454.498620,1.000000,7.000000,2.000000,-8.000000,-4.000000,1.000000,0.000000,2.000000
1302454.500504,-1.000000,-5.000000,4.000000,1.000000,2.000000,1.000000,-5.000000,1.000000
1302454.500538,4.000000,-5.000000,-8.000000,0.000000,0.000000,-5.000000,0.000000,1.000000
1302454.501352,-5.000000,3.000000,-2.000000,-2.000000,-3.000000,1.000000,-1.000000,0.000000
1302454.501404,-2.000000,-2.000000,2.000000,3.000000,2.000000,2.000000,-2.000000,-2.000000
1302454.506271,0.000000,-6.000000,-4.000000,-10.000000,-5.000000,-6.000000,-5.000000,-3.000000
1302454.506321,-4.000000,-5.000000,-1.000000,8.000000,8.000000,-2.000000,-2.000000,-1.000000
1302454.521127,4.000000,17.000000,13.000000,15.000000,4.000000,11.000000,7.000000,4.000000
1302454.521149,-6.000000,-5.000000,-3.000000,9.000000,1.000000,-2.000000,-2.000000,-4.000000
1302454.528782,1.000000,-1.000000,4.000000,-12.000000,5.000000,4.000000,2.000000,-1.000000
1302454.528803,-3.000000,2.000000,3.000000,2.000000,-1.000000,-5.000000,-4.000000,0.000000
1302454.536214,-3.000000,-9.000000,-17.000000,-15.000000,-17.000000,0.000000,-2.000000,-1.000000
1302454.536236,-2.000000,-7.000000,2.000000,-6.000000,2.000000,-5.000000,-1.000000,0.000000
1302454.558797,-6.000000,-7.000000,0.000000,-2.000000,-8.000000,-3.000000,0.000000,-3.000000
1302454.558819,-1.000000,2.000000,0.000000,3.000000,-7.000000,2.000000,2.000000,-1.000000
1302454.565672,1.000000,-7.000000,-13.000000,-16.000000,-8.000000,-6.000000,-3.000000,-2.000000
1302454.565685,0.000000,6.000000,4.000000,-2.000000,4.000000,-4.000000,-1.000000,1.000000
1302454.580983,-4.000000,1.000000,6.000000,9.000000,-10.000000,5.000000,0.000000,3.000000
1302454.580995,3.000000,2.000000,-6.000000,-2.000000,0.000000,-3.000000,-1.000000,-1.000000
1302454.588511,0.000000,0.000000,0.000000,-10.000000,0.000000,-3.000000,-4.000000,-2.000000
1302454.588527,0.000000,9.000000,7.000000,1.000000,-4.000000,3.000000,2.000000,-3.000000
1302454.618437,0.000000,-19.000000,-2.000000,-4.000000,-1.000000,-3.000000,0.000000,-2.000000
1302454.618450,3.000000,-5.000000,-7.000000,-3.000000,6.000000,-8.000000,-3.000000,-4.000000
1302454.618853,-7.000000,-5.000000,-1.000000,0.000000,-4.000000,1.000000,-3.000000,0.000000
1302454.618864,1.000000,0.000000,0.000000,-3.000000,4.000000,-4.000000,0.000000,0.000000
1302454.619862,2.000000,-17.000000,-8.000000,3.000000,9.000000,-7.000000,2.000000,1.000000
1302454.619873,2.000000,4.000000,-2.000000,-1.000000,-7.000000,-1.000000,-1.000000,-1.000000
1302454.620476,-4.000000,9.000000,13.000000,22.000000,-2.000000,3.000000,-2.000000,0.000000
1302454.620486,3.000000,-3.000000,-6.000000,2.000000,4.000000,-1.000000,2.000000,-2.000000
1302454.626000,3.000000,-3.000000,-6.000000,-14.000000,-5.000000,1.000000,1.000000,-1.000000
1302454.626013,0.000000,9.000000,9.000000,9.000000,1.000000,4.000000,-2.000000,1.000000
1302454.655775,0.000000,-1.000000,-1.000000,2.000000,1.000000,1.000000,-1.000000,1.000000
1302454.655787,-1.000000,-7.000000,-11.000000,-8.000000,0.000000,-6.000000,1.000000,-4.000000
1302454.656776,4.000000,-1.000000,-6.000000,-1.000000,-2.000000,-1.000000,1.000000,2.000000
1302454.656787,-2.000000,0.000000,1.000000,3.000000,0.000000,-1.000000,0.000000,-1.000000
1302454.657561,0.000000,0.000000,2.000000,5.000000,10.000000,2.000000,0.000000,-2.000000
1302454.657572,-2.000000,-2.000000,-6.000000,-18.000000,0.000000,-1.000000,-2.000000,-1.000000
1302454.678462,0.000000,7.000000,5.000000,13.000000,-1.000000,2.000000,-2.000000,0.000000
1302454.678475,0.000000,-8.000000,-8.000000,-5.000000,-3.000000,-2.000000,-1.000000,1.000000
1302454.693259,-3.000000,5.000000,-3.000000,-7.000000,0.000000,-2.000000,-2.000000,3.000000
1302454.693272,-6.000000,11.000000,16.000000,16.000000,6.000000,7.000000,-1.000000,-1.000000
1302454.716023,0.000000,-7.000000,-5.000000,-9.000000,-7.000000,-6.000000,-3.000000,-4.000000
1302454.716036,-3.000000,-13.000000,-3.000000,-4.000000,7.000000,0.000000,0.000000,-1.000000
1302454.723491,-3.000000,3.000000,0.000000,2.000000,-7.000000,-1.000000,-1.000000,0.000000
1302454.723504,4.000000,2.000000,0.000000,3.000000,3.000000,2.000000,-2.000000,-2.000000
1302454.745874,4.000000,-9.000000,-9.000000,-7.000000,3.000000,-5.000000,0.000000,1.000000
1302454.745886,-4.000000,-5.000000,9.000000,6.000000,6.000000,-4.000000,-3.000000,-4.000000
1302454.760774,-2.000000,0.000000,3.000000,0.000000,-2.000000,4.000000,1.000000,-1.000000
1302454.760787,0.000000,-4.000000,-7.000000,2.000000,-8.000000,-3.000000,1.000000,2.000000
1302454.776247,-1.000000,5.000000,1.000000,-5.000000,-3.000000,-5.000000,-7.000000,1.000000
1302454.776267,-6.000000,15.000000,15.000000,7.000000,-3.000000,0.000000,-1.000000,1.000000
1302454.777088,4.000000,19.000000,-4.000000,-4.000000,-1.000000,1.000000,-1.000000,0.000000
1302454.777109,-1.000000,-13.000000,0.000000,15.000000,4.000000,-2.000000,-1.000000,-2.000000
1302454.778017,-2.000000,-7.000000,-5.000000,-3.000000,4.000000,-5.000000,-3.000000,-2.000000
1302454.778027,0.000000,1.000000,-1.000000,-2.000000,-2.000000,1.000000,0.000000,0.000000
1302454.779650,-5.000000,0.000000,-8.000000,-10.000000,-7.000000,-6.000000,-2.000000,-2.000000
1302454.779672,-3.000000,-3.000000,5.000000,6.000000,-14.000000,-2.000000,-4.000000,0.000000
1302454.798279,-8.000000,-16.000000,-9.000000,-13.000000,-12.000000,-1.000000,-3.000000,-3.000000
1302454.798292,0.000000,-8.000000,-8.000000,-6.000000,-2.000000,-3.000000,0.000000,-1.000000
1302454.813502,-4.000000,5.000000,0.000000,9.000000,5.000000,1.000000,-2.000000,0.000000
1302454.813515,-2.000000,-9.000000,-6.000000,-2.000000,-6.000000,-2.000000,0.000000,-3.000000
1302454.837073,-2.000000,-7.000000,5.000000,3.000000,3.000000,-7.000000,-5.000000,-3.000000
1302454.837109,0.000000,-1.000000,-1.000000,-5.000000,-3.000000,-3.000000,1.000000,-1.000000
1302454.851937,0.000000,3.000000,2.000000,-1.000000,-4.000000,2.000000,-2.000000,1.000000
1302454.851997,-3.000000,-3.000000,-4.000000,-14.000000,-1.000000,-1.000000,-2.000000,-1.000000
1302454.853601,2.000000,-3.000000,-9.000000,-22.000000,-1.000000,3.000000,5.000000,0.000000
1302454.853660,-1.000000,9.000000,6.000000,1.000000,-1.000000,4.000000,1.000000,-2.000000
1302454.854535,0.000000,7.000000,5.000000,9.000000,-7.000000,3.000000,0.000000,-1.000000
1302454.854559,3.000000,-2.000000,-10.000000,-11.000000,4.000000,-1.000000,-2.000000,2.000000
1302454.855254,2.000000,2.000000,-1.000000,1.000000,-2.000000,1.000000,-1.000000,-2.000000
1302454.855276,0.000000,4.000000,0.000000,4.000000,-1.000000,1.000000,0.000000,-1.000000
1302454.859193,2.000000,-10.000000,-9.000000,-5.000000,2.000000,-5.000000,-1.000000,-1.000000
1302454.859217,0.000000,-5.000000,1.000000,-8.000000,-6.000000,0.000000,0.000000,-2.000000
1302454.873354,1.000000,8.000000,7.000000,1.000000,-3.000000,2.000000,2.000000,1.000000
1302454.873369,-6.000000,-17.000000,-5.000000,-9.000000,7.000000,-2.000000,-2.000000,-1.000000
1302454.895825,1.000000,8.000000,-6.000000,-10.000000,2.000000,0.000000,-1.000000,0.000000
1302454.895896,-3.000000,19.000000,6.000000,-19.000000,-10.000000,-2.000000,0.000000,1.000000
1302454.896809,-3.000000,-4.000000,3.000000,-3.000000,1.000000,-2.000000,-3.000000,-1.000000
1302454.896836,-2.000000,-10.000000,-10.000000,-8.000000,-3.000000,-2.000000,-3.000000,-2.000000
1302454.897577,3.000000,18.000000,5.000000,4.000000,2.000000,1.000000,-2.000000,2.000000
1302454.897604,0.000000,-7.000000,-6.000000,-3.000000,-5.000000,1.000000,1.000000,0.000000
1302454.918218,-1.000000,-8.000000,-9.000000,-5.000000,2.000000,-1.000000,2.000000,-1.000000
1302454.918247,0.000000,-1.000000,7.000000,3.000000,12.000000,-2.000000,-1.000000,1.000000
1302454.933329,-1.000000,-4.000000,3.000000,-1.000000,-6.000000,2.000000,-2.000000,2.000000
1302454.933339,-2.000000,-5.000000,-6.000000,-20.000000,-11.000000,-4.000000,1.000000,2.000000
1302454.955574,1.000000,14.000000,-7.000000,1.000000,-2.000000,0.000000,1.000000,-1.000000
1302454.955583,-1.000000,10.000000,19.000000,9.000000,15.000000,5.000000,0.000000,0.000000
1302454.971111,0.000000,-3.000000,2.000000,-12.000000,-3.000000,5.000000,2.000000,0.000000
1302454.971159,-3.000000,-7.000000,-5.000000,8.000000,8.000000,-3.000000,-3.000000,-1.000000
1302454.972095,-5.000000,0.000000,-9.000000,-1.000000,-7.000000,-1.000000,1.000000,1.000000
1302454.972112,2.000000,7.000000,10.000000,1.000000,2.000000,-1.000000,1.000000,2.000000
1302454.972673,1.000000,-12.000000,-7.000000,-36.000000,-4.000000,-8.000000,0.000000,2.000000
1302454.972681,-4.000000,1.000000,-7.000000,4.000000,-5.000000,-1.000000,-3.000000,-1.000000
1302454.973912,-1.000000,-1.000000,4.000000,-21.000000,-11.000000,0.000000,-3.000000,-2.000000
1302454.973920,0.000000,-4.000000,-2.000000,-10.000000,-3.000000,-3.000000,1.000000,0.000000
1302454.978183,-3.000000,-4.000000,-8.000000,-7.000000,1.000000,0.000000,-3.000000,-2.000000
1302454.978193,0.000000,11.000000,15.000000,11.000000,7.000000,8.000000,2.000000,3.000000
1302454.985673,-2.000000,6.000000,-1.000000,1.000000,-4.000000,-4.000000,-1.000000,-1.000000
1302454.985683,1.000000,5.000000,-6.000000,-7.000000,-4.000000,-7.000000,-2.000000,-2.000000
1302455.015683,-3.000000,13.000000,15.000000,21.000000,4.000000,-1.000000,-2.000000,-4.000000
1302455.015694,-3.000000,-12.000000,-8.000000,-10.000000,-3.000000,-2.000000,-3.000000,1.000000
1302455.016728,-4.000000,-8.000000,-8.000000,-6.000000,-1.000000,-3.000000,-5.000000,-2.000000
1302455.016737,-2.000000,3.000000,2.000000,-2.000000,-3.000000,-4.000000,0.000000,-1.000000
1302455.017665,0.000000,-1.000000,0.000000,-16.000000,-16.000000,-5.000000,1.000000,3.000000
1302455.017699,-1.000000,-7.000000,-11.000000,-5.000000,0.000000,-4.000000,0.000000,-3.000000
1302455.030721,-5.000000,-5.000000,8.000000,25.000000,17.000000,1.000000,-2.000000,-1.000000
1302455.030744,-3.000000,1.000000,-3.000000,-18.000000,-12.000000,2.000000,1.000000,3.000000
1302455.038144,-3.000000,-9.000000,-4.000000,1.000000,-2.000000,-5.000000,-4.000000,0.000000
1302455.038153,-2.000000,-1.000000,0.000000,3.000000,9.000000,-1.000000,-1.000000,-2.000000
1302455.060755,-2.000000,8.000000,6.000000,-9.000000,-13.000000,-1.000000,-2.000000,0.000000
1302455.060766,0.000000,-8.000000,-5.000000,-6.000000,-1.000000,-1.000000,-3.000000,-1.000000
1302455.075756,-1.000000,-17.000000,-9.000000,-17.000000,-4.000000,-6.000000,3.000000,-2.000000
1302455.075768,5.000000,4.000000,-2.000000,12.000000,4.000000,4.000000,-1.000000,-5.000000
1302455.113141,-2.000000,5.000000,1.000000,-12.000000,-1.000000,9.000000,2.000000,2.000000
1302455.113151,-4.000000,-16.000000,-12.000000,-24.000000,-13.000000,-5.000000,-3.000000,-1.000000
1302455.120554,1.000000,-9.000000,-5.000000,-13.000000,-6.000000,-5.000000,-2.000000,-2.000000
1302455.120565,-3.000000,6.000000,26.000000,34.000000,14.000000,8.000000,-1.000000,1.000000
1302455.128782,-4.000000,1.000000,-2.000000,3.000000,4.000000,2.000000,-2.000000,0.000000
1302455.128792,-1.000000,-1.000000,-1.000000,-1.000000,-1.000000,-2.000000,1.000000,-2.000000
1302455.129218,0.000000,11.000000,-3.000000,-3.000000,-8.000000,3.000000,-2.000000,-2.000000
1302455.129225,-3.000000,-4.000000,2.000000,0.000000,-9.000000,0.000000,1.000000,-1.000000
1302455.130807,-5.000000,-4.000000,1.000000,9.000000,9.000000,3.000000,-1.000000,2.000000
1302455.130825,-1.000000,-13.000000,-7.000000,-4.000000,2.000000,-2.000000,0.000000,-3.000000
1302455.131550,4.000000,7.000000,-2.000000,1.000000,3.000000,1.000000,-4.000000,-1.000000
1302455.131558,-5.000000,2.000000,3.000000,8.000000,-7.000000,-2.000000,-1.000000,-5.000000
1302455.135947,-7.000000,-8.000000,0.000000,-11.000000,-3.000000,-2.000000,1.000000,1.000000
1302455.135958,-1.000000,3.000000,-3.000000,-6.000000,0.000000,-2.000000,-1.000000,-3.000000
1302455.173447,-5.000000,-5.000000,-2.000000,0.000000,3.000000,3.000000,-3.000000,1.000000
1302455.173460,2.000000,-9.000000,-6.000000,-4.000000,1.000000,0.000000,-3.000000,-2.000000
1302455.188247,1.000000,-5.000000,-13.000000,-7.000000,4.000000,-2.000000,-2.000000,2.000000
1302455.188259,0.000000,4.000000,6.000000,-2.000000,-8.000000,-2.000000,2.000000,1.000000
1302455.210560,-3.000000,-7.000000,1.000000,-19.000000,0.000000,1.000000,-2.000000,-4.000000
1302455.210570,0.000000,-11.000000,-4.000000,6.000000,0.000000,-4.000000,1.000000,-4.000000
1302455.233391,-1.000000,6.000000,-2.000000,2.000000,3.000000,5.000000,2.000000,1.000000
1302455.233420,2.000000,5.000000,1.000000,6.000000,2.000000,2.000000,-2.000000,1.000000
1302455.234298,0.000000,0.000000,5.000000,5.000000,4.000000,0.000000,-4.000000,0.000000
1302455.234311,-1.000000,-3.000000,-9.000000,6.000000,0.000000,1.000000,0.000000,-2.000000
1302455.234806,-3.000000,-2.000000,1.000000,4.000000,3.000000,3.000000,0.000000,-1.000000
1302455.234816,-1.000000,-3.000000,2.000000,-21.000000,-23.000000,-1.000000,-1.000000,1.000000
1302455.236327,3.000000,-10.000000,-9.000000,-5.000000,1.000000,-8.000000,-5.000000,-3.000000
1302455.236338,-6.000000,-8.000000,-5.000000,9.000000,5.000000,-3.000000,1.000000,-4.000000
1302455.237150,-1.000000,-6.000000,-7.000000,2.000000,-2.000000,-2.000000,-2.000000,-1.000000
1302455.237160,-4.000000,12.000000,14.000000,16.000000,-4.000000,0.000000,-2.000000,-4.000000
1302455.248218,-1.000000,-5.000000,-5.000000,-2.000000,-2.000000,0.000000,1.000000,-6.000000
1302455.248234,-1.000000,-4.000000,-7.000000,-4.000000,-3.000000,-4.000000,-3.000000,-1.000000
1302455.249486,-6.000000,-4.000000,-4.000000,-12.000000,-3.000000,-1.000000,-4.000000,0.000000
1302455.249506,-3.000000,-4.000000,13.000000,22.000000,11.000000,2.000000,1.000000,-2.000000
1302455.255688,-2.000000,-12.000000,-9.000000,-5.000000,-3.000000,-6.000000,-5.000000,-1.000000
1302455.255742,2.000000,0.000000,-2.000000,-5.000000,-11.000000,-4.000000,-1.000000,0.000000
1302455.278423,-1.000000,2.000000,-1.000000,13.000000,9.000000,1.000000,-1.000000,0.000000
1302455.278436,1.000000,-19.000000,-8.000000,-45.000000,-21.000000,-5.000000,0.000000,1.000000
1302455.293344,-2.000000,11.000000,3.000000,3.000000,-3.000000,0.000000,0.000000,-2.000000
1302455.293356,0.000000,2.000000,6.000000,15.000000,3.000000,1.000000,0.000000,-1.000000
1302455.330907,0.000000,-5.000000,-6.000000,4.000000,0.000000,3.000000,0.000000,0.000000
1302455.330921,-2.000000,-3.000000,-8.000000,-7.000000,-2.000000,-3.000000,-2.000000,-1.000000
1302455.331330,0.000000,9.000000,3.000000,6.000000,0.000000,3.000000,3.000000,1.000000
1302455.331340,-5.000000,-5.000000,-8.000000,-6.000000,-2.000000,0.000000,1.000000,4.000000
1302455.332315,2.000000,-14.000000,-5.000000,6.000000,-4.000000,-4.000000,-2.000000,-3.000000
1302455.332324,3.000000,3.000000,-2.000000,-1.000000,-4.000000,-3.000000,0.000000,-4.000000
1302455.332970,-3.000000,0.000000,0.000000,5.000000,2.000000,1.000000,2.000000,-1.000000
1302455.332979,-1.000000,-9.000000,-7.000000,-4.000000,7.000000,-5.000000,-1.000000,-2.000000
1302455.334557,-3.000000,-2.000000,3.000000,7.000000,4.000000,1.000000,1.000000,-4.000000
1302455.334568,1.000000,4.000000,4.000000,13.000000,6.000000,3.000000,-3.000000,-1.000000
1302455.338026,-5.000000,5.000000,-6.000000,-14.000000,-5.000000,-2.000000,-3.000000,0.000000
1302455.338037,2.000000,13.000000,-3.000000,-5.000000,0.000000,-3.000000,-3.000000,1.000000
1302455.346690,-1.000000,7.000000,4.000000,15.000000,13.000000,4.000000,1.000000,-5.000000
1302455.346722,-3.000000,9.000000,12.000000,-17.000000,-9.000000,5.000000,4.000000,3.000000
1302455.376578,-4.000000,-10.000000,-10.000000,13.000000,6.000000,-4.000000,-4.000000,0.000000
1302455.376629,-5.000000,-6.000000,7.000000,18.000000,8.000000,-2.000000,-4.000000,-3.000000
1302455.399457,1.000000,1.000000,-7.000000,-18.000000,-8.000000,0.000000,1.000000,4.000000
1302455.399488,1.000000,-10.000000,-11.000000,-21.000000,-10.000000,-5.000000,-4.000000,-6.000000
1302455.413441,-1.000000,4.000000,-7.000000,-15.000000,-6.000000,-1.000000,2.000000,1.000000
1302455.413467,-1.000000,2.000000,2.000000,2.000000,-2.000000,0.000000,1.000000,0.000000
1302455.428456,4.000000,-10.000000,1.000000,-4.000000,-1.000000,-4.000000,2.000000,1.000000
1302455.428471,0.000000,-7.000000,-8.000000,-2.000000,-5.000000,2.000000,0.000000,-1.000000
1302455.450773,1.000000,4.000000,4.000000,8.000000,-2.000000,8.000000,1.000000,2.000000
1302455.450788,-3.000000,-3.000000,-1.000000,3.000000,4.000000,-2.000000,-4.000000,0.000000
1302455.466589,-1.000000,-5.000000,-9.000000,-6.000000,1.000000,-1.000000,0.000000,-1.000000
1302455.466603,-7.000000,-3.000000,1.000000,6.000000,3.000000,-4.000000,-5.000000,-3.000000
1302455.466949,3.000000,-1.000000,-10.000000,-20.000000,-17.000000,-5.000000,-1.000000,-1.000000
1302455.466960,-3.000000,-4.000000,2.000000,15.000000,30.000000,-2.000000,-2.000000,-3.000000
1302455.467455,-2.000000,2.000000,-2.000000,-3.000000,-13.000000,-2.000000,-2.000000,-3.000000
1302455.467467,0.000000,4.000000,-6.000000,-19.000000,-26.000000,-2.000000,0.000000,0.000000
1302455.468158,-1.000000,-5.000000,2.000000,2.000000,3.000000,-6.000000,-1.000000,0.000000
1302455.468170,0.000000,0.000000,-2.000000,-3.000000,0.000000,-3.000000,-1.000000,-4.000000
1302455.473822,3.000000,2.000000,2.000000,-2.000000,-4.000000,-1.000000,-3.000000,2.000000
1302455.473836,-3.000000,-13.000000,-8.000000,-7.000000,1.000000,-7.000000,-2.000000,-4.000000
1302455.488290,1.000000,4.000000,2.000000,12.000000,-5.000000,-4.000000,-3.000000,1.000000
1302455.488305,1.000000,3.000000,-2.000000,-4.000000,-5.000000,0.000000,-1.000000,3.000000
1302455.489517,-4.000000,-8.000000,-5.000000,-3.000000,2.000000,-1.000000,1.000000,-4.000000
1302455.489529,0.000000,5.000000,0.000000,2.000000,4.000000,-2.000000,1.000000,-2.000000
1302455.511124,-11.000000,-10.000000,4.000000,5.000000,-6.000000,-1.000000,1.000000,0.000000
1302455.511139,4.000000,-4.000000,2.000000,10.000000,7.000000,2.000000,0.000000,3.000000
1302455.533425,-4.000000,-8.000000,-2.000000,-15.000000,5.000000,-2.000000,-4.000000,-1.000000
1302455.533442,-3.000000,2.000000,1.000000,-5.000000,-3.000000,-2.000000,1.000000,2.000000
1302455.548315,-3.000000,-3.000000,-6.000000,1.000000,4.000000,-3.000000,1.000000,-1.000000
1302455.548329,0.000000,-12.000000,-6.000000,-8.000000,-6.000000,1.000000,-1.000000,0.000000
1302455.556511,-4.000000,-1.000000,1.000000,1.000000,-3.000000,-6.000000,-4.000000,-5.000000
1302455.556525,1.000000,6.000000,-6.000000,-18.000000,-9.000000,-2.000000,-3.000000,2.000000
1302455.556970,-1.000000,-4.000000,8.000000,0.000000,2.000000,-2.000000,1.000000,-4.000000
1302455.556984,1.000000,1.000000,-8.000000,17.000000,1.000000,-4.000000,3.000000,1.000000
1302455.558801,-3.000000,10.000000,9.000000,-8.000000,-3.000000,1.000000,1.000000,1.000000
1302455.558818,-1.000000,-5.000000,-5.000000,-1.000000,6.000000,-1.000000,1.000000,-1.000000
1302455.570818,6.000000,0.000000,-6.000000,16.000000,19.000000,2.000000,4.000000,-1.000000
1302455.570832,-3.000000,14.000000,5.000000,9.000000,2.000000,5.000000,0.000000,3.000000
1302455.572176,1.000000,-2.000000,-1.000000,5.000000,0.000000,2.000000,-1.000000,1.000000
1302455.572203,-6.000000,-11.000000,-4.000000,3.000000,-1.000000,-5.000000,-1.000000,-5.000000
1302455.593383,-2.000000,-9.000000,-3.000000,-13.000000,2.000000,-2.000000,1.000000,0.000000
1302455.593397,1.000000,6.000000,7.000000,10.000000,1.000000,3.000000,1.000000,-1.000000
1302455.593927,-3.000000,-6.000000,-8.000000,-21.000000,-1.000000,-1.000000,-3.000000,1.000000
1302455.593940,4.000000,7.000000,-2.000000,-7.000000,-5.000000,0.000000,-4.000000,0.000000
1302455.609059,-1.000000,14.000000,8.000000,10.000000,0.000000,6.000000,0.000000,2.000000
1302455.609079,-4.000000,-5.000000,-7.000000,-9.000000,-7.000000,-7.000000,1.000000,-4.000000
1302455.609785,2.000000,-5.000000,-6.000000,-3.000000,5.000000,2.000000,-4.000000,0.000000
1302455.609798,-1.000000,2.000000,-1.000000,2.000000,-4.000000,0.000000,-4.000000,3.000000
1302455.638330,-5.000000,-14.000000,-11.000000,3.000000,0.000000,-5.000000,-4.000000,-4.000000
1302455.638362,0.000000,-6.000000,-8.000000,0.000000,6.000000,3.000000,2.000000,0.000000
1302455.653611,3.000000,-1.000000,4.000000,-14.000000,2.000000,-1.000000,-2.000000,-3.000000
1302455.653631,1.000000,-3.000000,2.000000,2.000000,-5.000000,1.000000,-1.000000,-1.000000
1302455.675977,1.000000,-7.000000,-7.000000,-1.000000,2.000000,-1.000000,-1.000000,-1.000000
1302455.676154,1.000000,5.000000,9.000000,6.000000,4.000000,-1.000000,-1.000000,1.000000
1302455.676472,-2.000000,5.000000,7.000000,-8.000000,-13.000000,2.000000,2.000000,-3.000000
1302455.676493,-1.000000,-2.000000,-6.000000,0.000000,1.000000,-4.000000,1.000000,2.000000
1302455.677533,2.000000,-13.000000,-9.000000,-5.000000,-1.000000,-3.000000,-1.000000,-2.000000
1302455.677546,-7.000000,2.000000,0.000000,14.000000,0.000000,0.000000,-2.000000,-4.000000
1302455.678750,-3.000000,-15.000000,-4.000000,-10.000000,-1.000000,-2.000000,2.000000,2.000000
1302455.678774,0.000000,-7.000000,-9.000000,1.000000,6.000000,-2.000000,1.000000,0.000000
1302455.684047,-2.000000,2.000000,-4.000000,4.000000,-3.000000,-1.000000,-2.000000,-2.000000
1302455.684061,-2.000000,0.000000,8.000000,19.000000,5.000000,-3.000000,0.000000,-3.000000
1302455.691118,3.000000,-20.000000,-10.000000,6.000000,1.000000,-1.000000,-3.000000,-1.000000
1302455.691133,0.000000,7.000000,0.000000,-9.000000,-7.000000,-4.000000,-2.000000,-1.000000
1302455.706698,-3.000000,1.000000,5.000000,-8.000000,1.000000,7.000000,3.000000,-2.000000
1302455.706717,-2.000000,-10.000000,-4.000000,-3.000000,-2.000000,-6.000000,0.000000,0.000000
1302455.728337,-2.000000,-22.000000,-10.000000,-29.000000,-18.000000,-6.000000,-2.000000,-6.000000
1302455.728365,-3.000000,6.000000,-3.000000,3.000000,-3.000000,-1.000000,-3.000000,-3.000000
1302455.750894,-3.000000,-14.000000,-7.000000,2.000000,3.000000,-5.000000,-3.000000,-1.000000
1302455.750909,2.000000,-10.000000,-9.000000,-15.000000,-1.000000,-9.000000,0.000000,-1.000000
1302455.765750,-5.000000,0.000000,1.000000,7.000000,1.000000,3.000000,0.000000,-2.000000
1302455.765766,2.000000,5.000000,0.000000,-9.000000,-5.000000,4.000000,0.000000,-3.000000
1302455.788390,-2.000000,-4.000000,-10.000000,0.000000,7.000000,-6.000000,0.000000,-2.000000
1302455.788402,-5.000000,0.000000,6.000000,0.000000,-16.000000,0.000000,0.000000,1.000000
1302455.803197,-3.000000,11.000000,5.000000,7.000000,-7.000000,1.000000,-2.000000,-1.000000
1302455.803209,-2.000000,-12.000000,-5.000000,5.000000,-4.000000,-4.000000,1.000000,-3.000000
1302455.804341,-4.000000,-5.000000,-8.000000,11.000000,8.000000,-1.000000,-1.000000,1.000000
1302455.804352,4.000000,8.000000,5.000000,-14.000000,2.000000,7.000000,-3.000000,1.000000
1302455.804857,0.000000,0.000000,-2.000000,7.000000,1.000000,0.000000,-2.000000,0.000000
1302455.804866,-2.000000,-8.000000,-7.000000,-1.000000,5.000000,-1.000000,-2.000000,-2.000000
1302455.807079,2.000000,7.000000,2.000000,-1.000000,-9.000000,0.000000,0.000000,-1.000000
1302455.807089,-2.000000,-6.000000,-2.000000,1.000000,-3.000000,-1.000000,-3.000000,-3.000000
1302455.810833,2.000000,0.000000,-9.000000,-4.000000,1.000000,-3.000000,-1.000000,1.000000
1302455.810854,0.000000,9.000000,1.000000,-17.000000,-18.000000,-2.000000,-3.000000,1.000000
1302455.826474,1.000000,-8.000000,7.000000,3.000000,-4.000000,2.000000,-2.000000,-2.000000
1302455.826484,-1.000000,-2.000000,-5.000000,1.000000,15.000000,1.000000,3.000000,-1.000000
1302455.833351,-5.000000,4.000000,-4.000000,8.000000,-4.000000,2.000000,0.000000,0.000000
1302455.833371,-2.000000,5.000000,2.000000,-12.000000,-11.000000,-7.000000,-1.000000,1.000000
1302455.863218,0.000000,-14.000000,4.000000,-3.000000,-11.000000,0.000000,0.000000,-3.000000
1302455.863247,0.000000,-2.000000,-3.000000,-2.000000,3.000000,0.000000,2.000000,0.000000
1302455.871004,-1.000000,-5.000000,6.000000,0.000000,4.000000,1.000000,-4.000000,-2.000000
1302455.871016,1.000000,-8.000000,-5.000000,-15.000000,-7.000000,-5.000000,-3.000000,-4.000000
1302455.893261,0.000000,1.000000,-2.000000,-2.000000,8.000000,2.000000,1.000000,1.000000
1302455.893273,-2.000000,9.000000,5.000000,-3.000000,-6.000000,0.000000,-2.000000,-3.000000
1302455.908021,-1.000000,-4.000000,-12.000000,-6.000000,-9.000000,-4.000000,-1.000000,-3.000000
1302455.908034,-1.000000,-15.000000,-7.000000,-24.000000,-7.000000,-3.000000,-2.000000,-4.000000
1302455.909178,1.000000,6.000000,-1.000000,0.000000,-4.000000,-3.000000,-1.000000,-1.000000
1302455.909186,-1.000000,4.000000,3.000000,-5.000000,4.000000,5.000000,-3.000000,0.000000
1302455.909727,0.000000,-13.000000,-5.000000,-1.000000,6.000000,-3.000000,3.000000,-1.000000
1302455.909735,1.000000,-1.000000,-5.000000,-14.000000,-5.000000,-1.000000,-2.000000,-2.000000
1302455.911043,5.000000,13.000000,5.000000,7.000000,-3.000000,-1.000000,1.000000,2.000000
1302455.911052,0.000000,-8.000000,-6.000000,-11.000000,2.000000,-4.000000,-3.000000,1.000000
1302455.911927,0.000000,2.000000,1.000000,4.000000,6.000000,-2.000000,1.000000,-3.000000
1302455.911934,0.000000,10.000000,2.000000,-1.000000,-4.000000,0.000000,0.000000,-3.000000
1302455.931280,-1.000000,-16.000000,-4.000000,0.000000,-9.000000,-2.000000,0.000000,0.000000
1302455.931291,-1.000000,6.000000,-1.000000,-8.000000,0.000000,-6.000000,1.000000,-1.000000
1302455.932006,-7.000000,2.000000,-1.000000,-2.000000,-9.000000,-1.000000,0.000000,0.000000
1302455.932016,-5.000000,2.000000,-1.000000,1.000000,-1.000000,1.000000,-3.000000,-3.000000
1302455.945802,-2.000000,1.000000,1.000000,-4.000000,8.000000,-4.000000,-5.000000,-4.000000
1302455.945815,1.000000,13.000000,8.000000,9.000000,9.000000,4.000000,5.000000,0.000000
1302455.952988,-2.000000,7.000000,3.000000,-4.000000,-12.000000,-7.000000,-2.000000,-3.000000
1302455.953003,0.000000,6.000000,0.000000,-5.000000,-9.000000,3.000000,0.000000,0.000000
1302455.961679,-1.000000,-7.000000,-4.000000,5.000000,-3.000000,-4.000000,-2.000000,-3.000000
1302455.961690,-3.000000,14.000000,9.000000,3.000000,5.000000,1.000000,-1.000000,-2.000000
1302455.968495,-4.000000,-1.000000,1.000000,-6.000000,-6.000000,1.000000,-5.000000,0.000000
1302455.968508,-7.000000,-11.000000,-3.000000,6.000000,2.000000,-7.000000,-1.000000,-3.000000
1302455.991028,6.000000,7.000000,-4.000000,-12.000000,1.000000,5.000000,0.000000,0.000000
1302455.991040,-4.000000,-3.000000,4.000000,4.000000,2.000000,2.000000,-1.000000,0.000000
1302456.006441,-3.000000,-10.000000,-4.000000,12.000000,10.000000,-2.000000,1.000000,-3.000000
1302456.006464,-2.000000,3.000000,-2.000000,0.000000,-2.000000,0.000000,-1.000000,-2.000000
1302456.028893,-2.000000,0.000000,6.000000,6.000000,-9.000000,0.000000,-1.000000,0.000000
1302456.028916,0.000000,-5.000000,0.000000,-12.000000,-1.000000,2.000000,-1.000000,2.000000
1302456.043813,-2.000000,-7.000000,-2.000000,11.000000,-2.000000,-1.000000,-4.000000,-5.000000
1302456.043836,-3.000000,2.000000,7.000000,8.000000,-11.000000,-2.000000,-4.000000,-3.000000
1302456.066413,-1.000000,1.000000,-4.000000,-7.000000,-2.000000,-1.000000,0.000000,0.000000
1302456.066438,-6.000000,-15.000000,-8.000000,4.000000,4.000000,-5.000000,3.000000,-3.000000
1302456.081960,1.000000,1.000000,-6.000000,-39.000000,-17.000000,0.000000,-1.000000,-1.000000
1302456.082011,-5.000000,-4.000000,11.000000,6.000000,11.000000,2.000000,-3.000000,-2.000000
1302456.083378,2.000000,-12.000000,-12.000000,0.000000,2.000000,-6.000000,-4.000000,-1.000000
1302456.083408,-5.000000,-17.000000,-4.000000,2.000000,4.000000,1.000000,-6.000000,-1.000000
1302456.088857,2.000000,2.000000,0.000000,-1.000000,-8.000000,-7.000000,-3.000000,-2.000000
1302456.088880,-1.000000,4.000000,-3.000000,-6.000000,0.000000,0.000000,-1.000000,-1.000000
1302456.103902,2.000000,0.000000,2.000000,3.000000,12.000000,6.000000,4.000000,2.000000
1302456.103926,-3.000000,-9.000000,-3.000000,-10.000000,-4.000000,-3.000000,1.000000,0.000000
1302456.125868,4.000000,-13.000000,-1.000000,9.000000,18.000000,2.000000,0.000000,2.000000
1302456.125882,-4.000000,5.000000,1.000000,8.000000,0.000000,1.000000,-4.000000,4.000000
1302456.148526,-4.000000,1.000000,4.000000,-1.000000,-4.000000,1.000000,-2.000000,0.000000
1302456.148540,3.000000,-15.000000,-9.000000,1.000000,1.000000,-2.000000,-3.000000,-3.000000
1302456.163317,3.000000,14.000000,2.000000,3.000000,7.000000,0.000000,-3.000000,-2.000000
1302456.163340,1.000000,8.000000,2.000000,3.000000,-8.000000,0.000000,-1.000000,-3.000000
1302456.164462,0.000000,-7.000000,-6.000000,-7.000000,-3.000000,-3.000000,-3.000000,0.000000
1302456.164474,1.000000,-23.000000,-12.000000,-9.000000,-4.000000,-4.000000,0.000000,1.000000
1302456.164889,1.000000,12.000000,-2.000000,-7.000000,1.000000,-2.000000,-2.000000,-1.000000
1302456.164900,3.000000,-2.000000,5.000000,-15.000000,-14.000000,1.000000,0.000000,1.000000
1302456.166407,6.000000,3.000000,4.000000,3.000000,0.000000,2.000000,1.000000,1.000000
1302456.166420,-3.000000,-10.000000,0.000000,3.000000,6.000000,-5.000000,0.000000,-1.000000
1302456.171025,-2.000000,-6.000000,1.000000,17.000000,8.000000,-1.000000,-2.000000,-2.000000
1302456.171038,-3.000000,-12.000000,-6.000000,-4.000000,-5.000000,-6.000000,-3.000000,-2.000000
1302456.186661,-1.000000,7.000000,5.000000,-6.000000,-1.000000,4.000000,2.000000,3.000000
1302456.186672,-3.000000,-5.000000,6.000000,18.000000,6.000000,1.000000,3.000000,-2.000000
1302456.208478,1.000000,-18.000000,-8.000000,-4.000000,2.000000,-8.000000,0.000000,-5.000000
1302456.208494,1.000000,5.000000,-5.000000,-4.000000,-4.000000,-4.000000,-2.000000,1.000000
1302456.231664,1.000000,8.000000,10.000000,6.000000,3.000000,1.000000,0.000000,-1.000000
1302456.231707,3.000000,-8.000000,-9.000000,-1.000000,1.000000,-3.000000,0.000000,1.000000
1302456.239430,-6.000000,0.000000,2.000000,-8.000000,-4.000000,-2.000000,1.000000,-2.000000
1302456.239462,-2.000000,10.000000,7.000000,15.000000,5.000000,2.000000,-1.000000,-1.000000
1302456.283818,-1.000000,-6.000000,0.000000,-10.000000,0.000000,1.000000,0.000000,0.000000
1302456.283971,3.000000,-11.000000,-9.000000,0.000000,-11.000000,-7.000000,-3.000000,-3.000000
1302456.284364,-2.000000,18.000000,-1.000000,-8.000000,-6.000000,1.000000,0.000000,-1.000000
1302456.284401,-6.000000,1.000000,12.000000,21.000000,0.000000,-3.000000,-2.000000,-3.000000
1302456.285417,1.000000,-16.000000,-11.000000,-3.000000,3.000000,-2.000000,-4.000000,-3.000000
1302456.285434,-2.000000,-13.000000,-8.000000,3.000000,1.000000,-4.000000,-3.000000,1.000000
1302456.286037,6.000000,7.000000,4.000000,0.000000,-9.000000,3.000000,-4.000000,-1.000000
1302456.286061,-1.000000,-15.000000,-8.000000,-4.000000,3.000000,-1.000000,-1.000000,-3.000000
1302456.298626,-3.000000,-12.000000,-7.000000,-12.000000,5.000000,-6.000000,1.000000,-4.000000
1302456.298645,3.000000,10.000000,1.000000,-1.000000,-2.000000,4.000000,0.000000,2.000000
1302456.299777,0.000000,-5.000000,-3.000000,0.000000,-2.000000,1.000000,1.000000,2.000000
1302456.299793,0.000000,-7.000000,2.000000,3.000000,8.000000,-1.000000,-4.000000,-3.000000
1302456.321267,-1.000000,4.000000,-1.000000,-1.000000,-1.000000,-2.000000,3.000000,-2.000000
1302456.321398,-5.000000,11.000000,-1.000000,-3.000000,-6.000000,0.000000,-4.000000,2.000000
1302456.358909,3.000000,-5.000000,-5.000000,-9.000000,-1.000000,3.000000,2.000000,-1.000000
1302456.359316,-2.000000,10.000000,6.000000,11.000000,-2.000000,-4.000000,-1.000000,-1.000000
1302456.359719,-2.000000,2.000000,1.000000,0.000000,-5.000000,0.000000,0.000000,-1.000000
1302456.359740,2.000000,0.000000,5.000000,-4.000000,3.000000,-3.000000,0.000000,-2.000000
1302456.360284,-2.000000,4.000000,-7.000000,-10.000000,-9.000000,-6.000000,-3.000000,-3.000000
1302456.360300,-4.000000,2.000000,5.000000,-1.000000,3.000000,1.000000,-2.000000,0.000000
1302456.361228,0.000000,-3.000000,6.000000,-11.000000,-8.000000,-1.000000,-4.000000,0.000000
1302456.361243,-3.000000,-16.000000,-6.000000,-1.000000,11.000000,-3.000000,2.000000,0.000000
1302456.381070,4.000000,2.000000,-3.000000,3.000000,15.000000,6.000000,1.000000,-1.000000
1302456.381088,-6.000000,-7.000000,6.000000,-2.000000,-2.000000,1.000000,-3.000000,-1.000000
1302456.388556,-2.000000,-4.000000,-5.000000,-9.000000,-9.000000,1.000000,-3.000000,1.000000
1302456.388574,0.000000,0.000000,-1.000000,-10.000000,-3.000000,1.000000,0.000000,2.000000
1302456.426200,-4.000000,7.000000,4.000000,-3.000000,-4.000000,3.000000,-1.000000,-2.000000
1302456.426229,0.000000,-6.000000,-7.000000,-3.000000,2.000000,-4.000000,-3.000000,0.000000
1302456.426780,3.000000,-8.000000,-7.000000,-7.000000,-3.000000,-5.000000,2.000000,-4.000000
1302456.426803,0.000000,3.000000,0.000000,1.000000,-7.000000,-5.000000,0.000000,-3.000000
1302456.427812,-1.000000,4.000000,3.000000,13.000000,11.000000,10.000000,0.000000,1.000000
1302456.427829,0.000000,-13.000000,-15.000000,-21.000000,-15.000000,-5.000000,2.000000,-2.000000
1302456.428299,-6.000000,4.000000,12.000000,13.000000,10.000000,0.000000,1.000000,-5.000000
1302456.428314,-7.000000,0.000000,2.000000,7.000000,-6.000000,3.000000,-1.000000,-1.000000
1302456.429825,12.000000,2.000000,-3.000000,-3.000000,-5.000000,-2.000000,0.000000,1.000000
1302456.429851,-2.000000,3.000000,-7.000000,-5.000000,-2.000000,-1.000000,-4.000000,1.000000
1302456.441192,-4.000000,7.000000,7.000000,8.000000,3.000000,1.000000,2.000000,1.000000
1302456.441212,-4.000000,-5.000000,3.000000,-20.000000,-9.000000,2.000000,1.000000,1.000000
1302456.456120,-4.000000,-9.000000,-8.000000,-1.000000,12.000000,-2.000000,-3.000000,-2.000000
1302456.456250,0.000000,7.000000,3.000000,-5.000000,-10.000000,-1.000000,3.000000,-2.000000
1302456.486339,-7.000000,-14.000000,-2.000000,11.000000,-6.000000,-7.000000,-5.000000,-4.000000
1302456.486405,0.000000,-10.000000,-1.000000,-5.000000,0.000000,-8.000000,-5.000000,-4.000000
1302456.508633,1.000000,3.000000,-3.000000,4.000000,1.000000,-4.000000,-1.000000,1.000000
1302456.508676,0.000000,6.000000,4.000000,-5.000000,-7.000000,0.000000,0.000000,-3.000000
1302456.516042,-5.000000,-6.000000,-4.000000,-5.000000,-10.000000,-2.000000,-1.000000,1.000000
1302456.516258,-2.000000,-3.000000,-2.000000,-8.000000,-1.000000,-6.000000,-4.000000,-2.000000
1302456.517045,1.000000,9.000000,6.000000,7.000000,1.000000,1.000000,0.000000,-2.000000
1302456.517061,-3.000000,-8.000000,0.000000,4.000000,3.000000,-2.000000,-3.000000,-1.000000
1302456.517717,-7.000000,-8.000000,-8.000000,-1.000000,-1.000000,-6.000000,-2.000000,-2.000000
1302456.517732,3.000000,10.000000,-5.000000,-8.000000,-5.000000,-4.000000,4.000000,1.000000
1302456.519163,2.000000,-1.000000,0.000000,14.000000,1.000000,2.000000,-3.000000,-2.000000
1302456.519178,1.000000,10.000000,9.000000,6.000000,-8.000000,-1.000000,1.000000,-1.000000
1302456.524332,1.000000,-5.000000,-11.000000,-11.000000,4.000000,-3.000000,3.000000,1.000000
1302456.524348,-1.000000,4.000000,5.000000,2.000000,-3.000000,1.000000,-1.000000,-1.000000
1302456.531226,0.000000,2.000000,4.000000,5.000000,-6.000000,1.000000,-1.000000,-1.000000
1302456.531245,-1.000000,2.000000,-1.000000,0.000000,5.000000,6.000000,2.000000,0.000000
1302456.561242,-3.000000,-12.000000,-8.000000,5.000000,7.000000,-7.000000,-5.000000,-1.000000
1302456.561269,4.000000,4.000000,-1.000000,4.000000,-4.000000,-2.000000,-6.000000,0.000000
1302456.583209,-1.000000,3.000000,2.000000,7.000000,-7.000000,0.000000,4.000000,2.000000
1302456.583220,1.000000,-8.000000,-6.000000,-3.000000,4.000000,-5.000000,-2.000000,-3.000000
1302456.613423,0.000000,-2.000000,-5.000000,4.000000,-1.000000,-1.000000,-2.000000,-1.000000
1302456.613437,-1.000000,11.000000,6.000000,-1.000000,-1.000000,2.000000,1.000000,-2.000000
1302456.613797,0.000000,-7.000000,-8.000000,-6.000000,0.000000,-3.000000,-3.000000,-3.000000
1302456.613806,-3.000000,14.000000,6.000000,2.000000,6.000000,2.000000,2.000000,0.000000
1302456.621348,-1.000000,5.000000,1.000000,-5.000000,-15.000000,0.000000,-3.000000,-4.000000
1302456.621359,-2.000000,-7.000000,-3.000000,2.000000,4.000000,0.000000,-3.000000,-1.000000
1302456.621859,-3.000000,-8.000000,-8.000000,4.000000,4.000000,-3.000000,-4.000000,-2.000000
1302456.621873,8.000000,10.000000,7.000000,5.000000,-4.000000,-2.000000,1.000000,0.000000
1302456.623047,0.000000,-1.000000,-2.000000,0.000000,-5.000000,0.000000,-4.000000,-2.000000
1302456.623057,-7.000000,1.000000,10.000000,8.000000,5.000000,3.000000,-2.000000,0.000000
1302456.624644,0.000000,-6.000000,-10.000000,-1.000000,-3.000000,2.000000,-3.000000,-2.000000
1302456.624656,-2.000000,-2.000000,-3.000000,-7.000000,-1.000000,-3.000000,-1.000000,-3.000000
