# participant_id: P9
# gesture: soft
# trial_number: 2
# stream_name: Myo_EMG
# stream_type: emg
# timestamp: 20260420_155638
# samples: 5644
# duration_sec: 30.418
# nominal_sample_rate: 200.0
# effective_sample_rate: 185.52
#
timestamp,emg_1,emg_2,emg_3,emg_4,emg_5,emg_6,emg_7,emg_8
1305290.262205,-3.000000,-1.000000,-54.000000,-26.000000,-37.000000,-13.000000,3.000000,-1.000000
1305290.262232,-3.000000,21.000000,2.000000,-3.000000,-10.000000,-6.000000,-6.000000,-5.000000
1305290.274967,-12.000000,-5.000000,-37.000000,-1.000000,7.000000,-4.000000,2.000000,-2.000000
1305290.274977,-6.000000,1.000000,-8.000000,33.000000,36.000000,4.000000,-11.000000,-6.000000
1305290.312416,-36.000000,-16.000000,-60.000000,-26.000000,-24.000000,0.000000,-2.000000,-9.000000
1305290.312427,39.000000,16.000000,67.000000,19.000000,24.000000,31.000000,15.000000,18.000000
1305290.313033,4.000000,7.000000,-27.000000,-15.000000,-19.000000,-3.000000,8.000000,1.000000
1305290.313041,-58.000000,-48.000000,4.000000,-1.000000,-2.000000,0.000000,-2.000000,-19.000000
1305290.313858,38.000000,7.000000,-23.000000,14.000000,22.000000,-5.000000,-10.000000,0.000000
1305290.313866,6.000000,14.000000,13.000000,5.000000,4.000000,-10.000000,-1.000000,3.000000
1305290.314699,-12.000000,-2.000000,1.000000,-14.000000,-15.000000,-3.000000,-2.000000,-4.000000
1305290.314727,-8.000000,2.000000,-34.000000,1.000000,-1.000000,0.000000,-4.000000,-3.000000
1305290.335503,-6.000000,13.000000,109.000000,26.000000,32.000000,-6.000000,-15.000000,-10.000000
1305290.335529,-53.000000,-2.000000,-43.000000,1.000000,6.000000,14.000000,-1.000000,-5.000000
1305290.349918,41.000000,-44.000000,-2.000000,-18.000000,-31.000000,-15.000000,9.000000,17.000000
1305290.349942,-6.000000,54.000000,26.000000,21.000000,20.000000,4.000000,11.000000,4.000000
1305290.364936,10.000000,3.000000,-3.000000,9.000000,3.000000,-1.000000,-7.000000,-5.000000
1305290.364947,-8.000000,-9.000000,-21.000000,22.000000,19.000000,-19.000000,-10.000000,-5.000000
1305290.372464,-21.000000,31.000000,-8.000000,-6.000000,-3.000000,8.000000,-5.000000,-15.000000
1305290.372474,-30.000000,-14.000000,-10.000000,-4.000000,5.000000,-9.000000,2.000000,-10.000000
1305290.387650,23.000000,12.000000,-18.000000,-19.000000,-6.000000,15.000000,14.000000,20.000000
1305290.387779,14.000000,-10.000000,6.000000,-19.000000,-14.000000,3.000000,-7.000000,6.000000
1305290.388325,-5.000000,2.000000,49.000000,20.000000,28.000000,11.000000,-1.000000,-11.000000
1305290.388333,-22.000000,-15.000000,-41.000000,-6.000000,-13.000000,-17.000000,0.000000,-5.000000
1305290.389610,-4.000000,-17.000000,40.000000,11.000000,2.000000,10.000000,7.000000,-4.000000
1305290.389629,13.000000,34.000000,-24.000000,-1.000000,5.000000,-4.000000,-2.000000,6.000000
1305290.390439,0.000000,-7.000000,1.000000,-22.000000,-36.000000,-6.000000,-8.000000,-1.000000
1305290.390447,-9.000000,11.000000,27.000000,-29.000000,-58.000000,-2.000000,15.000000,-1.000000
1305290.410395,-15.000000,-43.000000,-42.000000,-23.000000,-16.000000,-12.000000,9.000000,-1.000000
1305290.410406,28.000000,53.000000,22.000000,11.000000,8.000000,-8.000000,-19.000000,-12.000000
1305290.411042,-22.000000,-21.000000,-15.000000,9.000000,14.000000,16.000000,0.000000,-5.000000
1305290.411050,2.000000,5.000000,35.000000,35.000000,1.000000,-13.000000,-5.000000,6.000000
1305290.417962,-16.000000,-19.000000,-69.000000,-38.000000,-7.000000,11.000000,-5.000000,-12.000000
1305290.417971,-1.000000,-8.000000,0.000000,9.000000,-4.000000,0.000000,-1.000000,2.000000
1305290.432274,-2.000000,-28.000000,-48.000000,8.000000,9.000000,-16.000000,-18.000000,-16.000000
1305290.432285,11.000000,51.000000,59.000000,1.000000,6.000000,5.000000,6.000000,4.000000
1305290.469892,-21.000000,-20.000000,31.000000,20.000000,1.000000,-9.000000,-4.000000,-5.000000
1305290.469904,26.000000,35.000000,-9.000000,7.000000,14.000000,7.000000,-8.000000,-8.000000
1305290.477449,-29.000000,-31.000000,-50.000000,-9.000000,-2.000000,-15.000000,-3.000000,8.000000
1305290.477469,45.000000,7.000000,-8.000000,2.000000,-1.000000,-14.000000,6.000000,16.000000
1305290.492229,25.000000,17.000000,-19.000000,-9.000000,-19.000000,-1.000000,-3.000000,-3.000000
1305290.492238,-11.000000,-13.000000,0.000000,7.000000,26.000000,-3.000000,-7.000000,-11.000000
1305290.514731,-14.000000,-23.000000,24.000000,1.000000,0.000000,0.000000,-1.000000,-2.000000
1305290.514742,-6.000000,1.000000,-10.000000,5.000000,22.000000,6.000000,-3.000000,-6.000000
1305290.515947,5.000000,-22.000000,21.000000,1.000000,-28.000000,-16.000000,1.000000,0.000000
1305290.515962,-26.000000,-13.000000,-112.000000,31.000000,56.000000,-13.000000,-18.000000,-18.000000
1305290.516507,31.000000,22.000000,127.000000,-9.000000,-41.000000,16.000000,13.000000,14.000000
1305290.516517,-16.000000,0.000000,-37.000000,1.000000,0.000000,-1.000000,4.000000,1.000000
1305290.517768,-12.000000,-17.000000,-31.000000,-4.000000,19.000000,-5.000000,-10.000000,-8.000000
1305290.517779,29.000000,6.000000,-18.000000,14.000000,14.000000,-8.000000,-6.000000,2.000000
1305290.518767,-16.000000,-10.000000,-13.000000,4.000000,-1.000000,5.000000,6.000000,3.000000
1305290.518779,19.000000,32.000000,-9.000000,-21.000000,-29.000000,8.000000,19.000000,20.000000
1305290.530265,-25.000000,0.000000,-7.000000,-10.000000,-4.000000,-9.000000,-11.000000,-16.000000
1305290.530284,24.000000,1.000000,21.000000,24.000000,33.000000,16.000000,9.000000,23.000000
1305290.531157,-56.000000,15.000000,44.000000,9.000000,2.000000,4.000000,5.000000,-14.000000
1305290.531175,-71.000000,0.000000,6.000000,-31.000000,-18.000000,-4.000000,-9.000000,-24.000000
1305290.537769,45.000000,-5.000000,17.000000,11.000000,12.000000,2.000000,14.000000,24.000000
1305290.537778,39.000000,-13.000000,-27.000000,-3.000000,-7.000000,-15.000000,2.000000,11.000000
1305290.552310,-23.000000,23.000000,26.000000,7.000000,-8.000000,-5.000000,-7.000000,-11.000000
1305290.552321,8.000000,15.000000,55.000000,-16.000000,-23.000000,15.000000,7.000000,4.000000
1305290.574830,-19.000000,-12.000000,-15.000000,2.000000,9.000000,-4.000000,-6.000000,2.000000
1305290.574841,1.000000,28.000000,22.000000,-3.000000,-3.000000,6.000000,12.000000,-1.000000
1305290.589758,-6.000000,-3.000000,7.000000,2.000000,3.000000,-7.000000,-4.000000,-9.000000
1305290.589775,-1.000000,-9.000000,-5.000000,-5.000000,-8.000000,-8.000000,9.000000,4.000000
1305290.612394,-10.000000,-9.000000,23.000000,-10.000000,-36.000000,-17.000000,-4.000000,-1.000000
1305290.612407,-16.000000,-20.000000,-24.000000,7.000000,-14.000000,-32.000000,-20.000000,-10.000000
1305290.627497,0.000000,-28.000000,8.000000,0.000000,-33.000000,-14.000000,36.000000,18.000000
1305290.627510,42.000000,-7.000000,-62.000000,-20.000000,-16.000000,-20.000000,-21.000000,-10.000000
1305290.649934,-12.000000,3.000000,43.000000,-7.000000,-11.000000,9.000000,-1.000000,-5.000000
1305290.649950,-26.000000,-13.000000,1.000000,12.000000,11.000000,2.000000,-2.000000,-7.000000
1305290.650424,-17.000000,1.000000,-12.000000,18.000000,30.000000,-8.000000,0.000000,8.000000
1305290.650437,16.000000,26.000000,-8.000000,-22.000000,-37.000000,-1.000000,4.000000,7.000000
1305290.651640,-13.000000,-26.000000,5.000000,-4.000000,2.000000,-2.000000,-4.000000,-10.000000
1305290.651654,-5.000000,-22.000000,-35.000000,10.000000,18.000000,3.000000,10.000000,7.000000
1305290.652253,-3.000000,23.000000,28.000000,-17.000000,-17.000000,-10.000000,5.000000,6.000000
1305290.652265,-24.000000,0.000000,12.000000,21.000000,8.000000,-11.000000,-13.000000,-12.000000
1305290.653758,3.000000,-20.000000,47.000000,4.000000,-12.000000,2.000000,-4.000000,-2.000000
1305290.653770,-18.000000,2.000000,-47.000000,-27.000000,0.000000,1.000000,9.000000,-6.000000
1305290.687297,9.000000,2.000000,-8.000000,42.000000,38.000000,-7.000000,-15.000000,-9.000000
1305290.687308,13.000000,5.000000,7.000000,-7.000000,-4.000000,31.000000,26.000000,23.000000
1305290.694785,45.000000,-1.000000,6.000000,-6.000000,0.000000,-15.000000,-3.000000,10.000000
1305290.694796,-11.000000,6.000000,-13.000000,-17.000000,-19.000000,7.000000,9.000000,3.000000
1305290.732219,-4.000000,8.000000,10.000000,10.000000,23.000000,8.000000,0.000000,8.000000
1305290.732230,-8.000000,-16.000000,-18.000000,-11.000000,-2.000000,-2.000000,-9.000000,-17.000000
1305290.732581,0.000000,9.000000,20.000000,-13.000000,-41.000000,1.000000,27.000000,21.000000
1305290.732589,-8.000000,-6.000000,-32.000000,9.000000,17.000000,-1.000000,-4.000000,0.000000
1305290.734029,-1.000000,-30.000000,27.000000,-10.000000,-17.000000,6.000000,-5.000000,-5.000000
1305290.734043,0.000000,16.000000,10.000000,19.000000,27.000000,-5.000000,-1.000000,-5.000000
1305290.734668,-28.000000,18.000000,1.000000,-33.000000,-46.000000,4.000000,0.000000,-3.000000
1305290.734680,39.000000,2.000000,11.000000,12.000000,-5.000000,-8.000000,-1.000000,11.000000
1305290.736170,30.000000,-34.000000,-15.000000,-4.000000,-2.000000,-2.000000,2.000000,17.000000
1305290.736179,-3.000000,3.000000,-14.000000,-1.000000,3.000000,-4.000000,-3.000000,-10.000000
1305290.747568,-2.000000,6.000000,-46.000000,-5.000000,2.000000,2.000000,4.000000,-4.000000
1305290.747577,-3.000000,-5.000000,-2.000000,10.000000,22.000000,-20.000000,-14.000000,-5.000000
1305290.748628,11.000000,-10.000000,37.000000,6.000000,-6.000000,15.000000,5.000000,8.000000
1305290.748643,-5.000000,22.000000,-43.000000,-17.000000,-11.000000,1.000000,-3.000000,-7.000000
1305290.763392,-20.000000,-45.000000,23.000000,9.000000,14.000000,6.000000,10.000000,8.000000
1305290.763402,28.000000,22.000000,12.000000,13.000000,6.000000,1.000000,-3.000000,10.000000
1305290.769959,-18.000000,-11.000000,-26.000000,0.000000,15.000000,6.000000,-13.000000,-12.000000
1305290.769968,1.000000,-29.000000,0.000000,-26.000000,-28.000000,-3.000000,5.000000,4.000000
1305290.807306,7.000000,64.000000,51.000000,1.000000,-10.000000,-4.000000,-7.000000,-7.000000
1305290.807316,48.000000,-13.000000,-1.000000,8.000000,-10.000000,-14.000000,20.000000,18.000000
1305290.814989,-17.000000,-24.000000,-46.000000,-37.000000,-44.000000,-1.000000,-4.000000,-4.000000
1305290.815019,-19.000000,5.000000,14.000000,-4.000000,-7.000000,-13.000000,-10.000000,-6.000000
1305290.844785,-29.000000,-18.000000,-2.000000,-11.000000,-14.000000,-8.000000,-14.000000,-20.000000
1305290.844796,20.000000,27.000000,-19.000000,-2.000000,-7.000000,0.000000,2.000000,8.000000
1305290.852382,-3.000000,10.000000,62.000000,4.000000,-3.000000,4.000000,-7.000000,-4.000000
1305290.852393,-14.000000,3.000000,-22.000000,-17.000000,-4.000000,-7.000000,-6.000000,-9.000000
1305290.867855,7.000000,18.000000,33.000000,1.000000,-4.000000,-4.000000,-17.000000,-4.000000
1305290.867894,21.000000,14.000000,-31.000000,-7.000000,4.000000,17.000000,10.000000,9.000000
1305290.868365,-21.000000,-60.000000,-42.000000,-15.000000,6.000000,4.000000,0.000000,0.000000
1305290.868374,11.000000,17.000000,40.000000,2.000000,-5.000000,8.000000,5.000000,-6.000000
1305290.870021,33.000000,28.000000,-4.000000,-2.000000,-8.000000,5.000000,1.000000,5.000000
1305290.870040,11.000000,19.000000,57.000000,7.000000,13.000000,0.000000,-9.000000,-7.000000
1305290.871190,-9.000000,-2.000000,7.000000,-14.000000,-23.000000,4.000000,-5.000000,-8.000000
1305290.871220,-11.000000,-23.000000,-28.000000,-8.000000,4.000000,8.000000,-4.000000,-8.000000
1305290.890159,3.000000,-6.000000,-16.000000,1.000000,10.000000,-9.000000,-17.000000,-11.000000
1305290.890169,1.000000,-4.000000,1.000000,-6.000000,-16.000000,11.000000,7.000000,1.000000
1305290.890929,-1.000000,1.000000,9.000000,12.000000,-7.000000,-14.000000,-6.000000,2.000000
1305290.890938,-27.000000,3.000000,7.000000,-11.000000,1.000000,-10.000000,-6.000000,-3.000000
1305290.905527,11.000000,-4.000000,-19.000000,-14.000000,-15.000000,8.000000,1.000000,2.000000
1305290.905538,-44.000000,5.000000,27.000000,24.000000,32.000000,17.000000,3.000000,-13.000000
1305290.912184,48.000000,-2.000000,-8.000000,-19.000000,-19.000000,1.000000,-1.000000,13.000000
1305290.912195,15.000000,11.000000,4.000000,18.000000,22.000000,16.000000,30.000000,25.000000
1305290.927065,-8.000000,-13.000000,15.000000,-22.000000,-32.000000,4.000000,8.000000,2.000000
1305290.927074,4.000000,13.000000,-16.000000,5.000000,14.000000,8.000000,-16.000000,-12.000000
1305290.950159,5.000000,7.000000,26.000000,15.000000,13.000000,12.000000,2.000000,7.000000
1305290.950174,-7.000000,-8.000000,31.000000,-29.000000,-46.000000,-4.000000,10.000000,2.000000
1305290.965194,1.000000,-11.000000,-2.000000,12.000000,17.000000,1.000000,-14.000000,-13.000000
1305290.965203,9.000000,7.000000,-25.000000,7.000000,13.000000,-1.000000,-4.000000,1.000000
1305290.965772,-25.000000,-1.000000,16.000000,-15.000000,-14.000000,-4.000000,-1.000000,-7.000000
1305290.965784,28.000000,15.000000,2.000000,14.000000,12.000000,9.000000,7.000000,19.000000
1305290.967349,-16.000000,-19.000000,-16.000000,0.000000,-8.000000,-3.000000,5.000000,-7.000000
1305290.967359,28.000000,-11.000000,11.000000,-9.000000,22.000000,14.000000,3.000000,9.000000
1305290.972188,-6.000000,-8.000000,-37.000000,-45.000000,-69.000000,-14.000000,4.000000,2.000000
1305290.972215,19.000000,73.000000,69.000000,13.000000,6.000000,0.000000,0.000000,0.000000
1305290.987898,15.000000,-19.000000,-5.000000,21.000000,47.000000,16.000000,0.000000,-1.000000
1305290.987907,-13.000000,-6.000000,-3.000000,-13.000000,-18.000000,2.000000,3.000000,0.000000
1305290.988515,2.000000,-2.000000,-7.000000,-5.000000,-9.000000,-8.000000,-9.000000,-14.000000
1305290.988524,-42.000000,-35.000000,5.000000,6.000000,27.000000,-7.000000,-15.000000,-16.000000
1305291.016983,33.000000,29.000000,21.000000,8.000000,-13.000000,4.000000,10.000000,16.000000
1305291.017003,7.000000,3.000000,-20.000000,-6.000000,7.000000,3.000000,3.000000,-3.000000
1305291.024975,-1.000000,-60.000000,-22.000000,17.000000,10.000000,2.000000,0.000000,5.000000
1305291.025016,13.000000,23.000000,-15.000000,-19.000000,-5.000000,-4.000000,-12.000000,-6.000000
1305291.026012,1.000000,5.000000,-7.000000,-1.000000,13.000000,19.000000,9.000000,4.000000
1305291.026020,-6.000000,32.000000,21.000000,-8.000000,-29.000000,2.000000,9.000000,4.000000
1305291.040054,-9.000000,-3.000000,-6.000000,19.000000,11.000000,-3.000000,-22.000000,-13.000000
1305291.040067,17.000000,4.000000,-26.000000,-10.000000,-3.000000,9.000000,46.000000,26.000000
1305291.069769,-5.000000,-23.000000,-17.000000,24.000000,40.000000,2.000000,-8.000000,-1.000000
1305291.069781,12.000000,40.000000,-27.000000,-13.000000,-23.000000,-6.000000,2.000000,-4.000000
1305291.085041,-33.000000,-21.000000,58.000000,19.000000,16.000000,1.000000,-4.000000,-7.000000
1305291.085054,22.000000,5.000000,-40.000000,-1.000000,5.000000,-1.000000,-2.000000,-7.000000
1305291.107275,-8.000000,-3.000000,19.000000,2.000000,0.000000,-8.000000,-3.000000,0.000000
1305291.107294,-2.000000,-2.000000,-31.000000,-8.000000,-11.000000,-8.000000,-6.000000,-26.000000
1305291.107685,-14.000000,2.000000,7.000000,-11.000000,-39.000000,-3.000000,1.000000,-12.000000
1305291.107693,23.000000,-12.000000,-9.000000,-7.000000,6.000000,0.000000,6.000000,10.000000
1305291.108987,19.000000,10.000000,-22.000000,9.000000,22.000000,-6.000000,-4.000000,-2.000000
1305291.108999,-20.000000,-31.000000,-22.000000,-18.000000,-10.000000,15.000000,-10.000000,-12.000000
1305291.109720,-3.000000,5.000000,11.000000,6.000000,-7.000000,-5.000000,8.000000,8.000000
1305291.109733,-11.000000,-6.000000,10.000000,4.000000,6.000000,1.000000,2.000000,-7.000000
1305291.111230,-36.000000,-5.000000,-15.000000,3.000000,22.000000,0.000000,-6.000000,6.000000
1305291.111240,38.000000,-1.000000,15.000000,7.000000,-5.000000,7.000000,19.000000,15.000000
1305291.129848,0.000000,-10.000000,18.000000,-7.000000,-19.000000,-5.000000,-15.000000,-7.000000
1305291.129861,-8.000000,15.000000,-22.000000,-7.000000,-7.000000,-11.000000,4.000000,0.000000
1305291.130539,0.000000,21.000000,43.000000,-10.000000,-5.000000,3.000000,4.000000,-6.000000
1305291.130549,0.000000,-20.000000,-19.000000,2.000000,17.000000,3.000000,-9.000000,-10.000000
1305291.144801,-15.000000,12.000000,16.000000,0.000000,-24.000000,-24.000000,-3.000000,-7.000000
1305291.144811,33.000000,-38.000000,-32.000000,1.000000,-19.000000,-6.000000,-4.000000,4.000000
1305291.152208,9.000000,32.000000,44.000000,2.000000,9.000000,3.000000,-1.000000,4.000000
1305291.152227,-1.000000,-7.000000,-59.000000,1.000000,-2.000000,-3.000000,13.000000,3.000000
1305291.189961,-11.000000,19.000000,70.000000,5.000000,1.000000,6.000000,4.000000,-4.000000
1305291.189974,-9.000000,-28.000000,-24.000000,4.000000,3.000000,8.000000,7.000000,15.000000
1305291.204689,-17.000000,-23.000000,-13.000000,-3.000000,1.000000,3.000000,-2.000000,-16.000000
1305291.204700,11.000000,26.000000,4.000000,-1.000000,-14.000000,-16.000000,-5.000000,-6.000000
1305291.242421,-26.000000,-39.000000,-63.000000,-25.000000,-4.000000,-8.000000,-17.000000,-17.000000
1305291.242432,-10.000000,-11.000000,-2.000000,2.000000,-19.000000,-20.000000,-11.000000,-11.000000
1305291.264953,27.000000,-16.000000,-5.000000,20.000000,37.000000,8.000000,23.000000,29.000000
1305291.264963,3.000000,6.000000,-8.000000,-46.000000,-96.000000,-10.000000,-12.000000,-3.000000
1305291.302277,1.000000,24.000000,63.000000,27.000000,15.000000,16.000000,23.000000,26.000000
1305291.302287,-3.000000,-24.000000,-23.000000,-13.000000,7.000000,-15.000000,-6.000000,-9.000000
1305291.310000,-28.000000,-11.000000,-8.000000,18.000000,28.000000,-1.000000,-8.000000,-16.000000
1305291.310012,52.000000,37.000000,25.000000,-2.000000,-7.000000,7.000000,11.000000,13.000000
1305291.327517,4.000000,-9.000000,-32.000000,8.000000,20.000000,1.000000,5.000000,22.000000
1305291.327529,-8.000000,-4.000000,-13.000000,6.000000,7.000000,-8.000000,-2.000000,10.000000
1305291.347282,-4.000000,4.000000,14.000000,7.000000,0.000000,10.000000,9.000000,4.000000
1305291.347296,-8.000000,-4.000000,5.000000,-10.000000,1.000000,-9.000000,-18.000000,-10.000000
1305291.348536,-10.000000,23.000000,-22.000000,-9.000000,-9.000000,-13.000000,8.000000,-7.000000
1305291.348566,6.000000,11.000000,11.000000,11.000000,16.000000,9.000000,7.000000,-2.000000
1305291.362259,-2.000000,-24.000000,-25.000000,8.000000,25.000000,2.000000,-1.000000,-7.000000
1305291.362288,20.000000,-2.000000,11.000000,-36.000000,-77.000000,-33.000000,-2.000000,-6.000000
1305291.363560,3.000000,-26.000000,-39.000000,-14.000000,-8.000000,-10.000000,-20.000000,-12.000000
1305291.363588,-5.000000,2.000000,0.000000,18.000000,25.000000,2.000000,17.000000,17.000000
1305291.369783,-4.000000,7.000000,6.000000,12.000000,26.000000,23.000000,3.000000,-3.000000
1305291.369804,2.000000,40.000000,42.000000,-28.000000,-44.000000,6.000000,-1.000000,7.000000
1305291.431556,-43.000000,5.000000,62.000000,17.000000,8.000000,-2.000000,-9.000000,-12.000000
1305291.431617,39.000000,6.000000,36.000000,-2.000000,9.000000,3.000000,6.000000,14.000000
1305291.446138,-10.000000,8.000000,4.000000,4.000000,1.000000,-2.000000,-2.000000,-3.000000
1305291.446163,-4.000000,14.000000,21.000000,4.000000,4.000000,3.000000,-18.000000,-9.000000
1305291.460810,-17.000000,-12.000000,10.000000,-12.000000,-11.000000,-8.000000,-8.000000,-9.000000
1305291.460908,2.000000,5.000000,-5.000000,3.000000,14.000000,7.000000,1.000000,2.000000
1305291.461505,8.000000,41.000000,14.000000,-14.000000,-30.000000,-1.000000,-6.000000,-9.000000
1305291.461543,-7.000000,13.000000,2.000000,14.000000,26.000000,8.000000,-6.000000,-3.000000
1305291.463018,-7.000000,-20.000000,3.000000,-8.000000,-41.000000,0.000000,11.000000,-3.000000
1305291.463382,12.000000,14.000000,-39.000000,-23.000000,0.000000,3.000000,2.000000,-1.000000
1305291.463854,-12.000000,-29.000000,-13.000000,8.000000,-20.000000,-27.000000,-23.000000,-6.000000
1305291.463874,-26.000000,33.000000,-43.000000,-51.000000,-34.000000,10.000000,0.000000,7.000000
1305291.475032,-15.000000,-12.000000,-25.000000,-2.000000,18.000000,11.000000,8.000000,8.000000
1305291.475052,28.000000,16.000000,4.000000,9.000000,1.000000,-8.000000,9.000000,21.000000
1305291.482838,-13.000000,8.000000,-37.000000,-3.000000,-9.000000,-8.000000,-12.000000,-19.000000
1305291.482849,12.000000,18.000000,20.000000,-2.000000,-4.000000,-12.000000,7.000000,22.000000
1305291.497224,2.000000,3.000000,7.000000,-27.000000,-45.000000,9.000000,14.000000,7.000000
1305291.497238,-9.000000,-14.000000,34.000000,17.000000,14.000000,2.000000,-1.000000,-3.000000
1305291.504841,-21.000000,1.000000,-12.000000,-11.000000,-4.000000,-5.000000,-5.000000,-9.000000
1305291.504853,19.000000,21.000000,0.000000,9.000000,2.000000,-8.000000,8.000000,12.000000
1305291.519889,-22.000000,-24.000000,10.000000,5.000000,-6.000000,-10.000000,-9.000000,-16.000000
1305291.519927,-6.000000,-24.000000,-10.000000,10.000000,13.000000,9.000000,15.000000,0.000000
1305291.542192,28.000000,9.000000,-12.000000,12.000000,36.000000,15.000000,1.000000,13.000000
1305291.542201,-19.000000,-11.000000,-22.000000,1.000000,2.000000,-8.000000,-10.000000,-10.000000
1305291.549962,16.000000,5.000000,10.000000,-13.000000,-17.000000,-15.000000,-5.000000,-6.000000
1305291.549973,-9.000000,-18.000000,6.000000,17.000000,24.000000,2.000000,2.000000,-1.000000
1305291.564852,16.000000,22.000000,18.000000,-21.000000,-20.000000,6.000000,15.000000,18.000000
1305291.564878,10.000000,42.000000,-47.000000,13.000000,8.000000,-2.000000,6.000000,1.000000
1305291.565410,-22.000000,-23.000000,-35.000000,-20.000000,-12.000000,-12.000000,-5.000000,-18.000000
1305291.565430,-11.000000,-14.000000,23.000000,3.000000,-3.000000,-2.000000,2.000000,24.000000
1305291.567067,5.000000,2.000000,-32.000000,-13.000000,-4.000000,0.000000,-1.000000,-3.000000
1305291.567093,-4.000000,17.000000,62.000000,28.000000,17.000000,5.000000,-12.000000,-8.000000
1305291.572637,12.000000,-24.000000,-114.000000,-30.000000,15.000000,6.000000,2.000000,-2.000000
1305291.572689,-12.000000,2.000000,-26.000000,-13.000000,-20.000000,5.000000,-5.000000,2.000000
1305291.580430,-3.000000,12.000000,32.000000,17.000000,3.000000,-1.000000,-7.000000,-2.000000
1305291.580439,-4.000000,12.000000,26.000000,-16.000000,-15.000000,9.000000,2.000000,1.000000
1305291.595459,1.000000,-1.000000,-2.000000,5.000000,3.000000,-7.000000,-12.000000,-15.000000
1305291.595476,30.000000,27.000000,117.000000,11.000000,2.000000,3.000000,10.000000,13.000000
1305291.603057,-31.000000,-48.000000,-128.000000,-29.000000,-1.000000,3.000000,-5.000000,-18.000000
1305291.603067,-24.000000,-6.000000,82.000000,9.000000,1.000000,-8.000000,-12.000000,-7.000000
1305291.624670,4.000000,-15.000000,-16.000000,22.000000,34.000000,0.000000,29.000000,13.000000
1305291.624718,-1.000000,10.000000,19.000000,2.000000,1.000000,9.000000,-7.000000,-9.000000
1305291.639963,-24.000000,-4.000000,-8.000000,11.000000,16.000000,0.000000,0.000000,-3.000000
1305291.639973,34.000000,-7.000000,-15.000000,5.000000,10.000000,7.000000,-1.000000,4.000000
1305291.647469,0.000000,4.000000,10.000000,-11.000000,-11.000000,9.000000,3.000000,1.000000
1305291.647481,-15.000000,-12.000000,-38.000000,0.000000,-5.000000,3.000000,4.000000,-2.000000
1305291.669672,-19.000000,-31.000000,-9.000000,15.000000,16.000000,-25.000000,-15.000000,-12.000000
1305291.669682,24.000000,41.000000,34.000000,-13.000000,-22.000000,27.000000,20.000000,18.000000
1305291.677412,-11.000000,-57.000000,-35.000000,-9.000000,5.000000,8.000000,13.000000,2.000000
1305291.677424,5.000000,65.000000,127.000000,20.000000,16.000000,11.000000,0.000000,3.000000
1305291.678298,-2.000000,15.000000,-39.000000,8.000000,-1.000000,-14.000000,-10.000000,-3.000000
1305291.678305,29.000000,-13.000000,4.000000,-12.000000,-22.000000,6.000000,8.000000,14.000000
1305291.678924,-6.000000,-1.000000,13.000000,5.000000,15.000000,2.000000,-4.000000,-8.000000
1305291.678931,26.000000,-45.000000,-64.000000,-6.000000,-20.000000,-10.000000,2.000000,-1.000000
1305291.684878,6.000000,32.000000,77.000000,-12.000000,-22.000000,-9.000000,-14.000000,-18.000000
1305291.684912,-10.000000,-18.000000,-27.000000,10.000000,9.000000,1.000000,5.000000,13.000000
1305291.699699,-12.000000,-9.000000,0.000000,-16.000000,-4.000000,13.000000,2.000000,-4.000000
1305291.699711,-3.000000,-7.000000,-14.000000,-28.000000,-22.000000,-21.000000,-7.000000,-2.000000
1305291.701172,-10.000000,-11.000000,-45.000000,-12.000000,9.000000,-1.000000,-6.000000,-9.000000
1305291.701184,34.000000,21.000000,14.000000,7.000000,-1.000000,1.000000,14.000000,18.000000
1305291.722214,-3.000000,-9.000000,9.000000,0.000000,-1.000000,-6.000000,-1.000000,-10.000000
1305291.722226,-15.000000,27.000000,27.000000,3.000000,1.000000,-1.000000,-5.000000,-1.000000
1305291.723896,-24.000000,6.000000,0.000000,10.000000,-6.000000,-13.000000,11.000000,-6.000000
1305291.723909,54.000000,-38.000000,-81.000000,-18.000000,-5.000000,2.000000,22.000000,26.000000
1305291.737549,-15.000000,10.000000,40.000000,-24.000000,-45.000000,-4.000000,-22.000000,-16.000000
1305291.737562,-4.000000,17.000000,-19.000000,-1.000000,0.000000,-4.000000,0.000000,-4.000000
1305291.752842,-13.000000,4.000000,-3.000000,-2.000000,6.000000,3.000000,-9.000000,-6.000000
1305291.752853,-36.000000,6.000000,12.000000,8.000000,16.000000,2.000000,-2.000000,-12.000000
1305291.782464,31.000000,4.000000,-45.000000,-20.000000,-21.000000,-6.000000,10.000000,10.000000
1305291.782475,1.000000,12.000000,12.000000,-1.000000,-7.000000,8.000000,11.000000,4.000000
1305291.797676,42.000000,25.000000,1.000000,1.000000,12.000000,12.000000,5.000000,13.000000
1305291.797691,0.000000,-7.000000,-6.000000,5.000000,9.000000,3.000000,-5.000000,-7.000000
1305291.798212,-6.000000,23.000000,113.000000,4.000000,-13.000000,-13.000000,-11.000000,-11.000000
1305291.798228,2.000000,2.000000,4.000000,-4.000000,0.000000,5.000000,11.000000,20.000000
1305291.805269,-15.000000,-22.000000,-3.000000,-22.000000,-21.000000,-5.000000,-4.000000,-2.000000
1305291.805304,-7.000000,-2.000000,-10.000000,-8.000000,-7.000000,2.000000,3.000000,-5.000000
1305291.805647,4.000000,13.000000,-6.000000,0.000000,-5.000000,-6.000000,-12.000000,-12.000000
1305291.805655,12.000000,-5.000000,-10.000000,6.000000,7.000000,6.000000,-10.000000,-1.000000
1305291.807306,-6.000000,-45.000000,-60.000000,-27.000000,-24.000000,-19.000000,-3.000000,6.000000
1305291.807314,-8.000000,18.000000,33.000000,8.000000,20.000000,10.000000,-1.000000,-6.000000
1305291.820049,-10.000000,-14.000000,39.000000,-14.000000,-28.000000,-6.000000,-15.000000,-11.000000
1305291.820078,35.000000,13.000000,-25.000000,-30.000000,-19.000000,-11.000000,11.000000,22.000000
1305291.820997,-41.000000,-11.000000,-15.000000,5.000000,15.000000,9.000000,21.000000,3.000000
1305291.821024,23.000000,-14.000000,-29.000000,3.000000,7.000000,-5.000000,-13.000000,-13.000000
1305291.842758,9.000000,11.000000,-18.000000,-21.000000,-10.000000,8.000000,-5.000000,-3.000000
1305291.842795,-27.000000,-17.000000,60.000000,10.000000,3.000000,-6.000000,-4.000000,-8.000000
1305291.857598,16.000000,-14.000000,-8.000000,20.000000,13.000000,-4.000000,0.000000,0.000000
1305291.857616,-5.000000,-3.000000,-56.000000,-11.000000,-6.000000,-6.000000,6.000000,0.000000
1305291.864920,-26.000000,-23.000000,-2.000000,-3.000000,-5.000000,2.000000,-14.000000,-9.000000
1305291.864944,32.000000,45.000000,-30.000000,10.000000,22.000000,17.000000,-12.000000,8.000000
1305291.902714,-14.000000,-32.000000,-19.000000,2.000000,-7.000000,-7.000000,-12.000000,-12.000000
1305291.902730,-3.000000,8.000000,-42.000000,4.000000,28.000000,-1.000000,-6.000000,-12.000000
1305291.917570,17.000000,-9.000000,43.000000,16.000000,13.000000,-1.000000,-2.000000,-3.000000
1305291.917585,-4.000000,-44.000000,-5.000000,-23.000000,-20.000000,19.000000,13.000000,0.000000
1305291.932300,-4.000000,17.000000,36.000000,9.000000,-5.000000,-9.000000,2.000000,-6.000000
1305291.932329,-1.000000,-13.000000,-6.000000,-29.000000,-31.000000,-11.000000,-3.000000,-4.000000
1305291.939808,1.000000,-12.000000,-48.000000,3.000000,2.000000,-3.000000,9.000000,10.000000
1305291.939857,1.000000,8.000000,82.000000,7.000000,5.000000,0.000000,-6.000000,-2.000000
1305291.940801,-4.000000,-13.000000,3.000000,8.000000,6.000000,1.000000,-13.000000,-11.000000
1305291.940829,1.000000,3.000000,23.000000,-8.000000,-19.000000,-8.000000,10.000000,7.000000
1305291.942397,-19.000000,-5.000000,-4.000000,14.000000,22.000000,1.000000,4.000000,-4.000000
1305291.942449,1.000000,23.000000,-13.000000,21.000000,20.000000,8.000000,23.000000,34.000000
1305291.954830,-4.000000,-3.000000,4.000000,1.000000,-4.000000,-4.000000,-1.000000,-5.000000
1305291.954854,-10.000000,4.000000,0.000000,21.000000,20.000000,4.000000,5.000000,0.000000
1305291.962903,-20.000000,-5.000000,43.000000,-27.000000,-40.000000,1.000000,3.000000,2.000000
1305291.962924,22.000000,-4.000000,-12.000000,-7.000000,-1.000000,9.000000,11.000000,18.000000
1305291.977711,-8.000000,-11.000000,-42.000000,-6.000000,6.000000,-6.000000,-26.000000,-9.000000
1305291.977726,2.000000,19.000000,21.000000,6.000000,1.000000,-8.000000,-1.000000,2.000000
1305291.992221,-6.000000,-10.000000,-19.000000,-13.000000,0.000000,-19.000000,-6.000000,-6.000000
1305291.992231,-4.000000,-17.000000,32.000000,35.000000,31.000000,4.000000,12.000000,10.000000
1305291.999687,11.000000,3.000000,-34.000000,-47.000000,-47.000000,4.000000,3.000000,2.000000
1305291.999705,-7.000000,-1.000000,4.000000,8.000000,13.000000,4.000000,-4.000000,-1.000000
1305292.022543,-19.000000,-30.000000,-11.000000,-15.000000,-15.000000,-8.000000,1.000000,-6.000000
1305292.022556,36.000000,0.000000,4.000000,25.000000,18.000000,2.000000,11.000000,16.000000
1305292.037287,-1.000000,67.000000,6.000000,2.000000,0.000000,0.000000,-2.000000,-8.000000
1305292.037306,10.000000,15.000000,12.000000,9.000000,20.000000,16.000000,21.000000,24.000000
1305292.038276,-29.000000,-44.000000,-24.000000,-6.000000,-11.000000,-4.000000,-5.000000,-12.000000
1305292.038303,2.000000,-8.000000,51.000000,-6.000000,-35.000000,-10.000000,-3.000000,-5.000000
1305292.038921,-13.000000,-4.000000,-9.000000,6.000000,-3.000000,-4.000000,-8.000000,-8.000000
1305292.038943,-16.000000,-7.000000,-26.000000,-12.000000,-3.000000,14.000000,4.000000,-5.000000
1305292.044520,26.000000,5.000000,0.000000,2.000000,-19.000000,-8.000000,-3.000000,3.000000
1305292.044530,-22.000000,-49.000000,-47.000000,-10.000000,-15.000000,-17.000000,-6.000000,-10.000000
1305292.052228,1.000000,-6.000000,-42.000000,-35.000000,-36.000000,-18.000000,-7.000000,-8.000000
1305292.052257,-7.000000,-1.000000,16.000000,-2.000000,-12.000000,-5.000000,-3.000000,-4.000000
1305292.060434,-4.000000,21.000000,60.000000,15.000000,6.000000,4.000000,-7.000000,-6.000000
1305292.060443,10.000000,5.000000,-96.000000,-25.000000,-4.000000,1.000000,23.000000,19.000000
1305292.074694,-13.000000,-22.000000,-44.000000,-3.000000,3.000000,9.000000,-17.000000,-11.000000
1305292.074705,-21.000000,-30.000000,-18.000000,6.000000,9.000000,-2.000000,-12.000000,-13.000000
1305292.082267,-7.000000,16.000000,41.000000,8.000000,4.000000,7.000000,-10.000000,-7.000000
1305292.082287,50.000000,17.000000,4.000000,-20.000000,-7.000000,15.000000,43.000000,51.000000
1305292.097255,-1.000000,10.000000,-8.000000,5.000000,4.000000,-11.000000,-9.000000,6.000000
1305292.097283,-13.000000,-15.000000,-7.000000,-31.000000,-34.000000,-4.000000,-14.000000,-14.000000
1305292.119753,-21.000000,-14.000000,2.000000,18.000000,27.000000,15.000000,7.000000,-10.000000
1305292.119763,-6.000000,-9.000000,-50.000000,-16.000000,-12.000000,-13.000000,-9.000000,-12.000000
1305292.134903,14.000000,-26.000000,18.000000,2.000000,-10.000000,-6.000000,-9.000000,3.000000
1305292.134922,-12.000000,1.000000,-28.000000,5.000000,20.000000,9.000000,-4.000000,3.000000
1305292.157335,22.000000,13.000000,76.000000,8.000000,2.000000,-4.000000,17.000000,9.000000
1305292.157350,-25.000000,-10.000000,-48.000000,-30.000000,-10.000000,-4.000000,-8.000000,-15.000000
1305292.157722,-9.000000,-11.000000,18.000000,9.000000,1.000000,-2.000000,-5.000000,-7.000000
1305292.157730,12.000000,14.000000,-14.000000,3.000000,4.000000,-4.000000,8.000000,18.000000
1305292.179680,-7.000000,-26.000000,19.000000,8.000000,7.000000,-9.000000,-16.000000,-3.000000
1305292.179690,-12.000000,9.000000,21.000000,-10.000000,-28.000000,-12.000000,-1.000000,-6.000000
1305292.180122,-3.000000,13.000000,2.000000,2.000000,17.000000,-3.000000,-4.000000,-3.000000
1305292.180148,8.000000,-8.000000,46.000000,15.000000,4.000000,4.000000,-2.000000,2.000000
1305292.181512,-40.000000,19.000000,19.000000,-6.000000,-34.000000,-7.000000,-7.000000,-17.000000
1305292.181524,37.000000,-1.000000,-44.000000,-22.000000,-25.000000,3.000000,5.000000,10.000000
1305292.182160,12.000000,-5.000000,5.000000,-7.000000,0.000000,-6.000000,-3.000000,0.000000
1305292.182211,-33.000000,-30.000000,1.000000,4.000000,7.000000,-3.000000,-4.000000,-13.000000
1305292.187170,28.000000,21.000000,72.000000,7.000000,-6.000000,-12.000000,-10.000000,-6.000000
1305292.187191,-8.000000,32.000000,22.000000,-5.000000,-8.000000,14.000000,8.000000,-3.000000
1305292.195032,15.000000,4.000000,-1.000000,3.000000,4.000000,-3.000000,-1.000000,4.000000
1305292.195042,-1.000000,12.000000,-9.000000,7.000000,11.000000,-1.000000,-10.000000,0.000000
1305292.202297,-18.000000,-6.000000,23.000000,-7.000000,-8.000000,1.000000,-9.000000,-9.000000
1305292.202307,-11.000000,-4.000000,-14.000000,-11.000000,-19.000000,-6.000000,1.000000,-3.000000
1305292.217552,35.000000,28.000000,29.000000,12.000000,-5.000000,-4.000000,15.000000,11.000000
1305292.217565,-4.000000,13.000000,16.000000,9.000000,1.000000,6.000000,4.000000,2.000000
1305292.240192,-10.000000,2.000000,-2.000000,11.000000,37.000000,18.000000,-10.000000,-1.000000
1305292.240237,10.000000,16.000000,-3.000000,-11.000000,-33.000000,-17.000000,13.000000,13.000000
1305292.247249,-30.000000,-29.000000,-26.000000,5.000000,16.000000,6.000000,-8.000000,-24.000000
1305292.247259,17.000000,-6.000000,12.000000,13.000000,19.000000,5.000000,5.000000,17.000000
1305292.262194,2.000000,6.000000,-10.000000,-6.000000,4.000000,7.000000,27.000000,-5.000000
1305292.262206,6.000000,17.000000,38.000000,6.000000,-1.000000,-1.000000,-5.000000,2.000000
1305292.262622,-15.000000,-11.000000,26.000000,-2.000000,3.000000,-16.000000,-10.000000,-16.000000
1305292.262630,-21.000000,-5.000000,-77.000000,-6.000000,6.000000,-5.000000,-4.000000,-6.000000
1305292.264223,9.000000,3.000000,36.000000,-39.000000,-42.000000,2.000000,12.000000,3.000000
1305292.264238,-18.000000,-21.000000,-8.000000,-6.000000,-2.000000,0.000000,-1.000000,-1.000000
1305292.277254,12.000000,4.000000,26.000000,15.000000,25.000000,0.000000,-7.000000,-8.000000
1305292.277272,12.000000,37.000000,1.000000,-7.000000,-1.000000,-6.000000,-3.000000,8.000000
1305292.292721,-6.000000,8.000000,-9.000000,7.000000,15.000000,-1.000000,-3.000000,-7.000000
1305292.292751,-9.000000,-1.000000,9.000000,14.000000,3.000000,4.000000,2.000000,9.000000
1305292.293494,19.000000,-17.000000,-17.000000,-10.000000,6.000000,3.000000,5.000000,3.000000
1305292.293502,5.000000,1.000000,-5.000000,9.000000,-1.000000,-12.000000,-17.000000,-4.000000
1305292.314908,-20.000000,-8.000000,13.000000,-3.000000,8.000000,6.000000,-12.000000,-5.000000
1305292.315039,-10.000000,3.000000,16.000000,12.000000,12.000000,-9.000000,7.000000,-3.000000
1305292.315286,7.000000,-6.000000,29.000000,-6.000000,-25.000000,-3.000000,-4.000000,-4.000000
1305292.315295,2.000000,-7.000000,-13.000000,3.000000,-4.000000,-9.000000,0.000000,-8.000000
1305292.344710,-3.000000,-13.000000,-30.000000,-25.000000,-33.000000,-5.000000,-3.000000,-8.000000
1305292.344720,-3.000000,-5.000000,-51.000000,8.000000,7.000000,-7.000000,-13.000000,-12.000000
1305292.352229,-12.000000,-1.000000,1.000000,-18.000000,-17.000000,-2.000000,-14.000000,-6.000000
1305292.352258,2.000000,16.000000,13.000000,1.000000,-6.000000,-6.000000,25.000000,8.000000
1305292.367321,12.000000,-11.000000,-28.000000,7.000000,19.000000,-3.000000,-6.000000,2.000000
1305292.367350,1.000000,4.000000,25.000000,-6.000000,-27.000000,-2.000000,-1.000000,-4.000000
1305292.374949,-11.000000,-1.000000,-7.000000,-6.000000,-4.000000,9.000000,4.000000,-6.000000
1305292.374960,-14.000000,1.000000,-8.000000,3.000000,-2.000000,-13.000000,-10.000000,-3.000000
1305292.397855,-47.000000,-31.000000,15.000000,-19.000000,-39.000000,6.000000,3.000000,-14.000000
1305292.397866,42.000000,31.000000,19.000000,-7.000000,-9.000000,8.000000,7.000000,9.000000
1305292.412231,-6.000000,-25.000000,-26.000000,10.000000,-6.000000,-19.000000,-16.000000,-12.000000
1305292.412247,-26.000000,-20.000000,-49.000000,-26.000000,0.000000,3.000000,-3.000000,-6.000000
1305292.413285,-6.000000,-9.000000,7.000000,5.000000,1.000000,5.000000,15.000000,11.000000
1305292.413313,-21.000000,-6.000000,-43.000000,-1.000000,8.000000,-8.000000,-15.000000,-14.000000
1305292.413917,20.000000,21.000000,77.000000,20.000000,-9.000000,-25.000000,-4.000000,0.000000
1305292.413935,-2.000000,22.000000,-36.000000,-10.000000,-13.000000,4.000000,4.000000,0.000000
1305292.415204,1.000000,24.000000,9.000000,-2.000000,12.000000,-1.000000,-18.000000,-4.000000
1305292.415225,-5.000000,5.000000,7.000000,8.000000,2.000000,-10.000000,1.000000,7.000000
1305292.416121,-15.000000,12.000000,1.000000,-2.000000,4.000000,10.000000,25.000000,0.000000
1305292.416141,-9.000000,-30.000000,47.000000,11.000000,8.000000,-7.000000,-17.000000,-5.000000
1305292.434857,36.000000,31.000000,-52.000000,3.000000,22.000000,6.000000,-3.000000,5.000000
1305292.434866,-7.000000,-2.000000,56.000000,-8.000000,-15.000000,4.000000,-22.000000,-11.000000
1305292.435338,-8.000000,-3.000000,8.000000,-9.000000,-9.000000,0.000000,2.000000,0.000000
1305292.435345,-27.000000,-31.000000,5.000000,20.000000,18.000000,-5.000000,-14.000000,-18.000000
1305292.479959,53.000000,20.000000,-97.000000,-15.000000,11.000000,11.000000,32.000000,50.000000
1305292.479970,-2.000000,-10.000000,-6.000000,-7.000000,-13.000000,5.000000,0.000000,-7.000000
1305292.510409,-18.000000,-2.000000,-3.000000,-1.000000,-17.000000,3.000000,13.000000,8.000000
1305292.510458,-6.000000,8.000000,-22.000000,-17.000000,-29.000000,-21.000000,3.000000,4.000000
1305292.539854,-24.000000,-64.000000,-58.000000,7.000000,13.000000,-7.000000,-1.000000,-12.000000
1305292.539867,19.000000,4.000000,-2.000000,-10.000000,-6.000000,-8.000000,-24.000000,-13.000000
1305292.555063,-10.000000,-7.000000,13.000000,14.000000,18.000000,-11.000000,-6.000000,-5.000000
1305292.555184,3.000000,9.000000,2.000000,7.000000,1.000000,5.000000,9.000000,25.000000
1305292.556132,-9.000000,-29.000000,-12.000000,2.000000,7.000000,6.000000,7.000000,-5.000000
1305292.556146,-25.000000,-1.000000,15.000000,24.000000,24.000000,-14.000000,-18.000000,-18.000000
1305292.556551,29.000000,6.000000,-14.000000,-13.000000,-4.000000,5.000000,-1.000000,11.000000
1305292.556558,4.000000,19.000000,39.000000,10.000000,9.000000,10.000000,-6.000000,-6.000000
1305292.557023,34.000000,12.000000,6.000000,-37.000000,-43.000000,5.000000,12.000000,7.000000
1305292.557031,-17.000000,1.000000,12.000000,5.000000,4.000000,-11.000000,-4.000000,-5.000000
1305292.557851,-11.000000,-10.000000,20.000000,-6.000000,-34.000000,-15.000000,-6.000000,-10.000000
1305292.557871,-14.000000,0.000000,5.000000,3.000000,4.000000,7.000000,-2.000000,-11.000000
1305292.558602,-6.000000,9.000000,-31.000000,-21.000000,-12.000000,6.000000,1.000000,-7.000000
1305292.558609,-59.000000,-14.000000,71.000000,14.000000,-9.000000,-15.000000,-19.000000,-22.000000
1305292.569688,55.000000,1.000000,-24.000000,-18.000000,-14.000000,-11.000000,-3.000000,16.000000
1305292.569698,-4.000000,31.000000,22.000000,-5.000000,-21.000000,6.000000,-5.000000,-12.000000
1305292.577558,4.000000,-9.000000,-35.000000,-3.000000,10.000000,8.000000,11.000000,14.000000
1305292.577571,-3.000000,-22.000000,-21.000000,-22.000000,-18.000000,8.000000,-7.000000,2.000000
1305292.600109,6.000000,20.000000,25.000000,14.000000,13.000000,13.000000,13.000000,10.000000
1305292.600127,-3.000000,6.000000,0.000000,1.000000,4.000000,3.000000,-2.000000,0.000000
1305292.614688,-5.000000,-6.000000,4.000000,8.000000,4.000000,6.000000,7.000000,2.000000
1305292.614699,-7.000000,-12.000000,-9.000000,8.000000,10.000000,-4.000000,-3.000000,-4.000000
1305292.630390,20.000000,24.000000,-7.000000,-9.000000,-11.000000,-9.000000,-2.000000,-1.000000
1305292.630402,10.000000,-6.000000,10.000000,-1.000000,-1.000000,-6.000000,1.000000,0.000000
1305292.630933,-7.000000,-6.000000,1.000000,-3.000000,-12.000000,-13.000000,-7.000000,-11.000000
1305292.630943,-16.000000,-13.000000,-8.000000,3.000000,13.000000,4.000000,-29.000000,-14.000000
1305292.632380,14.000000,8.000000,29.000000,22.000000,20.000000,1.000000,34.000000,15.000000
1305292.632390,2.000000,-11.000000,-6.000000,14.000000,15.000000,5.000000,6.000000,11.000000
1305292.637294,2.000000,15.000000,0.000000,-14.000000,-7.000000,-5.000000,-16.000000,-6.000000
1305292.637307,-8.000000,18.000000,13.000000,11.000000,15.000000,-4.000000,-2.000000,-10.000000
1305292.644751,-6.000000,39.000000,22.000000,6.000000,8.000000,20.000000,-3.000000,-1.000000
1305292.644763,46.000000,-10.000000,14.000000,21.000000,16.000000,1.000000,1.000000,16.000000
1305292.652146,-1.000000,-3.000000,-41.000000,-1.000000,0.000000,-3.000000,-4.000000,-5.000000
1305292.652156,4.000000,-5.000000,39.000000,11.000000,-2.000000,-7.000000,-6.000000,-3.000000
1305292.674924,5.000000,25.000000,7.000000,7.000000,41.000000,19.000000,18.000000,7.000000
1305292.674938,-2.000000,-21.000000,-11.000000,4.000000,-7.000000,-19.000000,-13.000000,-8.000000
1305292.675398,-7.000000,3.000000,28.000000,5.000000,-14.000000,-22.000000,0.000000,-21.000000
1305292.675408,22.000000,5.000000,-52.000000,-26.000000,-15.000000,-11.000000,-7.000000,5.000000
1305292.689663,-18.000000,-16.000000,0.000000,13.000000,8.000000,7.000000,-4.000000,-8.000000
1305292.689673,-22.000000,-12.000000,-58.000000,-8.000000,3.000000,-2.000000,1.000000,-5.000000
1305292.697231,35.000000,49.000000,-10.000000,-20.000000,-20.000000,-5.000000,0.000000,3.000000
1305292.697259,-38.000000,-45.000000,7.000000,-17.000000,-19.000000,-10.000000,-23.000000,-23.000000
1305292.712445,-11.000000,-15.000000,-3.000000,11.000000,13.000000,-6.000000,22.000000,2.000000
1305292.712456,-9.000000,20.000000,-35.000000,-5.000000,-10.000000,-14.000000,-1.000000,9.000000
1305292.734746,7.000000,14.000000,-42.000000,3.000000,24.000000,-2.000000,-1.000000,-8.000000
1305292.734756,-31.000000,15.000000,20.000000,6.000000,7.000000,20.000000,-8.000000,-12.000000
1305292.750374,49.000000,3.000000,2.000000,18.000000,23.000000,14.000000,12.000000,24.000000
1305292.750388,10.000000,13.000000,12.000000,-4.000000,-15.000000,-6.000000,23.000000,13.000000
1305292.751043,-4.000000,1.000000,-21.000000,1.000000,8.000000,8.000000,-7.000000,2.000000
1305292.751053,-11.000000,-8.000000,-38.000000,-25.000000,-39.000000,4.000000,12.000000,0.000000
1305292.752725,-20.000000,1.000000,37.000000,8.000000,13.000000,17.000000,8.000000,-2.000000
1305292.752738,35.000000,-10.000000,17.000000,3.000000,-1.000000,-10.000000,1.000000,9.000000
1305292.757262,19.000000,14.000000,25.000000,17.000000,19.000000,-3.000000,1.000000,12.000000
1305292.757273,-10.000000,-9.000000,-30.000000,-26.000000,-25.000000,4.000000,6.000000,2.000000
1305292.772350,-9.000000,-24.000000,1.000000,6.000000,11.000000,-2.000000,-7.000000,-18.000000
1305292.772366,5.000000,61.000000,-1.000000,5.000000,5.000000,-1.000000,1.000000,7.000000
1305292.773057,-26.000000,-24.000000,-11.000000,-36.000000,-36.000000,-9.000000,-2.000000,-5.000000
1305292.773068,-5.000000,-4.000000,16.000000,4.000000,4.000000,-6.000000,-6.000000,-12.000000
1305292.795045,17.000000,-6.000000,32.000000,1.000000,8.000000,6.000000,25.000000,5.000000
1305292.795068,-17.000000,14.000000,-10.000000,-28.000000,-22.000000,3.000000,-12.000000,-14.000000
1305292.795763,-24.000000,-4.000000,17.000000,-8.000000,-36.000000,-17.000000,11.000000,2.000000
1305292.795771,60.000000,16.000000,4.000000,1.000000,10.000000,11.000000,-3.000000,14.000000
1305292.809972,-21.000000,-11.000000,-34.000000,-15.000000,-7.000000,-9.000000,-5.000000,-13.000000
1305292.809983,5.000000,9.000000,46.000000,11.000000,9.000000,8.000000,25.000000,32.000000
1305292.817499,15.000000,15.000000,18.000000,16.000000,21.000000,16.000000,9.000000,0.000000
1305292.817509,-22.000000,-7.000000,1.000000,-15.000000,-20.000000,-7.000000,-10.000000,-15.000000
1305292.847172,5.000000,15.000000,-42.000000,4.000000,5.000000,9.000000,-2.000000,5.000000
1305292.847184,23.000000,2.000000,46.000000,11.000000,7.000000,4.000000,-1.000000,4.000000
1305292.854804,1.000000,28.000000,-26.000000,13.000000,16.000000,-9.000000,-7.000000,-4.000000
1305292.854813,-3.000000,35.000000,10.000000,-8.000000,-9.000000,0.000000,0.000000,0.000000
1305292.869691,-10.000000,-11.000000,39.000000,18.000000,2.000000,-7.000000,-9.000000,-10.000000
1305292.869717,-4.000000,-31.000000,-42.000000,-37.000000,-27.000000,5.000000,32.000000,7.000000
1305292.870245,-7.000000,-15.000000,7.000000,-15.000000,-17.000000,-18.000000,-11.000000,-7.000000
1305292.870268,22.000000,24.000000,-10.000000,-9.000000,-8.000000,6.000000,11.000000,18.000000
1305292.871574,-1.000000,-1.000000,4.000000,5.000000,6.000000,3.000000,-10.000000,-6.000000
1305292.871583,2.000000,-14.000000,-23.000000,-12.000000,-15.000000,-2.000000,-2.000000,-2.000000
1305292.892190,0.000000,-16.000000,44.000000,12.000000,21.000000,19.000000,-10.000000,-8.000000
1305292.892224,-36.000000,11.000000,-7.000000,-3.000000,-13.000000,1.000000,7.000000,-9.000000
1305292.893167,28.000000,6.000000,4.000000,9.000000,31.000000,27.000000,40.000000,49.000000
1305292.893175,1.000000,-6.000000,12.000000,4.000000,7.000000,-1.000000,0.000000,-10.000000
1305292.894097,0.000000,7.000000,5.000000,-22.000000,-26.000000,-2.000000,0.000000,-10.000000
1305292.894105,-17.000000,-39.000000,-35.000000,-3.000000,4.000000,-4.000000,4.000000,2.000000
1305292.907962,-4.000000,18.000000,63.000000,15.000000,1.000000,-10.000000,0.000000,4.000000
1305292.907971,-6.000000,-4.000000,-20.000000,13.000000,8.000000,9.000000,6.000000,12.000000
1305292.914695,-12.000000,8.000000,-6.000000,3.000000,17.000000,-1.000000,-3.000000,-14.000000
1305292.914705,13.000000,14.000000,34.000000,8.000000,-1.000000,-9.000000,-22.000000,-15.000000
1305292.922286,5.000000,-7.000000,11.000000,-48.000000,-58.000000,3.000000,33.000000,5.000000
1305292.922299,12.000000,-3.000000,-42.000000,-3.000000,5.000000,1.000000,7.000000,6.000000
1305292.945009,-13.000000,-11.000000,-3.000000,3.000000,4.000000,-3.000000,-5.000000,-13.000000
1305292.945020,16.000000,-9.000000,26.000000,14.000000,8.000000,13.000000,17.000000,13.000000
1305292.967399,6.000000,11.000000,-35.000000,-10.000000,-10.000000,-4.000000,2.000000,2.000000
1305292.967411,23.000000,-9.000000,-5.000000,8.000000,0.000000,-21.000000,-12.000000,-6.000000
1305292.967642,-9.000000,-30.000000,9.000000,-30.000000,-49.000000,9.000000,17.000000,18.000000
1305292.967650,-35.000000,8.000000,11.000000,11.000000,8.000000,1.000000,-10.000000,-16.000000
1305292.969086,63.000000,10.000000,13.000000,-10.000000,-36.000000,-19.000000,13.000000,17.000000
1305292.969101,-17.000000,-33.000000,-67.000000,-7.000000,0.000000,-7.000000,-12.000000,-23.000000
1305292.974629,12.000000,33.000000,33.000000,12.000000,15.000000,16.000000,23.000000,31.000000
1305292.974642,-12.000000,-28.000000,4.000000,-4.000000,-20.000000,-14.000000,-6.000000,-13.000000
1305292.982085,7.000000,-1.000000,86.000000,9.000000,-3.000000,-6.000000,-7.000000,-1.000000
1305292.982140,-18.000000,20.000000,-10.000000,-10.000000,-35.000000,-86.000000,-12.000000,-6.000000
1305293.012097,11.000000,-3.000000,-30.000000,-21.000000,-27.000000,16.000000,-11.000000,-8.000000
1305293.012108,-1.000000,-5.000000,27.000000,11.000000,20.000000,22.000000,42.000000,5.000000
1305293.013237,10.000000,9.000000,-3.000000,-4.000000,-2.000000,-9.000000,-6.000000,-7.000000
1305293.013247,3.000000,5.000000,4.000000,-1.000000,1.000000,-3.000000,0.000000,-2.000000
1305293.013971,5.000000,9.000000,-3.000000,3.000000,14.000000,-3.000000,11.000000,4.000000
1305293.013979,-12.000000,-11.000000,0.000000,-13.000000,-14.000000,-7.000000,-12.000000,-16.000000
1305293.027109,-25.000000,-46.000000,-9.000000,4.000000,7.000000,12.000000,11.000000,12.000000
1305293.027119,39.000000,41.000000,2.000000,-11.000000,-22.000000,-3.000000,13.000000,14.000000
1305293.035032,21.000000,4.000000,-11.000000,10.000000,12.000000,-10.000000,-13.000000,-15.000000
1305293.035043,-7.000000,-10.000000,-4.000000,-18.000000,-32.000000,-9.000000,-5.000000,-8.000000
1305293.072271,-23.000000,-2.000000,-15.000000,4.000000,13.000000,5.000000,0.000000,-2.000000
1305293.072288,14.000000,-23.000000,10.000000,15.000000,9.000000,-7.000000,11.000000,4.000000
1305293.087516,-10.000000,2.000000,48.000000,-5.000000,-21.000000,-7.000000,-6.000000,-11.000000
1305293.087529,21.000000,13.000000,6.000000,1.000000,8.000000,7.000000,13.000000,10.000000
1305293.088331,-8.000000,-5.000000,-33.000000,-6.000000,-1.000000,2.000000,2.000000,10.000000
1305293.088341,-2.000000,-13.000000,-19.000000,-8.000000,-18.000000,-16.000000,-9.000000,-9.000000
1305293.088923,-12.000000,-16.000000,23.000000,-5.000000,1.000000,3.000000,1.000000,-1.000000
1305293.088933,-8.000000,-9.000000,-39.000000,3.000000,11.000000,6.000000,-9.000000,-8.000000
1305293.090920,17.000000,18.000000,15.000000,-3.000000,-7.000000,-4.000000,20.000000,12.000000
1305293.090932,-12.000000,-61.000000,-11.000000,1.000000,2.000000,8.000000,7.000000,7.000000
1305293.095002,-6.000000,-2.000000,-68.000000,-3.000000,8.000000,7.000000,9.000000,6.000000
1305293.095016,14.000000,15.000000,4.000000,-2.000000,9.000000,-4.000000,12.000000,24.000000
1305293.109761,18.000000,-35.000000,14.000000,-5.000000,-1.000000,-9.000000,-15.000000,-11.000000
1305293.109772,-21.000000,5.000000,-4.000000,5.000000,17.000000,-5.000000,-11.000000,-13.000000
1305293.124943,-24.000000,-15.000000,3.000000,13.000000,-8.000000,-14.000000,-3.000000,-7.000000
1305293.124954,2.000000,-16.000000,-18.000000,-48.000000,-36.000000,-6.000000,-15.000000,-3.000000
1305293.140012,-16.000000,18.000000,-5.000000,13.000000,28.000000,16.000000,27.000000,-2.000000
1305293.140024,15.000000,-87.000000,-45.000000,-7.000000,-18.000000,-19.000000,-1.000000,3.000000
1305293.147351,-5.000000,58.000000,48.000000,-16.000000,-29.000000,-18.000000,-6.000000,-8.000000
1305293.147363,11.000000,-1.000000,23.000000,-3.000000,-1.000000,7.000000,-4.000000,-17.000000
1305293.162370,-1.000000,7.000000,-30.000000,-2.000000,13.000000,0.000000,-5.000000,2.000000
1305293.162387,4.000000,15.000000,39.000000,1.000000,-14.000000,6.000000,10.000000,2.000000
1305293.169689,2.000000,5.000000,30.000000,15.000000,19.000000,5.000000,-14.000000,-12.000000
1305293.169699,-8.000000,-51.000000,2.000000,-7.000000,-18.000000,4.000000,16.000000,14.000000
1305293.192322,24.000000,21.000000,-40.000000,-14.000000,-8.000000,-10.000000,-2.000000,-7.000000
1305293.192334,-15.000000,40.000000,41.000000,12.000000,24.000000,10.000000,0.000000,-11.000000
1305293.199635,-6.000000,-11.000000,-26.000000,-6.000000,-3.000000,-4.000000,-3.000000,-6.000000
1305293.199647,-10.000000,32.000000,34.000000,8.000000,9.000000,-3.000000,0.000000,-8.000000
1305293.229951,15.000000,-18.000000,-5.000000,0.000000,-7.000000,-21.000000,-17.000000,-5.000000
1305293.229963,-31.000000,40.000000,70.000000,21.000000,7.000000,0.000000,-10.000000,-12.000000
1305293.230326,55.000000,-33.000000,-48.000000,7.000000,16.000000,15.000000,29.000000,18.000000
1305293.230336,-7.000000,34.000000,-14.000000,-32.000000,-29.000000,-2.000000,-6.000000,-1.000000
1305293.231356,-34.000000,6.000000,9.000000,21.000000,25.000000,25.000000,0.000000,-9.000000
1305293.231365,20.000000,-3.000000,-15.000000,6.000000,-5.000000,-16.000000,4.000000,-13.000000
1305293.232711,-36.000000,-15.000000,29.000000,5.000000,-2.000000,10.000000,-1.000000,0.000000
1305293.232720,16.000000,24.000000,15.000000,12.000000,1.000000,-10.000000,-4.000000,2.000000
1305293.233796,-4.000000,-20.000000,-36.000000,-35.000000,-26.000000,2.000000,-1.000000,-2.000000
1305293.233806,-14.000000,-27.000000,13.000000,2.000000,-38.000000,-34.000000,5.000000,3.000000
1305293.245133,-18.000000,24.000000,25.000000,2.000000,-15.000000,4.000000,6.000000,-5.000000
1305293.245142,32.000000,17.000000,-29.000000,-3.000000,9.000000,5.000000,17.000000,15.000000
1305293.245872,-13.000000,-25.000000,13.000000,6.000000,14.000000,6.000000,-7.000000,-9.000000
1305293.245880,-13.000000,-14.000000,24.000000,-1.000000,4.000000,-13.000000,9.000000,-3.000000
1305293.267786,8.000000,20.000000,32.000000,-7.000000,-10.000000,20.000000,-5.000000,1.000000
1305293.267795,-8.000000,-1.000000,-32.000000,-16.000000,-21.000000,-11.000000,3.000000,-3.000000
1305293.289885,-1.000000,-3.000000,-12.000000,19.000000,30.000000,11.000000,14.000000,9.000000
1305293.289909,1.000000,-10.000000,48.000000,-7.000000,-26.000000,-5.000000,-5.000000,-11.000000
1305293.304775,11.000000,6.000000,1.000000,-13.000000,-15.000000,-3.000000,25.000000,15.000000
1305293.304796,9.000000,-11.000000,-10.000000,8.000000,1.000000,-15.000000,-21.000000,-14.000000
1305293.312549,26.000000,-4.000000,6.000000,1.000000,-2.000000,1.000000,8.000000,13.000000
1305293.312562,-8.000000,-9.000000,-5.000000,-6.000000,-5.000000,-8.000000,-10.000000,-13.000000
1305293.349843,-56.000000,54.000000,30.000000,20.000000,63.000000,39.000000,4.000000,-13.000000
1305293.349911,55.000000,-42.000000,-8.000000,18.000000,-2.000000,-7.000000,11.000000,22.000000
1305293.350077,10.000000,43.000000,67.000000,-24.000000,-45.000000,-3.000000,3.000000,1.000000
1305293.350085,-33.000000,-21.000000,-5.000000,-1.000000,1.000000,-5.000000,-9.000000,-16.000000
1305293.351375,24.000000,28.000000,2.000000,17.000000,15.000000,7.000000,4.000000,9.000000
1305293.351387,-7.000000,-25.000000,-23.000000,-10.000000,-16.000000,-20.000000,-11.000000,-8.000000
1305293.351997,-11.000000,4.000000,-9.000000,3.000000,0.000000,3.000000,-9.000000,-10.000000
1305293.352005,-2.000000,-3.000000,34.000000,29.000000,14.000000,3.000000,4.000000,1.000000
1305293.353620,-32.000000,-11.000000,12.000000,-9.000000,-16.000000,-3.000000,-8.000000,-8.000000
1305293.353630,10.000000,14.000000,-13.000000,-14.000000,-6.000000,4.000000,23.000000,20.000000
1305293.365399,-13.000000,57.000000,30.000000,20.000000,11.000000,-9.000000,1.000000,-7.000000
1305293.365415,46.000000,-17.000000,-20.000000,-8.000000,1.000000,22.000000,-4.000000,10.000000
1305293.366164,-13.000000,-3.000000,-49.000000,-30.000000,-36.000000,-6.000000,6.000000,4.000000
1305293.366176,-22.000000,-17.000000,-2.000000,11.000000,2.000000,0.000000,1.000000,-5.000000
1305293.387657,-4.000000,-1.000000,-9.000000,5.000000,25.000000,-15.000000,-8.000000,-10.000000
1305293.387701,10.000000,32.000000,36.000000,-44.000000,-72.000000,17.000000,18.000000,9.000000
1305293.388479,-7.000000,2.000000,-8.000000,3.000000,5.000000,-2.000000,-7.000000,-6.000000
1305293.388506,-7.000000,-6.000000,-13.000000,4.000000,22.000000,10.000000,-10.000000,-7.000000
1305293.409898,1.000000,4.000000,6.000000,15.000000,9.000000,-7.000000,-3.000000,-5.000000
1305293.409910,3.000000,6.000000,79.000000,-2.000000,-34.000000,-19.000000,-4.000000,-1.000000
1305293.417314,-14.000000,-6.000000,-18.000000,-7.000000,5.000000,11.000000,-9.000000,-11.000000
1305293.417325,15.000000,-16.000000,11.000000,-4.000000,-9.000000,-8.000000,16.000000,13.000000
1305293.432395,-8.000000,30.000000,-14.000000,-11.000000,-12.000000,0.000000,6.000000,-1.000000
1305293.432406,-8.000000,-7.000000,16.000000,-14.000000,-14.000000,0.000000,-9.000000,-9.000000
1305293.447439,-28.000000,-41.000000,-34.000000,5.000000,-5.000000,10.000000,3.000000,-1.000000
1305293.447458,52.000000,28.000000,17.000000,7.000000,13.000000,1.000000,10.000000,20.000000
1305293.462835,1.000000,-6.000000,8.000000,34.000000,58.000000,-16.000000,-10.000000,-13.000000
1305293.462846,-22.000000,-16.000000,-53.000000,-16.000000,-15.000000,18.000000,-10.000000,-5.000000
1305293.463333,-13.000000,20.000000,55.000000,3.000000,-3.000000,-7.000000,-12.000000,-8.000000
1305293.463341,14.000000,16.000000,42.000000,7.000000,-1.000000,-2.000000,21.000000,17.000000
1305293.465213,-6.000000,-23.000000,-5.000000,0.000000,-2.000000,3.000000,-7.000000,-11.000000
1305293.465225,-5.000000,6.000000,27.000000,-11.000000,-15.000000,6.000000,-10.000000,-7.000000
1305293.470151,-1.000000,-12.000000,-15.000000,-14.000000,-33.000000,-23.000000,5.000000,7.000000
1305293.470167,-6.000000,-21.000000,-30.000000,-19.000000,-52.000000,-24.000000,1.000000,-6.000000
1305293.484548,-6.000000,-26.000000,-27.000000,-1.000000,-1.000000,-2.000000,-5.000000,-8.000000
1305293.484563,1.000000,39.000000,-12.000000,6.000000,18.000000,5.000000,-3.000000,-1.000000
1305293.485379,-31.000000,-40.000000,33.000000,4.000000,-17.000000,-9.000000,-13.000000,-13.000000
1305293.485397,46.000000,31.000000,-23.000000,-21.000000,-5.000000,26.000000,26.000000,31.000000
1305293.507476,17.000000,22.000000,27.000000,7.000000,4.000000,7.000000,-11.000000,-3.000000
1305293.507487,-42.000000,-14.000000,-36.000000,6.000000,-7.000000,-13.000000,-17.000000,-18.000000
1305293.522493,50.000000,-5.000000,-12.000000,10.000000,17.000000,5.000000,13.000000,21.000000
1305293.522524,-13.000000,12.000000,-15.000000,-20.000000,-28.000000,-3.000000,-7.000000,-14.000000
1305293.537210,-18.000000,-12.000000,-31.000000,0.000000,13.000000,12.000000,11.000000,1.000000
1305293.537228,19.000000,9.000000,14.000000,1.000000,-18.000000,-9.000000,24.000000,17.000000
1305293.544721,-4.000000,7.000000,6.000000,15.000000,20.000000,-5.000000,-13.000000,4.000000
1305293.544749,-4.000000,-8.000000,-14.000000,-15.000000,-14.000000,3.000000,-12.000000,-4.000000
1305293.567995,8.000000,22.000000,7.000000,-12.000000,-17.000000,-3.000000,2.000000,2.000000
1305293.568024,-16.000000,-10.000000,-32.000000,8.000000,16.000000,-4.000000,2.000000,-7.000000
1305293.568302,-7.000000,4.000000,11.000000,-8.000000,-34.000000,-22.000000,-15.000000,0.000000
1305293.568309,10.000000,-17.000000,-4.000000,14.000000,6.000000,0.000000,20.000000,6.000000
1305293.569757,3.000000,26.000000,17.000000,0.000000,7.000000,-4.000000,-7.000000,-4.000000
1305293.569787,28.000000,18.000000,-34.000000,-3.000000,9.000000,3.000000,3.000000,5.000000
1305293.570476,-10.000000,-5.000000,-29.000000,-4.000000,9.000000,-1.000000,-7.000000,-5.000000
1305293.570485,-10.000000,-6.000000,65.000000,-6.000000,-7.000000,1.000000,-7.000000,-16.000000
1305293.582235,5.000000,1.000000,-15.000000,-8.000000,-28.000000,-15.000000,-3.000000,7.000000
1305293.582275,-25.000000,-21.000000,-6.000000,-2.000000,-24.000000,-17.000000,-10.000000,-17.000000
1305293.589730,3.000000,6.000000,26.000000,15.000000,17.000000,2.000000,-4.000000,0.000000
1305293.589739,-12.000000,11.000000,12.000000,-2.000000,-9.000000,5.000000,2.000000,-7.000000
1305293.605304,40.000000,8.000000,-25.000000,-16.000000,4.000000,10.000000,13.000000,20.000000
1305293.605314,-29.000000,-28.000000,-30.000000,15.000000,10.000000,-7.000000,-29.000000,-14.000000
1305293.606046,19.000000,22.000000,45.000000,-2.000000,-24.000000,5.000000,2.000000,3.000000
1305293.606054,23.000000,5.000000,-7.000000,15.000000,5.000000,-7.000000,-7.000000,-4.000000
1305293.627519,-31.000000,-34.000000,-37.000000,13.000000,13.000000,-12.000000,-17.000000,-15.000000
1305293.627549,7.000000,-29.000000,-42.000000,-26.000000,-3.000000,-10.000000,0.000000,0.000000
1305293.634867,-26.000000,-29.000000,-41.000000,-5.000000,-23.000000,-27.000000,-16.000000,-1.000000
1305293.634906,-7.000000,-37.000000,37.000000,-4.000000,-7.000000,-4.000000,-21.000000,-20.000000
1305293.649907,4.000000,51.000000,9.000000,19.000000,17.000000,-5.000000,-5.000000,-5.000000
1305293.649919,-2.000000,-5.000000,41.000000,6.000000,19.000000,-2.000000,-8.000000,-5.000000
1305293.664965,-7.000000,-28.000000,-20.000000,-18.000000,-20.000000,11.000000,4.000000,-5.000000
1305293.664975,-1.000000,10.000000,64.000000,5.000000,-8.000000,-3.000000,-3.000000,-8.000000
1305293.687725,19.000000,-16.000000,-25.000000,-3.000000,9.000000,-2.000000,-10.000000,2.000000
1305293.687746,-12.000000,-4.000000,6.000000,1.000000,23.000000,17.000000,7.000000,1.000000
1305293.694940,-22.000000,16.000000,7.000000,7.000000,20.000000,3.000000,1.000000,3.000000
1305293.694953,16.000000,-9.000000,39.000000,-20.000000,-27.000000,-6.000000,9.000000,-4.000000
1305293.709898,7.000000,31.000000,-46.000000,-33.000000,-41.000000,-6.000000,-15.000000,-4.000000
1305293.709911,-4.000000,4.000000,4.000000,12.000000,8.000000,-5.000000,30.000000,13.000000
1305293.717313,2.000000,8.000000,28.000000,8.000000,2.000000,8.000000,-2.000000,-4.000000
1305293.717338,-12.000000,-30.000000,-75.000000,17.000000,35.000000,17.000000,-10.000000,-9.000000
1305293.725379,-5.000000,34.000000,37.000000,-1.000000,-8.000000,-12.000000,-6.000000,-1.000000
1305293.725390,17.000000,16.000000,-29.000000,-8.000000,-2.000000,3.000000,6.000000,4.000000
1305293.725972,-17.000000,7.000000,-34.000000,-10.000000,8.000000,-5.000000,-16.000000,-21.000000
1305293.725988,10.000000,-1.000000,23.000000,44.000000,53.000000,40.000000,14.000000,13.000000
1305293.727104,-2.000000,14.000000,51.000000,-14.000000,-23.000000,-10.000000,-3.000000,-4.000000
1305293.727115,-19.000000,-58.000000,-20.000000,5.000000,12.000000,-5.000000,-2.000000,-13.000000
1305293.727956,10.000000,15.000000,18.000000,11.000000,16.000000,5.000000,1.000000,4.000000
1305293.727966,-46.000000,-10.000000,-32.000000,-1.000000,10.000000,-5.000000,-10.000000,-10.000000
1305293.740394,28.000000,23.000000,41.000000,12.000000,9.000000,-4.000000,-9.000000,-2.000000
1305293.740403,-11.000000,-15.000000,-30.000000,0.000000,-6.000000,-7.000000,-31.000000,-12.000000
1305293.755371,5.000000,19.000000,-31.000000,-24.000000,-20.000000,2.000000,17.000000,18.000000
1305293.755412,-8.000000,23.000000,15.000000,-1.000000,2.000000,-6.000000,0.000000,-2.000000
1305293.769940,-26.000000,16.000000,2.000000,3.000000,0.000000,5.000000,-2.000000,-1.000000
1305293.769974,-3.000000,-42.000000,1.000000,5.000000,7.000000,-12.000000,-13.000000,-16.000000
1305293.784784,22.000000,-7.000000,11.000000,-4.000000,-12.000000,1.000000,11.000000,16.000000
1305293.784797,-8.000000,-15.000000,-9.000000,-9.000000,7.000000,4.000000,-6.000000,-9.000000
1305293.807523,-10.000000,42.000000,58.000000,27.000000,22.000000,8.000000,-3.000000,-3.000000
1305293.807536,-15.000000,-27.000000,-43.000000,10.000000,8.000000,-21.000000,-9.000000,-9.000000
1305293.822227,-8.000000,-54.000000,-10.000000,-3.000000,-5.000000,-1.000000,0.000000,-2.000000
1305293.822237,-10.000000,16.000000,17.000000,8.000000,10.000000,-3.000000,-1.000000,4.000000
1305293.845103,45.000000,9.000000,23.000000,-26.000000,-27.000000,-4.000000,-7.000000,6.000000
1305293.845113,-25.000000,-33.000000,-56.000000,-6.000000,21.000000,4.000000,3.000000,-3.000000
1305293.845888,-45.000000,24.000000,104.000000,26.000000,5.000000,-9.000000,10.000000,-13.000000
1305293.845897,35.000000,-16.000000,-8.000000,6.000000,13.000000,3.000000,4.000000,20.000000
1305293.847063,-7.000000,-21.000000,-37.000000,-24.000000,-42.000000,-15.000000,-26.000000,-14.000000
1305293.847072,-12.000000,22.000000,5.000000,-3.000000,-7.000000,-10.000000,-19.000000,-16.000000
1305293.847741,-13.000000,-1.000000,10.000000,4.000000,-19.000000,-16.000000,9.000000,-17.000000
1305293.847748,31.000000,8.000000,-26.000000,10.000000,16.000000,18.000000,36.000000,42.000000
1305293.860537,-6.000000,-7.000000,23.000000,-44.000000,-54.000000,-3.000000,-4.000000,-14.000000
1305293.860547,-30.000000,0.000000,18.000000,9.000000,10.000000,13.000000,-1.000000,-14.000000
1305293.867365,11.000000,-21.000000,-122.000000,0.000000,2.000000,-5.000000,-1.000000,0.000000
1305293.867375,-2.000000,20.000000,82.000000,8.000000,5.000000,0.000000,-8.000000,-5.000000
1305293.897522,-6.000000,-6.000000,-22.000000,-11.000000,-4.000000,-18.000000,-3.000000,-2.000000
1305293.897534,-6.000000,-7.000000,-56.000000,-6.000000,8.000000,3.000000,2.000000,0.000000
1305293.905068,0.000000,5.000000,44.000000,-14.000000,-33.000000,13.000000,4.000000,-3.000000
1305293.905138,-12.000000,-8.000000,32.000000,15.000000,10.000000,0.000000,10.000000,-7.000000
1305293.922043,-12.000000,-28.000000,-43.000000,-10.000000,-25.000000,4.000000,-10.000000,-6.000000
1305293.922068,15.000000,4.000000,22.000000,-5.000000,6.000000,-3.000000,9.000000,0.000000
1305293.922244,-23.000000,-14.000000,11.000000,-8.000000,-10.000000,-13.000000,-14.000000,-1.000000
1305293.922264,31.000000,20.000000,-7.000000,-12.000000,-20.000000,10.000000,40.000000,30.000000
1305293.923578,0.000000,-21.000000,10.000000,16.000000,23.000000,13.000000,30.000000,42.000000
1305293.923597,-3.000000,-6.000000,-13.000000,-6.000000,-23.000000,-14.000000,-3.000000,-1.000000
1305293.927857,-10.000000,-8.000000,-31.000000,2.000000,12.000000,0.000000,-12.000000,-14.000000
1305293.927878,1.000000,-16.000000,-18.000000,0.000000,22.000000,13.000000,-3.000000,-8.000000
1305293.943033,0.000000,16.000000,56.000000,-8.000000,3.000000,25.000000,4.000000,2.000000
1305293.943055,0.000000,-19.000000,-34.000000,-9.000000,-8.000000,-3.000000,-10.000000,-9.000000
1305293.957185,6.000000,12.000000,36.000000,3.000000,-8.000000,0.000000,12.000000,5.000000
1305293.957199,-8.000000,8.000000,4.000000,5.000000,12.000000,-3.000000,-5.000000,-1.000000
1305293.958551,-8.000000,-17.000000,-9.000000,-15.000000,-8.000000,2.000000,-5.000000,-9.000000
1305293.958562,-12.000000,24.000000,-5.000000,6.000000,-8.000000,-17.000000,2.000000,6.000000
1305293.964851,51.000000,23.000000,48.000000,-12.000000,-9.000000,7.000000,12.000000,30.000000
1305293.964869,-1.000000,-15.000000,-10.000000,-2.000000,-3.000000,-10.000000,-6.000000,2.000000
1305294.002409,-5.000000,-12.000000,-34.000000,0.000000,12.000000,4.000000,11.000000,2.000000
1305294.002420,-7.000000,-10.000000,8.000000,14.000000,8.000000,1.000000,-6.000000,-10.000000
1305294.017708,-4.000000,-11.000000,7.000000,1.000000,-9.000000,-5.000000,1.000000,-3.000000
1305294.017819,-23.000000,-5.000000,-32.000000,-16.000000,-3.000000,6.000000,-3.000000,-4.000000
1305294.032393,26.000000,-48.000000,-16.000000,23.000000,32.000000,11.000000,6.000000,14.000000
1305294.032426,-3.000000,47.000000,19.000000,0.000000,-16.000000,-24.000000,-21.000000,-2.000000
1305294.040234,10.000000,-11.000000,-6.000000,8.000000,-1.000000,6.000000,6.000000,12.000000
1305294.040249,0.000000,-26.000000,-15.000000,-2.000000,11.000000,-3.000000,-21.000000,-18.000000
1305294.040992,-7.000000,31.000000,8.000000,4.000000,-1.000000,3.000000,2.000000,-12.000000
1305294.041009,-8.000000,15.000000,45.000000,28.000000,33.000000,-5.000000,-6.000000,-5.000000
1305294.041506,-73.000000,-13.000000,-53.000000,-26.000000,-17.000000,-3.000000,2.000000,-11.000000
1305294.041516,80.000000,26.000000,10.000000,8.000000,7.000000,8.000000,10.000000,29.000000
1305294.043048,-14.000000,-3.000000,20.000000,22.000000,16.000000,-7.000000,2.000000,0.000000
1305294.043064,-9.000000,-1.000000,18.000000,-23.000000,-33.000000,0.000000,-8.000000,-12.000000
1305294.047137,-4.000000,1.000000,-19.000000,2.000000,11.000000,2.000000,-2.000000,9.000000
1305294.047164,-14.000000,-7.000000,43.000000,13.000000,8.000000,-2.000000,-9.000000,-10.000000
1305294.062567,12.000000,-3.000000,-3.000000,-12.000000,-45.000000,-19.000000,3.000000,4.000000
1305294.062583,7.000000,-6.000000,-17.000000,-9.000000,-8.000000,-10.000000,1.000000,-5.000000
1305294.077162,-1.000000,1.000000,11.000000,7.000000,9.000000,11.000000,16.000000,13.000000
1305294.077188,4.000000,-3.000000,6.000000,4.000000,3.000000,20.000000,11.000000,13.000000
1305294.078519,-8.000000,5.000000,-11.000000,-2.000000,12.000000,3.000000,4.000000,1.000000
1305294.078527,-6.000000,22.000000,14.000000,10.000000,13.000000,15.000000,12.000000,7.000000
1305294.100139,5.000000,-6.000000,-10.000000,-3.000000,1.000000,-6.000000,3.000000,-4.000000
1305294.100170,-12.000000,-23.000000,-21.000000,-8.000000,-2.000000,-7.000000,-29.000000,-23.000000
1305294.129899,23.000000,-3.000000,-15.000000,9.000000,13.000000,-5.000000,15.000000,10.000000
1305294.129910,1.000000,19.000000,41.000000,0.000000,-8.000000,-4.000000,9.000000,6.000000
1305294.137298,-18.000000,8.000000,8.000000,-7.000000,1.000000,0.000000,-6.000000,-13.000000
1305294.137322,-17.000000,-20.000000,-4.000000,0.000000,1.000000,-6.000000,-1.000000,8.000000
1305294.159943,19.000000,20.000000,45.000000,23.000000,22.000000,22.000000,29.000000,18.000000
1305294.159955,-4.000000,-15.000000,-23.000000,-7.000000,6.000000,-7.000000,5.000000,8.000000
1305294.160345,-5.000000,21.000000,12.000000,4.000000,2.000000,-1.000000,-7.000000,-11.000000
1305294.160355,-13.000000,-23.000000,10.000000,-14.000000,-41.000000,-22.000000,-1.000000,2.000000
1305294.161442,22.000000,7.000000,-43.000000,-13.000000,1.000000,11.000000,1.000000,13.000000
1305294.161451,3.000000,-1.000000,-10.000000,0.000000,-2.000000,-5.000000,-10.000000,-5.000000
1305294.162065,-9.000000,-13.000000,4.000000,13.000000,14.000000,-13.000000,-21.000000,-13.000000
1305294.162075,-8.000000,-8.000000,-25.000000,-6.000000,7.000000,9.000000,5.000000,4.000000
1305294.164068,12.000000,-4.000000,31.000000,12.000000,7.000000,5.000000,-2.000000,2.000000
1305294.164081,-16.000000,17.000000,32.000000,13.000000,9.000000,-5.000000,18.000000,14.000000
1305294.167546,69.000000,-23.000000,-7.000000,1.000000,18.000000,7.000000,19.000000,35.000000
1305294.167559,-8.000000,1.000000,-14.000000,-11.000000,-6.000000,-3.000000,-4.000000,-11.000000
1305294.182475,-27.000000,-15.000000,1.000000,-1.000000,-3.000000,-5.000000,-6.000000,-11.000000
1305294.182489,-3.000000,-4.000000,7.000000,-3.000000,-6.000000,-1.000000,-3.000000,-4.000000
1305294.197145,-15.000000,-3.000000,24.000000,-21.000000,-26.000000,-33.000000,-10.000000,-12.000000
1305294.197155,-16.000000,4.000000,-7.000000,29.000000,24.000000,-9.000000,-8.000000,-7.000000
1305294.198541,21.000000,-25.000000,-52.000000,-18.000000,-25.000000,6.000000,2.000000,3.000000
1305294.198558,-8.000000,1.000000,9.000000,0.000000,-2.000000,5.000000,5.000000,-3.000000
1305294.220041,-19.000000,2.000000,36.000000,8.000000,11.000000,5.000000,-13.000000,-8.000000
1305294.220055,18.000000,0.000000,-15.000000,2.000000,12.000000,13.000000,46.000000,41.000000
1305294.242276,-2.000000,9.000000,39.000000,12.000000,6.000000,0.000000,0.000000,-7.000000
1305294.242293,-2.000000,-22.000000,-19.000000,2.000000,10.000000,-5.000000,2.000000,1.000000
1305294.257428,-26.000000,-33.000000,-14.000000,-12.000000,-19.000000,-2.000000,-12.000000,-17.000000
1305294.257439,40.000000,51.000000,50.000000,17.000000,36.000000,9.000000,11.000000,12.000000
1305294.279833,12.000000,-13.000000,-31.000000,-7.000000,-3.000000,-9.000000,-13.000000,-10.000000
1305294.279850,-5.000000,-2.000000,-10.000000,16.000000,28.000000,8.000000,30.000000,7.000000
1305294.294619,17.000000,-3.000000,7.000000,12.000000,-6.000000,-8.000000,0.000000,11.000000
1305294.294649,-12.000000,-11.000000,-81.000000,-11.000000,15.000000,-7.000000,-10.000000,-7.000000
1305294.295621,1.000000,21.000000,-9.000000,-11.000000,-12.000000,9.000000,0.000000,0.000000
1305294.295648,-10.000000,-1.000000,23.000000,12.000000,11.000000,2.000000,0.000000,7.000000
1305294.296322,12.000000,-3.000000,60.000000,-6.000000,3.000000,-2.000000,-10.000000,-22.000000
1305294.296348,-4.000000,-16.000000,-6.000000,-6.000000,-2.000000,1.000000,10.000000,13.000000
1305294.297598,-4.000000,11.000000,-29.000000,8.000000,7.000000,-3.000000,-25.000000,-8.000000
1305294.297625,12.000000,30.000000,22.000000,0.000000,8.000000,3.000000,18.000000,18.000000
1305294.302235,2.000000,27.000000,12.000000,-7.000000,-15.000000,-13.000000,-5.000000,-12.000000
1305294.302245,-13.000000,-17.000000,8.000000,1.000000,-8.000000,3.000000,1.000000,6.000000
1305294.317262,-5.000000,-2.000000,-82.000000,-39.000000,-23.000000,0.000000,15.000000,0.000000
1305294.317273,-46.000000,3.000000,29.000000,-11.000000,-21.000000,4.000000,-8.000000,-14.000000
1305294.318656,62.000000,2.000000,-9.000000,8.000000,19.000000,2.000000,0.000000,6.000000
1305294.318666,6.000000,13.000000,9.000000,3.000000,-15.000000,-14.000000,6.000000,19.000000
1305294.339656,-25.000000,11.000000,60.000000,2.000000,3.000000,0.000000,-7.000000,-4.000000
1305294.339666,-1.000000,-1.000000,-10.000000,-7.000000,-1.000000,0.000000,-5.000000,-6.000000
1305294.362287,1.000000,7.000000,-14.000000,20.000000,20.000000,-13.000000,-6.000000,11.000000
1305294.362298,22.000000,2.000000,21.000000,-7.000000,-14.000000,9.000000,1.000000,2.000000
1305294.377258,-15.000000,-2.000000,-21.000000,-20.000000,-16.000000,-2.000000,2.000000,-5.000000
1305294.377279,7.000000,36.000000,93.000000,29.000000,23.000000,-8.000000,-14.000000,-5.000000
1305294.407359,-17.000000,-27.000000,-13.000000,-23.000000,-34.000000,-8.000000,2.000000,-15.000000
1305294.407370,7.000000,-1.000000,-4.000000,-5.000000,-2.000000,8.000000,-10.000000,6.000000
1305294.414751,4.000000,12.000000,-24.000000,-6.000000,-10.000000,-13.000000,2.000000,6.000000
1305294.414761,1.000000,21.000000,16.000000,11.000000,8.000000,-3.000000,-15.000000,-4.000000
1305294.437613,-2.000000,-3.000000,36.000000,4.000000,7.000000,16.000000,7.000000,-7.000000
1305294.437626,-1.000000,-6.000000,35.000000,14.000000,12.000000,2.000000,24.000000,9.000000
1305294.444894,-17.000000,-33.000000,-20.000000,-3.000000,1.000000,-2.000000,-7.000000,-7.000000
1305294.444907,37.000000,40.000000,-11.000000,22.000000,40.000000,15.000000,6.000000,10.000000
1305294.474659,-21.000000,-10.000000,28.000000,15.000000,15.000000,-3.000000,-3.000000,-13.000000
1305294.474688,14.000000,9.000000,3.000000,26.000000,24.000000,-2.000000,6.000000,12.000000
1305294.482337,-3.000000,7.000000,-13.000000,-22.000000,-26.000000,3.000000,6.000000,4.000000
1305294.482348,9.000000,31.000000,35.000000,16.000000,16.000000,9.000000,2.000000,6.000000
1305294.512520,9.000000,12.000000,25.000000,-25.000000,-53.000000,7.000000,2.000000,-2.000000
1305294.512532,0.000000,4.000000,31.000000,-1.000000,2.000000,-2.000000,-2.000000,-6.000000
1305294.520277,-1.000000,-11.000000,-33.000000,7.000000,-7.000000,-6.000000,-1.000000,1.000000
1305294.520344,-6.000000,1.000000,30.000000,7.000000,2.000000,-1.000000,-13.000000,-3.000000
1305294.521552,-4.000000,-18.000000,-7.000000,0.000000,-4.000000,-4.000000,-15.000000,-13.000000
1305294.521562,-20.000000,29.000000,-16.000000,-3.000000,1.000000,2.000000,2.000000,0.000000
1305294.523082,-7.000000,-36.000000,4.000000,1.000000,5.000000,-17.000000,-6.000000,-15.000000
1305294.523105,-4.000000,25.000000,109.000000,5.000000,-13.000000,6.000000,-7.000000,-7.000000
1305294.527148,81.000000,28.000000,12.000000,5.000000,-23.000000,7.000000,19.000000,42.000000
1305294.527159,-14.000000,-13.000000,-51.000000,-15.000000,4.000000,0.000000,-12.000000,-14.000000
1305294.557554,-2.000000,18.000000,42.000000,-10.000000,-24.000000,3.000000,-26.000000,-7.000000
1305294.557566,2.000000,9.000000,-7.000000,21.000000,12.000000,1.000000,-4.000000,-4.000000
1305294.557896,8.000000,-19.000000,-78.000000,-29.000000,1.000000,-3.000000,2.000000,9.000000
1305294.557930,-27.000000,-14.000000,-33.000000,13.000000,14.000000,-3.000000,0.000000,-11.000000
1305294.559508,-2.000000,23.000000,51.000000,-14.000000,-15.000000,12.000000,2.000000,2.000000
1305294.559519,11.000000,21.000000,2.000000,-6.000000,-15.000000,-18.000000,-6.000000,-8.000000
1305294.572403,1.000000,21.000000,53.000000,33.000000,34.000000,20.000000,-1.000000,5.000000
1305294.572414,7.000000,-27.000000,-32.000000,-9.000000,-8.000000,1.000000,23.000000,24.000000
1305294.587502,-34.000000,13.000000,-44.000000,-18.000000,-23.000000,-8.000000,-3.000000,-13.000000
1305294.587513,26.000000,-6.000000,49.000000,15.000000,20.000000,-8.000000,-22.000000,-9.000000
1305294.594945,10.000000,-1.000000,38.000000,9.000000,3.000000,3.000000,19.000000,17.000000
1305294.594955,-15.000000,2.000000,-4.000000,2.000000,20.000000,7.000000,-8.000000,-8.000000
1305294.617861,-11.000000,-20.000000,14.000000,3.000000,4.000000,-7.000000,-9.000000,-13.000000
1305294.617876,21.000000,17.000000,-41.000000,-19.000000,-12.000000,-7.000000,8.000000,33.000000
1305294.632245,-2.000000,7.000000,-6.000000,3.000000,2.000000,0.000000,-6.000000,-13.000000
1305294.632286,-9.000000,0.000000,-64.000000,-15.000000,-8.000000,-6.000000,16.000000,3.000000
1305294.633271,-6.000000,9.000000,32.000000,32.000000,24.000000,-3.000000,-7.000000,-10.000000
1305294.633279,-33.000000,-2.000000,7.000000,-10.000000,-11.000000,12.000000,-9.000000,-1.000000
1305294.634200,34.000000,12.000000,-30.000000,2.000000,4.000000,-1.000000,-1.000000,1.000000
1305294.634222,-13.000000,-4.000000,41.000000,4.000000,0.000000,-21.000000,-7.000000,-5.000000
1305294.640645,-5.000000,1.000000,6.000000,0.000000,2.000000,4.000000,-8.000000,-9.000000
1305294.640683,-14.000000,-35.000000,-37.000000,-22.000000,-51.000000,-8.000000,4.000000,-1.000000
1305294.647813,33.000000,27.000000,37.000000,8.000000,11.000000,1.000000,9.000000,10.000000
1305294.647829,-4.000000,21.000000,-6.000000,5.000000,14.000000,7.000000,15.000000,2.000000
1305294.677135,-10.000000,-14.000000,-8.000000,5.000000,-5.000000,-8.000000,-8.000000,-3.000000
1305294.677147,-29.000000,-31.000000,-102.000000,-17.000000,14.000000,-25.000000,-38.000000,-24.000000
1305294.677792,19.000000,23.000000,9.000000,-23.000000,-42.000000,16.000000,32.000000,33.000000
1305294.677814,-3.000000,-5.000000,0.000000,5.000000,15.000000,5.000000,1.000000,-2.000000
1305294.679192,-20.000000,-12.000000,-3.000000,-5.000000,-8.000000,3.000000,10.000000,12.000000
1305294.679220,34.000000,0.000000,-27.000000,-6.000000,-17.000000,-19.000000,-15.000000,-8.000000
1305294.692803,-14.000000,-25.000000,-11.000000,-43.000000,-38.000000,0.000000,0.000000,0.000000
1305294.692848,-6.000000,24.000000,12.000000,15.000000,11.000000,-3.000000,-4.000000,-9.000000
1305294.715009,-20.000000,-22.000000,34.000000,-2.000000,11.000000,-3.000000,11.000000,11.000000
1305294.715028,38.000000,17.000000,-8.000000,-12.000000,-12.000000,2.000000,1.000000,11.000000
1305294.722347,-8.000000,-12.000000,34.000000,10.000000,0.000000,-7.000000,-7.000000,-14.000000
1305294.722358,3.000000,0.000000,-4.000000,3.000000,13.000000,-10.000000,0.000000,6.000000
1305294.737242,-6.000000,-14.000000,-22.000000,3.000000,-6.000000,-6.000000,2.000000,13.000000
1305294.737252,-1.000000,-5.000000,43.000000,17.000000,9.000000,3.000000,-5.000000,10.000000
1305294.752214,-25.000000,32.000000,-5.000000,20.000000,4.000000,-3.000000,12.000000,4.000000
1305294.752224,49.000000,19.000000,22.000000,8.000000,10.000000,20.000000,5.000000,16.000000
1305294.753414,0.000000,16.000000,-64.000000,-16.000000,-14.000000,-10.000000,-5.000000,-10.000000
1305294.753442,-14.000000,3.000000,1.000000,-8.000000,1.000000,-3.000000,-8.000000,-7.000000
1305294.754398,-16.000000,-12.000000,12.000000,3.000000,11.000000,11.000000,15.000000,2.000000
1305294.754406,36.000000,15.000000,-13.000000,-18.000000,-9.000000,9.000000,18.000000,14.000000
1305294.760597,-4.000000,-13.000000,11.000000,-1.000000,-5.000000,-2.000000,1.000000,-1.000000
1305294.760626,-19.000000,-11.000000,-10.000000,3.000000,2.000000,-3.000000,-5.000000,-13.000000
1305294.767653,-9.000000,3.000000,13.000000,9.000000,7.000000,1.000000,-15.000000,-8.000000
1305294.767688,5.000000,4.000000,-24.000000,-9.000000,5.000000,24.000000,17.000000,13.000000
1305294.789776,-22.000000,3.000000,62.000000,17.000000,-1.000000,-14.000000,-18.000000,-18.000000
1305294.789803,13.000000,12.000000,-43.000000,-7.000000,15.000000,17.000000,26.000000,17.000000
1305294.790672,28.000000,10.000000,-4.000000,-16.000000,-7.000000,1.000000,-11.000000,1.000000
1305294.790695,3.000000,10.000000,9.000000,6.000000,1.000000,-9.000000,1.000000,-2.000000
1305294.798251,6.000000,-11.000000,-58.000000,11.000000,5.000000,-14.000000,7.000000,5.000000
1305294.798351,-3.000000,19.000000,-32.000000,-30.000000,-26.000000,7.000000,7.000000,-3.000000
1305294.812644,-20.000000,-25.000000,-41.000000,-18.000000,-7.000000,-2.000000,-2.000000,-1.000000
1305294.812655,1.000000,-2.000000,-6.000000,13.000000,17.000000,14.000000,4.000000,5.000000
1305294.849914,-9.000000,51.000000,61.000000,24.000000,9.000000,-8.000000,-12.000000,-26.000000
1305294.849924,9.000000,-29.000000,-11.000000,-30.000000,-27.000000,2.000000,1.000000,9.000000
1305294.857281,14.000000,37.000000,35.000000,4.000000,4.000000,0.000000,-24.000000,-2.000000
1305294.857317,-23.000000,-4.000000,-30.000000,7.000000,10.000000,-3.000000,-19.000000,-12.000000
1305294.872735,-14.000000,-11.000000,32.000000,-5.000000,-1.000000,-1.000000,-8.000000,8.000000
1305294.872764,1.000000,-4.000000,-21.000000,7.000000,12.000000,1.000000,-16.000000,-13.000000
1305294.873311,-4.000000,-21.000000,-14.000000,-14.000000,-28.000000,-4.000000,28.000000,13.000000
1305294.873320,-7.000000,0.000000,32.000000,-12.000000,-5.000000,-17.000000,-17.000000,-18.000000
1305294.874797,-5.000000,-10.000000,-62.000000,24.000000,40.000000,-2.000000,8.000000,20.000000
1305294.874827,8.000000,13.000000,39.000000,-13.000000,-31.000000,13.000000,14.000000,17.000000
1305294.875710,-27.000000,-36.000000,-14.000000,9.000000,16.000000,-10.000000,-6.000000,-8.000000
1305294.875738,52.000000,37.000000,21.000000,4.000000,-21.000000,-13.000000,-1.000000,2.000000
1305294.880887,-5.000000,10.000000,-21.000000,-16.000000,-12.000000,-2.000000,4.000000,-10.000000
1305294.880916,-8.000000,-20.000000,-7.000000,12.000000,16.000000,14.000000,4.000000,1.000000
1305294.887879,-19.000000,27.000000,51.000000,15.000000,4.000000,12.000000,10.000000,18.000000
1305294.887891,5.000000,-10.000000,-47.000000,-12.000000,-9.000000,-20.000000,-20.000000,-20.000000
1305294.910033,3.000000,-10.000000,0.000000,0.000000,-16.000000,3.000000,-2.000000,4.000000
1305294.910048,3.000000,8.000000,7.000000,-7.000000,5.000000,-10.000000,6.000000,-3.000000
1305294.910569,-28.000000,-38.000000,9.000000,-26.000000,-29.000000,-6.000000,-20.000000,-18.000000
1305294.910593,-7.000000,-18.000000,11.000000,-3.000000,-3.000000,-13.000000,-4.000000,-5.000000
1305294.917914,10.000000,-15.000000,-35.000000,-9.000000,1.000000,-1.000000,4.000000,2.000000
1305294.917923,-14.000000,-4.000000,15.000000,18.000000,13.000000,-1.000000,-12.000000,-14.000000
1305294.932382,4.000000,15.000000,3.000000,-22.000000,-24.000000,2.000000,12.000000,11.000000
1305294.932392,-14.000000,-27.000000,-38.000000,-4.000000,4.000000,-2.000000,-2.000000,-1.000000
1305294.962632,9.000000,23.000000,-17.000000,0.000000,17.000000,12.000000,-7.000000,-7.000000
1305294.962654,0.000000,-1.000000,12.000000,7.000000,5.000000,-6.000000,-4.000000,-9.000000
1305294.970064,-18.000000,-25.000000,-24.000000,-2.000000,11.000000,8.000000,11.000000,-6.000000
1305294.970093,28.000000,-7.000000,-6.000000,-7.000000,-26.000000,3.000000,7.000000,18.000000
1305294.992325,-7.000000,-10.000000,-10.000000,8.000000,6.000000,-7.000000,-7.000000,-6.000000
1305294.992340,-5.000000,0.000000,-22.000000,-6.000000,6.000000,-8.000000,-9.000000,-4.000000
1305295.000000,-2.000000,0.000000,54.000000,-36.000000,-55.000000,8.000000,0.000000,-7.000000
1305295.000030,22.000000,-20.000000,-108.000000,-17.000000,1.000000,0.000000,-1.000000,12.000000
1305295.014954,-10.000000,2.000000,-7.000000,-20.000000,-14.000000,0.000000,-6.000000,-13.000000
1305295.014965,1.000000,-1.000000,16.000000,7.000000,-9.000000,-19.000000,-4.000000,-2.000000
1305295.029876,-23.000000,-11.000000,-9.000000,-12.000000,-11.000000,0.000000,-5.000000,-13.000000
1305295.029891,27.000000,7.000000,18.000000,2.000000,-1.000000,5.000000,8.000000,10.000000
1305295.030913,-5.000000,-1.000000,-1.000000,6.000000,16.000000,-2.000000,0.000000,-2.000000
1305295.030924,-15.000000,17.000000,60.000000,22.000000,8.000000,-5.000000,-8.000000,-15.000000
1305295.031856,3.000000,-25.000000,-4.000000,-23.000000,-40.000000,-4.000000,11.000000,7.000000
1305295.031878,-7.000000,-3.000000,-12.000000,2.000000,6.000000,-7.000000,-4.000000,-5.000000
1305295.032827,-1.000000,14.000000,8.000000,-7.000000,-14.000000,-7.000000,-5.000000,-5.000000
1305295.032837,9.000000,-3.000000,38.000000,7.000000,1.000000,-6.000000,-2.000000,11.000000
1305295.033735,2.000000,12.000000,-52.000000,-11.000000,5.000000,0.000000,5.000000,6.000000
1305295.033747,-34.000000,-22.000000,9.000000,5.000000,4.000000,0.000000,-12.000000,-4.000000
1305295.067468,22.000000,14.000000,-2.000000,-6.000000,5.000000,9.000000,9.000000,5.000000
1305295.067488,0.000000,-25.000000,20.000000,11.000000,-2.000000,-3.000000,3.000000,-12.000000
1305295.074933,-19.000000,-13.000000,-61.000000,-7.000000,11.000000,-3.000000,-19.000000,-11.000000
1305295.074953,43.000000,56.000000,46.000000,-21.000000,-24.000000,-6.000000,-4.000000,1.000000
1305295.090109,-7.000000,-4.000000,42.000000,25.000000,13.000000,15.000000,0.000000,-5.000000
1305295.090132,-59.000000,-14.000000,-89.000000,-31.000000,2.000000,21.000000,7.000000,-4.000000
1305295.104753,44.000000,1.000000,11.000000,3.000000,-2.000000,-5.000000,7.000000,7.000000
1305295.104764,-9.000000,-7.000000,0.000000,3.000000,-4.000000,-1.000000,-4.000000,-1.000000
1305295.127332,2.000000,14.000000,30.000000,5.000000,-8.000000,-12.000000,0.000000,-1.000000
1305295.127348,-15.000000,-13.000000,1.000000,24.000000,34.000000,-3.000000,3.000000,-7.000000
1305295.127701,8.000000,30.000000,25.000000,-8.000000,-11.000000,11.000000,8.000000,5.000000
1305295.127709,-3.000000,-5.000000,15.000000,-7.000000,-13.000000,-1.000000,6.000000,6.000000
1305295.129151,-12.000000,-40.000000,-48.000000,1.000000,2.000000,-16.000000,0.000000,-9.000000
1305295.129164,-3.000000,25.000000,16.000000,-21.000000,-18.000000,15.000000,6.000000,1.000000
1305295.129783,6.000000,2.000000,-28.000000,-12.000000,5.000000,-5.000000,1.000000,3.000000
1305295.129801,-8.000000,16.000000,22.000000,16.000000,-1.000000,-15.000000,-14.000000,-11.000000
1305295.134664,-71.000000,-9.000000,-50.000000,-17.000000,-19.000000,-14.000000,-3.000000,-13.000000
1305295.134674,52.000000,2.000000,21.000000,10.000000,13.000000,8.000000,0.000000,11.000000
1305295.142531,5.000000,9.000000,44.000000,5.000000,4.000000,2.000000,5.000000,10.000000
1305295.142581,-30.000000,-18.000000,36.000000,9.000000,11.000000,2.000000,-19.000000,-14.000000
1305295.150087,17.000000,4.000000,-6.000000,-13.000000,-19.000000,8.000000,7.000000,6.000000
1305295.150097,-5.000000,-5.000000,-15.000000,-7.000000,0.000000,-2.000000,-4.000000,-7.000000
1305295.172382,-6.000000,19.000000,58.000000,2.000000,-5.000000,1.000000,4.000000,0.000000
1305295.172411,11.000000,-8.000000,-13.000000,-7.000000,-3.000000,15.000000,7.000000,15.000000
1305295.195085,1.000000,9.000000,-33.000000,-12.000000,-3.000000,-2.000000,21.000000,16.000000
1305295.195107,-46.000000,18.000000,7.000000,14.000000,9.000000,-4.000000,-16.000000,-15.000000
1305295.232380,37.000000,-12.000000,35.000000,7.000000,-17.000000,-26.000000,18.000000,6.000000
1305295.232406,-21.000000,33.000000,-5.000000,-13.000000,-19.000000,-15.000000,-13.000000,-10.000000
1305295.232700,1.000000,-5.000000,-32.000000,-7.000000,10.000000,-4.000000,-11.000000,-13.000000
1305295.232709,-9.000000,-15.000000,-30.000000,-13.000000,-7.000000,8.000000,3.000000,2.000000
1305295.233999,0.000000,15.000000,119.000000,24.000000,14.000000,-4.000000,-8.000000,-4.000000
1305295.234014,-11.000000,12.000000,26.000000,-2.000000,-14.000000,-10.000000,-15.000000,-13.000000
1305295.234578,16.000000,-1.000000,-27.000000,-12.000000,-2.000000,8.000000,7.000000,10.000000
1305295.234587,-30.000000,0.000000,-17.000000,-23.000000,-24.000000,-7.000000,-3.000000,-13.000000
1305295.235944,55.000000,15.000000,11.000000,20.000000,22.000000,11.000000,-1.000000,13.000000
1305295.235952,1.000000,7.000000,41.000000,5.000000,-18.000000,5.000000,3.000000,-7.000000
1305295.247924,12.000000,28.000000,-26.000000,8.000000,8.000000,-1.000000,-8.000000,-8.000000
1305295.247936,-1.000000,3.000000,71.000000,17.000000,25.000000,9.000000,16.000000,18.000000
1305295.254819,-6.000000,-12.000000,-3.000000,-15.000000,-17.000000,-17.000000,-2.000000,-10.000000
1305295.254835,0.000000,1.000000,-4.000000,10.000000,6.000000,-4.000000,2.000000,-3.000000
1305295.269675,-7.000000,-8.000000,-56.000000,-16.000000,-4.000000,7.000000,4.000000,8.000000
1305295.269685,5.000000,4.000000,47.000000,14.000000,16.000000,9.000000,-3.000000,-12.000000
1305295.270347,3.000000,11.000000,12.000000,-2.000000,-7.000000,-6.000000,4.000000,14.000000
1305295.270380,-5.000000,0.000000,-17.000000,0.000000,15.000000,3.000000,-7.000000,0.000000
1305295.292224,0.000000,-17.000000,-37.000000,-3.000000,-5.000000,-3.000000,9.000000,2.000000
1305295.292252,-2.000000,-2.000000,5.000000,-11.000000,-20.000000,3.000000,6.000000,2.000000
1305295.307427,-9.000000,-40.000000,-34.000000,-12.000000,-8.000000,-4.000000,-4.000000,2.000000
1305295.307441,-10.000000,23.000000,13.000000,4.000000,5.000000,10.000000,-16.000000,-17.000000
1305295.329778,12.000000,-2.000000,-36.000000,-3.000000,9.000000,1.000000,53.000000,29.000000
1305295.329788,3.000000,-9.000000,62.000000,-20.000000,-14.000000,7.000000,-6.000000,-5.000000
1305295.344759,-13.000000,-15.000000,-54.000000,-13.000000,-20.000000,-11.000000,-13.000000,-21.000000
1305295.344769,-13.000000,4.000000,-6.000000,7.000000,16.000000,1.000000,-5.000000,1.000000
1305295.352877,-7.000000,-5.000000,23.000000,-5.000000,-39.000000,-15.000000,-5.000000,-5.000000
1305295.352887,-47.000000,6.000000,29.000000,9.000000,12.000000,5.000000,-8.000000,-11.000000
1305295.353394,33.000000,-17.000000,17.000000,4.000000,-15.000000,10.000000,7.000000,0.000000
1305295.353402,-3.000000,1.000000,-8.000000,-1.000000,6.000000,-4.000000,-1.000000,4.000000
1305295.354544,-6.000000,-14.000000,80.000000,16.000000,22.000000,3.000000,6.000000,-1.000000
1305295.354552,-11.000000,6.000000,27.000000,-1.000000,-18.000000,-6.000000,-15.000000,0.000000
1305295.355429,5.000000,-3.000000,-43.000000,2.000000,16.000000,13.000000,11.000000,0.000000
1305295.355438,-3.000000,-5.000000,12.000000,14.000000,16.000000,11.000000,-5.000000,-3.000000
1305295.360559,-5.000000,-24.000000,-29.000000,-7.000000,1.000000,-6.000000,-2.000000,-4.000000
1305295.360568,-4.000000,18.000000,17.000000,-19.000000,-20.000000,0.000000,-8.000000,-14.000000
1305295.389711,-2.000000,-3.000000,6.000000,9.000000,8.000000,-1.000000,-2.000000,-9.000000
1305295.389731,5.000000,-25.000000,-9.000000,16.000000,-1.000000,-2.000000,18.000000,13.000000
1305295.390624,8.000000,27.000000,0.000000,-2.000000,26.000000,5.000000,-22.000000,-14.000000
1305295.390633,-6.000000,-1.000000,0.000000,-47.000000,-77.000000,-9.000000,2.000000,-3.000000
1305295.391676,-29.000000,-43.000000,-33.000000,3.000000,-1.000000,-6.000000,-6.000000,-14.000000
1305295.391685,5.000000,10.000000,26.000000,11.000000,9.000000,0.000000,3.000000,2.000000
1305295.412383,-22.000000,-33.000000,-21.000000,11.000000,16.000000,2.000000,-6.000000,-4.000000
1305295.412394,-24.000000,0.000000,-57.000000,-1.000000,3.000000,-4.000000,-3.000000,-1.000000
1305295.427182,30.000000,8.000000,-11.000000,-22.000000,-1.000000,-7.000000,-8.000000,-2.000000
1305295.427193,-12.000000,-17.000000,17.000000,15.000000,1.000000,5.000000,-11.000000,-5.000000
1305295.449971,0.000000,-6.000000,-56.000000,1.000000,-2.000000,3.000000,3.000000,-1.000000
1305295.449981,-18.000000,-8.000000,-8.000000,-9.000000,-21.000000,-23.000000,-2.000000,-7.000000
1305295.464763,-1.000000,2.000000,-12.000000,0.000000,-5.000000,5.000000,7.000000,-11.000000
1305295.464777,-15.000000,-8.000000,2.000000,-4.000000,-11.000000,4.000000,-4.000000,-10.000000
1305295.466041,3.000000,-6.000000,4.000000,-5.000000,-10.000000,-8.000000,-24.000000,-8.000000
1305295.466076,6.000000,9.000000,11.000000,32.000000,33.000000,3.000000,27.000000,21.000000
1305295.466678,35.000000,2.000000,-1.000000,-38.000000,-36.000000,16.000000,-6.000000,9.000000
1305295.466687,0.000000,11.000000,9.000000,2.000000,-10.000000,-6.000000,-3.000000,1.000000
1305295.468006,-9.000000,-19.000000,-19.000000,-4.000000,-12.000000,-15.000000,-7.000000,-2.000000
1305295.468015,-10.000000,-3.000000,-2.000000,-7.000000,-12.000000,-20.000000,-14.000000,-5.000000
1305295.472662,-18.000000,-12.000000,1.000000,-5.000000,9.000000,-5.000000,-12.000000,-13.000000
1305295.472686,17.000000,28.000000,-1.000000,10.000000,4.000000,11.000000,17.000000,16.000000
1305295.480530,3.000000,11.000000,-33.000000,-3.000000,-4.000000,1.000000,-4.000000,5.000000
1305295.480571,-12.000000,-27.000000,-21.000000,-1.000000,1.000000,-5.000000,-4.000000,-4.000000
1305295.502379,-5.000000,26.000000,23.000000,3.000000,8.000000,0.000000,-4.000000,-9.000000
1305295.502389,20.000000,4.000000,-14.000000,-7.000000,-9.000000,-6.000000,-5.000000,4.000000
1305295.510354,-11.000000,-29.000000,-5.000000,5.000000,41.000000,13.000000,-4.000000,-11.000000
1305295.510364,-33.000000,-1.000000,14.000000,-13.000000,-15.000000,-7.000000,-12.000000,-7.000000
1305295.524731,20.000000,12.000000,38.000000,17.000000,11.000000,12.000000,29.000000,-1.000000
1305295.524741,2.000000,-5.000000,14.000000,22.000000,20.000000,-10.000000,-5.000000,0.000000
1305295.547604,-11.000000,-15.000000,-27.000000,-14.000000,-11.000000,-11.000000,-18.000000,-14.000000
1305295.547616,-27.000000,-42.000000,-68.000000,-16.000000,-1.000000,5.000000,-17.000000,-9.000000
1305295.569831,71.000000,59.000000,66.000000,22.000000,20.000000,9.000000,15.000000,30.000000
1305295.569854,-7.000000,35.000000,18.000000,-30.000000,-40.000000,-24.000000,-12.000000,-19.000000
1305295.592270,-19.000000,-7.000000,-3.000000,3.000000,-2.000000,0.000000,-8.000000,-14.000000
1305295.592282,-15.000000,-14.000000,-8.000000,-4.000000,4.000000,-2.000000,-1.000000,4.000000
1305295.592743,-15.000000,9.000000,17.000000,19.000000,7.000000,2.000000,-4.000000,2.000000
1305295.592754,14.000000,-5.000000,-7.000000,-16.000000,-22.000000,-5.000000,-9.000000,-3.000000
1305295.593798,-5.000000,8.000000,8.000000,-22.000000,-25.000000,-1.000000,0.000000,-4.000000
1305295.593805,-13.000000,-11.000000,-61.000000,9.000000,7.000000,-2.000000,-8.000000,-6.000000
1305295.594480,9.000000,-8.000000,45.000000,-1.000000,5.000000,1.000000,-12.000000,-13.000000
1305295.594488,3.000000,-1.000000,35.000000,-11.000000,-15.000000,6.000000,-4.000000,0.000000
1305295.595456,6.000000,-13.000000,-59.000000,-21.000000,-9.000000,-12.000000,-10.000000,-3.000000
1305295.595465,3.000000,23.000000,58.000000,6.000000,10.000000,1.000000,-1.000000,-5.000000
1305295.607363,6.000000,0.000000,-29.000000,-15.000000,-11.000000,-32.000000,-19.000000,-11.000000
1305295.607373,-8.000000,-49.000000,-22.000000,-4.000000,0.000000,12.000000,19.000000,17.000000
1305295.622125,4.000000,36.000000,23.000000,18.000000,2.000000,4.000000,4.000000,19.000000
1305295.622138,23.000000,-8.000000,-28.000000,-9.000000,3.000000,6.000000,-23.000000,-6.000000
1305295.623510,3.000000,-1.000000,-3.000000,11.000000,8.000000,2.000000,-2.000000,-1.000000
1305295.623523,-6.000000,-8.000000,4.000000,35.000000,23.000000,-1.000000,-10.000000,-6.000000
1305295.629636,-11.000000,-12.000000,-55.000000,-26.000000,-13.000000,7.000000,20.000000,3.000000
1305295.629647,-3.000000,-14.000000,-9.000000,14.000000,9.000000,-1.000000,-7.000000,-1.000000
1305295.644971,11.000000,7.000000,61.000000,3.000000,17.000000,5.000000,-6.000000,-6.000000
1305295.644982,-33.000000,-8.000000,39.000000,15.000000,4.000000,-8.000000,-7.000000,-15.000000
1305295.667230,5.000000,-1.000000,6.000000,7.000000,5.000000,-8.000000,-8.000000,-9.000000
1305295.667246,-5.000000,-14.000000,-42.000000,-34.000000,-22.000000,-4.000000,-18.000000,-30.000000
1305295.689965,0.000000,-4.000000,-27.000000,-2.000000,1.000000,11.000000,4.000000,-2.000000
1305295.689975,-11.000000,-1.000000,7.000000,4.000000,-11.000000,-21.000000,-10.000000,-9.000000
1305295.704860,-13.000000,2.000000,1.000000,5.000000,14.000000,0.000000,-13.000000,-6.000000
1305295.704871,17.000000,62.000000,21.000000,37.000000,25.000000,-1.000000,26.000000,22.000000
1305295.727709,0.000000,5.000000,57.000000,8.000000,8.000000,5.000000,-13.000000,1.000000
1305295.727741,10.000000,-29.000000,-101.000000,-15.000000,11.000000,4.000000,24.000000,15.000000
1305295.742643,-6.000000,-8.000000,-10.000000,6.000000,8.000000,-1.000000,-6.000000,-1.000000
1305295.742654,2.000000,6.000000,35.000000,7.000000,-11.000000,5.000000,-1.000000,2.000000
1305295.757228,-26.000000,-11.000000,-11.000000,6.000000,9.000000,2.000000,9.000000,-9.000000
1305295.757247,21.000000,6.000000,25.000000,19.000000,-4.000000,-21.000000,17.000000,3.000000
1305295.764789,4.000000,-16.000000,-20.000000,8.000000,9.000000,15.000000,-1.000000,10.000000
1305295.764799,-5.000000,-3.000000,-7.000000,-18.000000,10.000000,-1.000000,-9.000000,-18.000000
1305295.787396,3.000000,14.000000,-48.000000,-2.000000,13.000000,-1.000000,1.000000,-1.000000
1305295.787407,-4.000000,-12.000000,-21.000000,6.000000,9.000000,-6.000000,-6.000000,-5.000000
1305295.802360,-5.000000,9.000000,20.000000,14.000000,6.000000,7.000000,-2.000000,0.000000
1305295.802397,1.000000,-1.000000,48.000000,-1.000000,-7.000000,1.000000,5.000000,11.000000
1305295.809567,-6.000000,-9.000000,-14.000000,6.000000,11.000000,-2.000000,0.000000,-7.000000
1305295.809587,6.000000,-10.000000,5.000000,5.000000,9.000000,17.000000,24.000000,24.000000
1305295.824910,-7.000000,-9.000000,19.000000,4.000000,2.000000,-6.000000,-8.000000,-13.000000
1305295.824921,-1.000000,1.000000,-17.000000,-12.000000,-16.000000,-2.000000,3.000000,4.000000
1305295.825353,-15.000000,-18.000000,-21.000000,5.000000,17.000000,11.000000,-8.000000,-19.000000
1305295.825362,-9.000000,9.000000,36.000000,9.000000,12.000000,3.000000,-13.000000,-8.000000
1305295.825919,22.000000,1.000000,-5.000000,2.000000,1.000000,-2.000000,7.000000,7.000000
1305295.825927,3.000000,22.000000,4.000000,19.000000,25.000000,4.000000,8.000000,3.000000
1305295.826316,-1.000000,-31.000000,5.000000,19.000000,15.000000,5.000000,1.000000,-2.000000
1305295.826324,7.000000,7.000000,-46.000000,-17.000000,6.000000,-5.000000,-21.000000,-10.000000
1305295.828299,-8.000000,38.000000,23.000000,-6.000000,-3.000000,-14.000000,4.000000,2.000000
1305295.828310,-8.000000,-46.000000,-34.000000,-16.000000,-20.000000,1.000000,-10.000000,-10.000000
1305295.832163,11.000000,38.000000,38.000000,13.000000,16.000000,8.000000,19.000000,3.000000
1305295.832173,15.000000,-14.000000,-25.000000,2.000000,13.000000,-2.000000,-7.000000,-5.000000
1305295.847466,-44.000000,-21.000000,-32.000000,11.000000,2.000000,-1.000000,-7.000000,-15.000000
1305295.847505,13.000000,0.000000,39.000000,5.000000,-4.000000,-6.000000,9.000000,11.000000
1305295.862242,-3.000000,27.000000,-11.000000,-11.000000,3.000000,-2.000000,-11.000000,-8.000000
1305295.862253,4.000000,9.000000,-5.000000,-11.000000,-14.000000,1.000000,2.000000,0.000000
1305295.863536,-8.000000,-4.000000,29.000000,32.000000,17.000000,0.000000,14.000000,5.000000
1305295.863564,13.000000,-5.000000,-22.000000,-9.000000,5.000000,9.000000,1.000000,18.000000
1305295.870070,-3.000000,1.000000,-33.000000,6.000000,25.000000,18.000000,-33.000000,9.000000
1305295.870083,-4.000000,4.000000,-16.000000,-2.000000,3.000000,3.000000,-1.000000,-4.000000
1305295.899662,8.000000,5.000000,6.000000,24.000000,25.000000,-4.000000,7.000000,20.000000
1305295.899672,-4.000000,-14.000000,-43.000000,11.000000,35.000000,9.000000,-7.000000,-4.000000
1305295.907197,14.000000,13.000000,75.000000,-22.000000,-60.000000,8.000000,-4.000000,-1.000000
1305295.907206,-1.000000,19.000000,-5.000000,-12.000000,3.000000,3.000000,26.000000,9.000000
1305295.922512,-6.000000,8.000000,-12.000000,3.000000,10.000000,-4.000000,-7.000000,-15.000000
1305295.922524,-12.000000,-37.000000,-10.000000,8.000000,13.000000,-14.000000,-10.000000,-8.000000
1305295.944846,-25.000000,8.000000,16.000000,-12.000000,-21.000000,0.000000,-9.000000,-8.000000
1305295.944856,89.000000,12.000000,-4.000000,-2.000000,-5.000000,-2.000000,10.000000,19.000000
1305295.945753,13.000000,7.000000,9.000000,9.000000,4.000000,-5.000000,-7.000000,-10.000000
1305295.945763,-25.000000,0.000000,-35.000000,-1.000000,2.000000,-2.000000,3.000000,-10.000000
1305295.946390,-10.000000,-11.000000,16.000000,-11.000000,0.000000,1.000000,-21.000000,2.000000
1305295.946401,-7.000000,3.000000,-1.000000,2.000000,0.000000,1.000000,4.000000,-6.000000
1305295.947809,11.000000,12.000000,-16.000000,23.000000,37.000000,30.000000,40.000000,55.000000
1305295.947818,11.000000,5.000000,40.000000,-5.000000,-19.000000,-18.000000,13.000000,7.000000
1305295.959928,-13.000000,-11.000000,-53.000000,-12.000000,8.000000,-4.000000,-35.000000,-30.000000
1305295.959940,3.000000,-12.000000,-14.000000,2.000000,24.000000,20.000000,12.000000,11.000000
1305295.967477,-7.000000,10.000000,21.000000,12.000000,10.000000,-11.000000,-8.000000,-4.000000
1305295.967488,-4.000000,-14.000000,-18.000000,-36.000000,-47.000000,4.000000,1.000000,2.000000
1305295.982354,-2.000000,2.000000,4.000000,-10.000000,-22.000000,7.000000,-4.000000,-7.000000
1305295.982365,17.000000,43.000000,20.000000,17.000000,2.000000,1.000000,16.000000,14.000000
1305295.983453,-14.000000,-20.000000,-19.000000,7.000000,9.000000,5.000000,1.000000,3.000000
1305295.983461,-3.000000,-13.000000,-13.000000,-10.000000,6.000000,-3.000000,-7.000000,-11.000000
1305296.004851,-11.000000,10.000000,-52.000000,-6.000000,-19.000000,-12.000000,-9.000000,-13.000000
1305296.004862,15.000000,-16.000000,-46.000000,4.000000,10.000000,9.000000,1.000000,2.000000
1305296.027338,-23.000000,3.000000,76.000000,26.000000,7.000000,-24.000000,-2.000000,-1.000000
1305296.027350,27.000000,11.000000,-82.000000,-79.000000,-56.000000,8.000000,-2.000000,0.000000
1305296.042302,-14.000000,10.000000,-21.000000,3.000000,10.000000,-3.000000,-7.000000,-15.000000
1305296.042335,-22.000000,-22.000000,15.000000,18.000000,10.000000,-6.000000,10.000000,-5.000000
1305296.065161,-3.000000,25.000000,37.000000,20.000000,12.000000,13.000000,13.000000,19.000000
1305296.065170,8.000000,-5.000000,-115.000000,-10.000000,12.000000,-4.000000,-12.000000,-5.000000
1305296.065806,-31.000000,22.000000,42.000000,-16.000000,-40.000000,1.000000,-2.000000,-5.000000
1305296.065814,42.000000,-6.000000,3.000000,10.000000,4.000000,6.000000,0.000000,9.000000
1305296.067060,-2.000000,14.000000,-87.000000,-18.000000,-6.000000,-12.000000,-11.000000,9.000000
1305296.067067,3.000000,-2.000000,73.000000,15.000000,12.000000,-5.000000,5.000000,4.000000
1305296.067700,-31.000000,-19.000000,35.000000,-12.000000,-29.000000,2.000000,1.000000,-2.000000
1305296.067707,-8.000000,32.000000,-25.000000,-9.000000,4.000000,4.000000,-11.000000,-8.000000
1305296.072096,0.000000,-15.000000,14.000000,-30.000000,-73.000000,-21.000000,-13.000000,-5.000000
1305296.072105,0.000000,12.000000,83.000000,-11.000000,-7.000000,5.000000,3.000000,1.000000
1305296.095187,-30.000000,-11.000000,42.000000,2.000000,2.000000,-6.000000,-10.000000,-11.000000
1305296.095251,27.000000,13.000000,-31.000000,9.000000,15.000000,-1.000000,3.000000,2.000000
1305296.102437,3.000000,-9.000000,36.000000,22.000000,12.000000,6.000000,21.000000,10.000000
1305296.102448,-3.000000,-7.000000,-38.000000,-10.000000,-23.000000,-13.000000,-5.000000,-3.000000
1305296.103531,-9.000000,-1.000000,-54.000000,-12.000000,1.000000,-5.000000,-3.000000,-1.000000
1305296.103538,7.000000,16.000000,19.000000,-6.000000,-18.000000,5.000000,-1.000000,-6.000000
1305296.117274,14.000000,-3.000000,19.000000,11.000000,-3.000000,-3.000000,-8.000000,-6.000000
1305296.117284,16.000000,6.000000,-12.000000,-8.000000,18.000000,5.000000,0.000000,1.000000
1305296.147576,-18.000000,-48.000000,-5.000000,-16.000000,-19.000000,-7.000000,-10.000000,-24.000000
1305296.147587,0.000000,-9.000000,-18.000000,-15.000000,-28.000000,0.000000,14.000000,26.000000
1305296.154741,-9.000000,9.000000,16.000000,12.000000,12.000000,-2.000000,-24.000000,-22.000000
1305296.154750,5.000000,-11.000000,-14.000000,4.000000,-2.000000,2.000000,9.000000,8.000000
1305296.177292,-51.000000,-4.000000,-4.000000,10.000000,6.000000,-6.000000,-6.000000,-14.000000
1305296.177349,33.000000,19.000000,12.000000,-19.000000,-44.000000,-11.000000,3.000000,0.000000
1305296.177912,18.000000,-35.000000,-74.000000,-28.000000,15.000000,14.000000,9.000000,7.000000
1305296.177949,19.000000,5.000000,38.000000,1.000000,1.000000,8.000000,4.000000,-4.000000
1305296.179037,-13.000000,-14.000000,-64.000000,1.000000,3.000000,-16.000000,-1.000000,-7.000000
1305296.179055,-28.000000,-21.000000,13.000000,3.000000,13.000000,19.000000,0.000000,-18.000000
1305296.179652,2.000000,40.000000,32.000000,2.000000,-22.000000,-6.000000,10.000000,13.000000
1305296.179661,-2.000000,9.000000,-72.000000,-4.000000,2.000000,4.000000,-7.000000,-2.000000
1305296.184825,-11.000000,-24.000000,28.000000,8.000000,6.000000,-25.000000,-9.000000,-6.000000
1305296.184842,10.000000,33.000000,32.000000,7.000000,-40.000000,-10.000000,17.000000,11.000000
1305296.192434,-7.000000,0.000000,8.000000,4.000000,-4.000000,2.000000,-13.000000,-3.000000
1305296.192461,-6.000000,-10.000000,-36.000000,-1.000000,15.000000,10.000000,14.000000,2.000000
1305296.222562,-26.000000,-22.000000,94.000000,-13.000000,-24.000000,9.000000,7.000000,9.000000
1305296.222669,90.000000,63.000000,-42.000000,-17.000000,-9.000000,-1.000000,21.000000,35.000000
1305296.223054,-31.000000,-8.000000,52.000000,30.000000,16.000000,-3.000000,-19.000000,-28.000000
1305296.223070,10.000000,-2.000000,-52.000000,-42.000000,-30.000000,-8.000000,-1.000000,-8.000000
1305296.224300,-46.000000,-71.000000,27.000000,24.000000,26.000000,-6.000000,0.000000,-7.000000
1305296.224324,-7.000000,-12.000000,34.000000,-3.000000,-17.000000,3.000000,0.000000,-1.000000
1305296.237479,-3.000000,15.000000,11.000000,-8.000000,2.000000,-4.000000,1.000000,-8.000000
1305296.237501,2.000000,-27.000000,-38.000000,10.000000,21.000000,-10.000000,4.000000,2.000000
1305296.252250,-22.000000,-1.000000,-32.000000,-8.000000,17.000000,-18.000000,-14.000000,-11.000000
1305296.252260,-37.000000,-10.000000,20.000000,9.000000,-10.000000,-4.000000,-11.000000,-12.000000
1305296.259932,45.000000,2.000000,-43.000000,-1.000000,7.000000,-4.000000,-3.000000,9.000000
1305296.259960,1.000000,22.000000,52.000000,11.000000,7.000000,-3.000000,-10.000000,-12.000000
1305296.297456,-19.000000,-1.000000,-27.000000,-16.000000,-9.000000,-5.000000,-1.000000,-4.000000
1305296.297489,-18.000000,-26.000000,-18.000000,2.000000,-2.000000,-8.000000,-19.000000,-14.000000
1305296.305042,29.000000,7.000000,52.000000,-20.000000,-28.000000,7.000000,8.000000,13.000000
1305296.305055,-4.000000,-13.000000,77.000000,19.000000,2.000000,3.000000,6.000000,-2.000000
1305296.320168,2.000000,49.000000,25.000000,-8.000000,-2.000000,-1.000000,-7.000000,1.000000
1305296.320217,-24.000000,-16.000000,-3.000000,27.000000,34.000000,-8.000000,-10.000000,-22.000000
1305296.357143,18.000000,38.000000,-4.000000,-32.000000,-31.000000,-5.000000,3.000000,6.000000
1305296.357154,17.000000,12.000000,9.000000,6.000000,-3.000000,-4.000000,1.000000,2.000000
1305296.364908,-6.000000,-15.000000,-15.000000,-1.000000,6.000000,4.000000,3.000000,0.000000
1305296.364929,-10.000000,-9.000000,-10.000000,9.000000,18.000000,4.000000,-10.000000,-7.000000
1305296.395043,-1.000000,-5.000000,-65.000000,-4.000000,9.000000,5.000000,-6.000000,-9.000000
1305296.395055,2.000000,-21.000000,-18.000000,-2.000000,-5.000000,6.000000,15.000000,21.000000
1305296.402328,24.000000,21.000000,11.000000,17.000000,11.000000,-2.000000,0.000000,14.000000
1305296.402342,-2.000000,-6.000000,34.000000,-3.000000,-20.000000,1.000000,0.000000,0.000000
1305296.425067,-17.000000,-26.000000,1.000000,2.000000,-10.000000,-17.000000,-28.000000,-28.000000
1305296.425076,23.000000,10.000000,10.000000,12.000000,26.000000,37.000000,62.000000,65.000000
1305296.427324,-15.000000,-8.000000,66.000000,16.000000,5.000000,-5.000000,3.000000,-2.000000
1305296.427333,-9.000000,-30.000000,-34.000000,-6.000000,-4.000000,-10.000000,-8.000000,-1.000000
1305296.428116,-7.000000,-6.000000,-9.000000,-17.000000,-26.000000,-5.000000,-4.000000,-11.000000
1305296.428140,-16.000000,0.000000,15.000000,4.000000,8.000000,0.000000,-11.000000,-12.000000
1305296.440622,26.000000,7.000000,14.000000,8.000000,7.000000,0.000000,9.000000,9.000000
1305296.440633,6.000000,4.000000,-10.000000,5.000000,20.000000,5.000000,-3.000000,1.000000
1305296.454686,-12.000000,3.000000,24.000000,6.000000,9.000000,-7.000000,-6.000000,-6.000000
1305296.454702,-16.000000,-27.000000,-2.000000,-50.000000,-40.000000,-8.000000,-1.000000,-9.000000
1305296.455908,11.000000,-5.000000,61.000000,0.000000,-2.000000,1.000000,39.000000,38.000000
1305296.455917,9.000000,10.000000,20.000000,13.000000,13.000000,0.000000,-2.000000,0.000000
1305296.462170,4.000000,2.000000,3.000000,-31.000000,-41.000000,1.000000,0.000000,1.000000
1305296.462180,-23.000000,-31.000000,-10.000000,-4.000000,-2.000000,3.000000,-8.000000,-7.000000
1305296.485029,-21.000000,16.000000,-13.000000,13.000000,7.000000,-2.000000,19.000000,17.000000
1305296.485040,17.000000,-19.000000,24.000000,32.000000,47.000000,13.000000,1.000000,1.000000
1305296.492290,2.000000,29.000000,-45.000000,-22.000000,-3.000000,1.000000,6.000000,21.000000
1305296.492301,1.000000,-19.000000,35.000000,8.000000,17.000000,4.000000,6.000000,18.000000
1305296.514800,-12.000000,1.000000,-7.000000,-1.000000,-5.000000,5.000000,-12.000000,-15.000000
1305296.514836,3.000000,4.000000,45.000000,9.000000,-5.000000,-4.000000,4.000000,-4.000000
1305296.522457,-6.000000,-5.000000,-2.000000,17.000000,14.000000,-7.000000,-22.000000,-19.000000
1305296.522468,-30.000000,-5.000000,-16.000000,-3.000000,5.000000,4.000000,11.000000,7.000000
1305296.530227,11.000000,34.000000,20.000000,-22.000000,-30.000000,-3.000000,-3.000000,4.000000
1305296.530240,23.000000,18.000000,36.000000,30.000000,42.000000,7.000000,-1.000000,0.000000
1305296.537650,3.000000,17.000000,27.000000,-10.000000,-27.000000,9.000000,-4.000000,-5.000000
1305296.537759,-42.000000,-37.000000,-16.000000,7.000000,8.000000,-12.000000,-9.000000,-11.000000
1305296.538553,19.000000,-11.000000,-17.000000,-6.000000,9.000000,-1.000000,-2.000000,2.000000
1305296.538562,-11.000000,11.000000,-4.000000,12.000000,9.000000,-7.000000,-1.000000,-11.000000
1305296.544772,-13.000000,-10.000000,-2.000000,-8.000000,-20.000000,-11.000000,-4.000000,-2.000000
1305296.544795,-4.000000,-11.000000,-11.000000,-5.000000,-12.000000,-8.000000,-2.000000,-10.000000
1305296.560508,-22.000000,-6.000000,9.000000,15.000000,11.000000,6.000000,-4.000000,-7.000000
1305296.560522,13.000000,-18.000000,39.000000,2.000000,6.000000,5.000000,3.000000,2.000000
1305296.574986,6.000000,-4.000000,-32.000000,-25.000000,-9.000000,6.000000,-13.000000,-18.000000
1305296.574999,-24.000000,-16.000000,15.000000,3.000000,2.000000,20.000000,12.000000,24.000000
1305296.575994,43.000000,3.000000,-23.000000,6.000000,8.000000,4.000000,13.000000,4.000000
1305296.576122,5.000000,2.000000,16.000000,6.000000,13.000000,-4.000000,-6.000000,4.000000
1305296.590177,-8.000000,-3.000000,37.000000,12.000000,0.000000,-3.000000,0.000000,-4.000000
1305296.590189,-7.000000,-19.000000,-78.000000,-8.000000,8.000000,0.000000,1.000000,3.000000
1305296.619987,-6.000000,-18.000000,16.000000,-14.000000,-32.000000,-1.000000,6.000000,-4.000000
1305296.619998,2.000000,59.000000,58.000000,10.000000,27.000000,15.000000,-9.000000,-5.000000
1305296.627529,-7.000000,-7.000000,-16.000000,4.000000,0.000000,-13.000000,1.000000,0.000000
1305296.627541,-2.000000,-17.000000,5.000000,-2.000000,-4.000000,-2.000000,-4.000000,1.000000
1305296.657100,5.000000,-3.000000,26.000000,9.000000,14.000000,8.000000,3.000000,3.000000
1305296.657146,9.000000,8.000000,-60.000000,-9.000000,-14.000000,-12.000000,-15.000000,-5.000000
1305296.657551,21.000000,14.000000,21.000000,-6.000000,1.000000,-1.000000,-1.000000,-3.000000
1305296.657578,-13.000000,-20.000000,-27.000000,1.000000,-1.000000,-5.000000,-3.000000,-1.000000
1305296.658801,7.000000,52.000000,44.000000,15.000000,10.000000,-2.000000,-1.000000,-1.000000
1305296.658809,-2.000000,-8.000000,-9.000000,-13.000000,-22.000000,1.000000,0.000000,-4.000000
1305296.659488,-7.000000,-21.000000,19.000000,9.000000,11.000000,3.000000,13.000000,7.000000
1305296.659514,46.000000,7.000000,-59.000000,-3.000000,14.000000,-4.000000,-5.000000,2.000000
1305296.661025,-12.000000,-29.000000,6.000000,-29.000000,-30.000000,-9.000000,-3.000000,-12.000000
1305296.661032,12.000000,45.000000,16.000000,12.000000,11.000000,3.000000,-8.000000,1.000000
1305296.672407,-34.000000,-56.000000,-3.000000,9.000000,11.000000,2.000000,19.000000,-1.000000
1305296.672420,15.000000,14.000000,33.000000,-10.000000,-33.000000,-9.000000,-5.000000,3.000000
1305296.679831,13.000000,-5.000000,-45.000000,-18.000000,-5.000000,-5.000000,-13.000000,-5.000000
1305296.679842,-20.000000,22.000000,51.000000,19.000000,40.000000,30.000000,15.000000,11.000000
1305296.694823,9.000000,-20.000000,-54.000000,9.000000,1.000000,11.000000,-3.000000,-15.000000
1305296.694871,1.000000,39.000000,21.000000,-20.000000,-4.000000,-16.000000,9.000000,14.000000
1305296.695890,-36.000000,-8.000000,8.000000,17.000000,22.000000,2.000000,-2.000000,-14.000000
1305296.695899,64.000000,-47.000000,-1.000000,22.000000,16.000000,14.000000,3.000000,8.000000
1305296.702216,-3.000000,24.000000,10.000000,-35.000000,-60.000000,-29.000000,-21.000000,-21.000000
1305296.702227,25.000000,8.000000,-25.000000,13.000000,23.000000,19.000000,42.000000,21.000000
1305296.732540,-24.000000,14.000000,18.000000,9.000000,7.000000,-7.000000,-14.000000,-7.000000
1305296.732557,15.000000,-16.000000,-45.000000,-43.000000,-65.000000,-23.000000,-20.000000,3.000000
1305296.739816,-18.000000,-23.000000,5.000000,1.000000,1.000000,-1.000000,-8.000000,-15.000000
1305296.739826,-6.000000,-3.000000,54.000000,17.000000,9.000000,0.000000,-2.000000,-2.000000
1305296.777285,-17.000000,-13.000000,-18.000000,-5.000000,1.000000,-7.000000,-3.000000,-10.000000
1305296.777310,3.000000,8.000000,7.000000,-10.000000,-43.000000,-12.000000,-2.000000,2.000000
1305296.777723,-1.000000,-18.000000,-42.000000,-23.000000,-14.000000,3.000000,6.000000,1.000000
1305296.777741,-14.000000,-4.000000,19.000000,-3.000000,-2.000000,-14.000000,-1.000000,3.000000
1305296.778903,19.000000,20.000000,-57.000000,-1.000000,-5.000000,-1.000000,-3.000000,-11.000000
1305296.778919,-1.000000,-12.000000,-14.000000,5.000000,-5.000000,6.000000,3.000000,2.000000
1305296.779620,21.000000,8.000000,-11.000000,-30.000000,-19.000000,-3.000000,-17.000000,-5.000000
1305296.779680,-9.000000,-1.000000,8.000000,-2.000000,6.000000,-3.000000,13.000000,0.000000
1305296.781167,-10.000000,11.000000,54.000000,7.000000,-1.000000,-6.000000,1.000000,-3.000000
1305296.781176,10.000000,2.000000,26.000000,-35.000000,-51.000000,8.000000,-3.000000,0.000000
1305296.792448,-3.000000,4.000000,12.000000,2.000000,-11.000000,-12.000000,-9.000000,-2.000000
1305296.792497,-7.000000,3.000000,21.000000,8.000000,8.000000,1.000000,6.000000,-3.000000
1305296.799631,-9.000000,-27.000000,-30.000000,8.000000,7.000000,-1.000000,-11.000000,-5.000000
1305296.799659,1.000000,-16.000000,20.000000,4.000000,4.000000,9.000000,-2.000000,-2.000000
1305296.814962,-16.000000,7.000000,-10.000000,2.000000,-9.000000,-8.000000,-11.000000,-8.000000
1305296.814973,-23.000000,5.000000,12.000000,7.000000,17.000000,1.000000,-7.000000,-10.000000
1305296.837339,20.000000,-36.000000,-21.000000,33.000000,56.000000,-5.000000,-19.000000,-7.000000
1305296.837350,-14.000000,89.000000,13.000000,-14.000000,-15.000000,18.000000,45.000000,30.000000
1305296.852529,66.000000,10.000000,46.000000,8.000000,4.000000,-5.000000,-2.000000,17.000000
1305296.852542,-15.000000,-1.000000,19.000000,17.000000,10.000000,-2.000000,-8.000000,-11.000000
1305296.867345,-18.000000,1.000000,-72.000000,-34.000000,-25.000000,-19.000000,-10.000000,-12.000000
1305296.867357,-16.000000,-38.000000,28.000000,-1.000000,11.000000,-2.000000,-12.000000,-6.000000
1305296.874716,-12.000000,12.000000,-46.000000,-3.000000,-6.000000,-4.000000,-8.000000,-5.000000
1305296.874726,1.000000,-3.000000,33.000000,8.000000,14.000000,1.000000,20.000000,7.000000
1305296.897695,17.000000,-7.000000,31.000000,8.000000,-3.000000,10.000000,8.000000,20.000000
1305296.897710,-14.000000,-25.000000,-15.000000,-9.000000,11.000000,6.000000,-10.000000,-12.000000
1305296.898338,12.000000,-9.000000,36.000000,14.000000,15.000000,-3.000000,-3.000000,1.000000
1305296.898349,-5.000000,16.000000,-13.000000,-9.000000,-9.000000,-10.000000,-5.000000,-10.000000
1305296.899619,-64.000000,-18.000000,4.000000,-4.000000,-24.000000,-11.000000,-27.000000,-29.000000
1305296.899629,81.000000,55.000000,-67.000000,16.000000,14.000000,4.000000,31.000000,57.000000
1305296.900263,-25.000000,-31.000000,39.000000,7.000000,1.000000,-7.000000,-7.000000,-2.000000
1305296.900273,-26.000000,-18.000000,-46.000000,-24.000000,-35.000000,-24.000000,-9.000000,-6.000000
1305296.912205,-6.000000,-11.000000,18.000000,-22.000000,-22.000000,5.000000,-3.000000,-11.000000
1305296.912217,3.000000,-10.000000,-7.000000,0.000000,5.000000,4.000000,-7.000000,12.000000
1305296.919798,0.000000,16.000000,-21.000000,-4.000000,1.000000,-5.000000,-5.000000,-5.000000
1305296.919809,3.000000,-4.000000,22.000000,6.000000,4.000000,2.000000,23.000000,6.000000
1305296.934780,-4.000000,6.000000,-27.000000,-7.000000,-1.000000,-10.000000,-7.000000,-11.000000
1305296.934808,-38.000000,-6.000000,-23.000000,-6.000000,-4.000000,9.000000,-7.000000,-4.000000
1305296.957355,55.000000,-11.000000,-10.000000,16.000000,7.000000,6.000000,4.000000,8.000000
1305296.957366,-13.000000,-18.000000,-80.000000,-8.000000,21.000000,13.000000,-7.000000,-14.000000
1305296.964735,-7.000000,-19.000000,14.000000,19.000000,21.000000,2.000000,-11.000000,-6.000000
1305296.964746,-10.000000,1.000000,1.000000,-20.000000,-15.000000,-1.000000,3.000000,0.000000
1305296.979768,11.000000,-1.000000,2.000000,-1.000000,0.000000,0.000000,3.000000,8.000000
1305296.979778,2.000000,-15.000000,-5.000000,28.000000,47.000000,4.000000,-4.000000,-2.000000
1305296.994982,-30.000000,-40.000000,-54.000000,6.000000,-2.000000,2.000000,-20.000000,-23.000000
1305296.994993,17.000000,40.000000,69.000000,12.000000,-5.000000,15.000000,33.000000,44.000000
1305297.017305,27.000000,12.000000,26.000000,11.000000,6.000000,7.000000,21.000000,28.000000
1305297.017342,-21.000000,-32.000000,-61.000000,-21.000000,-32.000000,-12.000000,-5.000000,-7.000000
1305297.032247,-6.000000,5.000000,51.000000,8.000000,2.000000,-6.000000,-6.000000,-13.000000
1305297.032258,-6.000000,-8.000000,18.000000,1.000000,5.000000,-1.000000,6.000000,13.000000
1305297.054939,32.000000,23.000000,-11.000000,-4.000000,-5.000000,-4.000000,-6.000000,-3.000000
1305297.054950,33.000000,-3.000000,16.000000,19.000000,26.000000,-8.000000,-11.000000,-9.000000
1305297.069702,-12.000000,-51.000000,-71.000000,-31.000000,-35.000000,7.000000,2.000000,-4.000000
1305297.069731,-9.000000,5.000000,96.000000,23.000000,12.000000,-3.000000,-4.000000,1.000000
1305297.084715,10.000000,2.000000,5.000000,1.000000,3.000000,-11.000000,-14.000000,-16.000000
1305297.084725,7.000000,0.000000,22.000000,-9.000000,-13.000000,-10.000000,2.000000,-1.000000
1305297.099729,-23.000000,-23.000000,25.000000,10.000000,3.000000,4.000000,-6.000000,-13.000000
1305297.099739,25.000000,-15.000000,-13.000000,-2.000000,-17.000000,-15.000000,25.000000,12.000000
1305297.100929,-3.000000,-10.000000,-25.000000,-2.000000,-2.000000,12.000000,-18.000000,-24.000000
1305297.100945,-8.000000,-1.000000,6.000000,3.000000,12.000000,6.000000,10.000000,17.000000
1305297.101421,-17.000000,-12.000000,11.000000,15.000000,16.000000,15.000000,-4.000000,-9.000000
1305297.101429,5.000000,12.000000,-53.000000,-18.000000,-16.000000,-17.000000,6.000000,0.000000
1305297.114514,-14.000000,-32.000000,10.000000,-8.000000,-12.000000,-6.000000,-13.000000,-20.000000
1305297.114524,28.000000,71.000000,-24.000000,5.000000,12.000000,10.000000,2.000000,-9.000000
