# participant_id: P9
# gesture: soft
# trial_number: 1
# stream_name: Myo_EMG
# stream_type: emg
# timestamp: 20260420_155251
# samples: 5618
# duration_sec: 30.593
# nominal_sample_rate: 200.0
# effective_sample_rate: 183.60
#
timestamp,emg_1,emg_2,emg_3,emg_4,emg_5,emg_6,emg_7,emg_8
1305062.919444,-3.000000,16.000000,122.000000,-30.000000,-62.000000,-13.000000,0.000000,-3.000000
1305062.919456,-9.000000,-7.000000,4.000000,-22.000000,-7.000000,9.000000,1.000000,-8.000000
1305062.926971,-20.000000,5.000000,14.000000,30.000000,31.000000,-3.000000,-16.000000,-17.000000
1305062.926982,21.000000,3.000000,-19.000000,1.000000,-3.000000,22.000000,29.000000,30.000000
1305062.941926,-43.000000,-36.000000,8.000000,5.000000,16.000000,-1.000000,0.000000,-10.000000
1305062.941972,26.000000,6.000000,8.000000,-12.000000,-2.000000,2.000000,0.000000,3.000000
1305062.942454,-8.000000,2.000000,16.000000,15.000000,8.000000,-7.000000,-7.000000,-7.000000
1305062.942503,-10.000000,-2.000000,4.000000,-11.000000,-14.000000,-12.000000,-8.000000,-9.000000
1305062.943778,0.000000,7.000000,4.000000,21.000000,12.000000,-7.000000,-4.000000,-3.000000
1305062.943796,-7.000000,8.000000,31.000000,-8.000000,-15.000000,-6.000000,-7.000000,-1.000000
1305062.944470,12.000000,-4.000000,3.000000,1.000000,4.000000,-1.000000,-5.000000,1.000000
1305062.944478,-1.000000,37.000000,27.000000,12.000000,-8.000000,-4.000000,5.000000,2.000000
1305062.944887,-19.000000,-6.000000,-4.000000,44.000000,39.000000,-10.000000,-21.000000,-19.000000
1305062.944904,10.000000,-23.000000,-30.000000,-22.000000,-12.000000,16.000000,7.000000,8.000000
1305062.964757,0.000000,94.000000,33.000000,28.000000,23.000000,-13.000000,-7.000000,-4.000000
1305062.964795,-35.000000,-16.000000,-52.000000,11.000000,9.000000,0.000000,1.000000,-7.000000
1305062.965261,23.000000,13.000000,-8.000000,17.000000,19.000000,1.000000,-3.000000,4.000000
1305062.965279,-25.000000,2.000000,38.000000,44.000000,64.000000,6.000000,-10.000000,-9.000000
1305062.972023,10.000000,4.000000,3.000000,-30.000000,-43.000000,7.000000,19.000000,8.000000
1305062.972033,-12.000000,-2.000000,-12.000000,12.000000,7.000000,-13.000000,-3.000000,1.000000
1305062.979871,3.000000,16.000000,32.000000,-10.000000,-6.000000,7.000000,-3.000000,2.000000
1305062.979887,1.000000,8.000000,52.000000,20.000000,10.000000,3.000000,-2.000000,0.000000
1305063.001952,-13.000000,-16.000000,-96.000000,-2.000000,12.000000,0.000000,-7.000000,-2.000000
1305063.001962,-19.000000,-20.000000,-24.000000,18.000000,1.000000,-17.000000,-14.000000,-19.000000
1305063.024408,23.000000,3.000000,30.000000,8.000000,12.000000,20.000000,19.000000,21.000000
1305063.024419,1.000000,-3.000000,-8.000000,0.000000,8.000000,5.000000,5.000000,5.000000
1305063.039854,-5.000000,-6.000000,10.000000,12.000000,-8.000000,-12.000000,-7.000000,-8.000000
1305063.039882,-10.000000,-15.000000,4.000000,2.000000,-6.000000,-4.000000,-6.000000,-4.000000
1305063.040359,-4.000000,-16.000000,-54.000000,0.000000,16.000000,-4.000000,-8.000000,-8.000000
1305063.040367,-60.000000,1.000000,-57.000000,-13.000000,-66.000000,-34.000000,-18.000000,-30.000000
1305063.041742,52.000000,31.000000,34.000000,-11.000000,-11.000000,18.000000,28.000000,31.000000
1305063.041758,-9.000000,-18.000000,68.000000,7.000000,-5.000000,0.000000,-4.000000,0.000000
1305063.042432,-17.000000,2.000000,-57.000000,8.000000,31.000000,7.000000,-9.000000,-16.000000
1305063.042441,-1.000000,1.000000,-75.000000,2.000000,2.000000,-13.000000,-6.000000,4.000000
1305063.054688,-14.000000,-5.000000,-15.000000,-8.000000,7.000000,3.000000,1.000000,-6.000000
1305063.054700,1.000000,43.000000,40.000000,16.000000,20.000000,11.000000,2.000000,-3.000000
1305063.062056,-7.000000,-3.000000,34.000000,23.000000,21.000000,-1.000000,4.000000,8.000000
1305063.062070,22.000000,19.000000,-30.000000,-28.000000,-36.000000,6.000000,4.000000,4.000000
1305063.077051,-5.000000,-29.000000,-33.000000,0.000000,2.000000,3.000000,0.000000,2.000000
1305063.077063,4.000000,11.000000,14.000000,10.000000,23.000000,5.000000,-1.000000,-3.000000
1305063.084128,2.000000,1.000000,13.000000,26.000000,27.000000,-8.000000,-7.000000,-6.000000
1305063.084139,-2.000000,-3.000000,3.000000,-5.000000,-12.000000,7.000000,5.000000,1.000000
1305063.091868,0.000000,-5.000000,-64.000000,-19.000000,-2.000000,-6.000000,-4.000000,-4.000000
1305063.091917,4.000000,-1.000000,-9.000000,5.000000,14.000000,4.000000,4.000000,6.000000
1305063.099721,-2.000000,-11.000000,-2.000000,2.000000,10.000000,2.000000,-2.000000,-4.000000
1305063.099736,-1.000000,5.000000,-10.000000,3.000000,16.000000,13.000000,-1.000000,1.000000
1305063.129434,-10.000000,-19.000000,-7.000000,15.000000,18.000000,2.000000,5.000000,2.000000
1305063.129456,14.000000,30.000000,-4.000000,7.000000,15.000000,-2.000000,-7.000000,-13.000000
1305063.136919,1.000000,29.000000,49.000000,9.000000,-5.000000,-5.000000,3.000000,20.000000
1305063.136947,11.000000,-4.000000,-19.000000,16.000000,33.000000,21.000000,18.000000,11.000000
1305063.159627,6.000000,-7.000000,6.000000,6.000000,3.000000,-7.000000,-7.000000,-1.000000
1305063.159638,-18.000000,5.000000,49.000000,19.000000,1.000000,-1.000000,-4.000000,-10.000000
1305063.167036,-23.000000,-17.000000,-24.000000,-10.000000,-9.000000,-4.000000,-9.000000,-10.000000
1305063.167046,10.000000,-4.000000,21.000000,-23.000000,-23.000000,1.000000,2.000000,0.000000
1305063.181859,6.000000,-9.000000,7.000000,8.000000,0.000000,3.000000,1.000000,2.000000
1305063.181876,-6.000000,-7.000000,-27.000000,2.000000,10.000000,-6.000000,-8.000000,-7.000000
1305063.182345,-8.000000,3.000000,-57.000000,-3.000000,10.000000,4.000000,-6.000000,-6.000000
1305063.182357,9.000000,2.000000,28.000000,8.000000,-1.000000,6.000000,11.000000,9.000000
1305063.183536,-39.000000,-23.000000,-12.000000,-33.000000,-28.000000,-5.000000,-1.000000,-10.000000
1305063.183545,49.000000,2.000000,-18.000000,6.000000,8.000000,4.000000,4.000000,10.000000
1305063.184244,3.000000,3.000000,0.000000,4.000000,6.000000,-2.000000,-2.000000,-1.000000
1305063.184256,-11.000000,-9.000000,-2.000000,-3.000000,-4.000000,-2.000000,-7.000000,-5.000000
1305063.197676,-13.000000,6.000000,23.000000,23.000000,16.000000,-9.000000,-2.000000,-6.000000
1305063.197708,12.000000,9.000000,5.000000,-53.000000,-69.000000,-7.000000,3.000000,7.000000
1305063.204508,10.000000,-6.000000,23.000000,-6.000000,-2.000000,9.000000,16.000000,10.000000
1305063.204522,-10.000000,8.000000,-59.000000,9.000000,25.000000,2.000000,-6.000000,-6.000000
1305063.219509,-2.000000,0.000000,-27.000000,-20.000000,4.000000,6.000000,-5.000000,-1.000000
1305063.219519,-27.000000,-6.000000,-2.000000,11.000000,23.000000,1.000000,-6.000000,1.000000
1305063.234277,20.000000,3.000000,16.000000,7.000000,-12.000000,-7.000000,0.000000,3.000000
1305063.234286,14.000000,9.000000,-48.000000,-24.000000,2.000000,7.000000,-1.000000,6.000000
1305063.257139,1.000000,-3.000000,0.000000,-8.000000,-8.000000,3.000000,1.000000,-1.000000
1305063.257150,-19.000000,-21.000000,24.000000,41.000000,34.000000,-8.000000,-5.000000,-11.000000
1305063.264510,17.000000,20.000000,-7.000000,-44.000000,-23.000000,17.000000,9.000000,5.000000
1305063.264522,-23.000000,-30.000000,11.000000,-8.000000,-24.000000,-9.000000,4.000000,-2.000000
1305063.279876,30.000000,31.000000,2.000000,11.000000,12.000000,8.000000,5.000000,14.000000
1305063.279888,-9.000000,-6.000000,-6.000000,-1.000000,-2.000000,-8.000000,-3.000000,-3.000000
1305063.280363,-18.000000,-54.000000,-80.000000,-2.000000,-13.000000,-15.000000,-1.000000,-3.000000
1305063.280391,16.000000,69.000000,8.000000,7.000000,14.000000,15.000000,11.000000,12.000000
1305063.281759,-1.000000,0.000000,30.000000,-2.000000,-3.000000,-1.000000,1.000000,-5.000000
1305063.281777,-4.000000,-3.000000,19.000000,15.000000,19.000000,9.000000,-3.000000,-1.000000
1305063.282524,-8.000000,-60.000000,-49.000000,1.000000,10.000000,-11.000000,-4.000000,-10.000000
1305063.282551,5.000000,59.000000,-2.000000,4.000000,-11.000000,5.000000,9.000000,0.000000
1305063.301846,2.000000,3.000000,35.000000,15.000000,9.000000,3.000000,-5.000000,6.000000
1305063.301856,-3.000000,-18.000000,-43.000000,-2.000000,17.000000,7.000000,-3.000000,-3.000000
1305063.302308,-5.000000,12.000000,-7.000000,-9.000000,-21.000000,-17.000000,-1.000000,3.000000
1305063.302316,0.000000,21.000000,24.000000,15.000000,10.000000,-6.000000,3.000000,6.000000
1305063.317084,27.000000,-4.000000,-22.000000,-15.000000,2.000000,3.000000,8.000000,12.000000
1305063.317113,4.000000,2.000000,9.000000,0.000000,-15.000000,-10.000000,-6.000000,-3.000000
1305063.324325,6.000000,15.000000,24.000000,-4.000000,-3.000000,4.000000,-4.000000,-5.000000
1305063.324369,-5.000000,-29.000000,-33.000000,6.000000,3.000000,-5.000000,4.000000,8.000000
1305063.339460,-17.000000,-2.000000,-3.000000,-15.000000,-9.000000,-3.000000,0.000000,-7.000000
1305063.339470,-14.000000,-5.000000,-22.000000,13.000000,8.000000,0.000000,-9.000000,-11.000000
1305063.354355,5.000000,3.000000,24.000000,6.000000,-9.000000,-12.000000,-2.000000,-4.000000
1305063.354367,0.000000,-8.000000,-30.000000,-51.000000,-31.000000,11.000000,3.000000,4.000000
1305063.355734,9.000000,18.000000,52.000000,28.000000,19.000000,15.000000,2.000000,3.000000
1305063.355745,-12.000000,3.000000,-55.000000,-15.000000,-31.000000,-5.000000,5.000000,1.000000
1305063.361757,10.000000,8.000000,-62.000000,-16.000000,-1.000000,-3.000000,-3.000000,-1.000000
1305063.361771,-26.000000,-29.000000,5.000000,2.000000,5.000000,-4.000000,-8.000000,-11.000000
1305063.376826,-2.000000,20.000000,27.000000,18.000000,8.000000,2.000000,-3.000000,-5.000000
1305063.376855,11.000000,8.000000,21.000000,6.000000,8.000000,9.000000,2.000000,-3.000000
1305063.399457,6.000000,-8.000000,-19.000000,-11.000000,3.000000,2.000000,-1.000000,-1.000000
1305063.399469,-8.000000,-6.000000,-23.000000,-3.000000,3.000000,-7.000000,-7.000000,-9.000000
1305063.422302,-2.000000,20.000000,46.000000,-2.000000,-11.000000,-2.000000,-1.000000,-2.000000
1305063.422316,0.000000,-1.000000,3.000000,-11.000000,-2.000000,-1.000000,-7.000000,-5.000000
1305063.444535,1.000000,-3.000000,-12.000000,23.000000,36.000000,6.000000,2.000000,1.000000
1305063.444548,-5.000000,-35.000000,-37.000000,-52.000000,-112.000000,-20.000000,14.000000,3.000000
1305063.474834,5.000000,9.000000,16.000000,-6.000000,-7.000000,3.000000,-5.000000,-2.000000
1305063.474850,-7.000000,-6.000000,10.000000,2.000000,13.000000,-5.000000,-4.000000,0.000000
1305063.482196,25.000000,4.000000,-11.000000,16.000000,18.000000,-1.000000,-10.000000,-6.000000
1305063.482209,29.000000,9.000000,23.000000,8.000000,-5.000000,-4.000000,-5.000000,2.000000
1305063.497196,-14.000000,-11.000000,-35.000000,6.000000,7.000000,4.000000,6.000000,9.000000
1305063.497217,22.000000,15.000000,31.000000,6.000000,16.000000,4.000000,4.000000,5.000000
1305063.519537,-18.000000,10.000000,-95.000000,9.000000,4.000000,-12.000000,-9.000000,-2.000000
1305063.519548,-3.000000,-5.000000,4.000000,-23.000000,-16.000000,1.000000,-5.000000,-6.000000
1305063.520114,-7.000000,0.000000,-7.000000,22.000000,22.000000,8.000000,0.000000,2.000000
1305063.520122,-6.000000,-13.000000,5.000000,-4.000000,-2.000000,-8.000000,-5.000000,-3.000000
1305063.520527,-7.000000,1.000000,-41.000000,0.000000,1.000000,-5.000000,-2.000000,-1.000000
1305063.520534,13.000000,8.000000,-53.000000,11.000000,13.000000,13.000000,-4.000000,-5.000000
1305063.521138,-2.000000,-34.000000,-3.000000,-13.000000,-16.000000,-3.000000,3.000000,1.000000
1305063.521146,-5.000000,-18.000000,-15.000000,18.000000,37.000000,-3.000000,-11.000000,-6.000000
1305063.521684,-10.000000,3.000000,-4.000000,-50.000000,-75.000000,-11.000000,9.000000,-3.000000
1305063.521691,12.000000,35.000000,66.000000,8.000000,20.000000,8.000000,-7.000000,0.000000
1305063.523596,-11.000000,-10.000000,-28.000000,-6.000000,-16.000000,-11.000000,2.000000,1.000000
1305063.523606,4.000000,-15.000000,19.000000,8.000000,-4.000000,-7.000000,1.000000,-1.000000
1305063.534966,17.000000,5.000000,21.000000,14.000000,13.000000,4.000000,1.000000,5.000000
1305063.534975,8.000000,13.000000,-14.000000,-1.000000,-9.000000,-5.000000,4.000000,-3.000000
1305063.541883,-12.000000,-16.000000,-56.000000,24.000000,6.000000,-10.000000,3.000000,2.000000
1305063.541897,-11.000000,9.000000,-6.000000,-4.000000,5.000000,-3.000000,3.000000,-8.000000
1305063.556969,12.000000,-4.000000,14.000000,4.000000,3.000000,4.000000,5.000000,16.000000
1305063.556998,4.000000,-9.000000,0.000000,19.000000,19.000000,5.000000,-6.000000,-8.000000
1305063.564613,-10.000000,-1.000000,-109.000000,-28.000000,10.000000,-1.000000,-8.000000,-7.000000
1305063.564624,-39.000000,-39.000000,-21.000000,-10.000000,-4.000000,5.000000,-5.000000,-9.000000
1305063.579617,19.000000,18.000000,40.000000,1.000000,-1.000000,-10.000000,-3.000000,0.000000
1305063.579628,-4.000000,-11.000000,2.000000,18.000000,18.000000,-3.000000,-7.000000,-1.000000
1305063.594571,1.000000,4.000000,24.000000,5.000000,-13.000000,1.000000,7.000000,7.000000
1305063.594589,6.000000,16.000000,-26.000000,-6.000000,-7.000000,0.000000,5.000000,-3.000000
1305063.617015,-4.000000,-13.000000,33.000000,5.000000,4.000000,-12.000000,-10.000000,-12.000000
1305063.617028,-28.000000,1.000000,37.000000,16.000000,-21.000000,-13.000000,-1.000000,-9.000000
1305063.632029,-13.000000,17.000000,9.000000,2.000000,14.000000,-9.000000,-6.000000,-9.000000
1305063.632042,-6.000000,12.000000,13.000000,-9.000000,-14.000000,9.000000,14.000000,31.000000
1305063.646835,23.000000,-14.000000,4.000000,9.000000,16.000000,2.000000,-9.000000,-3.000000
1305063.646861,-6.000000,-1.000000,2.000000,3.000000,0.000000,-3.000000,-5.000000,-6.000000
1305063.647288,-11.000000,-11.000000,17.000000,-4.000000,7.000000,1.000000,0.000000,-2.000000
1305063.647309,0.000000,75.000000,-54.000000,-13.000000,-22.000000,-7.000000,-1.000000,3.000000
1305063.655110,-13.000000,13.000000,48.000000,11.000000,7.000000,-5.000000,-5.000000,-8.000000
1305063.655137,25.000000,7.000000,7.000000,-13.000000,-21.000000,0.000000,-4.000000,-2.000000
1305063.656077,-29.000000,-13.000000,6.000000,18.000000,34.000000,2.000000,-5.000000,-6.000000
1305063.656104,-4.000000,-10.000000,-12.000000,15.000000,21.000000,4.000000,1.000000,3.000000
1305063.656983,17.000000,3.000000,-7.000000,-5.000000,-8.000000,-9.000000,-6.000000,0.000000
1305063.657010,-21.000000,-46.000000,-12.000000,4.000000,11.000000,-1.000000,-8.000000,-11.000000
1305063.670041,-1.000000,19.000000,22.000000,-1.000000,1.000000,7.000000,-1.000000,-1.000000
1305063.670051,-5.000000,-4.000000,20.000000,18.000000,5.000000,-4.000000,-8.000000,-8.000000
1305063.677002,14.000000,21.000000,-28.000000,-12.000000,-9.000000,1.000000,5.000000,9.000000
1305063.677012,20.000000,-12.000000,16.000000,10.000000,8.000000,3.000000,6.000000,9.000000
1305063.699259,-2.000000,5.000000,10.000000,-31.000000,-52.000000,-18.000000,-9.000000,-11.000000
1305063.699314,-3.000000,-30.000000,-97.000000,-5.000000,3.000000,-11.000000,-17.000000,-16.000000
1305063.714571,-15.000000,5.000000,37.000000,9.000000,5.000000,-1.000000,-2.000000,-9.000000
1305063.714583,-4.000000,-15.000000,26.000000,-18.000000,-43.000000,-21.000000,-11.000000,3.000000
1305063.729619,2.000000,5.000000,-15.000000,2.000000,6.000000,-9.000000,6.000000,2.000000
1305063.729639,2.000000,-1.000000,23.000000,2.000000,-5.000000,-1.000000,-12.000000,-10.000000
1305063.737574,-35.000000,-18.000000,-31.000000,-5.000000,-1.000000,-1.000000,-10.000000,-9.000000
1305063.737681,29.000000,15.000000,86.000000,16.000000,19.000000,4.000000,-2.000000,-3.000000
1305063.738374,-10.000000,-4.000000,10.000000,-9.000000,-24.000000,-3.000000,1.000000,-1.000000
1305063.738403,-7.000000,-30.000000,-18.000000,3.000000,2.000000,-2.000000,2.000000,-2.000000
1305063.739219,-1.000000,16.000000,17.000000,-7.000000,7.000000,-1.000000,-4.000000,-6.000000
1305063.739228,-9.000000,7.000000,22.000000,-2.000000,-14.000000,-14.000000,-2.000000,2.000000
1305063.753369,18.000000,-20.000000,-14.000000,-5.000000,-11.000000,-1.000000,9.000000,14.000000
1305063.753392,-3.000000,36.000000,11.000000,-4.000000,-6.000000,-9.000000,-6.000000,-9.000000
1305063.753740,-20.000000,-3.000000,-11.000000,6.000000,16.000000,-1.000000,-4.000000,-8.000000
1305063.753756,-6.000000,-20.000000,-42.000000,-8.000000,4.000000,2.000000,-19.000000,-11.000000
1305063.774804,4.000000,6.000000,-6.000000,16.000000,12.000000,-9.000000,-6.000000,-6.000000
1305063.774813,-9.000000,-22.000000,8.000000,-15.000000,-28.000000,4.000000,-13.000000,-9.000000
1305063.775736,-2.000000,-1.000000,-31.000000,-8.000000,-4.000000,0.000000,3.000000,-5.000000
1305063.775746,-29.000000,-7.000000,10.000000,3.000000,0.000000,-12.000000,-7.000000,-13.000000
1305063.797566,7.000000,-24.000000,-20.000000,3.000000,7.000000,-2.000000,-2.000000,-2.000000
1305063.797580,-31.000000,-12.000000,-33.000000,-13.000000,2.000000,5.000000,9.000000,5.000000
1305063.798227,10.000000,0.000000,-52.000000,3.000000,7.000000,10.000000,6.000000,5.000000
1305063.798241,-14.000000,19.000000,25.000000,-18.000000,-28.000000,0.000000,1.000000,2.000000
1305063.834404,8.000000,0.000000,-44.000000,-13.000000,-6.000000,6.000000,0.000000,-1.000000
1305063.834433,8.000000,3.000000,23.000000,8.000000,-1.000000,8.000000,26.000000,14.000000
1305063.857121,1.000000,-4.000000,-20.000000,19.000000,35.000000,6.000000,-10.000000,-10.000000
1305063.857133,11.000000,-8.000000,11.000000,-11.000000,-12.000000,-6.000000,-1.000000,1.000000
1305063.879291,-4.000000,-1.000000,-19.000000,-10.000000,8.000000,-9.000000,-10.000000,-8.000000
1305063.879304,-7.000000,-28.000000,-8.000000,-7.000000,2.000000,-7.000000,-6.000000,-3.000000
1305063.894596,8.000000,-49.000000,-37.000000,7.000000,9.000000,-3.000000,2.000000,0.000000
1305063.894617,17.000000,74.000000,16.000000,-5.000000,1.000000,0.000000,-12.000000,3.000000
1305063.895717,-9.000000,3.000000,-1.000000,-4.000000,-4.000000,-3.000000,-4.000000,-5.000000
1305063.895727,4.000000,-8.000000,41.000000,19.000000,12.000000,-3.000000,-7.000000,3.000000
1305063.909450,-3.000000,-9.000000,-48.000000,-16.000000,-15.000000,3.000000,5.000000,4.000000
1305063.909464,3.000000,4.000000,29.000000,-6.000000,6.000000,-3.000000,-1.000000,-6.000000
1305063.909822,-1.000000,18.000000,40.000000,4.000000,-9.000000,-4.000000,1.000000,-1.000000
1305063.909832,6.000000,-22.000000,-14.000000,-1.000000,18.000000,11.000000,-17.000000,-10.000000
1305063.911136,-5.000000,5.000000,2.000000,-4.000000,0.000000,-6.000000,-1.000000,-1.000000
1305063.911146,-5.000000,8.000000,65.000000,35.000000,21.000000,9.000000,7.000000,2.000000
1305063.912712,4.000000,-3.000000,-24.000000,-3.000000,11.000000,1.000000,-4.000000,-3.000000
1305063.912729,1.000000,-9.000000,6.000000,9.000000,8.000000,-1.000000,-1.000000,7.000000
1305063.917293,-7.000000,-6.000000,16.000000,-20.000000,-17.000000,5.000000,5.000000,0.000000
1305063.917306,6.000000,-2.000000,4.000000,-4.000000,-1.000000,8.000000,10.000000,9.000000
1305063.947023,0.000000,5.000000,-17.000000,-1.000000,-16.000000,-19.000000,-10.000000,-11.000000
1305063.947035,-14.000000,53.000000,54.000000,8.000000,-12.000000,-3.000000,3.000000,4.000000
1305063.969817,32.000000,-20.000000,-50.000000,-9.000000,11.000000,-4.000000,-3.000000,6.000000
1305063.969846,-11.000000,-3.000000,15.000000,7.000000,-2.000000,-6.000000,-3.000000,-10.000000
1305063.992005,-9.000000,-23.000000,11.000000,-6.000000,0.000000,0.000000,3.000000,-7.000000
1305063.992016,-8.000000,-3.000000,-9.000000,6.000000,2.000000,-6.000000,7.000000,8.000000
1305063.992544,-8.000000,-12.000000,-23.000000,-10.000000,3.000000,-3.000000,-1.000000,-4.000000
1305063.992552,2.000000,9.000000,-6.000000,-11.000000,-14.000000,-6.000000,-4.000000,-3.000000
1305063.993470,5.000000,11.000000,39.000000,-7.000000,-15.000000,4.000000,5.000000,5.000000
1305063.993477,-11.000000,-12.000000,-15.000000,7.000000,9.000000,-6.000000,-27.000000,-10.000000
1305063.994065,5.000000,16.000000,54.000000,21.000000,5.000000,10.000000,2.000000,-4.000000
1305063.994073,2.000000,-10.000000,-5.000000,4.000000,0.000000,5.000000,12.000000,15.000000
1305063.996121,43.000000,23.000000,64.000000,-14.000000,-25.000000,7.000000,10.000000,8.000000
1305063.996132,11.000000,24.000000,-128.000000,-8.000000,-11.000000,-9.000000,6.000000,11.000000
1305064.029345,1.000000,0.000000,48.000000,-4.000000,-3.000000,-4.000000,1.000000,-8.000000
1305064.029373,-1.000000,-13.000000,-30.000000,5.000000,14.000000,3.000000,-4.000000,5.000000
1305064.044613,-6.000000,3.000000,-23.000000,13.000000,20.000000,12.000000,4.000000,-6.000000
1305064.044624,-26.000000,-29.000000,23.000000,-11.000000,-19.000000,-9.000000,-9.000000,-14.000000
1305064.074404,-16.000000,-9.000000,-12.000000,-11.000000,-21.000000,-14.000000,2.000000,-7.000000
1305064.074415,9.000000,12.000000,36.000000,-20.000000,-16.000000,9.000000,5.000000,5.000000
1305064.089387,5.000000,-6.000000,-64.000000,22.000000,20.000000,-1.000000,-13.000000,-6.000000
1305064.089397,5.000000,-14.000000,33.000000,-30.000000,-30.000000,4.000000,10.000000,7.000000
1305064.097469,-14.000000,-8.000000,-7.000000,8.000000,15.000000,12.000000,-3.000000,2.000000
1305064.097480,21.000000,13.000000,-3.000000,8.000000,-1.000000,-1.000000,3.000000,0.000000
1305064.097913,-15.000000,-24.000000,1.000000,12.000000,24.000000,4.000000,-13.000000,-5.000000
1305064.097921,9.000000,12.000000,40.000000,3.000000,0.000000,-2.000000,-2.000000,3.000000
1305064.099226,-21.000000,-19.000000,-46.000000,-10.000000,-2.000000,3.000000,-5.000000,-9.000000
1305064.099235,-7.000000,-1.000000,43.000000,-5.000000,-10.000000,5.000000,7.000000,0.000000
1305064.100347,6.000000,4.000000,13.000000,12.000000,-5.000000,-5.000000,-7.000000,-7.000000
1305064.100357,-13.000000,4.000000,1.000000,-1.000000,-8.000000,-12.000000,-4.000000,-2.000000
1305064.112244,-16.000000,0.000000,13.000000,-8.000000,-26.000000,-13.000000,-6.000000,-7.000000
1305064.112253,14.000000,-6.000000,-63.000000,21.000000,17.000000,3.000000,-3.000000,2.000000
1305064.113219,-12.000000,-67.000000,-105.000000,-22.000000,-3.000000,-12.000000,-5.000000,-6.000000
1305064.113228,-24.000000,55.000000,21.000000,-1.000000,-1.000000,1.000000,-3.000000,-7.000000
1305064.134697,-9.000000,-2.000000,3.000000,18.000000,8.000000,-3.000000,-1.000000,-4.000000
1305064.134724,4.000000,-19.000000,-128.000000,-40.000000,-10.000000,-5.000000,-14.000000,-7.000000
1305064.135667,-12.000000,-18.000000,9.000000,2.000000,9.000000,5.000000,1.000000,-2.000000
1305064.135675,-17.000000,-7.000000,14.000000,8.000000,-12.000000,2.000000,1.000000,0.000000
1305064.149648,-25.000000,-10.000000,27.000000,-24.000000,-22.000000,-1.000000,-10.000000,-9.000000
1305064.149659,5.000000,-14.000000,-32.000000,9.000000,-5.000000,-7.000000,-2.000000,-1.000000
1305064.156928,4.000000,4.000000,-3.000000,-10.000000,-15.000000,-7.000000,1.000000,2.000000
1305064.156940,-11.000000,-10.000000,52.000000,-17.000000,-19.000000,-7.000000,3.000000,-1.000000
1305064.187179,-7.000000,-4.000000,-128.000000,-17.000000,-6.000000,-2.000000,1.000000,-4.000000
1305064.187192,7.000000,-19.000000,10.000000,6.000000,24.000000,9.000000,1.000000,-4.000000
1305064.194717,-14.000000,-10.000000,-1.000000,26.000000,-13.000000,-26.000000,-14.000000,-10.000000
1305064.194730,-6.000000,-7.000000,7.000000,-8.000000,-13.000000,4.000000,-3.000000,-1.000000
1305064.231995,-24.000000,-21.000000,-50.000000,-15.000000,-20.000000,-13.000000,-3.000000,1.000000
1305064.232034,0.000000,3.000000,-67.000000,-10.000000,4.000000,5.000000,2.000000,-6.000000
1305064.232682,7.000000,-9.000000,14.000000,14.000000,9.000000,-1.000000,5.000000,1.000000
1305064.232692,-3.000000,9.000000,55.000000,10.000000,-12.000000,-7.000000,-3.000000,11.000000
1305064.234033,-10.000000,-11.000000,-69.000000,-17.000000,-25.000000,-8.000000,6.000000,-1.000000
1305064.234041,8.000000,58.000000,-1.000000,-14.000000,-9.000000,7.000000,9.000000,11.000000
1305064.234367,-10.000000,-2.000000,-17.000000,-8.000000,2.000000,1.000000,5.000000,-5.000000
1305064.234374,22.000000,0.000000,-4.000000,-1.000000,6.000000,-5.000000,-7.000000,-9.000000
1305064.236113,-38.000000,23.000000,12.000000,21.000000,29.000000,-1.000000,-8.000000,-8.000000
1305064.236125,26.000000,-18.000000,-6.000000,-16.000000,-16.000000,-2.000000,-2.000000,1.000000
1305064.247754,-33.000000,-40.000000,-56.000000,-25.000000,-3.000000,8.000000,4.000000,2.000000
1305064.247763,19.000000,2.000000,3.000000,5.000000,-8.000000,-7.000000,4.000000,9.000000
1305064.254309,-12.000000,-5.000000,14.000000,19.000000,30.000000,1.000000,-6.000000,-10.000000
1305064.254319,-16.000000,-6.000000,30.000000,0.000000,-6.000000,-5.000000,-10.000000,-4.000000
1305064.269983,2.000000,8.000000,-37.000000,-25.000000,4.000000,13.000000,0.000000,2.000000
1305064.270010,-2.000000,-7.000000,39.000000,22.000000,2.000000,0.000000,3.000000,7.000000
1305064.292158,3.000000,-4.000000,-34.000000,-20.000000,-16.000000,-3.000000,10.000000,-3.000000
1305064.292170,-6.000000,-14.000000,10.000000,-5.000000,3.000000,-5.000000,-12.000000,-9.000000
1305064.314366,-9.000000,14.000000,1.000000,18.000000,5.000000,-4.000000,-4.000000,-8.000000
1305064.314394,16.000000,-4.000000,-25.000000,-2.000000,-3.000000,8.000000,4.000000,2.000000
1305064.329543,-9.000000,-8.000000,-3.000000,-4.000000,2.000000,1.000000,11.000000,5.000000
1305064.329556,32.000000,-5.000000,6.000000,8.000000,14.000000,12.000000,11.000000,23.000000
1305064.330428,4.000000,16.000000,8.000000,13.000000,4.000000,-4.000000,-3.000000,-7.000000
1305064.330436,-6.000000,-32.000000,10.000000,-21.000000,-13.000000,1.000000,1.000000,-2.000000
1305064.330942,-45.000000,81.000000,26.000000,8.000000,1.000000,-13.000000,-12.000000,-19.000000
1305064.330949,23.000000,-11.000000,-31.000000,-15.000000,-20.000000,2.000000,1.000000,6.000000
1305064.332726,-2.000000,-21.000000,-54.000000,-22.000000,-8.000000,-2.000000,-18.000000,-4.000000
1305064.332737,-14.000000,-33.000000,10.000000,-18.000000,-15.000000,4.000000,0.000000,-3.000000
1305064.344266,1.000000,25.000000,59.000000,3.000000,-1.000000,-6.000000,-3.000000,-4.000000
1305064.344276,-5.000000,5.000000,-2.000000,-2.000000,-7.000000,-2.000000,3.000000,1.000000
1305064.352956,-7.000000,-24.000000,-10.000000,18.000000,15.000000,0.000000,2.000000,1.000000
1305064.353081,33.000000,14.000000,9.000000,5.000000,4.000000,1.000000,9.000000,2.000000
1305064.353381,-12.000000,-16.000000,38.000000,-12.000000,-11.000000,-2.000000,0.000000,0.000000
1305064.353388,8.000000,18.000000,28.000000,4.000000,8.000000,2.000000,-3.000000,-6.000000
1305064.367357,5.000000,0.000000,-29.000000,-15.000000,-47.000000,-18.000000,-9.000000,-10.000000
1305064.367385,32.000000,2.000000,44.000000,-20.000000,-15.000000,-11.000000,-8.000000,1.000000
1305064.374536,-8.000000,5.000000,-30.000000,-3.000000,14.000000,14.000000,15.000000,3.000000
1305064.374547,-3.000000,2.000000,14.000000,4.000000,5.000000,-2.000000,2.000000,-1.000000
1305064.411961,-9.000000,2.000000,1.000000,-20.000000,-12.000000,-1.000000,-1.000000,-10.000000
1305064.411990,-5.000000,-1.000000,-25.000000,0.000000,6.000000,6.000000,1.000000,-3.000000
1305064.427099,4.000000,9.000000,50.000000,8.000000,7.000000,1.000000,1.000000,0.000000
1305064.427109,1.000000,4.000000,-34.000000,-7.000000,-8.000000,9.000000,5.000000,-7.000000
1305064.449321,-1.000000,-4.000000,-7.000000,23.000000,19.000000,-4.000000,-4.000000,-1.000000
1305064.449344,-2.000000,-21.000000,-128.000000,-45.000000,-32.000000,-14.000000,-1.000000,4.000000
1305064.449750,3.000000,1.000000,42.000000,15.000000,6.000000,-7.000000,-4.000000,5.000000
1305064.449759,-16.000000,-3.000000,-22.000000,-29.000000,-48.000000,-14.000000,9.000000,-2.000000
1305064.450980,5.000000,42.000000,3.000000,5.000000,0.000000,-3.000000,-4.000000,-7.000000
1305064.450990,2.000000,-14.000000,-57.000000,-17.000000,-21.000000,-3.000000,0.000000,5.000000
1305064.451846,-9.000000,-15.000000,-15.000000,1.000000,14.000000,8.000000,8.000000,-2.000000
1305064.451874,20.000000,7.000000,0.000000,2.000000,-14.000000,-9.000000,-2.000000,2.000000
1305064.464257,-11.000000,-13.000000,-9.000000,-5.000000,-3.000000,-1.000000,0.000000,6.000000
1305064.464267,-8.000000,0.000000,-5.000000,4.000000,6.000000,-4.000000,-10.000000,-12.000000
1305064.465769,-5.000000,-6.000000,34.000000,-17.000000,-24.000000,-8.000000,-6.000000,-11.000000
1305064.465801,24.000000,12.000000,-29.000000,1.000000,-22.000000,-21.000000,-10.000000,-3.000000
1305064.472091,0.000000,-7.000000,-19.000000,13.000000,23.000000,6.000000,1.000000,-1.000000
1305064.472102,-4.000000,3.000000,8.000000,-22.000000,-19.000000,3.000000,0.000000,-3.000000
1305064.487666,-4.000000,-16.000000,-28.000000,-3.000000,5.000000,-4.000000,-3.000000,2.000000
1305064.487686,1.000000,28.000000,109.000000,19.000000,8.000000,-5.000000,-2.000000,-4.000000
1305064.509591,-6.000000,-3.000000,9.000000,7.000000,0.000000,-7.000000,-4.000000,-4.000000
1305064.509605,5.000000,-21.000000,-126.000000,-28.000000,3.000000,8.000000,5.000000,-2.000000
1305064.532252,-16.000000,5.000000,14.000000,-2.000000,3.000000,1.000000,3.000000,5.000000
1305064.532264,20.000000,78.000000,42.000000,0.000000,-8.000000,-1.000000,2.000000,5.000000
1305064.547047,-2.000000,3.000000,-27.000000,-24.000000,-13.000000,0.000000,-2.000000,-8.000000
1305064.547066,-1.000000,-4.000000,9.000000,5.000000,14.000000,-1.000000,-6.000000,1.000000
1305064.570076,-19.000000,-23.000000,-2.000000,-20.000000,-19.000000,9.000000,2.000000,5.000000
1305064.570086,27.000000,10.000000,20.000000,3.000000,20.000000,7.000000,-1.000000,0.000000
1305064.570532,-13.000000,-3.000000,-43.000000,8.000000,15.000000,-2.000000,-9.000000,-11.000000
1305064.570546,-3.000000,-30.000000,-11.000000,2.000000,-9.000000,-1.000000,-2.000000,0.000000
1305064.571757,2.000000,16.000000,49.000000,15.000000,16.000000,10.000000,6.000000,10.000000
1305064.571767,1.000000,-1.000000,3.000000,16.000000,22.000000,1.000000,6.000000,7.000000
1305064.572356,-5.000000,-17.000000,-65.000000,-22.000000,-8.000000,4.000000,-23.000000,-7.000000
1305064.572366,-9.000000,3.000000,17.000000,-5.000000,-2.000000,-3.000000,-3.000000,-5.000000
1305064.584432,-7.000000,6.000000,48.000000,7.000000,1.000000,12.000000,3.000000,-3.000000
1305064.584449,-7.000000,-24.000000,-16.000000,-4.000000,-3.000000,-2.000000,-4.000000,-4.000000
1305064.585533,-4.000000,30.000000,3.000000,0.000000,11.000000,-1.000000,-2.000000,1.000000
1305064.585560,6.000000,6.000000,44.000000,11.000000,-3.000000,1.000000,3.000000,5.000000
1305064.607257,-21.000000,-18.000000,-48.000000,-12.000000,17.000000,2.000000,-1.000000,-6.000000
1305064.607266,21.000000,-5.000000,-17.000000,11.000000,11.000000,16.000000,17.000000,19.000000
1305064.608147,-9.000000,-5.000000,6.000000,9.000000,14.000000,-6.000000,-11.000000,-13.000000
1305064.608155,3.000000,-14.000000,-16.000000,-4.000000,-3.000000,-4.000000,-4.000000,-1.000000
1305064.644431,0.000000,-34.000000,-75.000000,11.000000,27.000000,-4.000000,-4.000000,0.000000
1305064.644459,-18.000000,2.000000,-15.000000,-21.000000,-22.000000,-4.000000,4.000000,-9.000000
1305064.666965,-3.000000,-17.000000,-41.000000,2.000000,7.000000,0.000000,-4.000000,6.000000
1305064.666976,8.000000,3.000000,29.000000,35.000000,37.000000,-3.000000,-12.000000,-6.000000
1305064.674575,4.000000,12.000000,2.000000,-5.000000,1.000000,17.000000,28.000000,15.000000
1305064.674592,-40.000000,-35.000000,18.000000,11.000000,-16.000000,-19.000000,-9.000000,-4.000000
1305064.689625,21.000000,-11.000000,-82.000000,-35.000000,-30.000000,0.000000,10.000000,5.000000
1305064.689636,-3.000000,-8.000000,-12.000000,-4.000000,8.000000,-1.000000,-6.000000,-3.000000
1305064.704688,-13.000000,0.000000,-9.000000,11.000000,8.000000,-5.000000,-9.000000,-11.000000
1305064.704699,-3.000000,3.000000,65.000000,-3.000000,-5.000000,1.000000,-2.000000,-2.000000
1305064.726834,-14.000000,-13.000000,24.000000,-2.000000,-18.000000,-13.000000,-6.000000,-9.000000
1305064.726855,10.000000,8.000000,-91.000000,-30.000000,-17.000000,2.000000,7.000000,3.000000
1305064.727843,-10.000000,8.000000,100.000000,36.000000,20.000000,2.000000,-1.000000,-6.000000
1305064.727851,25.000000,-2.000000,-67.000000,-11.000000,2.000000,-3.000000,3.000000,11.000000
1305064.728512,-32.000000,9.000000,14.000000,-5.000000,7.000000,7.000000,0.000000,-6.000000
1305064.728530,12.000000,-7.000000,-49.000000,-7.000000,-2.000000,-3.000000,-13.000000,-4.000000
1305064.729798,7.000000,-10.000000,-41.000000,20.000000,48.000000,8.000000,-15.000000,-4.000000
1305064.729806,5.000000,9.000000,21.000000,-23.000000,-32.000000,5.000000,23.000000,25.000000
1305064.741778,-3.000000,0.000000,-31.000000,2.000000,22.000000,8.000000,0.000000,-1.000000
1305064.741789,3.000000,17.000000,15.000000,-16.000000,-17.000000,3.000000,-8.000000,14.000000
1305064.749566,-11.000000,-13.000000,10.000000,9.000000,5.000000,-3.000000,-22.000000,-20.000000
1305064.749578,-9.000000,-13.000000,-8.000000,-16.000000,-15.000000,2.000000,36.000000,6.000000
1305064.757203,17.000000,0.000000,-10.000000,11.000000,13.000000,1.000000,-1.000000,7.000000
1305064.757216,-27.000000,-11.000000,17.000000,-1.000000,-6.000000,-5.000000,-12.000000,-7.000000
1305064.786848,-12.000000,0.000000,-1.000000,-15.000000,4.000000,7.000000,-3.000000,-7.000000
1305064.786858,10.000000,-21.000000,-28.000000,-8.000000,2.000000,-9.000000,-4.000000,-4.000000
1305064.802110,-3.000000,4.000000,-83.000000,-11.000000,0.000000,-2.000000,-1.000000,-2.000000
1305064.802121,-4.000000,10.000000,47.000000,21.000000,15.000000,8.000000,4.000000,3.000000
1305064.824429,-27.000000,-6.000000,-32.000000,-13.000000,-4.000000,9.000000,-3.000000,-5.000000
1305064.824446,-21.000000,-9.000000,-28.000000,-5.000000,-11.000000,-4.000000,1.000000,-4.000000
1305064.824822,54.000000,30.000000,49.000000,9.000000,11.000000,2.000000,12.000000,21.000000
1305064.824831,-10.000000,-23.000000,-41.000000,-13.000000,-9.000000,-5.000000,-2.000000,-11.000000
1305064.825978,-6.000000,6.000000,19.000000,-9.000000,-25.000000,-6.000000,-11.000000,-13.000000
1305064.825986,-15.000000,-23.000000,-58.000000,15.000000,24.000000,3.000000,4.000000,10.000000
1305064.826573,-1.000000,-4.000000,11.000000,-2.000000,3.000000,12.000000,3.000000,-5.000000
1305064.826586,-10.000000,-21.000000,5.000000,10.000000,3.000000,-3.000000,1.000000,4.000000
1305064.828088,5.000000,19.000000,16.000000,-19.000000,-36.000000,-16.000000,-9.000000,-6.000000
1305064.828097,1.000000,-5.000000,-23.000000,5.000000,13.000000,15.000000,4.000000,-2.000000
1305064.847062,-5.000000,-21.000000,-41.000000,5.000000,9.000000,-1.000000,-2.000000,-2.000000
1305064.847074,2.000000,-1.000000,4.000000,-28.000000,-28.000000,4.000000,3.000000,12.000000
1305064.848158,22.000000,27.000000,18.000000,17.000000,13.000000,6.000000,21.000000,32.000000
1305064.848166,-10.000000,-10.000000,28.000000,-5.000000,2.000000,3.000000,-10.000000,-13.000000
1305064.861958,-6.000000,6.000000,-34.000000,-4.000000,-15.000000,-10.000000,-3.000000,-7.000000
1305064.861980,-4.000000,9.000000,13.000000,18.000000,5.000000,-2.000000,4.000000,1.000000
1305064.876899,16.000000,-1.000000,10.000000,-6.000000,8.000000,-2.000000,11.000000,2.000000
1305064.876908,-3.000000,27.000000,26.000000,12.000000,4.000000,-10.000000,-8.000000,-7.000000
1305064.884590,-9.000000,-3.000000,-7.000000,3.000000,8.000000,-2.000000,1.000000,2.000000
1305064.884601,30.000000,1.000000,17.000000,-2.000000,-12.000000,1.000000,8.000000,13.000000
1305064.929603,-7.000000,6.000000,-41.000000,-14.000000,2.000000,4.000000,-2.000000,3.000000
1305064.929614,4.000000,1.000000,-5.000000,-3.000000,-4.000000,3.000000,10.000000,6.000000
1305064.944533,-20.000000,-11.000000,8.000000,7.000000,2.000000,-1.000000,3.000000,0.000000
1305064.944545,25.000000,-6.000000,-68.000000,15.000000,16.000000,-5.000000,-4.000000,10.000000
1305064.945482,-13.000000,38.000000,77.000000,3.000000,10.000000,15.000000,3.000000,-3.000000
1305064.945494,5.000000,2.000000,13.000000,5.000000,-7.000000,-1.000000,-20.000000,-16.000000
1305064.945995,-9.000000,-4.000000,-18.000000,-8.000000,14.000000,4.000000,24.000000,-2.000000
1305064.946004,3.000000,-48.000000,-36.000000,12.000000,9.000000,-2.000000,4.000000,3.000000
1305064.947326,-6.000000,-15.000000,-69.000000,6.000000,19.000000,1.000000,1.000000,-3.000000
1305064.947335,-10.000000,-24.000000,-6.000000,-4.000000,0.000000,-2.000000,7.000000,-5.000000
1305064.959449,-7.000000,1.000000,46.000000,-6.000000,-5.000000,-4.000000,0.000000,-11.000000
1305064.959469,-14.000000,-9.000000,36.000000,9.000000,-3.000000,-9.000000,-12.000000,-1.000000
1305064.968101,-7.000000,11.000000,-41.000000,-1.000000,-6.000000,-10.000000,-5.000000,-5.000000
1305064.968198,-3.000000,3.000000,19.000000,-4.000000,-11.000000,-4.000000,1.000000,2.000000
1305064.982760,-7.000000,-13.000000,-14.000000,7.000000,10.000000,6.000000,-9.000000,-12.000000
1305064.982787,19.000000,6.000000,-8.000000,0.000000,0.000000,0.000000,0.000000,9.000000
1305064.997024,-2.000000,-2.000000,-12.000000,2.000000,-1.000000,0.000000,-2.000000,-2.000000
1305064.997036,-1.000000,5.000000,7.000000,2.000000,-5.000000,-5.000000,1.000000,-6.000000
1305065.004692,-2.000000,-27.000000,-17.000000,-12.000000,-4.000000,4.000000,8.000000,3.000000
1305065.004704,-6.000000,50.000000,24.000000,9.000000,13.000000,0.000000,2.000000,5.000000
1305065.019897,-1.000000,29.000000,-31.000000,-6.000000,-8.000000,-4.000000,2.000000,-7.000000
1305065.019922,-21.000000,-33.000000,46.000000,-7.000000,-4.000000,7.000000,5.000000,-3.000000
1305065.020728,12.000000,-12.000000,-13.000000,-7.000000,-14.000000,-12.000000,12.000000,19.000000
1305065.020754,-3.000000,-15.000000,-2.000000,3.000000,-3.000000,-13.000000,-24.000000,-10.000000
1305065.027508,-6.000000,-18.000000,-30.000000,2.000000,-13.000000,-5.000000,28.000000,6.000000
1305065.027516,10.000000,17.000000,18.000000,-9.000000,-16.000000,4.000000,-3.000000,1.000000
1305065.034681,0.000000,-13.000000,-27.000000,8.000000,3.000000,0.000000,-1.000000,2.000000
1305065.034692,25.000000,29.000000,56.000000,4.000000,4.000000,9.000000,7.000000,12.000000
1305065.064340,-4.000000,-17.000000,23.000000,13.000000,9.000000,-8.000000,3.000000,1.000000
1305065.064389,-50.000000,23.000000,-13.000000,-32.000000,-24.000000,6.000000,0.000000,-1.000000
1305065.064894,41.000000,-7.000000,8.000000,-2.000000,7.000000,4.000000,-13.000000,8.000000
1305065.064924,-5.000000,15.000000,20.000000,7.000000,12.000000,-3.000000,-8.000000,-9.000000
1305065.066341,-5.000000,-18.000000,-49.000000,-19.000000,-16.000000,-5.000000,-3.000000,3.000000
1305065.066368,3.000000,38.000000,37.000000,19.000000,13.000000,1.000000,2.000000,-2.000000
1305065.079668,-8.000000,-25.000000,-1.000000,9.000000,14.000000,4.000000,-4.000000,2.000000
1305065.079679,29.000000,-12.000000,-14.000000,-3.000000,9.000000,-1.000000,1.000000,3.000000
1305065.087907,-1.000000,0.000000,-6.000000,4.000000,9.000000,8.000000,-11.000000,-7.000000
1305065.087923,-17.000000,1.000000,-13.000000,2.000000,-9.000000,-11.000000,-10.000000,-11.000000
1305065.101948,-4.000000,5.000000,15.000000,-21.000000,-22.000000,3.000000,3.000000,5.000000
1305065.101962,-4.000000,-12.000000,14.000000,2.000000,-2.000000,-6.000000,-10.000000,7.000000
1305065.124612,-17.000000,14.000000,-3.000000,-3.000000,-3.000000,7.000000,20.000000,-6.000000
1305065.124623,21.000000,24.000000,1.000000,-6.000000,2.000000,-2.000000,4.000000,15.000000
1305065.146824,-16.000000,13.000000,-6.000000,3.000000,26.000000,8.000000,-2.000000,-6.000000
1305065.146864,16.000000,0.000000,9.000000,-1.000000,-5.000000,6.000000,3.000000,8.000000
1305065.162214,6.000000,-9.000000,3.000000,9.000000,10.000000,-11.000000,-8.000000,-8.000000
1305065.162227,-8.000000,-1.000000,-8.000000,-26.000000,-41.000000,-6.000000,-7.000000,-9.000000
1305065.177204,-22.000000,-5.000000,56.000000,0.000000,3.000000,2.000000,-5.000000,-16.000000
1305065.177216,-2.000000,-6.000000,-72.000000,-2.000000,13.000000,1.000000,-10.000000,-3.000000
1305065.199169,-23.000000,-17.000000,2.000000,4.000000,0.000000,-5.000000,-4.000000,-6.000000
1305065.199182,30.000000,4.000000,118.000000,-4.000000,2.000000,4.000000,-6.000000,5.000000
1305065.199782,-15.000000,11.000000,1.000000,1.000000,0.000000,-5.000000,-10.000000,-10.000000
1305065.199792,7.000000,-14.000000,-21.000000,-19.000000,-13.000000,10.000000,-7.000000,6.000000
1305065.200887,-10.000000,-16.000000,22.000000,0.000000,-9.000000,-14.000000,-7.000000,-10.000000
1305065.200895,6.000000,4.000000,8.000000,26.000000,21.000000,-6.000000,-7.000000,-2.000000
1305065.201659,6.000000,-5.000000,6.000000,0.000000,21.000000,14.000000,-3.000000,-5.000000
1305065.201676,6.000000,-3.000000,5.000000,7.000000,-3.000000,1.000000,22.000000,25.000000
1305065.202427,54.000000,4.000000,17.000000,21.000000,5.000000,-2.000000,5.000000,17.000000
1305065.202436,-11.000000,-12.000000,-77.000000,-15.000000,10.000000,7.000000,11.000000,1.000000
1305065.207694,-7.000000,-9.000000,-97.000000,6.000000,7.000000,1.000000,14.000000,10.000000
1305065.207704,-1.000000,29.000000,101.000000,14.000000,5.000000,0.000000,-16.000000,-4.000000
1305065.222155,-12.000000,8.000000,-10.000000,-4.000000,5.000000,1.000000,13.000000,-1.000000
1305065.222166,-13.000000,-15.000000,-31.000000,-1.000000,-4.000000,-9.000000,-12.000000,-5.000000
1305065.244488,16.000000,-3.000000,27.000000,5.000000,-13.000000,2.000000,14.000000,19.000000
1305065.244504,-33.000000,-8.000000,-15.000000,-6.000000,-1.000000,-13.000000,-13.000000,-16.000000
1305065.259600,28.000000,-6.000000,-11.000000,15.000000,21.000000,-3.000000,12.000000,12.000000
1305065.259617,-20.000000,0.000000,-3.000000,-27.000000,-14.000000,4.000000,-3.000000,-11.000000
1305065.281991,-26.000000,-16.000000,59.000000,3.000000,2.000000,2.000000,2.000000,-2.000000
1305065.282003,-9.000000,18.000000,29.000000,7.000000,-7.000000,-6.000000,-7.000000,-17.000000
1305065.296910,23.000000,17.000000,35.000000,22.000000,26.000000,0.000000,-3.000000,-1.000000
1305065.296920,-5.000000,-13.000000,-55.000000,-21.000000,-21.000000,-3.000000,9.000000,8.000000
1305065.312121,-2.000000,-14.000000,1.000000,-6.000000,2.000000,0.000000,-9.000000,-8.000000
1305065.312132,-11.000000,-11.000000,6.000000,1.000000,-7.000000,-19.000000,-11.000000,-9.000000
1305065.319486,0.000000,27.000000,-4.000000,5.000000,-17.000000,-14.000000,-14.000000,-8.000000
1305065.319498,-13.000000,-13.000000,12.000000,-1.000000,-2.000000,3.000000,2.000000,2.000000
1305065.320403,10.000000,11.000000,27.000000,4.000000,12.000000,1.000000,0.000000,3.000000
1305065.320411,-14.000000,-19.000000,-31.000000,3.000000,9.000000,-5.000000,-6.000000,-6.000000
1305065.321100,15.000000,-4.000000,5.000000,-22.000000,-33.000000,-7.000000,0.000000,7.000000
1305065.321108,-6.000000,-26.000000,7.000000,-4.000000,4.000000,-4.000000,-6.000000,1.000000
1305065.321893,4.000000,31.000000,-6.000000,16.000000,19.000000,6.000000,28.000000,-5.000000
1305065.321902,3.000000,-21.000000,-83.000000,-19.000000,-9.000000,-12.000000,4.000000,4.000000
1305065.357152,4.000000,4.000000,124.000000,37.000000,0.000000,-5.000000,4.000000,-2.000000
1305065.357163,-31.000000,-22.000000,-14.000000,-44.000000,-11.000000,2.000000,-2.000000,-5.000000
1305065.364710,10.000000,-4.000000,6.000000,5.000000,6.000000,-1.000000,-5.000000,-3.000000
1305065.364724,4.000000,-9.000000,-4.000000,3.000000,9.000000,0.000000,-3.000000,3.000000
1305065.379822,-17.000000,-19.000000,-6.000000,14.000000,10.000000,-8.000000,-8.000000,-9.000000
1305065.379836,5.000000,-3.000000,18.000000,7.000000,15.000000,13.000000,3.000000,5.000000
1305065.380386,7.000000,-9.000000,-57.000000,0.000000,-13.000000,-10.000000,6.000000,1.000000
1305065.380394,-10.000000,-4.000000,36.000000,-5.000000,9.000000,22.000000,-5.000000,4.000000
1305065.381704,7.000000,30.000000,36.000000,10.000000,-9.000000,-3.000000,2.000000,-2.000000
1305065.381721,-8.000000,-23.000000,-13.000000,-9.000000,-26.000000,-16.000000,-11.000000,-9.000000
1305065.382379,2.000000,2.000000,43.000000,23.000000,16.000000,7.000000,3.000000,9.000000
1305065.382388,21.000000,-12.000000,-128.000000,-24.000000,6.000000,-1.000000,3.000000,7.000000
1305065.386843,-8.000000,3.000000,-35.000000,-21.000000,-34.000000,-9.000000,-8.000000,-11.000000
1305065.386852,2.000000,17.000000,11.000000,9.000000,10.000000,-4.000000,1.000000,1.000000
1305065.394613,-7.000000,3.000000,12.000000,4.000000,0.000000,14.000000,5.000000,4.000000
1305065.394627,13.000000,-1.000000,8.000000,-4.000000,0.000000,2.000000,13.000000,3.000000
1305065.416870,2.000000,-42.000000,28.000000,4.000000,3.000000,-1.000000,1.000000,-13.000000
1305065.416881,-28.000000,44.000000,-10.000000,-8.000000,-12.000000,1.000000,-8.000000,-10.000000
1305065.417689,6.000000,3.000000,-10.000000,-26.000000,-11.000000,6.000000,-6.000000,-6.000000
1305065.417699,-4.000000,-18.000000,-74.000000,-11.000000,-5.000000,-6.000000,16.000000,9.000000
1305065.424910,10.000000,-4.000000,23.000000,-8.000000,7.000000,9.000000,3.000000,4.000000
1305065.424929,-5.000000,4.000000,34.000000,-10.000000,-15.000000,-5.000000,-2.000000,-3.000000
1305065.439242,-10.000000,-17.000000,-30.000000,5.000000,20.000000,-9.000000,-6.000000,-1.000000
1305065.439265,-2.000000,4.000000,51.000000,-25.000000,-24.000000,15.000000,9.000000,4.000000
1305065.454631,18.000000,8.000000,-51.000000,0.000000,9.000000,2.000000,0.000000,3.000000
1305065.454642,-9.000000,-23.000000,25.000000,15.000000,5.000000,-4.000000,-3.000000,-6.000000
1305065.461932,-29.000000,-32.000000,-78.000000,-9.000000,-7.000000,-7.000000,-9.000000,-9.000000
1305065.461943,24.000000,14.000000,-30.000000,-22.000000,-17.000000,-3.000000,-11.000000,-4.000000
1305065.484486,-5.000000,-5.000000,-20.000000,-4.000000,3.000000,-2.000000,-4.000000,-9.000000
1305065.484528,-4.000000,1.000000,5.000000,8.000000,11.000000,3.000000,13.000000,17.000000
1305065.499555,-5.000000,-9.000000,-27.000000,-2.000000,-25.000000,-18.000000,-2.000000,-5.000000
1305065.499566,-5.000000,0.000000,19.000000,-27.000000,-36.000000,6.000000,6.000000,-7.000000
1305065.521964,4.000000,-2.000000,8.000000,12.000000,2.000000,0.000000,11.000000,6.000000
1305065.521975,-1.000000,-6.000000,-12.000000,-9.000000,-4.000000,1.000000,6.000000,-5.000000
1305065.537170,-13.000000,-13.000000,2.000000,1.000000,21.000000,3.000000,-23.000000,-22.000000
1305065.537181,3.000000,-6.000000,5.000000,-36.000000,-26.000000,21.000000,48.000000,30.000000
1305065.537994,11.000000,-52.000000,-4.000000,0.000000,-7.000000,-1.000000,5.000000,7.000000
1305065.538005,0.000000,-16.000000,15.000000,4.000000,0.000000,-3.000000,-4.000000,-7.000000
1305065.538551,-9.000000,38.000000,18.000000,11.000000,-3.000000,-1.000000,6.000000,8.000000
1305065.538559,-10.000000,-8.000000,-37.000000,-21.000000,-20.000000,0.000000,0.000000,-3.000000
1305065.540099,7.000000,-10.000000,-29.000000,-4.000000,13.000000,10.000000,10.000000,10.000000
1305065.540109,6.000000,-3.000000,52.000000,-15.000000,-14.000000,2.000000,0.000000,-1.000000
1305065.540949,-11.000000,-6.000000,-1.000000,1.000000,2.000000,-2.000000,-3.000000,-10.000000
1305065.540957,-5.000000,-5.000000,-6.000000,6.000000,-1.000000,-5.000000,-5.000000,2.000000
1305065.559433,0.000000,18.000000,14.000000,9.000000,14.000000,0.000000,-6.000000,-12.000000
1305065.559451,33.000000,-5.000000,-2.000000,-6.000000,-2.000000,0.000000,8.000000,24.000000
1305065.559783,-11.000000,-7.000000,11.000000,-8.000000,-17.000000,0.000000,1.000000,-2.000000
1305065.559792,-62.000000,-10.000000,-62.000000,-6.000000,2.000000,-1.000000,-8.000000,-16.000000
1305065.574446,79.000000,18.000000,-6.000000,-2.000000,-1.000000,2.000000,2.000000,22.000000
1305065.574466,0.000000,27.000000,40.000000,11.000000,4.000000,0.000000,-3.000000,-7.000000
1305065.582094,-10.000000,-3.000000,16.000000,-1.000000,-15.000000,-14.000000,-4.000000,-3.000000
1305065.582107,-21.000000,-24.000000,-31.000000,-39.000000,-63.000000,-22.000000,-6.000000,-9.000000
1305065.619434,-2.000000,-14.000000,-6.000000,11.000000,13.000000,3.000000,-10.000000,-10.000000
1305065.619454,27.000000,64.000000,44.000000,26.000000,12.000000,1.000000,7.000000,26.000000
1305065.627333,-13.000000,-5.000000,-12.000000,-27.000000,-34.000000,3.000000,-8.000000,1.000000
1305065.627392,-3.000000,-10.000000,-51.000000,2.000000,15.000000,4.000000,3.000000,-11.000000
1305065.642200,4.000000,13.000000,39.000000,-11.000000,-16.000000,-17.000000,-2.000000,1.000000
1305065.642213,-10.000000,-12.000000,-7.000000,-4.000000,5.000000,-2.000000,-3.000000,4.000000
1305065.656696,-2.000000,-14.000000,24.000000,19.000000,12.000000,0.000000,-7.000000,-4.000000
1305065.656707,12.000000,0.000000,-70.000000,-10.000000,-9.000000,0.000000,7.000000,3.000000
1305065.657896,-4.000000,26.000000,-14.000000,-5.000000,2.000000,-1.000000,-5.000000,-4.000000
1305065.657908,3.000000,4.000000,14.000000,11.000000,5.000000,-2.000000,1.000000,-2.000000
1305065.658511,-1.000000,-14.000000,10.000000,-4.000000,-9.000000,-2.000000,-1.000000,1.000000
1305065.658520,-3.000000,-2.000000,3.000000,21.000000,23.000000,2.000000,-6.000000,-6.000000
1305065.659940,-13.000000,-9.000000,34.000000,-1.000000,-24.000000,-2.000000,8.000000,4.000000
1305065.659950,9.000000,10.000000,23.000000,9.000000,20.000000,8.000000,12.000000,6.000000
1305065.660722,13.000000,-18.000000,-61.000000,-40.000000,-25.000000,-6.000000,5.000000,11.000000
1305065.660730,-4.000000,7.000000,10.000000,-2.000000,6.000000,-11.000000,-8.000000,-26.000000
1305065.680128,5.000000,-27.000000,-26.000000,-8.000000,-1.000000,-2.000000,-1.000000,3.000000
1305065.680138,-31.000000,-1.000000,-2.000000,-3.000000,3.000000,-2.000000,-12.000000,-10.000000
1305065.694498,15.000000,28.000000,-23.000000,5.000000,-9.000000,0.000000,33.000000,8.000000
1305065.694509,20.000000,-4.000000,-78.000000,-3.000000,12.000000,7.000000,7.000000,15.000000
1305065.716827,-14.000000,-1.000000,55.000000,8.000000,-22.000000,-9.000000,1.000000,-8.000000
1305065.716837,-5.000000,-16.000000,-76.000000,-31.000000,-13.000000,3.000000,-13.000000,-6.000000
1305065.739464,-13.000000,-32.000000,-42.000000,-4.000000,-5.000000,-7.000000,-7.000000,-12.000000
1305065.739475,12.000000,24.000000,36.000000,22.000000,15.000000,-6.000000,2.000000,9.000000
1305065.754736,-4.000000,3.000000,-1.000000,-19.000000,2.000000,8.000000,7.000000,8.000000
1305065.754745,-12.000000,-26.000000,2.000000,4.000000,10.000000,-5.000000,3.000000,-3.000000
1305065.755303,5.000000,1.000000,23.000000,-1.000000,11.000000,2.000000,-6.000000,-8.000000
1305065.755324,-5.000000,6.000000,6.000000,-2.000000,-3.000000,0.000000,-1.000000,-9.000000
1305065.756575,5.000000,-9.000000,4.000000,-2.000000,1.000000,-2.000000,1.000000,5.000000
1305065.756584,7.000000,-11.000000,-14.000000,-7.000000,9.000000,9.000000,1.000000,-1.000000
1305065.757611,-8.000000,7.000000,-20.000000,13.000000,10.000000,-3.000000,-2.000000,-10.000000
1305065.757622,-8.000000,4.000000,14.000000,-11.000000,-26.000000,-2.000000,-2.000000,4.000000
1305065.761639,-18.000000,-51.000000,2.000000,-17.000000,-19.000000,-10.000000,-6.000000,-7.000000
1305065.761666,-10.000000,-49.000000,-30.000000,7.000000,8.000000,-4.000000,-1.000000,-6.000000
1305065.776770,4.000000,37.000000,42.000000,-4.000000,1.000000,3.000000,-13.000000,2.000000
1305065.776780,6.000000,35.000000,3.000000,-16.000000,-26.000000,-8.000000,5.000000,4.000000
1305065.777593,-16.000000,-7.000000,6.000000,14.000000,10.000000,7.000000,-20.000000,-15.000000
1305065.777601,11.000000,-16.000000,4.000000,1.000000,14.000000,7.000000,46.000000,37.000000
1305065.800066,3.000000,17.000000,30.000000,25.000000,14.000000,0.000000,-15.000000,-11.000000
1305065.800084,1.000000,-8.000000,-51.000000,-48.000000,-57.000000,-7.000000,-5.000000,1.000000
1305065.800444,11.000000,4.000000,-13.000000,-1.000000,6.000000,-1.000000,-7.000000,1.000000
1305065.800470,-11.000000,-20.000000,23.000000,-2.000000,2.000000,-4.000000,-6.000000,-6.000000
1305065.814487,-24.000000,-11.000000,-18.000000,12.000000,29.000000,6.000000,2.000000,-2.000000
1305065.814518,46.000000,-5.000000,-49.000000,-10.000000,-6.000000,0.000000,-4.000000,5.000000
1305065.821924,-7.000000,-1.000000,51.000000,18.000000,13.000000,-5.000000,8.000000,14.000000
1305065.821934,-4.000000,-3.000000,-58.000000,-5.000000,20.000000,12.000000,-9.000000,-15.000000
1305065.837427,-6.000000,7.000000,-26.000000,-2.000000,1.000000,4.000000,10.000000,1.000000
1305065.837456,9.000000,-6.000000,8.000000,-2.000000,-3.000000,2.000000,5.000000,9.000000
1305065.859356,-23.000000,-14.000000,19.000000,8.000000,8.000000,-6.000000,-7.000000,-7.000000
1305065.859384,17.000000,7.000000,19.000000,-3.000000,6.000000,4.000000,4.000000,-4.000000
1305065.874746,-8.000000,-7.000000,-103.000000,-11.000000,5.000000,-15.000000,-11.000000,-10.000000
1305065.874755,7.000000,-9.000000,19.000000,-32.000000,-23.000000,8.000000,9.000000,8.000000
1305065.875479,-8.000000,-11.000000,-20.000000,18.000000,14.000000,8.000000,12.000000,19.000000
1305065.875487,16.000000,10.000000,48.000000,39.000000,58.000000,8.000000,-5.000000,-3.000000
1305065.876996,-7.000000,-2.000000,27.000000,-19.000000,-22.000000,-8.000000,3.000000,0.000000
1305065.877024,0.000000,6.000000,-13.000000,-3.000000,4.000000,0.000000,12.000000,2.000000
1305065.897283,-22.000000,-5.000000,7.000000,0.000000,7.000000,-3.000000,-8.000000,-7.000000
1305065.897319,19.000000,-16.000000,-51.000000,4.000000,7.000000,-3.000000,8.000000,7.000000
1305065.898048,4.000000,11.000000,37.000000,12.000000,4.000000,4.000000,18.000000,2.000000
1305065.898071,-40.000000,4.000000,82.000000,5.000000,-10.000000,-4.000000,-6.000000,-15.000000
1305065.899290,90.000000,12.000000,-54.000000,-5.000000,-1.000000,3.000000,-3.000000,4.000000
1305065.899351,3.000000,-16.000000,-11.000000,13.000000,27.000000,25.000000,18.000000,7.000000
1305065.911838,-5.000000,43.000000,32.000000,-11.000000,-24.000000,5.000000,3.000000,1.000000
1305065.911847,2.000000,12.000000,9.000000,13.000000,18.000000,6.000000,4.000000,3.000000
1305065.919620,-3.000000,20.000000,-16.000000,-23.000000,-27.000000,-5.000000,6.000000,1.000000
1305065.919631,6.000000,4.000000,102.000000,34.000000,23.000000,6.000000,4.000000,7.000000
1305065.941905,12.000000,3.000000,-64.000000,-28.000000,-10.000000,5.000000,6.000000,1.000000
1305065.941915,-22.000000,-18.000000,10.000000,1.000000,3.000000,-1.000000,-10.000000,-10.000000
1305065.949262,2.000000,2.000000,32.000000,22.000000,6.000000,-6.000000,-2.000000,-4.000000
1305065.949290,-3.000000,-24.000000,-75.000000,-23.000000,-7.000000,0.000000,2.000000,0.000000
1305065.964404,-1.000000,74.000000,15.000000,19.000000,7.000000,-2.000000,-1.000000,-3.000000
1305065.964436,2.000000,-25.000000,-128.000000,-43.000000,-13.000000,2.000000,-3.000000,-6.000000
1305065.971954,-1.000000,23.000000,49.000000,18.000000,10.000000,-1.000000,-13.000000,-8.000000
1305065.971991,5.000000,-5.000000,7.000000,-8.000000,-9.000000,9.000000,2.000000,-6.000000
1305065.986943,-7.000000,-3.000000,21.000000,10.000000,-1.000000,-6.000000,0.000000,5.000000
1305065.986991,11.000000,29.000000,-48.000000,-11.000000,-10.000000,-8.000000,-5.000000,-6.000000
1305065.994253,7.000000,-11.000000,26.000000,-2.000000,-45.000000,-22.000000,-5.000000,-2.000000
1305065.994282,-12.000000,-10.000000,-7.000000,-7.000000,-4.000000,-3.000000,-2.000000,-4.000000
1305066.031927,-4.000000,-6.000000,-1.000000,5.000000,5.000000,2.000000,-3.000000,-4.000000
1305066.031937,5.000000,4.000000,-15.000000,-10.000000,-10.000000,9.000000,11.000000,17.000000
1305066.032311,-27.000000,-15.000000,-24.000000,-11.000000,-6.000000,-9.000000,-7.000000,-14.000000
1305066.032321,16.000000,-6.000000,44.000000,-11.000000,3.000000,-1.000000,1.000000,5.000000
1305066.033544,-14.000000,-14.000000,-32.000000,4.000000,-3.000000,-5.000000,-2.000000,-9.000000
1305066.033570,-5.000000,6.000000,-20.000000,1.000000,-2.000000,12.000000,2.000000,-5.000000
1305066.034169,3.000000,-23.000000,-19.000000,2.000000,-1.000000,-4.000000,3.000000,0.000000
1305066.034195,11.000000,3.000000,32.000000,5.000000,2.000000,2.000000,2.000000,3.000000
1305066.035657,-10.000000,-12.000000,-4.000000,7.000000,34.000000,10.000000,-4.000000,-1.000000
1305066.035684,-9.000000,36.000000,14.000000,-18.000000,-33.000000,-7.000000,4.000000,-3.000000
1305066.039107,10.000000,6.000000,9.000000,-2.000000,-6.000000,3.000000,7.000000,-5.000000
1305066.039124,-15.000000,-17.000000,5.000000,4.000000,22.000000,10.000000,-8.000000,-12.000000
1305066.076871,4.000000,11.000000,-38.000000,-10.000000,-27.000000,-8.000000,15.000000,13.000000
1305066.076883,22.000000,6.000000,73.000000,23.000000,16.000000,-6.000000,-18.000000,3.000000
1305066.092103,21.000000,-4.000000,-75.000000,-34.000000,-18.000000,-4.000000,-5.000000,-2.000000
1305066.092113,-10.000000,-18.000000,8.000000,0.000000,1.000000,-10.000000,4.000000,-9.000000
1305066.114686,-16.000000,-7.000000,-41.000000,-11.000000,2.000000,-2.000000,-2.000000,2.000000
1305066.114704,6.000000,11.000000,18.000000,-19.000000,-31.000000,-3.000000,5.000000,1.000000
1305066.115273,-12.000000,-50.000000,31.000000,-3.000000,7.000000,-6.000000,1.000000,-1.000000
1305066.115346,13.000000,54.000000,22.000000,7.000000,3.000000,3.000000,-2.000000,-2.000000
1305066.116256,-6.000000,-15.000000,11.000000,-2.000000,-5.000000,-3.000000,5.000000,7.000000
1305066.116269,-3.000000,-3.000000,-38.000000,9.000000,-6.000000,-13.000000,-7.000000,-8.000000
1305066.116937,1.000000,0.000000,-7.000000,-40.000000,-35.000000,9.000000,2.000000,1.000000
1305066.116951,-5.000000,1.000000,10.000000,18.000000,14.000000,-3.000000,0.000000,-4.000000
1305066.129192,-6.000000,2.000000,2.000000,-6.000000,-19.000000,-5.000000,-8.000000,-6.000000
1305066.129214,1.000000,-2.000000,-24.000000,-5.000000,16.000000,1.000000,-6.000000,1.000000
1305066.130494,-28.000000,-19.000000,-41.000000,25.000000,15.000000,-7.000000,-9.000000,-12.000000
1305066.130503,7.000000,17.000000,84.000000,2.000000,-13.000000,-2.000000,6.000000,2.000000
1305066.136781,6.000000,-5.000000,13.000000,14.000000,8.000000,4.000000,34.000000,36.000000
1305066.136809,-9.000000,-1.000000,15.000000,-17.000000,-20.000000,-4.000000,-13.000000,-14.000000
1305066.152124,16.000000,15.000000,-16.000000,-15.000000,-1.000000,-2.000000,26.000000,2.000000
1305066.152134,-16.000000,-25.000000,-41.000000,1.000000,2.000000,-9.000000,-4.000000,-2.000000
1305066.174426,-1.000000,9.000000,15.000000,8.000000,6.000000,1.000000,-5.000000,-1.000000
1305066.174447,0.000000,-5.000000,15.000000,-5.000000,-3.000000,-4.000000,6.000000,6.000000
1305066.197199,-1.000000,-7.000000,-34.000000,-2.000000,7.000000,8.000000,3.000000,-1.000000
1305066.197211,-10.000000,5.000000,2.000000,-15.000000,-13.000000,2.000000,0.000000,-4.000000
1305066.226847,13.000000,-9.000000,28.000000,-6.000000,-29.000000,-17.000000,-1.000000,9.000000
1305066.226865,-9.000000,0.000000,-45.000000,-9.000000,-1.000000,-1.000000,-5.000000,-3.000000
1305066.234834,-2.000000,5.000000,21.000000,21.000000,18.000000,-4.000000,-8.000000,-1.000000
1305066.234849,-12.000000,-24.000000,-3.000000,-19.000000,-18.000000,-5.000000,3.000000,-3.000000
1305066.235419,-24.000000,20.000000,3.000000,-16.000000,-9.000000,-2.000000,2.000000,-9.000000
1305066.235427,35.000000,15.000000,5.000000,-37.000000,-14.000000,7.000000,-2.000000,6.000000
1305066.236581,1.000000,-1.000000,-8.000000,3.000000,-3.000000,-8.000000,-6.000000,-4.000000
1305066.236590,-6.000000,-11.000000,20.000000,1.000000,2.000000,-11.000000,-10.000000,-4.000000
1305066.237569,16.000000,-71.000000,-44.000000,-19.000000,-13.000000,2.000000,0.000000,3.000000
1305066.237577,-11.000000,10.000000,39.000000,-2.000000,-17.000000,-8.000000,0.000000,-3.000000
1305066.249317,-43.000000,-23.000000,6.000000,9.000000,13.000000,0.000000,-3.000000,-12.000000
1305066.249327,31.000000,26.000000,27.000000,-1.000000,-28.000000,-14.000000,1.000000,9.000000
1305066.250646,-8.000000,1.000000,4.000000,-16.000000,-25.000000,-9.000000,-2.000000,0.000000
1305066.250655,-25.000000,-39.000000,-29.000000,-2.000000,-4.000000,-7.000000,-15.000000,-12.000000
1305066.257117,0.000000,10.000000,48.000000,-11.000000,-7.000000,7.000000,18.000000,1.000000
1305066.257128,-36.000000,17.000000,-41.000000,6.000000,0.000000,-1.000000,-7.000000,-2.000000
1305066.271810,26.000000,1.000000,-52.000000,-7.000000,-3.000000,-8.000000,-9.000000,-7.000000
1305066.271821,-43.000000,-57.000000,-16.000000,-8.000000,-17.000000,-10.000000,-13.000000,-20.000000
1305066.294472,3.000000,-9.000000,2.000000,-11.000000,-22.000000,-5.000000,1.000000,6.000000
1305066.294488,1.000000,18.000000,10.000000,-6.000000,0.000000,2.000000,2.000000,-3.000000
1305066.331776,-12.000000,-31.000000,55.000000,17.000000,11.000000,-4.000000,-2.000000,-3.000000
1305066.331786,12.000000,27.000000,-91.000000,-10.000000,5.000000,-10.000000,-16.000000,-12.000000
1305066.339334,-11.000000,-14.000000,-7.000000,7.000000,20.000000,1.000000,1.000000,-5.000000
1305066.339343,4.000000,16.000000,41.000000,-4.000000,4.000000,-1.000000,-3.000000,-8.000000
1305066.354595,1.000000,-7.000000,-35.000000,12.000000,21.000000,6.000000,5.000000,10.000000
1305066.354607,-14.000000,-12.000000,-13.000000,11.000000,18.000000,8.000000,6.000000,-4.000000
1305066.369330,7.000000,-14.000000,-7.000000,-10.000000,-19.000000,4.000000,-2.000000,4.000000
1305066.369341,6.000000,42.000000,10.000000,1.000000,3.000000,1.000000,1.000000,-2.000000
1305066.370320,-16.000000,-30.000000,-11.000000,7.000000,8.000000,-4.000000,-10.000000,-8.000000
1305066.370328,10.000000,-2.000000,19.000000,-9.000000,-3.000000,1.000000,15.000000,-1.000000
1305066.371129,10.000000,11.000000,-23.000000,4.000000,1.000000,3.000000,6.000000,3.000000
1305066.371143,-12.000000,-11.000000,-128.000000,-15.000000,2.000000,-2.000000,-13.000000,-13.000000
1305066.371719,6.000000,-8.000000,3.000000,-2.000000,-12.000000,-6.000000,5.000000,-3.000000
1305066.371728,-22.000000,-16.000000,-3.000000,12.000000,9.000000,-8.000000,-6.000000,-10.000000
1305066.373205,24.000000,-17.000000,-1.000000,-10.000000,3.000000,16.000000,11.000000,9.000000
1305066.373223,6.000000,51.000000,28.000000,5.000000,0.000000,-7.000000,-7.000000,0.000000
1305066.376678,3.000000,6.000000,7.000000,6.000000,2.000000,-4.000000,-1.000000,-2.000000
1305066.376688,-7.000000,-111.000000,-17.000000,-15.000000,-26.000000,-7.000000,-1.000000,9.000000
1305066.392145,-3.000000,26.000000,13.000000,2.000000,5.000000,3.000000,4.000000,9.000000
1305066.392156,-4.000000,17.000000,15.000000,14.000000,33.000000,13.000000,-9.000000,-8.000000
1305066.406943,8.000000,-2.000000,-3.000000,-5.000000,-15.000000,-10.000000,-3.000000,-1.000000
1305066.406956,-17.000000,-22.000000,-22.000000,24.000000,21.000000,2.000000,-11.000000,-11.000000
1305066.429423,7.000000,-2.000000,-15.000000,-13.000000,-15.000000,-6.000000,2.000000,6.000000
1305066.429433,-6.000000,7.000000,18.000000,14.000000,14.000000,-7.000000,-12.000000,-4.000000
1305066.451944,-16.000000,4.000000,-37.000000,-5.000000,4.000000,16.000000,11.000000,8.000000
1305066.451958,27.000000,21.000000,-14.000000,-4.000000,1.000000,-6.000000,1.000000,6.000000
1305066.467383,-5.000000,-7.000000,3.000000,11.000000,5.000000,-6.000000,-10.000000,-6.000000
1305066.467400,-33.000000,-9.000000,-16.000000,-6.000000,-22.000000,-8.000000,-10.000000,-11.000000
1305066.467832,16.000000,-7.000000,8.000000,12.000000,10.000000,3.000000,3.000000,1.000000
1305066.467841,7.000000,11.000000,12.000000,-13.000000,3.000000,4.000000,3.000000,3.000000
1305066.469131,0.000000,16.000000,3.000000,2.000000,37.000000,13.000000,5.000000,-10.000000
1305066.469148,-7.000000,-22.000000,-21.000000,10.000000,3.000000,-6.000000,2.000000,12.000000
1305066.469899,-1.000000,-5.000000,13.000000,5.000000,-10.000000,-8.000000,-4.000000,-2.000000
1305066.469917,0.000000,4.000000,-9.000000,5.000000,10.000000,5.000000,1.000000,1.000000
1305066.470654,3.000000,2.000000,19.000000,2.000000,2.000000,2.000000,-5.000000,2.000000
1305066.470681,-3.000000,2.000000,47.000000,5.000000,4.000000,-3.000000,-6.000000,-4.000000
1305066.489535,-10.000000,-46.000000,-81.000000,-3.000000,7.000000,3.000000,1.000000,-5.000000
1305066.489548,8.000000,26.000000,0.000000,-5.000000,-11.000000,-4.000000,-2.000000,-1.000000
1305066.490692,35.000000,-37.000000,18.000000,-46.000000,-38.000000,19.000000,40.000000,38.000000
1305066.490701,10.000000,42.000000,1.000000,9.000000,22.000000,8.000000,8.000000,4.000000
1305066.511886,-15.000000,-9.000000,12.000000,10.000000,1.000000,-7.000000,-14.000000,-12.000000
1305066.511918,-2.000000,-19.000000,-63.000000,-13.000000,-3.000000,-8.000000,-10.000000,6.000000
1305066.512986,11.000000,6.000000,4.000000,-1.000000,-3.000000,3.000000,19.000000,-4.000000
1305066.512995,-25.000000,1.000000,18.000000,0.000000,6.000000,11.000000,8.000000,-3.000000
1305066.519233,22.000000,-2.000000,-11.000000,3.000000,2.000000,-1.000000,-2.000000,11.000000
1305066.519243,-2.000000,-28.000000,-21.000000,1.000000,0.000000,-14.000000,-21.000000,-2.000000
1305066.534656,-5.000000,9.000000,17.000000,3.000000,4.000000,0.000000,1.000000,-1.000000
1305066.534674,-7.000000,-4.000000,-5.000000,7.000000,8.000000,2.000000,0.000000,2.000000
1305066.549541,-1.000000,-11.000000,-69.000000,1.000000,10.000000,0.000000,-6.000000,-10.000000
1305066.549554,5.000000,15.000000,83.000000,16.000000,5.000000,-4.000000,0.000000,-5.000000
1305066.587198,-3.000000,3.000000,-16.000000,-8.000000,-3.000000,-4.000000,-1.000000,4.000000
1305066.587212,11.000000,-11.000000,-29.000000,-16.000000,-3.000000,5.000000,3.000000,-3.000000
1305066.594479,-6.000000,39.000000,40.000000,19.000000,8.000000,-7.000000,-6.000000,-3.000000
1305066.594569,16.000000,13.000000,42.000000,11.000000,6.000000,3.000000,2.000000,8.000000
1305066.631938,-6.000000,-2.000000,-4.000000,10.000000,25.000000,10.000000,-4.000000,-4.000000
1305066.631947,-4.000000,-16.000000,-11.000000,13.000000,8.000000,-4.000000,0.000000,0.000000
1305066.647144,-3.000000,16.000000,-6.000000,-20.000000,-24.000000,-6.000000,-13.000000,-9.000000
1305066.647166,-11.000000,-9.000000,-11.000000,4.000000,7.000000,3.000000,9.000000,15.000000
1305066.669618,11.000000,0.000000,5.000000,13.000000,16.000000,6.000000,12.000000,6.000000
1305066.669629,15.000000,-4.000000,-5.000000,4.000000,-1.000000,7.000000,4.000000,4.000000
1305066.684431,1.000000,27.000000,-12.000000,-18.000000,-17.000000,-11.000000,-4.000000,-6.000000
1305066.684442,-22.000000,-71.000000,-29.000000,-33.000000,-30.000000,3.000000,2.000000,2.000000
1305066.699751,38.000000,29.000000,91.000000,28.000000,17.000000,10.000000,12.000000,17.000000
1305066.699855,4.000000,13.000000,76.000000,12.000000,7.000000,-6.000000,-11.000000,-14.000000
1305066.700141,8.000000,-2.000000,-44.000000,-28.000000,-31.000000,-6.000000,4.000000,2.000000
1305066.700156,-13.000000,-26.000000,7.000000,-7.000000,-6.000000,-6.000000,-25.000000,-10.000000
1305066.700406,-10.000000,70.000000,28.000000,-19.000000,-13.000000,2.000000,0.000000,-12.000000
1305066.700416,3.000000,-11.000000,-35.000000,-1.000000,10.000000,5.000000,4.000000,5.000000
1305066.701098,-9.000000,-11.000000,-22.000000,5.000000,-7.000000,-5.000000,4.000000,-5.000000
1305066.701109,2.000000,-17.000000,-13.000000,-1.000000,1.000000,-4.000000,-7.000000,-6.000000
1305066.707321,-12.000000,-6.000000,2.000000,-13.000000,-6.000000,-2.000000,-2.000000,-10.000000
1305066.707367,-6.000000,1.000000,-27.000000,16.000000,22.000000,-5.000000,1.000000,-5.000000
1305066.729686,-8.000000,-14.000000,-16.000000,-2.000000,12.000000,6.000000,3.000000,1.000000
1305066.729707,-27.000000,-19.000000,-16.000000,-13.000000,2.000000,8.000000,-3.000000,-8.000000
1305066.745454,20.000000,9.000000,35.000000,0.000000,-6.000000,-5.000000,-11.000000,-3.000000
1305066.745544,6.000000,-23.000000,-29.000000,-5.000000,-11.000000,-4.000000,-6.000000,6.000000
1305066.746055,1.000000,-61.000000,-31.000000,-8.000000,3.000000,-2.000000,-20.000000,3.000000
1305066.746075,-32.000000,72.000000,56.000000,1.000000,-11.000000,-3.000000,-11.000000,-12.000000
1305066.747221,23.000000,15.000000,22.000000,22.000000,8.000000,-6.000000,-3.000000,2.000000
1305066.747253,-13.000000,-30.000000,-31.000000,-40.000000,-30.000000,-4.000000,0.000000,1.000000
1305066.752315,8.000000,-13.000000,-38.000000,-1.000000,-10.000000,-6.000000,-1.000000,0.000000
1305066.752342,-1.000000,11.000000,39.000000,14.000000,15.000000,-6.000000,-19.000000,-16.000000
1305066.789755,-4.000000,7.000000,-7.000000,-3.000000,18.000000,12.000000,-8.000000,-9.000000
1305066.789768,-3.000000,20.000000,27.000000,9.000000,-1.000000,-5.000000,-1.000000,-5.000000
1305066.804720,-6.000000,-25.000000,-61.000000,-1.000000,7.000000,1.000000,-2.000000,0.000000
1305066.804734,3.000000,16.000000,40.000000,-1.000000,0.000000,4.000000,-2.000000,-5.000000
1305066.827160,-3.000000,-11.000000,-19.000000,4.000000,6.000000,5.000000,-4.000000,-5.000000
1305066.827285,2.000000,4.000000,8.000000,-7.000000,-7.000000,8.000000,12.000000,6.000000
1305066.827501,0.000000,-21.000000,-33.000000,2.000000,0.000000,-6.000000,-3.000000,-1.000000
1305066.827509,7.000000,15.000000,-46.000000,-18.000000,-10.000000,-4.000000,0.000000,0.000000
1305066.828803,-12.000000,0.000000,35.000000,-5.000000,5.000000,6.000000,-4.000000,-6.000000
1305066.828825,8.000000,-15.000000,-3.000000,13.000000,5.000000,-8.000000,-13.000000,-10.000000
1305066.829600,-6.000000,-16.000000,-3.000000,-37.000000,-34.000000,1.000000,4.000000,-4.000000
1305066.829609,-14.000000,15.000000,14.000000,3.000000,8.000000,3.000000,-14.000000,-10.000000
1305066.849213,-21.000000,-45.000000,-14.000000,5.000000,9.000000,-4.000000,-17.000000,-12.000000
1305066.849244,19.000000,15.000000,35.000000,16.000000,6.000000,2.000000,30.000000,9.000000
1305066.850252,13.000000,13.000000,-32.000000,-23.000000,-14.000000,6.000000,4.000000,10.000000
1305066.850260,-48.000000,-21.000000,77.000000,1.000000,5.000000,1.000000,0.000000,-14.000000
1305066.851089,28.000000,50.000000,16.000000,-7.000000,-7.000000,-1.000000,-9.000000,-6.000000
1305066.851096,-18.000000,-38.000000,-67.000000,-14.000000,-11.000000,-1.000000,6.000000,-1.000000
1305066.865101,11.000000,-4.000000,0.000000,0.000000,-5.000000,-14.000000,-12.000000,-3.000000
1305066.865112,-23.000000,-37.000000,-13.000000,-20.000000,-35.000000,-13.000000,-4.000000,7.000000
1305066.871976,5.000000,17.000000,1.000000,3.000000,17.000000,4.000000,-4.000000,-6.000000
1305066.871988,-8.000000,-3.000000,-1.000000,7.000000,5.000000,-1.000000,4.000000,5.000000
1305066.909610,-6.000000,-4.000000,6.000000,-2.000000,-3.000000,-2.000000,-4.000000,-4.000000
1305066.909621,-16.000000,20.000000,15.000000,-17.000000,-10.000000,5.000000,2.000000,-8.000000
1305066.916791,21.000000,-8.000000,-8.000000,4.000000,9.000000,-5.000000,-4.000000,9.000000
1305066.916802,-1.000000,-2.000000,1.000000,13.000000,6.000000,-8.000000,-8.000000,-5.000000
1305066.924291,-13.000000,-6.000000,27.000000,-13.000000,-13.000000,-5.000000,-5.000000,-6.000000
1305066.924301,0.000000,13.000000,-11.000000,-2.000000,4.000000,1.000000,-1.000000,-7.000000
1305066.924635,2.000000,-10.000000,-8.000000,2.000000,-3.000000,-7.000000,11.000000,10.000000
1305066.924644,22.000000,-8.000000,21.000000,-3.000000,-7.000000,2.000000,-3.000000,3.000000
1305066.926271,-12.000000,-28.000000,-38.000000,-10.000000,14.000000,9.000000,-5.000000,-5.000000
1305066.926284,-1.000000,7.000000,2.000000,9.000000,-8.000000,-10.000000,-3.000000,0.000000
1305066.931758,-17.000000,3.000000,10.000000,-20.000000,-14.000000,6.000000,4.000000,8.000000
1305066.931768,-15.000000,-11.000000,-9.000000,9.000000,12.000000,-6.000000,-5.000000,-9.000000
1305066.947615,15.000000,11.000000,0.000000,1.000000,1.000000,1.000000,3.000000,6.000000
1305066.947626,-6.000000,4.000000,-11.000000,5.000000,26.000000,18.000000,-7.000000,-13.000000
1305066.963306,3.000000,-1.000000,0.000000,-24.000000,-36.000000,2.000000,10.000000,8.000000
1305066.963325,-7.000000,-15.000000,-35.000000,7.000000,9.000000,-6.000000,-16.000000,-10.000000
1305066.963784,-5.000000,18.000000,58.000000,8.000000,7.000000,-4.000000,20.000000,2.000000
1305066.963805,-4.000000,-6.000000,2.000000,-27.000000,-11.000000,19.000000,-1.000000,-3.000000
1305066.969587,6.000000,-18.000000,-36.000000,-12.000000,-9.000000,-7.000000,-2.000000,3.000000
1305066.969601,-29.000000,-10.000000,-16.000000,3.000000,13.000000,-2.000000,-9.000000,-7.000000
1305066.985005,11.000000,67.000000,14.000000,13.000000,6.000000,0.000000,4.000000,9.000000
1305066.985015,-3.000000,-9.000000,-1.000000,-11.000000,-12.000000,8.000000,6.000000,4.000000
1305067.007443,21.000000,-7.000000,-20.000000,3.000000,2.000000,-3.000000,-11.000000,-5.000000
1305067.007453,4.000000,1.000000,8.000000,3.000000,3.000000,0.000000,-5.000000,-5.000000
1305067.037266,-10.000000,-12.000000,-7.000000,2.000000,3.000000,-1.000000,-4.000000,-4.000000
1305067.037277,0.000000,5.000000,-5.000000,3.000000,6.000000,-8.000000,-9.000000,-8.000000
1305067.044633,-4.000000,-9.000000,-19.000000,5.000000,12.000000,9.000000,6.000000,9.000000
1305067.044644,-25.000000,20.000000,15.000000,-6.000000,-21.000000,-11.000000,-4.000000,-7.000000
1305067.067404,24.000000,5.000000,16.000000,22.000000,36.000000,6.000000,-9.000000,3.000000
1305067.067420,4.000000,6.000000,-4.000000,-1.000000,7.000000,12.000000,17.000000,7.000000
1305067.067868,-14.000000,-24.000000,15.000000,-12.000000,1.000000,7.000000,4.000000,-5.000000
1305067.067888,-11.000000,20.000000,-40.000000,-10.000000,-19.000000,-5.000000,-10.000000,-9.000000
1305067.069084,2.000000,14.000000,20.000000,11.000000,27.000000,16.000000,-4.000000,-7.000000
1305067.069093,5.000000,-4.000000,-14.000000,-11.000000,-11.000000,-7.000000,13.000000,9.000000
1305067.069890,-8.000000,-16.000000,-35.000000,14.000000,23.000000,-2.000000,-29.000000,-17.000000
1305067.069904,19.000000,29.000000,127.000000,15.000000,6.000000,12.000000,23.000000,36.000000
1305067.081705,-6.000000,-2.000000,-26.000000,12.000000,15.000000,11.000000,-3.000000,-8.000000
1305067.081737,-3.000000,-16.000000,-26.000000,-4.000000,4.000000,-3.000000,4.000000,-1.000000
1305067.083009,-2.000000,2.000000,21.000000,20.000000,-10.000000,-11.000000,6.000000,3.000000
1305067.083035,0.000000,-2.000000,1.000000,-14.000000,-13.000000,-6.000000,6.000000,8.000000
1305067.089634,-3.000000,6.000000,16.000000,6.000000,-2.000000,-2.000000,2.000000,-1.000000
1305067.089647,24.000000,-10.000000,-17.000000,7.000000,27.000000,9.000000,6.000000,8.000000
1305067.105077,-7.000000,3.000000,13.000000,1.000000,-7.000000,-10.000000,-4.000000,-7.000000
1305067.105089,-1.000000,11.000000,30.000000,19.000000,24.000000,3.000000,-5.000000,-4.000000
1305067.126836,5.000000,-10.000000,-67.000000,-29.000000,-25.000000,-9.000000,-3.000000,7.000000
1305067.126865,5.000000,1.000000,100.000000,24.000000,17.000000,4.000000,2.000000,0.000000
1305067.164470,-9.000000,-16.000000,-24.000000,-1.000000,6.000000,-10.000000,-5.000000,-2.000000
1305067.164484,-13.000000,0.000000,-14.000000,4.000000,-1.000000,-12.000000,-19.000000,-11.000000
1305067.171863,2.000000,11.000000,27.000000,6.000000,5.000000,6.000000,-9.000000,-5.000000
1305067.171873,11.000000,1.000000,14.000000,-20.000000,-18.000000,6.000000,4.000000,12.000000
1305067.187653,18.000000,9.000000,-23.000000,-7.000000,2.000000,0.000000,-10.000000,-5.000000
1305067.187662,0.000000,0.000000,6.000000,-2.000000,-2.000000,7.000000,10.000000,8.000000
1305067.188196,-8.000000,33.000000,-1.000000,15.000000,-19.000000,-18.000000,-13.000000,-10.000000
1305067.188204,-9.000000,8.000000,20.000000,7.000000,8.000000,-2.000000,-6.000000,-4.000000
1305067.189150,-8.000000,-8.000000,-23.000000,-13.000000,-7.000000,-9.000000,-11.000000,-13.000000
1305067.189157,-2.000000,-28.000000,-23.000000,-11.000000,-25.000000,-7.000000,10.000000,19.000000
1305067.191238,13.000000,-1.000000,-22.000000,-32.000000,-39.000000,4.000000,-3.000000,2.000000
1305067.191249,-25.000000,-11.000000,-33.000000,1.000000,0.000000,-11.000000,0.000000,-11.000000
1305067.201967,3.000000,-15.000000,36.000000,-2.000000,-1.000000,-11.000000,-13.000000,-1.000000
1305067.201982,-14.000000,-10.000000,-23.000000,-6.000000,10.000000,3.000000,3.000000,-3.000000
1305067.216930,-2.000000,5.000000,-7.000000,1.000000,-1.000000,-6.000000,-3.000000,-7.000000
1305067.216960,-10.000000,-6.000000,16.000000,9.000000,7.000000,-2.000000,-7.000000,-11.000000
1305067.224316,26.000000,-25.000000,-1.000000,-12.000000,-13.000000,3.000000,0.000000,5.000000
1305067.224343,2.000000,30.000000,11.000000,-5.000000,-9.000000,-10.000000,-12.000000,-6.000000
1305067.246950,-25.000000,-57.000000,-48.000000,-17.000000,-51.000000,-31.000000,-15.000000,-16.000000
1305067.246963,-8.000000,24.000000,48.000000,2.000000,-11.000000,-11.000000,-5.000000,-11.000000
1305067.254583,-5.000000,2.000000,2.000000,-8.000000,1.000000,-5.000000,-14.000000,-1.000000
1305067.254601,-4.000000,33.000000,26.000000,-2.000000,1.000000,5.000000,10.000000,5.000000
1305067.284746,-4.000000,8.000000,11.000000,17.000000,11.000000,2.000000,-5.000000,-4.000000
1305067.284757,14.000000,-5.000000,-14.000000,-4.000000,0.000000,-6.000000,-3.000000,4.000000
1305067.299510,-7.000000,5.000000,8.000000,-14.000000,-24.000000,3.000000,3.000000,-6.000000
1305067.299536,-16.000000,-69.000000,-12.000000,15.000000,12.000000,-12.000000,-15.000000,-21.000000
1305067.322243,21.000000,29.000000,-43.000000,-3.000000,5.000000,10.000000,17.000000,18.000000
1305067.322567,-2.000000,15.000000,116.000000,15.000000,3.000000,-5.000000,-7.000000,1.000000
1305067.322776,-4.000000,-5.000000,-32.000000,3.000000,8.000000,2.000000,0.000000,-1.000000
1305067.322784,-6.000000,-2.000000,12.000000,-5.000000,-15.000000,2.000000,-3.000000,-7.000000
1305067.323588,-27.000000,-16.000000,-26.000000,5.000000,10.000000,1.000000,0.000000,-12.000000
1305067.323598,2.000000,-13.000000,-60.000000,-16.000000,-48.000000,-23.000000,-2.000000,0.000000
1305067.324246,-8.000000,-7.000000,15.000000,6.000000,15.000000,-1.000000,-7.000000,-13.000000
1305067.324256,-3.000000,2.000000,27.000000,-4.000000,-28.000000,-7.000000,-12.000000,-2.000000
1305067.326167,-24.000000,-15.000000,-20.000000,1.000000,0.000000,3.000000,21.000000,0.000000
1305067.326180,6.000000,-6.000000,-4.000000,1.000000,7.000000,-1.000000,-7.000000,-8.000000
1305067.344553,-4.000000,-14.000000,13.000000,3.000000,7.000000,-7.000000,1.000000,3.000000
1305067.344567,-6.000000,12.000000,-3.000000,-8.000000,-17.000000,-8.000000,12.000000,-1.000000
1305067.366986,-13.000000,-12.000000,15.000000,2.000000,15.000000,11.000000,8.000000,9.000000
1305067.366997,20.000000,25.000000,-9.000000,18.000000,41.000000,14.000000,0.000000,-2.000000
1305067.374678,-1.000000,-3.000000,12.000000,-4.000000,-3.000000,-2.000000,4.000000,-1.000000
1305067.374690,-4.000000,-12.000000,-13.000000,17.000000,16.000000,-3.000000,-7.000000,-4.000000
1305067.404365,-6.000000,-13.000000,-9.000000,-26.000000,-27.000000,-2.000000,-1.000000,-1.000000
1305067.404392,-7.000000,-39.000000,-34.000000,-5.000000,1.000000,-8.000000,-2.000000,-5.000000
1305067.419750,17.000000,46.000000,12.000000,10.000000,3.000000,8.000000,4.000000,9.000000
1305067.419761,-5.000000,-17.000000,-56.000000,-19.000000,-5.000000,2.000000,-1.000000,-3.000000
1305067.420470,-57.000000,-12.000000,-29.000000,-7.000000,-1.000000,-8.000000,2.000000,-7.000000
1305067.420478,35.000000,6.000000,22.000000,28.000000,19.000000,-9.000000,-3.000000,3.000000
1305067.426819,8.000000,-2.000000,2.000000,-15.000000,-15.000000,11.000000,18.000000,9.000000
1305067.426830,-12.000000,-5.000000,1.000000,8.000000,25.000000,7.000000,-4.000000,-4.000000
1305067.427911,-19.000000,-5.000000,0.000000,-6.000000,-6.000000,-7.000000,-13.000000,-8.000000
1305067.427921,3.000000,-2.000000,-30.000000,-4.000000,1.000000,18.000000,33.000000,7.000000
1305067.441704,-3.000000,-14.000000,-4.000000,-11.000000,-18.000000,-17.000000,-18.000000,-11.000000
1305067.441717,11.000000,19.000000,20.000000,-14.000000,-22.000000,1.000000,2.000000,6.000000
1305067.443087,1.000000,3.000000,57.000000,21.000000,29.000000,8.000000,-10.000000,-10.000000
1305067.443097,1.000000,5.000000,-26.000000,5.000000,-1.000000,0.000000,3.000000,-1.000000
1305067.456990,12.000000,-4.000000,1.000000,-6.000000,-11.000000,-11.000000,1.000000,3.000000
1305067.457000,-1.000000,2.000000,-5.000000,-9.000000,-2.000000,2.000000,-11.000000,-4.000000
1305067.487095,-24.000000,-52.000000,-6.000000,-4.000000,9.000000,11.000000,-1.000000,-1.000000
1305067.487106,-26.000000,52.000000,33.000000,10.000000,0.000000,-6.000000,4.000000,1.000000
1305067.494239,33.000000,-24.000000,-6.000000,-3.000000,-18.000000,-10.000000,3.000000,7.000000
1305067.494249,-7.000000,-3.000000,-8.000000,-16.000000,1.000000,4.000000,10.000000,12.000000
1305067.524656,-13.000000,5.000000,55.000000,13.000000,17.000000,5.000000,-7.000000,-5.000000
1305067.524668,-8.000000,-5.000000,20.000000,1.000000,-6.000000,1.000000,-6.000000,-4.000000
1305067.532010,0.000000,-29.000000,-1.000000,18.000000,16.000000,-3.000000,3.000000,0.000000
1305067.532028,-22.000000,-17.000000,-15.000000,-4.000000,3.000000,12.000000,-3.000000,-9.000000
1305067.562281,38.000000,9.000000,35.000000,-18.000000,-28.000000,5.000000,13.000000,24.000000
1305067.562291,-4.000000,-6.000000,-81.000000,10.000000,-4.000000,-5.000000,-11.000000,-9.000000
1305067.562767,-4.000000,-13.000000,-7.000000,3.000000,4.000000,5.000000,0.000000,-6.000000
1305067.562795,6.000000,-7.000000,-21.000000,2.000000,17.000000,12.000000,19.000000,24.000000
1305067.563990,-18.000000,-17.000000,1.000000,-38.000000,-44.000000,-1.000000,-7.000000,-1.000000
1305067.563999,7.000000,3.000000,-44.000000,-26.000000,-23.000000,-1.000000,1.000000,0.000000
1305067.564789,6.000000,-8.000000,22.000000,12.000000,6.000000,-2.000000,-7.000000,-3.000000
1305067.564797,-7.000000,-11.000000,13.000000,8.000000,6.000000,-9.000000,-8.000000,-8.000000
1305067.577038,-7.000000,13.000000,-8.000000,7.000000,1.000000,-3.000000,-5.000000,-3.000000
1305067.577049,6.000000,16.000000,28.000000,-1.000000,10.000000,8.000000,-17.000000,-14.000000
1305067.599712,16.000000,23.000000,0.000000,-1.000000,-20.000000,1.000000,27.000000,36.000000
1305067.599725,4.000000,-7.000000,-6.000000,-4.000000,10.000000,5.000000,-3.000000,4.000000
1305067.614528,-6.000000,-6.000000,-9.000000,15.000000,6.000000,-3.000000,1.000000,-7.000000
1305067.614540,-3.000000,-5.000000,13.000000,-1.000000,3.000000,-4.000000,-4.000000,-3.000000
1305067.637273,-4.000000,-11.000000,5.000000,-1.000000,11.000000,4.000000,-1.000000,-1.000000
1305067.637283,-18.000000,-12.000000,-47.000000,-8.000000,-45.000000,-23.000000,0.000000,-11.000000
1305067.637857,-1.000000,-5.000000,15.000000,-5.000000,-3.000000,3.000000,-9.000000,-5.000000
1305067.637884,27.000000,1.000000,11.000000,-7.000000,-5.000000,0.000000,4.000000,6.000000
1305067.639087,-2.000000,4.000000,-23.000000,1.000000,7.000000,-2.000000,-3.000000,0.000000
1305067.639114,-7.000000,-8.000000,15.000000,13.000000,15.000000,1.000000,-3.000000,-9.000000
1305067.639986,4.000000,-1.000000,6.000000,-11.000000,-9.000000,3.000000,18.000000,23.000000
1305067.640012,-12.000000,-19.000000,-23.000000,-23.000000,-18.000000,-8.000000,5.000000,-6.000000
1305067.645182,1.000000,-15.000000,-30.000000,-4.000000,8.000000,7.000000,-9.000000,-1.000000
1305067.645193,14.000000,17.000000,67.000000,14.000000,4.000000,0.000000,7.000000,11.000000
1305067.659794,11.000000,-6.000000,-9.000000,0.000000,-9.000000,3.000000,6.000000,1.000000
1305067.659809,-1.000000,-5.000000,-2.000000,-33.000000,-28.000000,-7.000000,-1.000000,-2.000000
1305067.682267,-6.000000,-17.000000,-4.000000,-6.000000,4.000000,1.000000,-1.000000,4.000000
1305067.682276,-4.000000,3.000000,1.000000,5.000000,13.000000,10.000000,14.000000,15.000000
1305067.682878,-2.000000,-1.000000,7.000000,-4.000000,-4.000000,-4.000000,-17.000000,-4.000000
1305067.682895,5.000000,-3.000000,-16.000000,14.000000,-14.000000,-12.000000,-4.000000,6.000000
1305067.684376,-22.000000,9.000000,11.000000,-1.000000,-14.000000,-4.000000,3.000000,4.000000
1305067.684385,27.000000,-10.000000,34.000000,-6.000000,4.000000,9.000000,1.000000,8.000000
1305067.696977,-10.000000,-15.000000,-23.000000,7.000000,4.000000,-12.000000,-2.000000,-12.000000
1305067.696988,-11.000000,-9.000000,-24.000000,-21.000000,-18.000000,3.000000,-4.000000,-14.000000
1305067.719382,-25.000000,-32.000000,9.000000,0.000000,-4.000000,-5.000000,-3.000000,-7.000000
1305067.719392,2.000000,-8.000000,-20.000000,-9.000000,-5.000000,-3.000000,0.000000,6.000000
1305067.727002,-11.000000,3.000000,-21.000000,-8.000000,-1.000000,-8.000000,-10.000000,-12.000000
1305067.727030,-19.000000,17.000000,-6.000000,-10.000000,-12.000000,-5.000000,4.000000,-3.000000
1305067.749493,9.000000,1.000000,48.000000,-13.000000,-10.000000,-8.000000,5.000000,9.000000
1305067.749508,-22.000000,-3.000000,-12.000000,13.000000,6.000000,-2.000000,0.000000,-1.000000
1305067.757042,-6.000000,-3.000000,0.000000,-1.000000,2.000000,6.000000,5.000000,5.000000
1305067.757054,-3.000000,-6.000000,6.000000,-14.000000,-4.000000,3.000000,-9.000000,-11.000000
1305067.779636,6.000000,19.000000,-15.000000,-8.000000,-24.000000,-8.000000,4.000000,-3.000000
1305067.779665,-12.000000,-76.000000,-37.000000,-32.000000,-19.000000,8.000000,12.000000,12.000000
1305067.794619,-7.000000,17.000000,-1.000000,2.000000,19.000000,5.000000,-5.000000,-8.000000
1305067.794635,4.000000,8.000000,36.000000,11.000000,6.000000,1.000000,-4.000000,-3.000000
1305067.795554,10.000000,16.000000,-33.000000,3.000000,16.000000,5.000000,7.000000,17.000000
1305067.795562,27.000000,10.000000,-10.000000,-2.000000,-4.000000,11.000000,7.000000,7.000000
1305067.796121,-9.000000,3.000000,52.000000,7.000000,2.000000,-6.000000,-3.000000,-11.000000
1305067.796130,36.000000,15.000000,-1.000000,6.000000,3.000000,3.000000,5.000000,24.000000
1305067.797495,-8.000000,-17.000000,-28.000000,3.000000,8.000000,-4.000000,-7.000000,4.000000
1305067.797504,-11.000000,-22.000000,-13.000000,-7.000000,5.000000,3.000000,0.000000,-7.000000
1305067.798198,3.000000,45.000000,16.000000,-2.000000,-11.000000,1.000000,16.000000,4.000000
1305067.798206,15.000000,0.000000,14.000000,-11.000000,-14.000000,-1.000000,-9.000000,2.000000
1305067.802495,-8.000000,-6.000000,-15.000000,7.000000,8.000000,-8.000000,-8.000000,-5.000000
1305067.802504,15.000000,13.000000,3.000000,10.000000,16.000000,3.000000,8.000000,13.000000
1305067.816961,-6.000000,-23.000000,33.000000,19.000000,23.000000,4.000000,-5.000000,-1.000000
1305067.816992,-7.000000,12.000000,-6.000000,-45.000000,-42.000000,4.000000,-1.000000,3.000000
1305067.847107,-2.000000,-43.000000,-30.000000,-2.000000,7.000000,1.000000,-6.000000,0.000000
1305067.847117,-12.000000,65.000000,7.000000,1.000000,-4.000000,5.000000,-11.000000,-17.000000
1305067.854470,8.000000,-8.000000,-77.000000,-16.000000,-17.000000,-3.000000,0.000000,14.000000
1305067.854498,2.000000,2.000000,4.000000,18.000000,18.000000,0.000000,-1.000000,0.000000
1305067.877057,-7.000000,-4.000000,-13.000000,-7.000000,-7.000000,1.000000,-9.000000,-7.000000
1305067.877069,5.000000,-6.000000,17.000000,5.000000,-1.000000,-1.000000,-3.000000,-3.000000
1305067.884695,-6.000000,-28.000000,17.000000,0.000000,-30.000000,-18.000000,-3.000000,-7.000000
1305067.884708,-5.000000,7.000000,-44.000000,4.000000,8.000000,-11.000000,-3.000000,-5.000000
1305067.914578,3.000000,11.000000,75.000000,3.000000,-13.000000,-14.000000,-8.000000,2.000000
1305067.914600,-29.000000,-6.000000,-29.000000,-5.000000,-7.000000,-3.000000,-11.000000,-13.000000
1305067.915193,46.000000,-5.000000,-24.000000,-2.000000,5.000000,8.000000,4.000000,13.000000
1305067.915209,-27.000000,-3.000000,15.000000,11.000000,10.000000,-7.000000,-11.000000,-15.000000
1305067.916076,8.000000,11.000000,-16.000000,-28.000000,-21.000000,9.000000,3.000000,7.000000
1305067.916085,12.000000,16.000000,-2.000000,6.000000,5.000000,3.000000,-8.000000,-9.000000
1305067.916901,-5.000000,9.000000,4.000000,2.000000,0.000000,-7.000000,-5.000000,-6.000000
1305067.916912,-23.000000,-24.000000,-16.000000,-10.000000,1.000000,0.000000,-6.000000,-11.000000
1305067.918570,3.000000,-25.000000,-10.000000,9.000000,8.000000,12.000000,16.000000,27.000000
1305067.918598,2.000000,-57.000000,-23.000000,1.000000,0.000000,0.000000,-11.000000,-10.000000
1305067.922708,-11.000000,23.000000,-10.000000,9.000000,7.000000,-11.000000,-11.000000,-9.000000
1305067.922717,-16.000000,-60.000000,-5.000000,-31.000000,-62.000000,-24.000000,-10.000000,-12.000000
1305067.936913,27.000000,51.000000,30.000000,5.000000,6.000000,10.000000,13.000000,7.000000
1305067.936923,-9.000000,-36.000000,-10.000000,-3.000000,2.000000,-3.000000,-6.000000,0.000000
1305067.974589,4.000000,38.000000,5.000000,3.000000,5.000000,-1.000000,5.000000,17.000000
1305067.974618,1.000000,2.000000,3.000000,6.000000,1.000000,-1.000000,3.000000,2.000000
1305067.981996,-6.000000,-8.000000,-4.000000,15.000000,6.000000,-8.000000,-6.000000,-5.000000
1305067.982026,1.000000,-2.000000,36.000000,-6.000000,-7.000000,-4.000000,-2.000000,1.000000
1305068.019493,2.000000,-4.000000,-1.000000,-3.000000,-2.000000,-1.000000,-1.000000,-5.000000
1305068.019516,1.000000,16.000000,39.000000,22.000000,15.000000,-4.000000,-2.000000,3.000000
1305068.019876,2.000000,-6.000000,-7.000000,-17.000000,-14.000000,2.000000,14.000000,3.000000
1305068.019888,11.000000,3.000000,-26.000000,-35.000000,-35.000000,10.000000,7.000000,22.000000
1305068.021099,-6.000000,16.000000,72.000000,8.000000,-12.000000,-3.000000,-4.000000,9.000000
1305068.021107,5.000000,-60.000000,-103.000000,-5.000000,6.000000,-3.000000,-5.000000,0.000000
1305068.021704,8.000000,46.000000,5.000000,7.000000,21.000000,-3.000000,-5.000000,-3.000000
1305068.021713,-9.000000,-3.000000,27.000000,-15.000000,-46.000000,-10.000000,2.000000,0.000000
1305068.023204,19.000000,47.000000,51.000000,-2.000000,-9.000000,8.000000,11.000000,10.000000
1305068.023213,-17.000000,-3.000000,-4.000000,0.000000,10.000000,3.000000,-4.000000,-7.000000
1305068.034242,-8.000000,9.000000,8.000000,6.000000,-10.000000,-11.000000,-1.000000,-11.000000
1305068.034259,-13.000000,-42.000000,-98.000000,-22.000000,-4.000000,2.000000,-14.000000,-16.000000
1305068.035025,15.000000,31.000000,18.000000,30.000000,27.000000,2.000000,-10.000000,7.000000
1305068.035034,-4.000000,4.000000,3.000000,-6.000000,-4.000000,0.000000,20.000000,1.000000
1305068.042692,11.000000,-19.000000,0.000000,7.000000,7.000000,-5.000000,-7.000000,-2.000000
1305068.042710,0.000000,-4.000000,3.000000,-11.000000,-16.000000,5.000000,-7.000000,-6.000000
1305068.056902,-18.000000,-25.000000,-48.000000,18.000000,23.000000,4.000000,-12.000000,-7.000000
1305068.056930,9.000000,18.000000,51.000000,-4.000000,-34.000000,1.000000,20.000000,0.000000
1305068.079459,13.000000,12.000000,4.000000,-8.000000,16.000000,4.000000,3.000000,12.000000
1305068.079471,-1.000000,-7.000000,1.000000,3.000000,3.000000,-5.000000,-2.000000,-4.000000
1305068.086921,2.000000,3.000000,20.000000,17.000000,13.000000,-1.000000,2.000000,9.000000
1305068.086930,-28.000000,10.000000,1.000000,-15.000000,-12.000000,0.000000,-4.000000,-5.000000
1305068.117121,17.000000,-16.000000,4.000000,27.000000,25.000000,-13.000000,-12.000000,-6.000000
1305068.117132,5.000000,20.000000,22.000000,-35.000000,-36.000000,11.000000,13.000000,12.000000
1305068.132089,1.000000,20.000000,-7.000000,1.000000,2.000000,4.000000,16.000000,27.000000
1305068.132102,3.000000,7.000000,67.000000,16.000000,14.000000,10.000000,2.000000,6.000000
1305068.132989,15.000000,29.000000,-31.000000,8.000000,7.000000,-8.000000,4.000000,-4.000000
1305068.132999,-8.000000,-10.000000,4.000000,-7.000000,2.000000,1.000000,-1.000000,-7.000000
1305068.133559,-28.000000,-5.000000,31.000000,6.000000,-2.000000,-1.000000,-7.000000,-4.000000
1305068.133568,11.000000,-20.000000,-4.000000,13.000000,35.000000,16.000000,10.000000,7.000000
1305068.134892,-18.000000,-80.000000,1.000000,-29.000000,-29.000000,-17.000000,-16.000000,-8.000000
1305068.134902,9.000000,65.000000,25.000000,-19.000000,-17.000000,11.000000,-3.000000,17.000000
1305068.135722,-9.000000,-24.000000,-27.000000,-10.000000,-3.000000,6.000000,-1.000000,-6.000000
1305068.135732,-21.000000,2.000000,-16.000000,1.000000,-4.000000,-17.000000,-16.000000,-15.000000
1305068.154301,10.000000,0.000000,0.000000,20.000000,13.000000,7.000000,30.000000,29.000000
1305068.154311,-16.000000,-17.000000,57.000000,-7.000000,-6.000000,-1.000000,-8.000000,-7.000000
1305068.154968,-1.000000,3.000000,-42.000000,10.000000,16.000000,12.000000,-9.000000,-2.000000
1305068.154986,2.000000,2.000000,-44.000000,-13.000000,-28.000000,-15.000000,6.000000,13.000000
1305068.192120,8.000000,6.000000,14.000000,-13.000000,-1.000000,5.000000,1.000000,1.000000
1305068.192147,-3.000000,-19.000000,-19.000000,-23.000000,-34.000000,-13.000000,-10.000000,-7.000000
1305068.199438,-7.000000,1.000000,-15.000000,7.000000,11.000000,-9.000000,-13.000000,-7.000000
1305068.199459,-19.000000,-9.000000,24.000000,8.000000,17.000000,-2.000000,-3.000000,-11.000000
1305068.237357,35.000000,8.000000,38.000000,-12.000000,-26.000000,-2.000000,12.000000,17.000000
1305068.237374,3.000000,-16.000000,-39.000000,-7.000000,0.000000,-6.000000,-3.000000,-9.000000
1305068.251799,-14.000000,54.000000,-4.000000,4.000000,1.000000,-2.000000,-4.000000,-6.000000
1305068.251814,-14.000000,-3.000000,-54.000000,16.000000,12.000000,-5.000000,-19.000000,-15.000000
1305068.252784,-11.000000,-11.000000,49.000000,4.000000,8.000000,0.000000,-1.000000,-4.000000
1305068.252793,0.000000,19.000000,49.000000,2.000000,-4.000000,-4.000000,-8.000000,-5.000000
1305068.253593,-2.000000,-2.000000,-25.000000,-17.000000,-18.000000,-9.000000,7.000000,7.000000
1305068.253602,1.000000,22.000000,19.000000,-7.000000,-9.000000,2.000000,0.000000,4.000000
1305068.254767,-6.000000,0.000000,6.000000,6.000000,14.000000,1.000000,-17.000000,-15.000000
1305068.254775,2.000000,3.000000,-21.000000,5.000000,-4.000000,0.000000,-6.000000,0.000000
1305068.255654,-6.000000,5.000000,10.000000,17.000000,24.000000,2.000000,-6.000000,1.000000
1305068.255668,7.000000,62.000000,5.000000,-22.000000,-39.000000,-11.000000,-7.000000,-1.000000
1305068.274289,-10.000000,-37.000000,-43.000000,-18.000000,-9.000000,-15.000000,-3.000000,-8.000000
1305068.274300,-16.000000,-8.000000,4.000000,9.000000,11.000000,1.000000,13.000000,3.000000
1305068.274989,21.000000,-6.000000,-13.000000,-12.000000,0.000000,10.000000,-1.000000,-5.000000
1305068.274997,-19.000000,-3.000000,4.000000,1.000000,3.000000,0.000000,2.000000,5.000000
1305068.297336,8.000000,-17.000000,-40.000000,-6.000000,7.000000,5.000000,-9.000000,-4.000000
1305068.297371,-27.000000,8.000000,20.000000,-13.000000,-11.000000,1.000000,1.000000,-13.000000
1305068.304536,43.000000,-1.000000,15.000000,7.000000,17.000000,6.000000,15.000000,24.000000
1305068.304547,-10.000000,-19.000000,-1.000000,2.000000,-8.000000,-8.000000,10.000000,-9.000000
1305068.319642,3.000000,7.000000,-22.000000,2.000000,2.000000,10.000000,3.000000,2.000000
1305068.319653,-10.000000,-14.000000,-10.000000,3.000000,-3.000000,-3.000000,1.000000,1.000000
1305068.326912,-6.000000,-50.000000,24.000000,7.000000,10.000000,-3.000000,-9.000000,-7.000000
1305068.326924,-28.000000,-47.000000,-5.000000,1.000000,-2.000000,-2.000000,1.000000,-6.000000
1305068.349387,9.000000,69.000000,2.000000,8.000000,13.000000,0.000000,-2.000000,-1.000000
1305068.349404,17.000000,-3.000000,1.000000,-22.000000,-28.000000,-1.000000,7.000000,11.000000
1305068.349696,-14.000000,-23.000000,-1.000000,-3.000000,-12.000000,-15.000000,-5.000000,-8.000000
1305068.349704,-15.000000,-15.000000,5.000000,8.000000,11.000000,7.000000,5.000000,-4.000000
1305068.351118,-2.000000,-7.000000,-48.000000,-2.000000,10.000000,-6.000000,-6.000000,-6.000000
1305068.351144,-17.000000,-21.000000,-20.000000,-10.000000,-6.000000,1.000000,4.000000,-3.000000
1305068.356922,-1.000000,29.000000,42.000000,6.000000,-4.000000,-3.000000,-7.000000,-2.000000
1305068.356932,1.000000,2.000000,-37.000000,-11.000000,-17.000000,-1.000000,3.000000,-3.000000
1305068.372005,-1.000000,11.000000,48.000000,-11.000000,-19.000000,-5.000000,6.000000,0.000000
1305068.372022,-5.000000,-10.000000,-10.000000,7.000000,13.000000,2.000000,-6.000000,4.000000
1305068.372643,13.000000,-4.000000,19.000000,13.000000,8.000000,-11.000000,-15.000000,4.000000
1305068.372652,11.000000,-16.000000,2.000000,-2.000000,14.000000,7.000000,4.000000,10.000000
1305068.394675,-14.000000,44.000000,-2.000000,-6.000000,-9.000000,-14.000000,-15.000000,-8.000000
1305068.394704,-16.000000,-15.000000,7.000000,23.000000,24.000000,4.000000,-5.000000,-9.000000
1305068.395130,47.000000,4.000000,3.000000,-5.000000,-2.000000,3.000000,12.000000,25.000000
1305068.395138,8.000000,61.000000,-29.000000,21.000000,32.000000,9.000000,-1.000000,-2.000000
1305068.417348,-18.000000,-12.000000,2.000000,0.000000,-5.000000,2.000000,4.000000,-6.000000
1305068.417360,-7.000000,-12.000000,-3.000000,5.000000,5.000000,-7.000000,-8.000000,-7.000000
1305068.432135,-23.000000,6.000000,14.000000,5.000000,10.000000,6.000000,1.000000,-6.000000
1305068.432160,13.000000,-21.000000,-20.000000,-3.000000,-7.000000,-12.000000,-3.000000,4.000000
1305068.469902,3.000000,15.000000,-24.000000,26.000000,31.000000,5.000000,12.000000,9.000000
1305068.469917,-2.000000,1.000000,31.000000,-13.000000,-12.000000,12.000000,-4.000000,-5.000000
1305068.470308,2.000000,10.000000,0.000000,1.000000,10.000000,5.000000,4.000000,7.000000
1305068.470316,-11.000000,-10.000000,2.000000,30.000000,40.000000,-2.000000,-7.000000,-13.000000
1305068.471679,-15.000000,8.000000,61.000000,-31.000000,-27.000000,0.000000,3.000000,6.000000
1305068.471688,26.000000,103.000000,1.000000,10.000000,14.000000,0.000000,17.000000,3.000000
1305068.472318,16.000000,7.000000,-7.000000,-6.000000,-4.000000,-7.000000,-10.000000,-11.000000
1305068.472333,-12.000000,-22.000000,-6.000000,3.000000,7.000000,5.000000,0.000000,-1.000000
1305068.476627,3.000000,50.000000,24.000000,9.000000,7.000000,-1.000000,-6.000000,-1.000000
1305068.476636,12.000000,13.000000,17.000000,2.000000,23.000000,9.000000,-6.000000,-8.000000
1305068.492120,0.000000,-9.000000,-12.000000,12.000000,11.000000,3.000000,22.000000,23.000000
1305068.492131,-7.000000,-35.000000,-17.000000,-42.000000,-31.000000,15.000000,4.000000,-6.000000
1305068.514516,1.000000,-1.000000,30.000000,-17.000000,-14.000000,-3.000000,-6.000000,-9.000000
1305068.514527,-29.000000,-1.000000,-43.000000,8.000000,27.000000,0.000000,-3.000000,-9.000000
1305068.536800,20.000000,-5.000000,-29.000000,-9.000000,7.000000,8.000000,7.000000,8.000000
1305068.536828,27.000000,18.000000,12.000000,-4.000000,-9.000000,8.000000,4.000000,7.000000
1305068.552229,-1.000000,7.000000,-32.000000,-8.000000,4.000000,-1.000000,-4.000000,-5.000000
1305068.552239,-11.000000,-19.000000,-12.000000,-5.000000,0.000000,1.000000,8.000000,-3.000000
1305068.574274,-1.000000,8.000000,10.000000,-7.000000,0.000000,8.000000,-1.000000,-1.000000
1305068.574294,-9.000000,-21.000000,-4.000000,9.000000,8.000000,1.000000,9.000000,4.000000
1305068.574797,16.000000,4.000000,-6.000000,-13.000000,-17.000000,-9.000000,-10.000000,-4.000000
1305068.574806,0.000000,-39.000000,-8.000000,22.000000,19.000000,5.000000,13.000000,22.000000
1305068.576091,-15.000000,26.000000,65.000000,-18.000000,-25.000000,-8.000000,-12.000000,-8.000000
1305068.576102,7.000000,9.000000,-48.000000,-13.000000,0.000000,1.000000,-4.000000,6.000000
1305068.576762,11.000000,-10.000000,14.000000,4.000000,4.000000,8.000000,8.000000,6.000000
1305068.576771,0.000000,6.000000,15.000000,4.000000,5.000000,3.000000,2.000000,5.000000
1305068.577263,-10.000000,-9.000000,-7.000000,7.000000,2.000000,-3.000000,-2.000000,-4.000000
1305068.577271,5.000000,20.000000,-22.000000,5.000000,21.000000,3.000000,-2.000000,-6.000000
1305068.578241,-3.000000,-12.000000,2.000000,22.000000,13.000000,0.000000,8.000000,4.000000
1305068.578250,-31.000000,15.000000,-7.000000,-46.000000,-38.000000,6.000000,-17.000000,-13.000000
1305068.590099,32.000000,4.000000,16.000000,4.000000,6.000000,0.000000,10.000000,5.000000
1305068.590109,-23.000000,-70.000000,-32.000000,-2.000000,5.000000,-4.000000,-9.000000,-4.000000
1305068.596992,-17.000000,36.000000,12.000000,14.000000,25.000000,-4.000000,-6.000000,-20.000000
1305068.597002,-3.000000,5.000000,2.000000,-13.000000,-16.000000,-7.000000,-7.000000,0.000000
1305068.612154,17.000000,-3.000000,7.000000,-12.000000,-10.000000,8.000000,-7.000000,-8.000000
1305068.612174,-7.000000,-5.000000,-10.000000,-6.000000,-7.000000,-1.000000,-2.000000,-3.000000
1305068.626881,10.000000,16.000000,-4.000000,15.000000,11.000000,-8.000000,-12.000000,-7.000000
1305068.626892,5.000000,3.000000,-7.000000,-1.000000,-4.000000,-1.000000,0.000000,4.000000
1305068.628008,-26.000000,-22.000000,-56.000000,-19.000000,-11.000000,0.000000,-2.000000,-3.000000
1305068.628035,19.000000,-24.000000,27.000000,-16.000000,-16.000000,6.000000,7.000000,9.000000
1305068.634396,47.000000,122.000000,-8.000000,14.000000,-12.000000,-1.000000,3.000000,14.000000
1305068.634407,-9.000000,5.000000,-21.000000,3.000000,6.000000,3.000000,4.000000,0.000000
1305068.671947,3.000000,-32.000000,-5.000000,-4.000000,-18.000000,-6.000000,1.000000,-3.000000
1305068.671957,-8.000000,-10.000000,-50.000000,-10.000000,8.000000,6.000000,0.000000,-1.000000
1305068.679485,-5.000000,-17.000000,-24.000000,-1.000000,0.000000,-4.000000,-2.000000,-1.000000
1305068.679496,-2.000000,13.000000,16.000000,-2.000000,1.000000,0.000000,1.000000,0.000000
1305068.687738,10.000000,7.000000,8.000000,22.000000,8.000000,-10.000000,-9.000000,-1.000000
1305068.687747,1.000000,-16.000000,-23.000000,-30.000000,-31.000000,0.000000,17.000000,25.000000
1305068.688262,-9.000000,-26.000000,-51.000000,-26.000000,-10.000000,0.000000,-15.000000,-20.000000
1305068.688269,-1.000000,-7.000000,-15.000000,2.000000,12.000000,6.000000,-6.000000,-3.000000
1305068.689812,-1.000000,-4.000000,-18.000000,1.000000,6.000000,10.000000,44.000000,24.000000
1305068.689823,-3.000000,-2.000000,22.000000,15.000000,6.000000,-7.000000,-9.000000,-9.000000
1305068.694610,1.000000,10.000000,20.000000,-10.000000,-9.000000,0.000000,-9.000000,-7.000000
1305068.694621,-1.000000,51.000000,18.000000,6.000000,9.000000,0.000000,-6.000000,-6.000000
1305068.709949,-2.000000,-12.000000,2.000000,-2.000000,2.000000,5.000000,11.000000,7.000000
1305068.709958,2.000000,-14.000000,-59.000000,-10.000000,-12.000000,4.000000,11.000000,9.000000
1305068.716793,-7.000000,-26.000000,-35.000000,-2.000000,-6.000000,-5.000000,-5.000000,-5.000000
1305068.716803,-24.000000,0.000000,-2.000000,-2.000000,0.000000,-5.000000,-7.000000,-10.000000
1305068.725177,11.000000,-8.000000,0.000000,-8.000000,-11.000000,5.000000,7.000000,18.000000
1305068.725188,32.000000,5.000000,8.000000,-5.000000,0.000000,-5.000000,0.000000,8.000000
1305068.740010,-16.000000,-2.000000,33.000000,30.000000,17.000000,-11.000000,-4.000000,-2.000000
1305068.740023,-20.000000,-20.000000,-4.000000,-10.000000,-15.000000,-15.000000,-7.000000,-7.000000
1305068.747632,11.000000,23.000000,2.000000,2.000000,-4.000000,-6.000000,0.000000,8.000000
1305068.747644,-7.000000,-10.000000,7.000000,0.000000,10.000000,21.000000,-4.000000,-3.000000
1305068.754384,-9.000000,-40.000000,-58.000000,-7.000000,-14.000000,-4.000000,1.000000,-5.000000
1305068.754394,7.000000,35.000000,2.000000,9.000000,17.000000,5.000000,9.000000,1.000000
1305068.791978,-11.000000,-49.000000,-9.000000,-4.000000,-2.000000,1.000000,1.000000,13.000000
1305068.791990,-8.000000,34.000000,31.000000,19.000000,-6.000000,-6.000000,33.000000,1.000000
1305068.806917,29.000000,3.000000,5.000000,-24.000000,-35.000000,7.000000,-5.000000,-2.000000
1305068.806945,5.000000,-24.000000,-34.000000,0.000000,1.000000,-7.000000,2.000000,-5.000000
1305068.829490,-37.000000,10.000000,-21.000000,-6.000000,-6.000000,-5.000000,-4.000000,-9.000000
1305068.829536,14.000000,-11.000000,-18.000000,-5.000000,6.000000,-2.000000,0.000000,-3.000000
1305068.830214,-4.000000,37.000000,9.000000,32.000000,28.000000,-5.000000,-11.000000,-8.000000
1305068.830222,-16.000000,-36.000000,30.000000,-20.000000,-15.000000,-5.000000,0.000000,-4.000000
1305068.831038,-4.000000,4.000000,-11.000000,-5.000000,-15.000000,-1.000000,1.000000,-12.000000
1305068.831046,-9.000000,-37.000000,-37.000000,4.000000,11.000000,2.000000,-3.000000,2.000000
1305068.831668,1.000000,2.000000,16.000000,-9.000000,-2.000000,-1.000000,7.000000,7.000000
1305068.831675,-4.000000,19.000000,40.000000,26.000000,26.000000,-2.000000,-3.000000,-7.000000
1305068.833730,4.000000,-24.000000,-9.000000,14.000000,20.000000,0.000000,-9.000000,0.000000
1305068.833741,-25.000000,-38.000000,-23.000000,-5.000000,-9.000000,-12.000000,5.000000,-13.000000
1305068.851963,19.000000,12.000000,43.000000,7.000000,2.000000,9.000000,-8.000000,-4.000000
1305068.851980,2.000000,4.000000,6.000000,-1.000000,-5.000000,4.000000,10.000000,19.000000
1305068.853137,-11.000000,-11.000000,4.000000,-7.000000,-13.000000,-2.000000,-2.000000,-3.000000
1305068.853146,-24.000000,-41.000000,-55.000000,-5.000000,28.000000,18.000000,-2.000000,-12.000000
1305068.866873,22.000000,13.000000,59.000000,24.000000,-12.000000,-9.000000,-1.000000,3.000000
1305068.866883,33.000000,45.000000,-11.000000,23.000000,42.000000,10.000000,-1.000000,4.000000
1305068.868406,2.000000,-10.000000,-32.000000,-22.000000,-9.000000,1.000000,4.000000,-3.000000
1305068.868417,-19.000000,-10.000000,-3.000000,5.000000,6.000000,-2.000000,-8.000000,-12.000000
1305068.874628,-11.000000,-54.000000,-12.000000,11.000000,16.000000,0.000000,5.000000,4.000000
1305068.874639,6.000000,12.000000,2.000000,19.000000,27.000000,12.000000,9.000000,9.000000
1305068.889455,-20.000000,-18.000000,18.000000,5.000000,-8.000000,-6.000000,-14.000000,-8.000000
1305068.889476,16.000000,-4.000000,8.000000,-3.000000,0.000000,-2.000000,-12.000000,-6.000000
1305068.904352,-1.000000,-7.000000,-16.000000,-5.000000,2.000000,-6.000000,-19.000000,-8.000000
1305068.904363,-3.000000,-10.000000,-83.000000,-2.000000,10.000000,1.000000,-1.000000,0.000000
1305068.919682,0.000000,27.000000,69.000000,-26.000000,-39.000000,0.000000,2.000000,-4.000000
1305068.919693,-4.000000,2.000000,0.000000,-1.000000,3.000000,3.000000,-18.000000,-8.000000
1305068.927257,-1.000000,-4.000000,-21.000000,10.000000,17.000000,-3.000000,-4.000000,9.000000
1305068.927268,5.000000,11.000000,23.000000,9.000000,17.000000,12.000000,5.000000,12.000000
1305068.949831,6.000000,20.000000,9.000000,-26.000000,-19.000000,-1.000000,-7.000000,-9.000000
1305068.949841,7.000000,10.000000,-14.000000,4.000000,24.000000,11.000000,13.000000,22.000000
1305068.950786,4.000000,13.000000,-2.000000,9.000000,1.000000,-12.000000,-4.000000,-3.000000
1305068.950807,-7.000000,8.000000,-23.000000,8.000000,-22.000000,-19.000000,-10.000000,-15.000000
1305068.951979,18.000000,-36.000000,4.000000,5.000000,13.000000,-7.000000,-8.000000,1.000000
1305068.951988,-19.000000,-12.000000,3.000000,-16.000000,-24.000000,4.000000,0.000000,-5.000000
1305068.964325,0.000000,-18.000000,-5.000000,19.000000,6.000000,-4.000000,-1.000000,2.000000
1305068.964336,-15.000000,-9.000000,-34.000000,-16.000000,3.000000,10.000000,6.000000,-11.000000
1305068.965578,-13.000000,-32.000000,-46.000000,4.000000,2.000000,-7.000000,-4.000000,-8.000000
1305068.965587,-6.000000,7.000000,35.000000,24.000000,6.000000,-13.000000,-6.000000,-7.000000
1305068.986713,23.000000,7.000000,-25.000000,-10.000000,-11.000000,-5.000000,-5.000000,5.000000
1305068.986726,-16.000000,-11.000000,-12.000000,3.000000,-2.000000,-2.000000,1.000000,-3.000000
1305068.988256,31.000000,25.000000,31.000000,-2.000000,-18.000000,-1.000000,4.000000,15.000000
1305068.988267,8.000000,9.000000,-65.000000,-31.000000,-23.000000,5.000000,11.000000,-7.000000
1305069.001825,7.000000,12.000000,63.000000,11.000000,13.000000,5.000000,5.000000,-10.000000
1305069.001835,4.000000,-47.000000,-23.000000,1.000000,-25.000000,-16.000000,-4.000000,0.000000
1305069.024425,21.000000,12.000000,38.000000,-6.000000,-15.000000,7.000000,21.000000,11.000000
1305069.024440,-26.000000,-28.000000,2.000000,7.000000,9.000000,-5.000000,-6.000000,-13.000000
1305069.031879,4.000000,0.000000,18.000000,-7.000000,11.000000,6.000000,8.000000,3.000000
1305069.031890,-9.000000,10.000000,-11.000000,-1.000000,9.000000,0.000000,-2.000000,-11.000000
1305069.062009,-14.000000,-8.000000,8.000000,-10.000000,-12.000000,-4.000000,-6.000000,-9.000000
1305069.062019,16.000000,-2.000000,-8.000000,0.000000,8.000000,-15.000000,-9.000000,-8.000000
1305069.069563,6.000000,-8.000000,-18.000000,14.000000,-7.000000,-7.000000,4.000000,4.000000
1305069.069575,4.000000,4.000000,10.000000,2.000000,7.000000,3.000000,11.000000,11.000000
1305069.091859,0.000000,4.000000,4.000000,5.000000,11.000000,2.000000,-11.000000,-14.000000
1305069.091887,-31.000000,-31.000000,-13.000000,12.000000,20.000000,12.000000,6.000000,7.000000
1305069.107180,15.000000,23.000000,27.000000,1.000000,-1.000000,3.000000,-1.000000,-6.000000
1305069.107191,20.000000,8.000000,-24.000000,8.000000,0.000000,-10.000000,2.000000,5.000000
1305069.108080,-5.000000,-1.000000,6.000000,12.000000,14.000000,7.000000,8.000000,4.000000
1305069.108088,-20.000000,-50.000000,-5.000000,-23.000000,-25.000000,-8.000000,-3.000000,-4.000000
1305069.108573,11.000000,35.000000,55.000000,13.000000,12.000000,8.000000,2.000000,5.000000
1305069.108581,8.000000,1.000000,-21.000000,-14.000000,2.000000,5.000000,-2.000000,14.000000
1305069.109188,-1.000000,-10.000000,10.000000,3.000000,-8.000000,6.000000,2.000000,14.000000
1305069.109196,-19.000000,-8.000000,10.000000,-12.000000,-9.000000,9.000000,-4.000000,-4.000000
1305069.109796,27.000000,-8.000000,-46.000000,-13.000000,-16.000000,-5.000000,-4.000000,-4.000000
1305069.109804,-8.000000,13.000000,77.000000,18.000000,6.000000,-13.000000,-13.000000,-14.000000
1305069.110670,-59.000000,18.000000,-23.000000,9.000000,0.000000,-3.000000,-24.000000,-20.000000
1305069.110678,33.000000,11.000000,-7.000000,-3.000000,-4.000000,2.000000,7.000000,6.000000
1305069.114600,-31.000000,-47.000000,-17.000000,5.000000,8.000000,1.000000,-7.000000,-10.000000
1305069.114611,-20.000000,8.000000,-13.000000,1.000000,-29.000000,-32.000000,-15.000000,-6.000000
1305069.144514,9.000000,-9.000000,-40.000000,0.000000,-6.000000,-6.000000,-6.000000,-9.000000
1305069.144525,-1.000000,-1.000000,25.000000,6.000000,3.000000,2.000000,7.000000,9.000000
1305069.152236,-9.000000,3.000000,28.000000,-2.000000,-4.000000,0.000000,-3.000000,-10.000000
1305069.152246,1.000000,-16.000000,-6.000000,-2.000000,3.000000,-4.000000,-12.000000,-10.000000
1305069.167172,0.000000,71.000000,-49.000000,3.000000,22.000000,15.000000,16.000000,0.000000
1305069.167238,6.000000,1.000000,33.000000,-27.000000,-29.000000,12.000000,-6.000000,-13.000000
1305069.182037,-3.000000,-4.000000,-42.000000,-3.000000,-7.000000,-10.000000,-7.000000,-8.000000
1305069.182066,2.000000,0.000000,37.000000,23.000000,25.000000,0.000000,1.000000,3.000000
1305069.204598,-7.000000,4.000000,37.000000,-37.000000,-39.000000,-7.000000,-3.000000,-7.000000
1305069.204609,-2.000000,-2.000000,-1.000000,-48.000000,-42.000000,-2.000000,13.000000,-6.000000
1305069.212169,5.000000,-14.000000,-32.000000,8.000000,13.000000,10.000000,10.000000,24.000000
1305069.212184,1.000000,3.000000,12.000000,23.000000,58.000000,23.000000,1.000000,4.000000
1305069.227169,10.000000,22.000000,54.000000,11.000000,-8.000000,-7.000000,0.000000,-5.000000
1305069.227179,-1.000000,-16.000000,-7.000000,0.000000,6.000000,-7.000000,-9.000000,-6.000000
1305069.227796,-5.000000,-1.000000,-54.000000,-10.000000,1.000000,0.000000,1.000000,3.000000
1305069.227804,-4.000000,0.000000,-3.000000,15.000000,15.000000,8.000000,-4.000000,-10.000000
1305069.228583,-10.000000,-7.000000,-47.000000,7.000000,21.000000,2.000000,-3.000000,-4.000000
1305069.228599,-7.000000,2.000000,46.000000,-6.000000,-18.000000,-2.000000,9.000000,8.000000
1305069.229161,17.000000,-39.000000,7.000000,13.000000,12.000000,3.000000,-7.000000,-5.000000
1305069.229170,-11.000000,-4.000000,-59.000000,1.000000,22.000000,-7.000000,3.000000,-10.000000
1305069.241896,-1.000000,-1.000000,49.000000,-1.000000,-12.000000,0.000000,-18.000000,-1.000000
1305069.241905,6.000000,7.000000,5.000000,0.000000,-33.000000,-8.000000,1.000000,-6.000000
1305069.264447,3.000000,-5.000000,-30.000000,-2.000000,5.000000,0.000000,1.000000,8.000000
1305069.264458,-9.000000,-14.000000,8.000000,5.000000,12.000000,2.000000,-2.000000,2.000000
1305069.271917,12.000000,14.000000,9.000000,1.000000,4.000000,4.000000,3.000000,-2.000000
1305069.271926,18.000000,-1.000000,-1.000000,-11.000000,2.000000,8.000000,13.000000,2.000000
1305069.302169,-4.000000,-5.000000,-3.000000,-1.000000,-5.000000,1.000000,0.000000,9.000000
1305069.302184,0.000000,14.000000,11.000000,-19.000000,-12.000000,18.000000,8.000000,-2.000000
1305069.302512,-13.000000,-17.000000,-32.000000,8.000000,10.000000,4.000000,-1.000000,-3.000000
1305069.302521,20.000000,21.000000,19.000000,4.000000,1.000000,5.000000,-6.000000,-1.000000
1305069.303573,-10.000000,4.000000,2.000000,5.000000,1.000000,-9.000000,0.000000,-5.000000
1305069.303583,0.000000,-20.000000,-59.000000,19.000000,0.000000,-15.000000,1.000000,-12.000000
1305069.304161,-14.000000,-68.000000,-83.000000,-28.000000,-12.000000,-6.000000,-3.000000,4.000000
1305069.304170,-8.000000,29.000000,21.000000,-7.000000,-2.000000,-8.000000,-6.000000,-9.000000
1305069.309370,-11.000000,-14.000000,-14.000000,14.000000,-7.000000,-22.000000,-23.000000,-23.000000
1305069.309389,17.000000,-20.000000,1.000000,-15.000000,-6.000000,8.000000,12.000000,17.000000
1305069.316957,1.000000,-14.000000,-16.000000,6.000000,10.000000,-2.000000,-3.000000,-3.000000
1305069.316974,-2.000000,-6.000000,6.000000,2.000000,15.000000,8.000000,-11.000000,-6.000000
1305069.324408,-14.000000,-23.000000,-10.000000,-15.000000,-9.000000,0.000000,-7.000000,-9.000000
1305069.324437,0.000000,-7.000000,27.000000,-1.000000,-5.000000,-3.000000,-3.000000,-3.000000
1305069.347052,-12.000000,-4.000000,-25.000000,-5.000000,16.000000,8.000000,1.000000,1.000000
1305069.347065,8.000000,-19.000000,-21.000000,8.000000,8.000000,-9.000000,-6.000000,4.000000
1305069.348422,-4.000000,-3.000000,9.000000,-16.000000,-23.000000,-9.000000,3.000000,-1.000000
1305069.348433,25.000000,13.000000,31.000000,3.000000,2.000000,-1.000000,-2.000000,3.000000
1305069.362164,-15.000000,-66.000000,-74.000000,-11.000000,-2.000000,-7.000000,-8.000000,-7.000000
1305069.362181,-25.000000,-21.000000,5.000000,5.000000,-32.000000,-23.000000,-5.000000,-6.000000
1305069.384597,9.000000,2.000000,-67.000000,-10.000000,8.000000,-6.000000,-4.000000,-3.000000
1305069.384612,6.000000,0.000000,78.000000,-9.000000,-10.000000,4.000000,4.000000,2.000000
1305069.399399,12.000000,3.000000,-2.000000,2.000000,17.000000,0.000000,3.000000,-9.000000
1305069.399410,9.000000,-9.000000,8.000000,5.000000,-5.000000,-1.000000,6.000000,22.000000
1305069.407166,-5.000000,-5.000000,11.000000,11.000000,7.000000,2.000000,-9.000000,-7.000000
1305069.407182,-5.000000,-1.000000,-51.000000,4.000000,27.000000,1.000000,2.000000,-7.000000
1305069.407882,2.000000,15.000000,73.000000,19.000000,13.000000,7.000000,-5.000000,-7.000000
1305069.407900,1.000000,12.000000,-57.000000,-12.000000,1.000000,9.000000,-25.000000,-6.000000
1305069.409361,1.000000,-18.000000,-3.000000,-3.000000,-2.000000,1.000000,10.000000,14.000000
1305069.409380,-1.000000,-24.000000,6.000000,5.000000,5.000000,-2.000000,-3.000000,-4.000000
1305069.421805,10.000000,12.000000,-15.000000,-37.000000,-45.000000,-3.000000,2.000000,-7.000000
1305069.421817,24.000000,-6.000000,-14.000000,20.000000,49.000000,22.000000,2.000000,-1.000000
1305069.429533,-10.000000,-14.000000,16.000000,7.000000,-38.000000,-29.000000,1.000000,0.000000
1305069.429545,-23.000000,-33.000000,-14.000000,-8.000000,-1.000000,5.000000,-4.000000,-3.000000
1305069.437029,-10.000000,49.000000,13.000000,8.000000,12.000000,10.000000,-13.000000,-12.000000
1305069.437048,19.000000,4.000000,36.000000,2.000000,1.000000,-3.000000,7.000000,18.000000
1305069.459200,2.000000,-12.000000,-79.000000,-12.000000,5.000000,-3.000000,-2.000000,-1.000000
1305069.459210,-23.000000,-19.000000,15.000000,0.000000,-3.000000,-2.000000,-5.000000,-2.000000
1305069.459674,0.000000,-2.000000,18.000000,10.000000,1.000000,-14.000000,1.000000,-5.000000
1305069.459682,5.000000,-6.000000,11.000000,-6.000000,-8.000000,14.000000,10.000000,18.000000
1305069.466828,-10.000000,-7.000000,23.000000,14.000000,11.000000,-5.000000,-7.000000,-5.000000
1305069.466838,-29.000000,-25.000000,-21.000000,-5.000000,1.000000,-4.000000,0.000000,-11.000000
1305069.482246,6.000000,8.000000,11.000000,12.000000,22.000000,1.000000,-3.000000,-12.000000
1305069.482258,-1.000000,10.000000,-12.000000,-22.000000,-30.000000,1.000000,16.000000,9.000000
1305069.511801,-10.000000,1.000000,6.000000,-1.000000,6.000000,5.000000,-4.000000,-7.000000
1305069.511831,-10.000000,-14.000000,-1.000000,-6.000000,-40.000000,-20.000000,-10.000000,-12.000000
1305069.519961,-14.000000,-27.000000,-41.000000,-6.000000,0.000000,4.000000,9.000000,10.000000
1305069.519976,32.000000,79.000000,127.000000,19.000000,5.000000,7.000000,-3.000000,-9.000000
1305069.520851,-11.000000,7.000000,-40.000000,-10.000000,-23.000000,-19.000000,-10.000000,0.000000
1305069.520878,15.000000,51.000000,12.000000,-4.000000,0.000000,-1.000000,3.000000,6.000000
1305069.521266,3.000000,-16.000000,-14.000000,-1.000000,-2.000000,-5.000000,-4.000000,-6.000000
1305069.521274,-30.000000,-22.000000,-2.000000,26.000000,22.000000,3.000000,-5.000000,-8.000000
1305069.527192,22.000000,17.000000,7.000000,-16.000000,-28.000000,-17.000000,1.000000,4.000000
1305069.527203,-21.000000,-11.000000,-14.000000,-6.000000,-3.000000,-4.000000,-4.000000,-11.000000
1305069.542332,14.000000,-6.000000,-3.000000,3.000000,-3.000000,-4.000000,-6.000000,-7.000000
1305069.542372,-8.000000,-5.000000,19.000000,-1.000000,5.000000,12.000000,23.000000,-3.000000
1305069.564265,-1.000000,4.000000,17.000000,-4.000000,-29.000000,-11.000000,5.000000,6.000000
1305069.564300,-5.000000,-2.000000,-64.000000,-25.000000,4.000000,10.000000,2.000000,-9.000000
1305069.564696,9.000000,9.000000,2.000000,-2.000000,1.000000,0.000000,2.000000,13.000000
1305069.564703,23.000000,12.000000,11.000000,20.000000,16.000000,6.000000,-1.000000,4.000000
1305069.579331,4.000000,-4.000000,13.000000,-20.000000,-33.000000,-5.000000,-2.000000,4.000000
1305069.579341,-13.000000,-1.000000,-19.000000,-5.000000,-16.000000,-11.000000,-3.000000,-3.000000
1305069.579795,3.000000,-33.000000,-20.000000,-7.000000,-30.000000,-10.000000,-4.000000,-8.000000
1305069.579803,6.000000,13.000000,-70.000000,-3.000000,6.000000,-4.000000,5.000000,1.000000
1305069.587015,-5.000000,-11.000000,-13.000000,1.000000,4.000000,4.000000,-1.000000,-3.000000
1305069.587025,0.000000,6.000000,36.000000,19.000000,11.000000,-6.000000,-6.000000,-10.000000
1305069.601886,-14.000000,-37.000000,-13.000000,-14.000000,-15.000000,-1.000000,2.000000,-1.000000
1305069.601897,19.000000,63.000000,30.000000,20.000000,23.000000,14.000000,1.000000,3.000000
1305069.647008,3.000000,14.000000,19.000000,4.000000,10.000000,-3.000000,0.000000,2.000000
1305069.647027,11.000000,-19.000000,-14.000000,-6.000000,5.000000,5.000000,13.000000,2.000000
1305069.647414,-23.000000,-41.000000,-56.000000,2.000000,0.000000,-9.000000,-13.000000,-14.000000
1305069.647430,-3.000000,15.000000,86.000000,-7.000000,-12.000000,-9.000000,21.000000,-4.000000
1305069.648434,15.000000,-5.000000,12.000000,6.000000,29.000000,16.000000,-5.000000,-10.000000
1305069.648442,7.000000,10.000000,-13.000000,-32.000000,-24.000000,3.000000,5.000000,12.000000
1305069.649150,-14.000000,-13.000000,28.000000,9.000000,-10.000000,-5.000000,1.000000,-6.000000
1305069.649159,3.000000,-67.000000,-111.000000,-7.000000,-1.000000,-11.000000,-4.000000,-5.000000
1305069.651484,0.000000,51.000000,46.000000,1.000000,5.000000,7.000000,-6.000000,0.000000
1305069.651494,-10.000000,-7.000000,29.000000,-2.000000,3.000000,4.000000,3.000000,0.000000
1305069.661997,-2.000000,-14.000000,-4.000000,8.000000,14.000000,-1.000000,2.000000,-3.000000
