# participant_id: P6
# gesture: medium
# trial_number: 2
# stream_name: Myo_EMG
# stream_type: emg
# timestamp: 20260420_145601
# samples: 5438
# duration_sec: 30.512
# nominal_sample_rate: 200.0
# effective_sample_rate: 178.19
#
timestamp,emg_1,emg_2,emg_3,emg_4,emg_5,emg_6,emg_7,emg_8
1301653.287045,-47.000000,-3.000000,-8.000000,-5.000000,0.000000,6.000000,20.000000,10.000000
1301653.287158,3.000000,4.000000,4.000000,7.000000,3.000000,-1.000000,17.000000,-7.000000
1301653.294518,9.000000,-5.000000,19.000000,-22.000000,-4.000000,-1.000000,4.000000,4.000000
1301653.294534,9.000000,2.000000,-85.000000,-26.000000,-23.000000,-15.000000,16.000000,-11.000000
1301653.295297,-13.000000,2.000000,-5.000000,12.000000,-8.000000,-13.000000,12.000000,-3.000000
1301653.295316,-2.000000,-5.000000,104.000000,53.000000,10.000000,8.000000,-17.000000,-9.000000
1301653.296728,-6.000000,-3.000000,60.000000,33.000000,2.000000,-4.000000,79.000000,10.000000
1301653.296752,-19.000000,7.000000,-10.000000,-30.000000,-13.000000,-5.000000,-8.000000,-8.000000
1301653.316914,34.000000,-2.000000,-36.000000,-20.000000,-6.000000,4.000000,-28.000000,8.000000
1301653.317018,22.000000,0.000000,28.000000,4.000000,14.000000,10.000000,-3.000000,19.000000
1301653.317238,15.000000,-8.000000,24.000000,20.000000,-8.000000,-1.000000,28.000000,-17.000000
1301653.317253,-33.000000,-3.000000,-1.000000,12.000000,-7.000000,-20.000000,26.000000,-4.000000
1301653.331704,7.000000,6.000000,19.000000,-14.000000,10.000000,7.000000,-22.000000,5.000000
1301653.331714,-1.000000,-1.000000,37.000000,23.000000,10.000000,17.000000,-5.000000,8.000000
1301653.339270,23.000000,-7.000000,-82.000000,-24.000000,-18.000000,-10.000000,21.000000,2.000000
1301653.339287,3.000000,-3.000000,46.000000,10.000000,4.000000,1.000000,-5.000000,12.000000
1301653.362056,-14.000000,-1.000000,-18.000000,6.000000,11.000000,9.000000,-3.000000,-15.000000
1301653.362102,-32.000000,2.000000,23.000000,-50.000000,-11.000000,-13.000000,5.000000,-1.000000
1301653.369527,-5.000000,-5.000000,55.000000,117.000000,26.000000,-4.000000,1.000000,0.000000
1301653.369543,15.000000,-3.000000,17.000000,-16.000000,-9.000000,4.000000,2.000000,16.000000
1301653.392055,-3.000000,-4.000000,-26.000000,-48.000000,2.000000,10.000000,-17.000000,-3.000000
1301653.392068,14.000000,3.000000,41.000000,-17.000000,-9.000000,-4.000000,20.000000,9.000000
1301653.399351,-31.000000,-6.000000,-123.000000,15.000000,0.000000,-6.000000,9.000000,-10.000000
1301653.399364,3.000000,-1.000000,72.000000,30.000000,13.000000,6.000000,-34.000000,7.000000
1301653.415044,-16.000000,4.000000,2.000000,-41.000000,-20.000000,-23.000000,90.000000,5.000000
1301653.415067,-9.000000,2.000000,-19.000000,-19.000000,1.000000,5.000000,-44.000000,-17.000000
1301653.415727,28.000000,1.000000,-41.000000,-8.000000,-7.000000,-11.000000,-29.000000,-8.000000
1301653.415748,23.000000,-1.000000,22.000000,-5.000000,-1.000000,-3.000000,-6.000000,2.000000
1301653.417913,-38.000000,-3.000000,-40.000000,-31.000000,-14.000000,-6.000000,1.000000,0.000000
1301653.417971,-11.000000,5.000000,30.000000,36.000000,17.000000,10.000000,9.000000,-1.000000
1301653.418074,12.000000,-7.000000,-15.000000,-10.000000,-5.000000,0.000000,0.000000,12.000000
1301653.418083,-2.000000,8.000000,-30.000000,-13.000000,2.000000,2.000000,21.000000,0.000000
1301653.452269,-3.000000,2.000000,-10.000000,4.000000,-5.000000,-11.000000,-27.000000,-11.000000
1301653.452330,7.000000,4.000000,-20.000000,-19.000000,-2.000000,0.000000,-39.000000,4.000000
1301653.474907,2.000000,0.000000,66.000000,-4.000000,-13.000000,-19.000000,63.000000,12.000000
1301653.474929,15.000000,-6.000000,-45.000000,-5.000000,4.000000,3.000000,-16.000000,-13.000000
1301653.512206,-7.000000,2.000000,41.000000,46.000000,10.000000,-7.000000,-29.000000,-15.000000
1301653.512223,19.000000,-1.000000,18.000000,-26.000000,5.000000,13.000000,-22.000000,14.000000
1301653.534555,1.000000,-2.000000,-19.000000,-24.000000,-6.000000,-3.000000,19.000000,5.000000
1301653.534570,8.000000,0.000000,-11.000000,-30.000000,-10.000000,-15.000000,-15.000000,-7.000000
1301653.549958,-15.000000,-1.000000,-11.000000,-17.000000,3.000000,19.000000,7.000000,12.000000
1301653.549978,-18.000000,5.000000,-63.000000,-8.000000,0.000000,-6.000000,6.000000,-6.000000
1301653.550175,-27.000000,-2.000000,45.000000,24.000000,12.000000,5.000000,4.000000,-15.000000
1301653.550191,7.000000,-1.000000,-11.000000,-24.000000,2.000000,5.000000,0.000000,-2.000000
1301653.550619,-9.000000,-4.000000,57.000000,-62.000000,-3.000000,-2.000000,57.000000,-1.000000
1301653.550639,-2.000000,0.000000,-55.000000,108.000000,3.000000,-13.000000,-58.000000,-3.000000
1301653.551133,1.000000,3.000000,14.000000,3.000000,-6.000000,-26.000000,-14.000000,-2.000000
1301653.551150,-1.000000,-6.000000,-5.000000,2.000000,-1.000000,2.000000,7.000000,2.000000
1301653.551903,-11.000000,-6.000000,16.000000,11.000000,-1.000000,3.000000,7.000000,5.000000
1301653.551919,2.000000,-8.000000,14.000000,19.000000,5.000000,3.000000,3.000000,16.000000
1301653.552682,28.000000,0.000000,56.000000,64.000000,5.000000,-3.000000,25.000000,11.000000
1301653.552701,8.000000,-4.000000,18.000000,21.000000,-1.000000,-21.000000,18.000000,8.000000
1301653.571981,-13.000000,5.000000,-19.000000,35.000000,6.000000,8.000000,-35.000000,3.000000
1301653.572033,-20.000000,-8.000000,-78.000000,-45.000000,-11.000000,-17.000000,-41.000000,-24.000000
1301653.603675,15.000000,-4.000000,1.000000,15.000000,12.000000,16.000000,7.000000,-8.000000
1301653.603724,1.000000,3.000000,31.000000,-22.000000,-13.000000,-9.000000,-9.000000,-3.000000
1301653.616960,-8.000000,5.000000,-32.000000,-7.000000,-12.000000,-8.000000,-28.000000,-4.000000
1301653.616979,17.000000,-7.000000,-18.000000,17.000000,6.000000,3.000000,-2.000000,5.000000
1301653.624488,1.000000,-3.000000,99.000000,8.000000,2.000000,2.000000,13.000000,1.000000
1301653.624513,8.000000,5.000000,-2.000000,68.000000,8.000000,0.000000,-25.000000,-1.000000
1301653.632497,-21.000000,4.000000,-14.000000,-62.000000,-19.000000,-5.000000,2.000000,-1.000000
1301653.632515,23.000000,-4.000000,-14.000000,24.000000,12.000000,5.000000,13.000000,16.000000
1301653.633389,15.000000,1.000000,-10.000000,-9.000000,-15.000000,-11.000000,30.000000,-6.000000
1301653.633405,-14.000000,-4.000000,25.000000,-10.000000,-7.000000,-3.000000,-3.000000,12.000000
1301653.634609,-9.000000,-4.000000,13.000000,-10.000000,-5.000000,-2.000000,14.000000,-10.000000
1301653.634635,8.000000,1.000000,-72.000000,-45.000000,3.000000,2.000000,-27.000000,-8.000000
1301653.635383,-40.000000,-14.000000,-9.000000,28.000000,10.000000,8.000000,-8.000000,-3.000000
1301653.635398,0.000000,-1.000000,49.000000,25.000000,-2.000000,0.000000,20.000000,8.000000
1301653.647467,10.000000,-6.000000,-24.000000,-47.000000,-11.000000,-11.000000,-16.000000,11.000000
1301653.647484,14.000000,-1.000000,-17.000000,-12.000000,-6.000000,-4.000000,-21.000000,1.000000
1301653.654711,-24.000000,0.000000,31.000000,21.000000,8.000000,0.000000,17.000000,-10.000000
1301653.654732,13.000000,-1.000000,-25.000000,-31.000000,-10.000000,-9.000000,-26.000000,-7.000000
1301653.670249,-3.000000,1.000000,33.000000,11.000000,5.000000,10.000000,34.000000,3.000000
1301653.670271,-4.000000,3.000000,23.000000,-29.000000,-12.000000,-3.000000,9.000000,4.000000
1301653.670920,-12.000000,3.000000,37.000000,63.000000,13.000000,-17.000000,13.000000,-4.000000
1301653.670934,25.000000,-13.000000,7.000000,-11.000000,1.000000,10.000000,-49.000000,13.000000
1301653.685357,-6.000000,-3.000000,-34.000000,-58.000000,-13.000000,-2.000000,21.000000,-19.000000
1301653.685373,-10.000000,2.000000,104.000000,125.000000,26.000000,3.000000,-22.000000,-11.000000
1301653.695131,26.000000,6.000000,9.000000,-16.000000,-8.000000,1.000000,15.000000,31.000000
1301653.695145,6.000000,-7.000000,0.000000,-37.000000,-11.000000,-16.000000,-10.000000,-2.000000
1301653.729455,-29.000000,5.000000,71.000000,-10.000000,-1.000000,-7.000000,-23.000000,-12.000000
1301653.729510,-5.000000,-3.000000,-93.000000,32.000000,4.000000,2.000000,10.000000,-20.000000
1301653.752771,1.000000,-4.000000,36.000000,-10.000000,-14.000000,-13.000000,-2.000000,-3.000000
1301653.752792,-44.000000,-8.000000,-12.000000,-12.000000,-4.000000,5.000000,3.000000,3.000000
1301653.754356,1.000000,-4.000000,-10.000000,8.000000,-7.000000,-5.000000,38.000000,4.000000
1301653.754370,-9.000000,3.000000,56.000000,-15.000000,-8.000000,1.000000,4.000000,-2.000000
1301653.755590,8.000000,3.000000,-2.000000,0.000000,3.000000,-1.000000,-31.000000,2.000000
1301653.755826,5.000000,2.000000,9.000000,3.000000,11.000000,12.000000,3.000000,0.000000
1301653.756207,3.000000,6.000000,-91.000000,25.000000,9.000000,4.000000,-8.000000,-11.000000
1301653.756225,-6.000000,0.000000,-35.000000,-87.000000,-25.000000,-11.000000,-11.000000,-5.000000
1301653.756535,3.000000,-1.000000,127.000000,66.000000,8.000000,0.000000,-15.000000,-2.000000
1301653.756547,1.000000,-2.000000,-102.000000,11.000000,9.000000,3.000000,21.000000,0.000000
1301653.767867,-18.000000,-6.000000,20.000000,-18.000000,-13.000000,-1.000000,-2.000000,0.000000
1301653.767888,3.000000,0.000000,-16.000000,-44.000000,-5.000000,2.000000,-19.000000,-6.000000
1301653.774642,-49.000000,-1.000000,34.000000,3.000000,1.000000,-12.000000,35.000000,1.000000
1301653.774672,16.000000,-1.000000,-128.000000,-10.000000,2.000000,4.000000,-30.000000,3.000000
1301653.790213,-2.000000,1.000000,-28.000000,-23.000000,-11.000000,-7.000000,-20.000000,4.000000
1301653.790233,-24.000000,-3.000000,72.000000,-13.000000,-12.000000,-6.000000,-7.000000,-23.000000
1301653.791802,-9.000000,-4.000000,-18.000000,35.000000,10.000000,-10.000000,-12.000000,-9.000000
1301653.791814,10.000000,4.000000,1.000000,-35.000000,-6.000000,1.000000,1.000000,8.000000
1301653.819545,0.000000,-5.000000,-10.000000,-20.000000,-6.000000,-1.000000,-1.000000,-4.000000
1301653.819565,-4.000000,2.000000,3.000000,4.000000,0.000000,-2.000000,-33.000000,-9.000000
1301653.827782,12.000000,-4.000000,-8.000000,-2.000000,-3.000000,7.000000,10.000000,8.000000
1301653.827801,-9.000000,-11.000000,-5.000000,-1.000000,3.000000,1.000000,-3.000000,-2.000000
1301653.849547,5.000000,1.000000,19.000000,-60.000000,0.000000,12.000000,22.000000,11.000000
1301653.849566,2.000000,-3.000000,-76.000000,127.000000,7.000000,-19.000000,39.000000,-4.000000
1301653.864511,10.000000,1.000000,4.000000,-71.000000,-6.000000,3.000000,-34.000000,20.000000
1301653.864533,-31.000000,-8.000000,-17.000000,19.000000,9.000000,8.000000,-4.000000,-3.000000
1301653.887086,17.000000,6.000000,82.000000,43.000000,9.000000,9.000000,10.000000,-18.000000
1301653.887104,7.000000,-4.000000,-33.000000,-59.000000,-20.000000,-12.000000,11.000000,-5.000000
1301653.888328,8.000000,0.000000,6.000000,-1.000000,7.000000,10.000000,-3.000000,7.000000
1301653.888349,32.000000,-12.000000,7.000000,-21.000000,-2.000000,-4.000000,-16.000000,-1.000000
1301653.895535,-2.000000,-3.000000,-16.000000,16.000000,-3.000000,-1.000000,2.000000,-4.000000
1301653.895554,8.000000,-7.000000,-1.000000,0.000000,-7.000000,-11.000000,-3.000000,2.000000
1301653.896448,4.000000,-3.000000,6.000000,-1.000000,5.000000,2.000000,-10.000000,-3.000000
1301653.896469,3.000000,-2.000000,-11.000000,12.000000,-2.000000,-3.000000,12.000000,0.000000
1301653.897486,29.000000,1.000000,100.000000,82.000000,23.000000,7.000000,9.000000,13.000000
1301653.897508,-16.000000,2.000000,15.000000,-29.000000,-2.000000,4.000000,-12.000000,-2.000000
1301653.910190,1.000000,-3.000000,-16.000000,11.000000,-3.000000,-11.000000,-18.000000,-15.000000
1301653.910242,-1.000000,2.000000,22.000000,-43.000000,-16.000000,-5.000000,-27.000000,-21.000000
1301653.917164,19.000000,-6.000000,-14.000000,56.000000,17.000000,13.000000,53.000000,18.000000
1301653.917247,-20.000000,-3.000000,41.000000,-8.000000,-4.000000,-2.000000,-32.000000,-10.000000
1301653.948978,-9.000000,12.000000,32.000000,-19.000000,4.000000,2.000000,-8.000000,-12.000000
1301653.948999,5.000000,1.000000,-33.000000,26.000000,3.000000,2.000000,19.000000,10.000000
1301653.954661,-12.000000,-1.000000,120.000000,62.000000,11.000000,2.000000,-1.000000,7.000000
1301653.954679,-2.000000,1.000000,-28.000000,-44.000000,-8.000000,-7.000000,-10.000000,-7.000000
1301654.006838,11.000000,0.000000,-78.000000,-4.000000,3.000000,3.000000,-1.000000,-13.000000
1301654.006853,10.000000,-1.000000,45.000000,-12.000000,2.000000,17.000000,17.000000,6.000000
1301654.007152,-5.000000,-7.000000,-22.000000,24.000000,3.000000,-11.000000,0.000000,3.000000
1301654.007170,7.000000,0.000000,17.000000,-8.000000,0.000000,-2.000000,-22.000000,-9.000000
1301654.008567,-11.000000,-5.000000,10.000000,-13.000000,-8.000000,5.000000,-19.000000,-2.000000
1301654.008579,-6.000000,-7.000000,-37.000000,-27.000000,-16.000000,-7.000000,58.000000,28.000000
1301654.009218,25.000000,-1.000000,4.000000,-23.000000,-5.000000,-6.000000,-1.000000,-3.000000
1301654.009238,-21.000000,-4.000000,-5.000000,18.000000,18.000000,18.000000,3.000000,-6.000000
1301654.010879,10.000000,-2.000000,73.000000,32.000000,-3.000000,-4.000000,3.000000,7.000000
1301654.010897,3.000000,2.000000,2.000000,-17.000000,-3.000000,-3.000000,-22.000000,-4.000000
1301654.029232,3.000000,-1.000000,32.000000,-28.000000,-7.000000,-1.000000,2.000000,-3.000000
1301654.029250,-6.000000,4.000000,-59.000000,1.000000,-7.000000,-6.000000,-9.000000,-12.000000
1301654.030583,15.000000,6.000000,22.000000,13.000000,17.000000,7.000000,-4.000000,5.000000
1301654.030592,6.000000,-3.000000,2.000000,-34.000000,-1.000000,5.000000,-51.000000,23.000000
1301654.036675,-13.000000,-11.000000,-28.000000,21.000000,-6.000000,-12.000000,12.000000,-23.000000
1301654.036693,-18.000000,-6.000000,17.000000,-55.000000,-17.000000,-11.000000,12.000000,-13.000000
1301654.052139,-9.000000,-8.000000,-6.000000,8.000000,-16.000000,-14.000000,62.000000,-9.000000
1301654.052176,-9.000000,-6.000000,76.000000,33.000000,8.000000,-8.000000,-22.000000,-5.000000
1301654.074341,7.000000,-4.000000,34.000000,-18.000000,4.000000,5.000000,-1.000000,-2.000000
1301654.074359,1.000000,-3.000000,-92.000000,-21.000000,1.000000,5.000000,-11.000000,-6.000000
1301654.097597,-12.000000,13.000000,9.000000,-30.000000,-4.000000,1.000000,-3.000000,-2.000000
1301654.097636,-21.000000,2.000000,78.000000,22.000000,-3.000000,4.000000,1.000000,-7.000000
1301654.104367,13.000000,9.000000,-34.000000,37.000000,11.000000,7.000000,-26.000000,3.000000
1301654.104389,19.000000,-1.000000,59.000000,19.000000,-3.000000,-5.000000,32.000000,14.000000
1301654.126688,13.000000,5.000000,-10.000000,-37.000000,-10.000000,-4.000000,-34.000000,7.000000
1301654.126699,-13.000000,0.000000,4.000000,15.000000,12.000000,5.000000,17.000000,-2.000000
1301654.150238,2.000000,-1.000000,51.000000,4.000000,-9.000000,-5.000000,6.000000,-16.000000
1301654.150342,3.000000,-2.000000,-84.000000,-16.000000,-6.000000,-3.000000,-9.000000,9.000000
1301654.151204,-31.000000,4.000000,39.000000,-7.000000,-5.000000,-3.000000,-8.000000,-10.000000
1301654.151449,-9.000000,-1.000000,19.000000,5.000000,-2.000000,-14.000000,16.000000,-13.000000
1301654.151935,-6.000000,3.000000,6.000000,-20.000000,-13.000000,-14.000000,-30.000000,0.000000
1301654.151975,-3.000000,-9.000000,42.000000,3.000000,8.000000,7.000000,-5.000000,-3.000000
1301654.153666,-17.000000,5.000000,7.000000,20.000000,0.000000,-1.000000,2.000000,-6.000000
1301654.153704,3.000000,2.000000,-13.000000,25.000000,5.000000,0.000000,-3.000000,2.000000
1301654.153978,-5.000000,6.000000,74.000000,40.000000,4.000000,0.000000,3.000000,7.000000
1301654.154018,-8.000000,-4.000000,3.000000,-17.000000,-15.000000,-2.000000,-8.000000,-4.000000
1301654.157500,0.000000,0.000000,-42.000000,-42.000000,4.000000,4.000000,-20.000000,2.000000
1301654.157543,-1.000000,-5.000000,40.000000,-16.000000,-10.000000,-14.000000,9.000000,-10.000000
1301654.172438,16.000000,10.000000,-38.000000,29.000000,9.000000,1.000000,-3.000000,14.000000
1301654.172485,1.000000,-9.000000,15.000000,-15.000000,-6.000000,-4.000000,10.000000,-1.000000
1301654.187652,-20.000000,6.000000,-21.000000,1.000000,2.000000,4.000000,-11.000000,-27.000000
1301654.187688,28.000000,-2.000000,6.000000,8.000000,1.000000,4.000000,-10.000000,21.000000
1301654.210187,-3.000000,2.000000,21.000000,-9.000000,-4.000000,-3.000000,-27.000000,5.000000
1301654.210279,12.000000,-13.000000,-75.000000,-4.000000,9.000000,-2.000000,9.000000,-4.000000
1301654.225296,14.000000,4.000000,36.000000,-4.000000,-8.000000,-8.000000,-45.000000,-7.000000
1301654.225324,-18.000000,-1.000000,5.000000,-8.000000,-10.000000,12.000000,46.000000,2.000000
1301654.233457,12.000000,1.000000,-9.000000,1.000000,3.000000,-8.000000,-1.000000,1.000000
1301654.233501,-16.000000,0.000000,23.000000,61.000000,14.000000,6.000000,-6.000000,-22.000000
1301654.234226,2.000000,4.000000,-5.000000,-16.000000,-1.000000,4.000000,3.000000,6.000000
1301654.234260,12.000000,0.000000,1.000000,-47.000000,-9.000000,3.000000,-14.000000,3.000000
1301654.235287,-17.000000,3.000000,-70.000000,-24.000000,-10.000000,-11.000000,22.000000,-4.000000
1301654.235546,-31.000000,1.000000,-60.000000,13.000000,-4.000000,0.000000,-7.000000,-10.000000
1301654.236048,7.000000,-4.000000,25.000000,11.000000,-1.000000,5.000000,4.000000,1.000000
1301654.236068,-15.000000,-2.000000,17.000000,-41.000000,-9.000000,-1.000000,54.000000,-6.000000
1301654.248852,-18.000000,-5.000000,5.000000,50.000000,7.000000,-23.000000,-16.000000,1.000000
1301654.248891,25.000000,4.000000,4.000000,5.000000,6.000000,11.000000,-25.000000,10.000000
1301654.262916,13.000000,-7.000000,-29.000000,-39.000000,-8.000000,1.000000,3.000000,-3.000000
1301654.262962,-17.000000,-3.000000,7.000000,21.000000,8.000000,7.000000,28.000000,-9.000000
1301654.270930,3.000000,0.000000,-6.000000,17.000000,-4.000000,-8.000000,-14.000000,0.000000
1301654.270964,-16.000000,6.000000,-1.000000,-17.000000,-2.000000,-6.000000,-11.000000,10.000000
1301654.277699,12.000000,1.000000,30.000000,-79.000000,-8.000000,-1.000000,-14.000000,-19.000000
1301654.277742,-11.000000,-6.000000,-82.000000,127.000000,21.000000,7.000000,-31.000000,-3.000000
1301654.307469,4.000000,2.000000,-31.000000,-48.000000,-14.000000,-8.000000,30.000000,6.000000
1301654.307513,-5.000000,1.000000,7.000000,-5.000000,4.000000,7.000000,1.000000,2.000000
1301654.322787,2.000000,2.000000,-2.000000,-28.000000,-4.000000,-8.000000,-8.000000,6.000000
1301654.322843,-14.000000,-2.000000,15.000000,-1.000000,-12.000000,-1.000000,-21.000000,-18.000000
1301654.345200,1.000000,8.000000,-38.000000,-8.000000,-2.000000,-1.000000,18.000000,0.000000
1301654.345248,2.000000,3.000000,38.000000,14.000000,2.000000,0.000000,-54.000000,-20.000000
1301654.368093,4.000000,6.000000,44.000000,-7.000000,-2.000000,11.000000,27.000000,9.000000
1301654.368204,8.000000,-12.000000,13.000000,-24.000000,2.000000,-10.000000,15.000000,28.000000
1301654.369242,7.000000,-2.000000,-33.000000,33.000000,11.000000,5.000000,-28.000000,0.000000
1301654.369274,-3.000000,-7.000000,71.000000,75.000000,7.000000,-3.000000,-15.000000,-3.000000
1301654.370221,3.000000,5.000000,12.000000,-31.000000,-6.000000,-4.000000,13.000000,-2.000000
1301654.370243,0.000000,3.000000,6.000000,4.000000,-5.000000,2.000000,-25.000000,1.000000
1301654.371394,6.000000,2.000000,-4.000000,-18.000000,4.000000,7.000000,24.000000,1.000000
1301654.371436,5.000000,1.000000,-3.000000,-2.000000,-7.000000,-8.000000,-12.000000,3.000000
1301654.375394,-2.000000,-9.000000,29.000000,-38.000000,-21.000000,-20.000000,9.000000,-2.000000
1301654.375428,-4.000000,2.000000,-94.000000,-24.000000,-10.000000,-7.000000,8.000000,-2.000000
1301654.383137,-17.000000,-8.000000,31.000000,-12.000000,3.000000,3.000000,-29.000000,-20.000000
1301654.383183,-2.000000,6.000000,-94.000000,-60.000000,-15.000000,-9.000000,-10.000000,-14.000000
1301654.405046,27.000000,-2.000000,-70.000000,99.000000,19.000000,4.000000,3.000000,22.000000
1301654.405074,4.000000,10.000000,69.000000,-5.000000,-7.000000,-10.000000,9.000000,9.000000
1301654.442859,-15.000000,-1.000000,-36.000000,-55.000000,0.000000,3.000000,-27.000000,-11.000000
1301654.442899,12.000000,-2.000000,24.000000,-19.000000,-3.000000,-4.000000,5.000000,-2.000000
1301654.450248,-15.000000,-5.000000,-93.000000,2.000000,-4.000000,-4.000000,-1.000000,2.000000
1301654.450295,-12.000000,-8.000000,-5.000000,-11.000000,2.000000,12.000000,-3.000000,-10.000000
1301654.480044,5.000000,0.000000,1.000000,-4.000000,1.000000,2.000000,9.000000,4.000000
1301654.480445,-4.000000,-1.000000,-11.000000,-16.000000,-8.000000,-15.000000,16.000000,-12.000000
1301654.480859,-3.000000,4.000000,6.000000,7.000000,-5.000000,3.000000,-37.000000,2.000000
1301654.480877,-8.000000,-6.000000,15.000000,8.000000,6.000000,2.000000,6.000000,-8.000000
1301654.481744,-47.000000,4.000000,14.000000,5.000000,17.000000,0.000000,-14.000000,-11.000000
1301654.481764,7.000000,0.000000,21.000000,-10.000000,-2.000000,8.000000,-17.000000,-1.000000
1301654.487170,0.000000,-4.000000,2.000000,17.000000,-3.000000,10.000000,2.000000,-9.000000
1301654.487356,0.000000,0.000000,16.000000,-11.000000,-5.000000,-15.000000,-5.000000,12.000000
1301654.488679,-8.000000,-2.000000,-6.000000,-15.000000,-9.000000,0.000000,25.000000,-10.000000
1301654.488730,21.000000,-5.000000,-96.000000,8.000000,8.000000,2.000000,-4.000000,-2.000000
1301654.502927,0.000000,3.000000,23.000000,-11.000000,2.000000,-1.000000,3.000000,2.000000
1301654.502967,-1.000000,4.000000,-22.000000,-39.000000,-9.000000,-13.000000,-22.000000,6.000000
1301654.509900,9.000000,-6.000000,22.000000,3.000000,-2.000000,-2.000000,-12.000000,7.000000
1301654.509923,-2.000000,1.000000,-12.000000,23.000000,3.000000,3.000000,16.000000,-8.000000
1301654.517438,-8.000000,-5.000000,5.000000,-7.000000,-6.000000,2.000000,-20.000000,5.000000
1301654.517459,3.000000,7.000000,-4.000000,-51.000000,-14.000000,-14.000000,29.000000,6.000000
1301654.547851,-1.000000,0.000000,-41.000000,32.000000,8.000000,12.000000,0.000000,7.000000
1301654.547893,-2.000000,3.000000,37.000000,44.000000,3.000000,-2.000000,-12.000000,0.000000
1301654.554945,-5.000000,-4.000000,3.000000,-30.000000,0.000000,1.000000,-14.000000,0.000000
1301654.554967,2.000000,-2.000000,-54.000000,-15.000000,4.000000,4.000000,19.000000,-10.000000
1301654.585047,12.000000,-2.000000,32.000000,6.000000,2.000000,2.000000,4.000000,10.000000
1301654.585069,-7.000000,3.000000,24.000000,10.000000,0.000000,5.000000,1.000000,-1.000000
1301654.599430,-1.000000,7.000000,-81.000000,-64.000000,-4.000000,-4.000000,11.000000,-4.000000
1301654.599471,10.000000,-1.000000,46.000000,94.000000,18.000000,15.000000,-1.000000,17.000000
1301654.600614,1.000000,-6.000000,40.000000,-77.000000,-25.000000,-11.000000,-26.000000,-4.000000
1301654.600683,10.000000,-6.000000,-128.000000,66.000000,16.000000,4.000000,31.000000,5.000000
1301654.602171,-36.000000,4.000000,36.000000,-21.000000,-8.000000,-6.000000,-37.000000,1.000000
1301654.602231,27.000000,-3.000000,-29.000000,-36.000000,-8.000000,0.000000,41.000000,8.000000
1301654.603174,-12.000000,2.000000,-3.000000,-33.000000,-18.000000,-5.000000,49.000000,0.000000
1301654.603224,10.000000,-4.000000,-21.000000,16.000000,18.000000,3.000000,-1.000000,-1.000000
1301654.607174,-2.000000,5.000000,-80.000000,6.000000,-5.000000,-6.000000,1.000000,0.000000
1301654.607197,8.000000,-6.000000,2.000000,-11.000000,1.000000,-2.000000,-14.000000,-5.000000
1301654.621868,-14.000000,-3.000000,55.000000,63.000000,18.000000,8.000000,-39.000000,-8.000000
1301654.621883,18.000000,-3.000000,46.000000,9.000000,1.000000,-4.000000,53.000000,24.000000
1301654.623198,-19.000000,-7.000000,-63.000000,-21.000000,-5.000000,-1.000000,-23.000000,-7.000000
1301654.623223,-29.000000,-5.000000,-73.000000,-32.000000,-2.000000,7.000000,-9.000000,-27.000000
1301654.644535,9.000000,-3.000000,-2.000000,-108.000000,-23.000000,-6.000000,3.000000,0.000000
1301654.644560,4.000000,9.000000,17.000000,86.000000,16.000000,5.000000,5.000000,5.000000
1301654.659584,-16.000000,3.000000,19.000000,-6.000000,-10.000000,-5.000000,-16.000000,12.000000
1301654.659609,9.000000,3.000000,-30.000000,-44.000000,-6.000000,4.000000,-10.000000,-9.000000
1301654.667058,12.000000,-3.000000,-18.000000,-28.000000,-10.000000,-3.000000,45.000000,0.000000
1301654.667083,-12.000000,1.000000,11.000000,18.000000,4.000000,-6.000000,4.000000,1.000000
1301654.705033,6.000000,6.000000,-5.000000,-32.000000,-3.000000,0.000000,-15.000000,-11.000000
1301654.705057,8.000000,-8.000000,-45.000000,11.000000,-2.000000,6.000000,-19.000000,-2.000000
1301654.705778,-8.000000,0.000000,84.000000,12.000000,-4.000000,0.000000,19.000000,-1.000000
1301654.705796,-10.000000,-4.000000,2.000000,57.000000,18.000000,7.000000,-53.000000,16.000000
1301654.706330,-7.000000,-4.000000,2.000000,-25.000000,-8.000000,-3.000000,63.000000,-20.000000
1301654.706341,6.000000,8.000000,-15.000000,26.000000,12.000000,4.000000,-1.000000,-1.000000
1301654.706830,-2.000000,-8.000000,7.000000,-17.000000,-12.000000,5.000000,-34.000000,-5.000000
1301654.706842,-4.000000,-5.000000,21.000000,-65.000000,-21.000000,-14.000000,13.000000,-3.000000
1301654.708690,-17.000000,3.000000,-81.000000,35.000000,7.000000,-1.000000,-56.000000,2.000000
1301654.708715,-12.000000,-4.000000,33.000000,9.000000,3.000000,-5.000000,6.000000,-7.000000
1301654.712044,5.000000,4.000000,26.000000,-14.000000,-9.000000,8.000000,-40.000000,3.000000
1301654.712069,-3.000000,7.000000,-18.000000,-2.000000,1.000000,-4.000000,66.000000,0.000000
1301654.727014,5.000000,12.000000,7.000000,0.000000,5.000000,-4.000000,4.000000,27.000000
1301654.727041,-8.000000,-4.000000,13.000000,-9.000000,-1.000000,4.000000,-19.000000,-18.000000
1301654.741910,-24.000000,6.000000,-5.000000,-9.000000,-2.000000,3.000000,-11.000000,-8.000000
1301654.741924,9.000000,-4.000000,4.000000,-7.000000,-3.000000,0.000000,-8.000000,-1.000000
1301654.779626,-1.000000,-5.000000,-65.000000,-11.000000,2.000000,4.000000,9.000000,5.000000
1301654.779652,7.000000,13.000000,26.000000,15.000000,-1.000000,0.000000,-1.000000,-7.000000
1301654.786945,-14.000000,1.000000,-11.000000,-8.000000,-3.000000,-6.000000,-12.000000,-5.000000
1301654.786959,9.000000,-7.000000,4.000000,4.000000,8.000000,9.000000,6.000000,-4.000000
1301654.825205,-6.000000,1.000000,-1.000000,-39.000000,-20.000000,-11.000000,2.000000,1.000000
1301654.825302,9.000000,-2.000000,-91.000000,25.000000,11.000000,3.000000,-8.000000,4.000000
1301654.832768,-9.000000,-5.000000,9.000000,20.000000,1.000000,-3.000000,1.000000,0.000000
1301654.832809,2.000000,4.000000,44.000000,-23.000000,-9.000000,-9.000000,-9.000000,-9.000000
1301654.841270,3.000000,4.000000,-115.000000,27.000000,8.000000,2.000000,-19.000000,0.000000
1301654.841485,5.000000,0.000000,60.000000,17.000000,5.000000,9.000000,-1.000000,11.000000
1301654.841802,-17.000000,1.000000,-9.000000,-26.000000,-19.000000,-20.000000,13.000000,-10.000000
1301654.841875,9.000000,-1.000000,4.000000,-17.000000,-2.000000,-2.000000,-15.000000,-1.000000
1301654.842629,9.000000,-6.000000,-47.000000,0.000000,16.000000,17.000000,8.000000,15.000000
1301654.842952,-17.000000,-12.000000,26.000000,5.000000,-1.000000,2.000000,2.000000,-8.000000
1301654.843149,-3.000000,5.000000,-12.000000,-23.000000,-10.000000,-15.000000,-5.000000,15.000000
1301654.843186,-1.000000,7.000000,11.000000,40.000000,14.000000,11.000000,-11.000000,-18.000000
1301654.862886,-1.000000,0.000000,-2.000000,-9.000000,3.000000,7.000000,-6.000000,4.000000
1301654.863108,2.000000,-6.000000,-4.000000,-12.000000,-11.000000,-9.000000,0.000000,4.000000
1301654.863687,-14.000000,-1.000000,4.000000,6.000000,5.000000,-2.000000,-6.000000,-6.000000
1301654.863740,0.000000,1.000000,40.000000,-4.000000,5.000000,5.000000,5.000000,-6.000000
1301654.877632,-1.000000,-4.000000,-33.000000,10.000000,3.000000,8.000000,-13.000000,-7.000000
1301654.877674,-7.000000,0.000000,-15.000000,37.000000,13.000000,5.000000,6.000000,9.000000
1301654.885282,6.000000,1.000000,111.000000,42.000000,-6.000000,2.000000,-14.000000,2.000000
1301654.885306,2.000000,7.000000,-78.000000,-10.000000,-9.000000,-11.000000,-11.000000,2.000000
1301654.915195,-19.000000,2.000000,20.000000,-25.000000,-8.000000,-5.000000,10.000000,-14.000000
1301654.915349,-13.000000,1.000000,0.000000,-13.000000,-3.000000,6.000000,-21.000000,-10.000000
1301654.922729,0.000000,0.000000,-33.000000,-33.000000,-15.000000,-23.000000,-10.000000,-12.000000
1301654.922770,-1.000000,-3.000000,53.000000,-5.000000,-11.000000,1.000000,29.000000,15.000000
1301654.937330,1.000000,4.000000,-30.000000,15.000000,12.000000,7.000000,15.000000,-2.000000
1301654.937361,-2.000000,-2.000000,4.000000,-11.000000,-6.000000,-7.000000,-42.000000,6.000000
1301654.938100,-20.000000,8.000000,-14.000000,-14.000000,-2.000000,10.000000,16.000000,-7.000000
1301654.938423,-12.000000,2.000000,37.000000,4.000000,2.000000,4.000000,-14.000000,-30.000000
1301654.940127,3.000000,-2.000000,-80.000000,-4.000000,1.000000,-4.000000,-18.000000,-8.000000
1301654.940378,-1.000000,-4.000000,40.000000,16.000000,1.000000,-3.000000,16.000000,-2.000000
1301654.940612,-5.000000,0.000000,2.000000,-15.000000,0.000000,-7.000000,7.000000,0.000000
1301654.940650,0.000000,2.000000,-105.000000,39.000000,7.000000,-1.000000,16.000000,1.000000
1301654.945054,0.000000,2.000000,16.000000,-4.000000,-12.000000,-2.000000,-19.000000,-3.000000
1301654.945077,10.000000,4.000000,9.000000,10.000000,3.000000,3.000000,-39.000000,-8.000000
1301654.959991,2.000000,5.000000,46.000000,4.000000,-3.000000,-2.000000,16.000000,-4.000000
1301654.960034,-19.000000,-7.000000,-128.000000,-40.000000,-7.000000,-19.000000,35.000000,-1.000000
1301654.982651,-21.000000,-8.000000,90.000000,27.000000,4.000000,8.000000,-55.000000,-6.000000
1301654.982822,3.000000,-13.000000,-65.000000,8.000000,-10.000000,-11.000000,43.000000,-11.000000
1301654.983191,-7.000000,-9.000000,-53.000000,-27.000000,-9.000000,-7.000000,28.000000,-14.000000
1301654.983212,7.000000,6.000000,51.000000,25.000000,3.000000,-8.000000,-35.000000,9.000000
1301654.990053,8.000000,7.000000,4.000000,-14.000000,-4.000000,-2.000000,-11.000000,-5.000000
1301654.990096,5.000000,-9.000000,0.000000,-12.000000,0.000000,8.000000,6.000000,-3.000000
1301654.997606,-33.000000,6.000000,3.000000,0.000000,-3.000000,-4.000000,-10.000000,-9.000000
1301654.997773,17.000000,2.000000,-6.000000,-8.000000,-1.000000,4.000000,-1.000000,5.000000
1301655.020024,-16.000000,5.000000,2.000000,8.000000,4.000000,-3.000000,2.000000,-1.000000
1301655.020067,-1.000000,3.000000,19.000000,2.000000,3.000000,-2.000000,4.000000,-2.000000
1301655.042624,12.000000,-5.000000,38.000000,-25.000000,-10.000000,-1.000000,0.000000,1.000000
1301655.042648,3.000000,1.000000,-128.000000,-7.000000,4.000000,5.000000,0.000000,19.000000
1301655.058660,-4.000000,1.000000,-23.000000,-19.000000,-24.000000,-32.000000,-23.000000,-18.000000
1301655.059050,-1.000000,-4.000000,2.000000,-7.000000,5.000000,12.000000,31.000000,11.000000
1301655.059825,10.000000,-2.000000,-7.000000,-44.000000,-25.000000,-8.000000,-33.000000,-5.000000
1301655.059865,-13.000000,1.000000,9.000000,53.000000,8.000000,-5.000000,26.000000,-9.000000
1301655.061441,-2.000000,-7.000000,5.000000,18.000000,-4.000000,2.000000,16.000000,-2.000000
1301655.061532,-19.000000,-2.000000,2.000000,-34.000000,-9.000000,-5.000000,-45.000000,-2.000000
1301655.061874,16.000000,-5.000000,-9.000000,13.000000,11.000000,7.000000,17.000000,5.000000
1301655.061913,-1.000000,0.000000,-26.000000,-9.000000,5.000000,5.000000,-5.000000,1.000000
1301655.064915,-7.000000,3.000000,-3.000000,-13.000000,-9.000000,-2.000000,-10.000000,-15.000000
1301655.064958,-15.000000,2.000000,3.000000,4.000000,1.000000,0.000000,-1.000000,1.000000
1301655.080934,20.000000,3.000000,11.000000,-2.000000,1.000000,5.000000,24.000000,-1.000000
1301655.080964,1.000000,3.000000,22.000000,25.000000,6.000000,5.000000,-48.000000,14.000000
1301655.102627,4.000000,2.000000,19.000000,-31.000000,-17.000000,-26.000000,11.000000,-8.000000
1301655.102648,-17.000000,-5.000000,-56.000000,-4.000000,-3.000000,-1.000000,-25.000000,2.000000
1301655.117662,-9.000000,2.000000,45.000000,6.000000,-5.000000,-13.000000,-13.000000,-6.000000
1301655.117715,-5.000000,-5.000000,-21.000000,7.000000,-1.000000,8.000000,6.000000,-3.000000
1301655.140210,-13.000000,1.000000,-33.000000,16.000000,8.000000,11.000000,-14.000000,9.000000
1301655.140234,25.000000,-1.000000,28.000000,-8.000000,-2.000000,-4.000000,4.000000,10.000000
1301655.162589,6.000000,-3.000000,1.000000,-20.000000,-3.000000,-3.000000,-14.000000,-1.000000
1301655.162624,-2.000000,-4.000000,-46.000000,-1.000000,5.000000,4.000000,-8.000000,-3.000000
1301655.163346,-18.000000,-1.000000,-6.000000,11.000000,-3.000000,-9.000000,8.000000,-9.000000
1301655.163369,-7.000000,5.000000,42.000000,0.000000,-2.000000,2.000000,-19.000000,-4.000000
1301655.164803,-5.000000,2.000000,-7.000000,-13.000000,1.000000,5.000000,3.000000,3.000000
1301655.164843,7.000000,-10.000000,3.000000,11.000000,12.000000,-2.000000,28.000000,16.000000
1301655.165842,1.000000,-5.000000,-26.000000,-11.000000,-4.000000,3.000000,-21.000000,-11.000000
1301655.165862,-22.000000,-6.000000,78.000000,-32.000000,-10.000000,1.000000,-22.000000,-22.000000
1301655.177907,-10.000000,-1.000000,-42.000000,80.000000,7.000000,-4.000000,-20.000000,-10.000000
1301655.178232,-20.000000,-2.000000,-7.000000,-22.000000,-1.000000,14.000000,-14.000000,-20.000000
1301655.179594,6.000000,1.000000,-7.000000,-24.000000,1.000000,3.000000,14.000000,5.000000
1301655.179616,-1.000000,9.000000,-11.000000,18.000000,4.000000,0.000000,6.000000,4.000000
1301655.192492,5.000000,-1.000000,-1.000000,10.000000,4.000000,6.000000,-35.000000,-3.000000
1301655.192535,-13.000000,4.000000,-34.000000,-12.000000,0.000000,-3.000000,-11.000000,-4.000000
1301655.201526,6.000000,4.000000,5.000000,1.000000,-3.000000,-2.000000,10.000000,-3.000000
1301655.201550,-1.000000,1.000000,3.000000,1.000000,0.000000,-4.000000,-7.000000,-14.000000
1301655.207660,-8.000000,-3.000000,9.000000,-20.000000,2.000000,4.000000,-9.000000,-7.000000
1301655.207707,11.000000,-3.000000,-13.000000,13.000000,2.000000,2.000000,1.000000,-2.000000
1301655.275035,-3.000000,-6.000000,11.000000,-10.000000,-10.000000,-12.000000,-12.000000,18.000000
1301655.275079,3.000000,2.000000,-27.000000,-70.000000,-4.000000,5.000000,9.000000,-12.000000
1301655.282516,-16.000000,-10.000000,-10.000000,43.000000,-7.000000,-13.000000,78.000000,16.000000
1301655.282538,-22.000000,3.000000,-20.000000,8.000000,-2.000000,2.000000,-28.000000,-21.000000
1301655.298804,16.000000,-6.000000,34.000000,32.000000,10.000000,-1.000000,-32.000000,-5.000000
1301655.298840,-8.000000,-6.000000,-29.000000,18.000000,-10.000000,-7.000000,-25.000000,-20.000000
1301655.300098,-11.000000,-5.000000,-53.000000,-17.000000,-13.000000,-19.000000,-5.000000,-8.000000
1301655.300280,3.000000,1.000000,42.000000,-26.000000,-2.000000,4.000000,-2.000000,0.000000
1301655.300553,2.000000,1.000000,11.000000,-36.000000,-7.000000,5.000000,10.000000,-1.000000
1301655.300593,-14.000000,-2.000000,50.000000,-2.000000,-13.000000,-23.000000,18.000000,-3.000000
1301655.301127,-7.000000,-1.000000,77.000000,37.000000,12.000000,13.000000,-21.000000,11.000000
1301655.301149,16.000000,0.000000,-20.000000,-6.000000,-8.000000,-4.000000,80.000000,8.000000
1301655.320262,-10.000000,6.000000,-10.000000,69.000000,6.000000,0.000000,-30.000000,-2.000000
1301655.320522,15.000000,1.000000,69.000000,-10.000000,-6.000000,-7.000000,20.000000,-3.000000
1301655.321451,-7.000000,-1.000000,-6.000000,28.000000,5.000000,-5.000000,2.000000,0.000000
1301655.321470,-13.000000,6.000000,0.000000,-2.000000,8.000000,8.000000,2.000000,-20.000000
1301655.342569,16.000000,-3.000000,-34.000000,-6.000000,-10.000000,-4.000000,37.000000,24.000000
1301655.342592,9.000000,-7.000000,-5.000000,-7.000000,-9.000000,-1.000000,10.000000,-11.000000
1301655.357582,-13.000000,-11.000000,5.000000,-3.000000,6.000000,1.000000,-30.000000,-7.000000
1301655.357603,-3.000000,-5.000000,-9.000000,-9.000000,2.000000,9.000000,-38.000000,-9.000000
1301655.380055,1.000000,6.000000,-8.000000,-3.000000,-3.000000,-3.000000,-33.000000,5.000000
1301655.380082,-7.000000,6.000000,-4.000000,-7.000000,0.000000,3.000000,33.000000,5.000000
1301655.402389,-8.000000,-8.000000,-14.000000,-17.000000,-16.000000,-16.000000,-13.000000,-2.000000
1301655.402411,5.000000,3.000000,23.000000,-17.000000,-3.000000,3.000000,-23.000000,-6.000000
1301655.417431,-15.000000,2.000000,-15.000000,15.000000,1.000000,-5.000000,-10.000000,-16.000000
1301655.417454,-6.000000,1.000000,35.000000,-9.000000,-7.000000,-7.000000,8.000000,6.000000
1301655.440467,-2.000000,3.000000,22.000000,26.000000,-5.000000,2.000000,23.000000,26.000000
1301655.440592,-6.000000,0.000000,8.000000,-22.000000,-15.000000,-10.000000,25.000000,-19.000000
1301655.441269,8.000000,-1.000000,18.000000,-15.000000,0.000000,-3.000000,-35.000000,2.000000
1301655.441299,8.000000,4.000000,-34.000000,8.000000,7.000000,7.000000,-29.000000,-4.000000
1301655.442580,7.000000,0.000000,11.000000,-7.000000,-8.000000,-5.000000,-51.000000,-10.000000
1301655.442610,0.000000,-1.000000,3.000000,17.000000,13.000000,15.000000,80.000000,13.000000
1301655.455011,-2.000000,-5.000000,-2.000000,-10.000000,-5.000000,-2.000000,4.000000,-14.000000
1301655.455040,17.000000,-1.000000,-30.000000,-7.000000,4.000000,2.000000,-12.000000,0.000000
1301655.485221,0.000000,-7.000000,7.000000,14.000000,-1.000000,-4.000000,-3.000000,0.000000
1301655.485266,-9.000000,1.000000,-5.000000,10.000000,6.000000,8.000000,-2.000000,0.000000
1301655.500097,-8.000000,5.000000,-40.000000,-66.000000,-12.000000,-13.000000,-9.000000,-14.000000
1301655.500143,7.000000,-2.000000,-7.000000,70.000000,8.000000,7.000000,31.000000,11.000000
1301655.537844,-8.000000,1.000000,10.000000,-11.000000,-3.000000,-4.000000,-36.000000,7.000000
1301655.538170,-2.000000,5.000000,12.000000,-36.000000,3.000000,2.000000,17.000000,-10.000000
1301655.538961,16.000000,-1.000000,-22.000000,-18.000000,7.000000,15.000000,40.000000,9.000000
1301655.538995,-15.000000,0.000000,-15.000000,3.000000,-11.000000,-9.000000,12.000000,2.000000
1301655.541963,-21.000000,6.000000,34.000000,-5.000000,-6.000000,-6.000000,-22.000000,11.000000
1301655.542281,-5.000000,0.000000,-32.000000,-11.000000,-5.000000,0.000000,-1.000000,-16.000000
1301655.542997,2.000000,1.000000,29.000000,0.000000,4.000000,7.000000,-22.000000,-15.000000
1301655.543040,-2.000000,-1.000000,-6.000000,8.000000,10.000000,-1.000000,20.000000,-1.000000
1301655.543326,2.000000,1.000000,3.000000,22.000000,1.000000,3.000000,6.000000,13.000000
1301655.543367,0.000000,-3.000000,20.000000,-18.000000,-8.000000,-1.000000,-3.000000,-9.000000
1301655.560116,-6.000000,-4.000000,-9.000000,102.000000,19.000000,-7.000000,19.000000,5.000000
1301655.560153,-1.000000,-2.000000,23.000000,-19.000000,-7.000000,-10.000000,-6.000000,-4.000000
1301655.575308,12.000000,-1.000000,11.000000,-22.000000,-7.000000,4.000000,-8.000000,15.000000
1301655.575354,6.000000,1.000000,-32.000000,-30.000000,-5.000000,0.000000,-8.000000,-10.000000
1301655.612757,-7.000000,-2.000000,5.000000,10.000000,2.000000,-3.000000,-1.000000,9.000000
1301655.612788,-3.000000,0.000000,-3.000000,-9.000000,-4.000000,-2.000000,-4.000000,-10.000000
1301655.627164,-8.000000,4.000000,-6.000000,-3.000000,2.000000,8.000000,-3.000000,-5.000000
1301655.627185,-13.000000,3.000000,-2.000000,-21.000000,1.000000,-6.000000,-7.000000,-11.000000
1301655.634753,10.000000,4.000000,43.000000,48.000000,16.000000,5.000000,-12.000000,4.000000
1301655.634783,9.000000,3.000000,-2.000000,-5.000000,-7.000000,-2.000000,8.000000,2.000000
1301655.635726,-3.000000,4.000000,5.000000,-24.000000,-13.000000,-11.000000,26.000000,2.000000
1301655.635739,-5.000000,-15.000000,23.000000,13.000000,-1.000000,2.000000,-27.000000,-8.000000
1301655.636271,3.000000,0.000000,17.000000,21.000000,-1.000000,-13.000000,-15.000000,2.000000
1301655.636284,1.000000,-3.000000,-57.000000,16.000000,-13.000000,-22.000000,8.000000,4.000000
1301655.637096,4.000000,0.000000,6.000000,-27.000000,-4.000000,-4.000000,-6.000000,-7.000000
1301655.637122,-3.000000,-2.000000,-51.000000,25.000000,2.000000,8.000000,11.000000,8.000000
1301655.658040,-21.000000,0.000000,25.000000,27.000000,-1.000000,4.000000,-14.000000,4.000000
1301655.658147,0.000000,1.000000,-8.000000,4.000000,-6.000000,-9.000000,-4.000000,-4.000000
1301655.658394,9.000000,-8.000000,-1.000000,-9.000000,4.000000,11.000000,8.000000,11.000000
1301655.658505,25.000000,2.000000,-35.000000,-49.000000,-6.000000,0.000000,-32.000000,5.000000
1301655.659621,-15.000000,-9.000000,-63.000000,12.000000,-12.000000,-16.000000,34.000000,2.000000
1301655.659645,19.000000,8.000000,63.000000,19.000000,2.000000,4.000000,-4.000000,14.000000
1301655.671952,-6.000000,-11.000000,23.000000,-31.000000,-4.000000,4.000000,-6.000000,-25.000000
1301655.671967,-7.000000,-1.000000,-50.000000,6.000000,-4.000000,-2.000000,28.000000,8.000000
1301655.709503,12.000000,5.000000,-9.000000,-22.000000,-11.000000,-2.000000,-11.000000,16.000000
1301655.709533,2.000000,9.000000,-5.000000,-13.000000,-4.000000,-5.000000,-6.000000,-6.000000
1301655.716946,-14.000000,-1.000000,-55.000000,-1.000000,4.000000,-2.000000,-7.000000,-7.000000
1301655.716973,-1.000000,4.000000,-11.000000,-27.000000,4.000000,8.000000,11.000000,-6.000000
1301655.754621,-1.000000,-1.000000,56.000000,63.000000,6.000000,-4.000000,-30.000000,-5.000000
1301655.754636,11.000000,-7.000000,19.000000,-46.000000,-14.000000,-5.000000,-6.000000,9.000000
1301655.769987,4.000000,1.000000,-99.000000,33.000000,4.000000,4.000000,37.000000,3.000000
1301655.770001,-13.000000,3.000000,17.000000,-31.000000,-19.000000,-7.000000,27.000000,-5.000000
1301655.770691,11.000000,-10.000000,-22.000000,-18.000000,-5.000000,-3.000000,-52.000000,-9.000000
1301655.770705,-5.000000,0.000000,-3.000000,16.000000,-1.000000,17.000000,36.000000,10.000000
1301655.771418,16.000000,2.000000,22.000000,7.000000,-9.000000,-18.000000,26.000000,8.000000
1301655.771442,-22.000000,-5.000000,17.000000,-19.000000,9.000000,3.000000,-13.000000,0.000000
1301655.772843,-10.000000,-7.000000,-27.000000,4.000000,-1.000000,-2.000000,-3.000000,-10.000000
1301655.772870,-10.000000,-6.000000,-5.000000,-11.000000,-5.000000,-5.000000,-25.000000,-22.000000
1301655.777709,-20.000000,2.000000,22.000000,-18.000000,-14.000000,-18.000000,24.000000,-8.000000
1301655.777724,9.000000,4.000000,-70.000000,5.000000,7.000000,9.000000,-18.000000,-1.000000
1301655.792180,9.000000,0.000000,-17.000000,15.000000,2.000000,0.000000,-12.000000,0.000000
1301655.792195,-6.000000,-7.000000,12.000000,-27.000000,-6.000000,1.000000,7.000000,-10.000000
1301655.822128,-3.000000,-3.000000,11.000000,-15.000000,8.000000,8.000000,-2.000000,-1.000000
1301655.822160,1.000000,-4.000000,-17.000000,-2.000000,-4.000000,5.000000,1.000000,0.000000
1301655.829674,6.000000,1.000000,-16.000000,-25.000000,-1.000000,3.000000,0.000000,8.000000
1301655.829769,0.000000,-3.000000,-45.000000,13.000000,-1.000000,-8.000000,15.000000,5.000000
1301655.859622,-3.000000,-7.000000,21.000000,0.000000,-2.000000,-3.000000,18.000000,-8.000000
1301655.859637,-14.000000,-5.000000,-3.000000,10.000000,1.000000,3.000000,-4.000000,-3.000000
1301655.867273,-2.000000,2.000000,-10.000000,-2.000000,-6.000000,-5.000000,9.000000,-17.000000
1301655.867288,-2.000000,2.000000,68.000000,33.000000,0.000000,-8.000000,24.000000,8.000000
1301655.889722,3.000000,-3.000000,3.000000,-37.000000,-9.000000,-1.000000,-20.000000,13.000000
1301655.889751,-18.000000,-6.000000,-81.000000,-5.000000,7.000000,2.000000,-9.000000,-12.000000
1301655.890274,10.000000,-5.000000,31.000000,-15.000000,-2.000000,4.000000,-6.000000,-6.000000
1301655.890294,-20.000000,1.000000,-86.000000,4.000000,0.000000,1.000000,1.000000,-17.000000
1301655.891375,-9.000000,2.000000,-56.000000,-21.000000,-3.000000,-1.000000,37.000000,8.000000
1301655.891402,13.000000,-4.000000,49.000000,-3.000000,-4.000000,5.000000,16.000000,18.000000
1301655.892792,-13.000000,3.000000,-62.000000,-16.000000,-7.000000,-16.000000,-19.000000,-17.000000
1301655.892809,-1.000000,-1.000000,55.000000,2.000000,4.000000,2.000000,-6.000000,-4.000000
1301655.893475,-2.000000,-2.000000,-3.000000,15.000000,4.000000,9.000000,-26.000000,5.000000
1301655.893489,1.000000,4.000000,9.000000,-13.000000,-6.000000,4.000000,6.000000,-7.000000
1301655.897703,-1.000000,-8.000000,-42.000000,-10.000000,-6.000000,-1.000000,-25.000000,2.000000
1301655.897755,-5.000000,-4.000000,-3.000000,13.000000,5.000000,-6.000000,26.000000,-20.000000
1301655.912247,7.000000,-9.000000,10.000000,7.000000,2.000000,8.000000,6.000000,12.000000
1301655.912273,6.000000,2.000000,-18.000000,-5.000000,-16.000000,-13.000000,-11.000000,1.000000
1301655.942004,-13.000000,7.000000,-1.000000,-5.000000,4.000000,2.000000,-9.000000,-6.000000
1301655.942029,7.000000,-3.000000,10.000000,-3.000000,-8.000000,2.000000,-11.000000,-16.000000
1301655.949649,-5.000000,-1.000000,1.000000,-22.000000,7.000000,5.000000,-15.000000,-3.000000
1301655.949664,-1.000000,2.000000,11.000000,-6.000000,2.000000,0.000000,9.000000,1.000000
1301655.994634,-9.000000,-8.000000,103.000000,36.000000,0.000000,-2.000000,9.000000,14.000000
1301655.994712,1.000000,-1.000000,-2.000000,-18.000000,-1.000000,-5.000000,-10.000000,-13.000000
1301656.009565,-7.000000,-4.000000,-6.000000,-7.000000,5.000000,3.000000,-5.000000,-4.000000
1301656.009592,-18.000000,-11.000000,-21.000000,-2.000000,-3.000000,0.000000,-5.000000,-11.000000
1301656.040720,4.000000,3.000000,26.000000,-2.000000,3.000000,5.000000,14.000000,12.000000
1301656.040734,6.000000,1.000000,-55.000000,-26.000000,-8.000000,-9.000000,-12.000000,-21.000000
1301656.041102,12.000000,-14.000000,23.000000,9.000000,10.000000,7.000000,-4.000000,1.000000
1301656.041119,-21.000000,-9.000000,-20.000000,-28.000000,-12.000000,1.000000,-1.000000,5.000000
1301656.042029,10.000000,4.000000,-8.000000,-18.000000,-3.000000,6.000000,-21.000000,-4.000000
1301656.042051,4.000000,-1.000000,59.000000,39.000000,16.000000,9.000000,9.000000,-6.000000
1301656.042517,0.000000,1.000000,-5.000000,33.000000,2.000000,-7.000000,30.000000,11.000000
1301656.042539,-18.000000,7.000000,-8.000000,-28.000000,-8.000000,-5.000000,-30.000000,-1.000000
1301656.043388,-4.000000,-8.000000,-29.000000,-57.000000,-13.000000,-8.000000,-38.000000,0.000000
1301656.043415,8.000000,2.000000,-59.000000,9.000000,-1.000000,-10.000000,49.000000,-4.000000
1301656.046753,17.000000,3.000000,-12.000000,-6.000000,7.000000,-7.000000,55.000000,17.000000
1301656.046778,-1.000000,-8.000000,49.000000,28.000000,2.000000,11.000000,28.000000,23.000000
1301656.069638,1.000000,5.000000,0.000000,-14.000000,-6.000000,-8.000000,-30.000000,-9.000000
1301656.069665,-9.000000,3.000000,-14.000000,-15.000000,2.000000,6.000000,-3.000000,-7.000000
1301656.099751,-10.000000,0.000000,-24.000000,-9.000000,-11.000000,-18.000000,-11.000000,-17.000000
1301656.099767,3.000000,-3.000000,7.000000,5.000000,-2.000000,-4.000000,-9.000000,8.000000
1301656.114607,-5.000000,-3.000000,36.000000,6.000000,5.000000,0.000000,-3.000000,-7.000000
1301656.114651,1.000000,-5.000000,-72.000000,-12.000000,3.000000,9.000000,7.000000,-8.000000
1301656.129347,-2.000000,-4.000000,114.000000,-38.000000,-13.000000,8.000000,19.000000,11.000000
1301656.129362,-7.000000,6.000000,-128.000000,111.000000,15.000000,-20.000000,-14.000000,6.000000
1301656.130531,15.000000,2.000000,27.000000,-28.000000,-2.000000,-6.000000,-22.000000,0.000000
1301656.130546,1.000000,-8.000000,-30.000000,-9.000000,8.000000,15.000000,34.000000,9.000000
1301656.131208,16.000000,-7.000000,3.000000,-17.000000,-7.000000,-2.000000,12.000000,-7.000000
1301656.131220,-12.000000,3.000000,18.000000,7.000000,2.000000,-7.000000,-29.000000,-12.000000
1301656.132596,5.000000,0.000000,6.000000,13.000000,4.000000,4.000000,27.000000,5.000000
1301656.132614,1.000000,-5.000000,-28.000000,-10.000000,-3.000000,-13.000000,19.000000,-7.000000
1301656.133350,11.000000,0.000000,18.000000,-18.000000,-1.000000,1.000000,1.000000,8.000000
1301656.133363,-8.000000,3.000000,-85.000000,-17.000000,-7.000000,-9.000000,-18.000000,-11.000000
1301656.152986,-5.000000,-2.000000,59.000000,31.000000,13.000000,11.000000,-16.000000,-1.000000
1301656.153261,12.000000,1.000000,-26.000000,-9.000000,5.000000,8.000000,34.000000,23.000000
1301656.153665,-4.000000,-4.000000,-7.000000,16.000000,1.000000,-5.000000,-28.000000,-7.000000
1301656.153704,16.000000,-12.000000,-3.000000,-21.000000,-5.000000,0.000000,-35.000000,9.000000
1301656.174578,-26.000000,-5.000000,-4.000000,-31.000000,-13.000000,-7.000000,28.000000,-12.000000
1301656.174604,10.000000,-1.000000,27.000000,55.000000,6.000000,-1.000000,10.000000,-7.000000
1301656.182022,-11.000000,16.000000,11.000000,-8.000000,-9.000000,1.000000,-30.000000,-4.000000
1301656.182036,1.000000,4.000000,-10.000000,9.000000,8.000000,-3.000000,11.000000,-12.000000
1301656.213043,6.000000,2.000000,-8.000000,-20.000000,2.000000,0.000000,-48.000000,7.000000
1301656.213098,11.000000,-5.000000,34.000000,7.000000,-4.000000,-1.000000,39.000000,-1.000000
1301656.227870,1.000000,-4.000000,-59.000000,39.000000,0.000000,4.000000,12.000000,3.000000
1301656.227930,3.000000,-13.000000,0.000000,-3.000000,-2.000000,-4.000000,-17.000000,0.000000
1301656.250805,-19.000000,-6.000000,27.000000,3.000000,7.000000,4.000000,-13.000000,-11.000000
1301656.250863,-15.000000,-4.000000,-53.000000,-50.000000,-3.000000,1.000000,26.000000,-2.000000
1301656.252384,-9.000000,-2.000000,-47.000000,1.000000,-2.000000,-7.000000,-18.000000,3.000000
1301656.252446,13.000000,4.000000,96.000000,35.000000,5.000000,0.000000,-15.000000,11.000000
1301656.253793,3.000000,-1.000000,6.000000,-29.000000,3.000000,0.000000,-57.000000,-20.000000
1301656.253819,12.000000,-3.000000,-59.000000,48.000000,16.000000,13.000000,23.000000,7.000000
1301656.253937,-1.000000,-8.000000,-44.000000,-30.000000,-5.000000,11.000000,69.000000,5.000000
1301656.253954,3.000000,7.000000,-5.000000,-8.000000,-13.000000,-14.000000,-18.000000,-6.000000
1301656.255455,18.000000,2.000000,44.000000,1.000000,-9.000000,-10.000000,33.000000,28.000000
1301656.255512,-9.000000,-6.000000,-44.000000,1.000000,8.000000,0.000000,-19.000000,-8.000000
1301656.255783,9.000000,1.000000,14.000000,-9.000000,1.000000,11.000000,-6.000000,-1.000000
1301656.255801,-5.000000,10.000000,16.000000,-34.000000,-8.000000,2.000000,0.000000,-6.000000
1301656.266684,-5.000000,5.000000,27.000000,49.000000,10.000000,-1.000000,0.000000,3.000000
1301656.266736,7.000000,3.000000,0.000000,-21.000000,-6.000000,-3.000000,4.000000,1.000000
1301656.273104,9.000000,-1.000000,-16.000000,-29.000000,-5.000000,-3.000000,-21.000000,-4.000000
1301656.273270,4.000000,-1.000000,-1.000000,-1.000000,3.000000,-4.000000,21.000000,-1.000000
1301656.310569,-3.000000,3.000000,10.000000,57.000000,13.000000,4.000000,3.000000,-6.000000
1301656.310597,10.000000,6.000000,17.000000,-25.000000,-8.000000,4.000000,26.000000,22.000000
1301656.317974,-7.000000,2.000000,-11.000000,-19.000000,-3.000000,-11.000000,-10.000000,-9.000000
1301656.318037,-11.000000,7.000000,-16.000000,-26.000000,-5.000000,-1.000000,-38.000000,-8.000000
1301656.332926,30.000000,-5.000000,-24.000000,-7.000000,-8.000000,10.000000,0.000000,3.000000
1301656.332957,-32.000000,-2.000000,85.000000,55.000000,8.000000,-8.000000,12.000000,13.000000
1301656.348788,10.000000,1.000000,-5.000000,-8.000000,3.000000,10.000000,-14.000000,-3.000000
1301656.349331,5.000000,-1.000000,-25.000000,-57.000000,-14.000000,-4.000000,0.000000,-1.000000
1301656.351421,-5.000000,-5.000000,-54.000000,9.000000,-5.000000,0.000000,6.000000,-4.000000
1301656.352141,1.000000,3.000000,25.000000,-1.000000,3.000000,4.000000,-1.000000,3.000000
1301656.352725,-1.000000,4.000000,8.000000,-4.000000,-7.000000,-5.000000,-12.000000,-9.000000
1301656.352776,-8.000000,-1.000000,-67.000000,4.000000,2.000000,3.000000,-15.000000,-7.000000
1301656.353358,11.000000,0.000000,-43.000000,16.000000,-9.000000,-7.000000,-2.000000,-9.000000
1301656.353422,-7.000000,-2.000000,-6.000000,-2.000000,4.000000,-1.000000,9.000000,-23.000000
1301656.353643,9.000000,5.000000,22.000000,0.000000,-1.000000,-7.000000,10.000000,0.000000
1301656.353678,-12.000000,-7.000000,40.000000,-14.000000,4.000000,5.000000,15.000000,8.000000
1301656.372266,4.000000,-4.000000,-48.000000,-33.000000,5.000000,3.000000,-21.000000,-5.000000
1301656.372520,-4.000000,-6.000000,32.000000,7.000000,0.000000,2.000000,22.000000,3.000000
1301656.373158,-14.000000,1.000000,88.000000,24.000000,8.000000,13.000000,3.000000,5.000000
1301656.373213,-22.000000,-9.000000,-15.000000,-45.000000,-23.000000,-17.000000,-14.000000,-10.000000
1301656.386742,11.000000,8.000000,13.000000,29.000000,8.000000,8.000000,21.000000,7.000000
1301656.386772,-32.000000,-11.000000,8.000000,-4.000000,1.000000,-4.000000,-23.000000,-7.000000
1301656.393508,7.000000,-3.000000,-4.000000,4.000000,3.000000,10.000000,27.000000,1.000000
1301656.393570,-2.000000,2.000000,3.000000,3.000000,-3.000000,-8.000000,-6.000000,-10.000000
1301656.430404,3.000000,2.000000,-1.000000,-7.000000,-8.000000,-9.000000,2.000000,6.000000
1301656.430434,-13.000000,3.000000,-25.000000,-10.000000,-5.000000,-11.000000,-18.000000,-7.000000
1301656.445544,12.000000,3.000000,-12.000000,20.000000,4.000000,3.000000,5.000000,-4.000000
1301656.445604,-11.000000,-5.000000,-9.000000,4.000000,7.000000,3.000000,-3.000000,1.000000
1301656.469365,18.000000,2.000000,-15.000000,-58.000000,-1.000000,3.000000,10.000000,17.000000
1301656.470029,0.000000,1.000000,68.000000,96.000000,4.000000,-4.000000,-10.000000,1.000000
1301656.471764,6.000000,-1.000000,-23.000000,-14.000000,-8.000000,5.000000,5.000000,0.000000
1301656.472233,-11.000000,1.000000,-26.000000,-25.000000,-3.000000,-15.000000,2.000000,-7.000000
1301656.473031,0.000000,6.000000,-10.000000,-31.000000,-6.000000,0.000000,11.000000,-5.000000
1301656.473067,-6.000000,1.000000,-8.000000,-9.000000,-8.000000,2.000000,-1.000000,-4.000000
1301656.473277,8.000000,12.000000,-1.000000,-4.000000,2.000000,-11.000000,-36.000000,-1.000000
1301656.473301,11.000000,2.000000,-7.000000,-3.000000,-6.000000,-13.000000,32.000000,-2.000000
1301656.474033,-10.000000,6.000000,6.000000,2.000000,1.000000,1.000000,-28.000000,-19.000000
1301656.474070,8.000000,4.000000,30.000000,-37.000000,1.000000,6.000000,-2.000000,-3.000000
1301656.491640,-9.000000,3.000000,-102.000000,57.000000,11.000000,-1.000000,6.000000,1.000000
1301656.491713,7.000000,2.000000,1.000000,-4.000000,-12.000000,-4.000000,24.000000,3.000000
1301656.493107,-5.000000,-7.000000,11.000000,-12.000000,-5.000000,-7.000000,-21.000000,-8.000000
1301656.493162,9.000000,-1.000000,-1.000000,-6.000000,6.000000,5.000000,-6.000000,-8.000000
1301656.506740,-5.000000,3.000000,-51.000000,-65.000000,-12.000000,-2.000000,18.000000,18.000000
1301656.506777,-4.000000,-10.000000,-7.000000,22.000000,10.000000,1.000000,0.000000,-7.000000
1301656.520298,2.000000,-3.000000,53.000000,31.000000,3.000000,1.000000,-2.000000,13.000000
1301656.520356,-7.000000,1.000000,20.000000,-43.000000,-15.000000,-6.000000,1.000000,0.000000
1301656.542877,-8.000000,5.000000,-108.000000,-7.000000,-3.000000,-7.000000,-6.000000,-4.000000
1301656.542905,-9.000000,-4.000000,19.000000,-27.000000,-10.000000,-3.000000,-4.000000,-8.000000
1301656.550655,8.000000,-4.000000,58.000000,-3.000000,2.000000,-1.000000,-6.000000,-6.000000
1301656.550687,-24.000000,1.000000,-74.000000,-12.000000,-1.000000,3.000000,2.000000,3.000000
1301656.588293,38.000000,2.000000,25.000000,0.000000,-6.000000,-5.000000,5.000000,6.000000
1301656.588366,-3.000000,-1.000000,33.000000,-15.000000,-8.000000,-7.000000,13.000000,-1.000000
1301656.596086,-22.000000,1.000000,-33.000000,-32.000000,-3.000000,-4.000000,-11.000000,-4.000000
1301656.596119,13.000000,3.000000,77.000000,48.000000,11.000000,11.000000,-19.000000,-4.000000
1301656.605259,5.000000,-5.000000,-22.000000,-1.000000,-6.000000,-11.000000,39.000000,15.000000
1301656.605494,6.000000,1.000000,85.000000,37.000000,0.000000,-3.000000,-5.000000,0.000000
1301656.605768,12.000000,3.000000,-12.000000,-27.000000,2.000000,5.000000,-2.000000,-9.000000
1301656.605794,3.000000,-11.000000,27.000000,-17.000000,-7.000000,-8.000000,-20.000000,17.000000
1301656.606450,-10.000000,-10.000000,-102.000000,-34.000000,-12.000000,-10.000000,11.000000,-18.000000
1301656.606480,16.000000,-9.000000,66.000000,-42.000000,-4.000000,1.000000,-30.000000,-10.000000
1301656.607472,4.000000,-3.000000,-24.000000,-28.000000,3.000000,19.000000,-9.000000,3.000000
1301656.607528,-6.000000,-9.000000,4.000000,-24.000000,-13.000000,-24.000000,37.000000,2.000000
1301656.610953,-7.000000,-5.000000,52.000000,43.000000,-1.000000,-6.000000,0.000000,7.000000
1301656.611008,8.000000,-2.000000,6.000000,-15.000000,-15.000000,-1.000000,-20.000000,-15.000000
1301656.625716,3.000000,0.000000,-24.000000,-11.000000,-12.000000,-13.000000,-4.000000,-10.000000
1301656.625780,-16.000000,0.000000,12.000000,16.000000,0.000000,-1.000000,11.000000,-2.000000
1301656.647896,8.000000,4.000000,16.000000,11.000000,4.000000,-2.000000,-8.000000,-8.000000
1301656.648036,3.000000,-1.000000,7.000000,-10.000000,-2.000000,0.000000,-2.000000,2.000000
1301656.670727,1.000000,8.000000,-46.000000,-25.000000,-4.000000,1.000000,1.000000,-4.000000
1301656.670771,0.000000,-22.000000,39.000000,120.000000,21.000000,4.000000,14.000000,11.000000
1301656.686928,4.000000,8.000000,20.000000,-41.000000,-10.000000,-5.000000,-21.000000,2.000000
1301656.686984,-2.000000,3.000000,-12.000000,50.000000,7.000000,1.000000,-6.000000,-5.000000
1301656.708377,-4.000000,4.000000,87.000000,-6.000000,-4.000000,-4.000000,7.000000,2.000000
1301656.708423,-25.000000,-2.000000,-79.000000,11.000000,5.000000,3.000000,-25.000000,-1.000000
1301656.723265,15.000000,-1.000000,36.000000,-45.000000,-1.000000,-1.000000,-4.000000,-4.000000
1301656.723319,-1.000000,6.000000,-97.000000,-10.000000,-12.000000,-11.000000,18.000000,1.000000
1301656.730299,0.000000,-6.000000,71.000000,127.000000,27.000000,10.000000,5.000000,26.000000
1301656.730317,-13.000000,-6.000000,-14.000000,-43.000000,-4.000000,-7.000000,-3.000000,14.000000
1301656.731256,-1.000000,-10.000000,-17.000000,-28.000000,-2.000000,9.000000,10.000000,-20.000000
1301656.731538,8.000000,-3.000000,-4.000000,0.000000,-8.000000,-7.000000,-10.000000,-1.000000
1301656.732939,2.000000,0.000000,45.000000,12.000000,1.000000,2.000000,11.000000,-3.000000
1301656.733031,4.000000,5.000000,-44.000000,4.000000,-6.000000,-5.000000,-6.000000,4.000000
1301656.733281,-5.000000,5.000000,15.000000,-5.000000,-1.000000,-6.000000,3.000000,3.000000
1301656.733316,2.000000,-2.000000,61.000000,-47.000000,-9.000000,-2.000000,4.000000,2.000000
1301656.744834,4.000000,-8.000000,1.000000,-36.000000,-6.000000,4.000000,8.000000,7.000000
1301656.744872,-8.000000,2.000000,-80.000000,-31.000000,-15.000000,-3.000000,5.000000,2.000000
1301656.767274,-1.000000,12.000000,69.000000,-27.000000,0.000000,4.000000,-19.000000,7.000000
1301656.767311,-13.000000,-1.000000,69.000000,75.000000,0.000000,3.000000,1.000000,-22.000000
1301656.804819,-30.000000,2.000000,-8.000000,-31.000000,-10.000000,-12.000000,-37.000000,-4.000000
1301656.804856,-51.000000,4.000000,3.000000,-36.000000,-6.000000,-17.000000,19.000000,-4.000000
1301656.820071,22.000000,1.000000,-22.000000,36.000000,4.000000,9.000000,-13.000000,-11.000000
1301656.820177,-30.000000,-3.000000,-66.000000,-37.000000,-3.000000,7.000000,15.000000,-16.000000
1301656.842145,-1.000000,-8.000000,66.000000,37.000000,-17.000000,-16.000000,1.000000,10.000000
1301656.842194,-1.000000,8.000000,-12.000000,-36.000000,-2.000000,2.000000,-5.000000,0.000000
1301656.842925,7.000000,-1.000000,12.000000,62.000000,14.000000,8.000000,-8.000000,1.000000
1301656.843090,1.000000,1.000000,18.000000,-13.000000,-6.000000,1.000000,-3.000000,-10.000000
1301656.844369,3.000000,4.000000,39.000000,-22.000000,-2.000000,0.000000,-2.000000,-6.000000
1301656.844408,-2.000000,6.000000,58.000000,51.000000,8.000000,5.000000,3.000000,2.000000
1301656.845672,-2.000000,-1.000000,-16.000000,-6.000000,-10.000000,-10.000000,-12.000000,-7.000000
1301656.845691,5.000000,-6.000000,22.000000,-2.000000,3.000000,1.000000,-11.000000,6.000000
1301656.846313,-1.000000,1.000000,-48.000000,-23.000000,0.000000,-4.000000,34.000000,-5.000000
1301656.846340,6.000000,-9.000000,18.000000,11.000000,9.000000,1.000000,-15.000000,1.000000
1301656.857313,3.000000,4.000000,-1.000000,-38.000000,-10.000000,1.000000,14.000000,-8.000000
1301656.857333,-15.000000,-2.000000,-18.000000,22.000000,-1.000000,-4.000000,-29.000000,-14.000000
1301656.864790,1.000000,-4.000000,40.000000,29.000000,12.000000,8.000000,9.000000,4.000000
1301656.864829,4.000000,-11.000000,-95.000000,-39.000000,-11.000000,0.000000,17.000000,21.000000
1301656.872427,-8.000000,0.000000,82.000000,43.000000,10.000000,1.000000,-7.000000,-16.000000
1301656.872465,-1.000000,1.000000,8.000000,-15.000000,-8.000000,-1.000000,1.000000,-1.000000
1301656.887728,4.000000,12.000000,-55.000000,-40.000000,-4.000000,-12.000000,-16.000000,4.000000
1301656.887759,5.000000,2.000000,23.000000,-2.000000,-2.000000,8.000000,-6.000000,5.000000
1301656.903067,-8.000000,6.000000,-7.000000,34.000000,11.000000,-7.000000,10.000000,-2.000000
1301656.903252,-12.000000,2.000000,4.000000,-4.000000,-2.000000,1.000000,-7.000000,8.000000
1301656.942238,-15.000000,-2.000000,47.000000,-23.000000,-9.000000,-6.000000,-8.000000,-1.000000
1301656.942785,-2.000000,0.000000,41.000000,4.000000,12.000000,15.000000,-14.000000,2.000000
1301656.943110,16.000000,-8.000000,-128.000000,33.000000,-3.000000,-2.000000,0.000000,-8.000000
1301656.943141,-1.000000,4.000000,47.000000,27.000000,7.000000,2.000000,66.000000,32.000000
1301656.943689,0.000000,-10.000000,19.000000,-19.000000,-4.000000,-3.000000,-20.000000,-17.000000
1301656.943715,0.000000,-8.000000,1.000000,-7.000000,2.000000,4.000000,-19.000000,-6.000000
1301656.944008,2.000000,-11.000000,0.000000,-44.000000,-13.000000,-7.000000,-7.000000,-8.000000
1301656.944026,3.000000,-11.000000,-60.000000,19.000000,-3.000000,2.000000,4.000000,-3.000000
1301656.945590,2.000000,3.000000,75.000000,7.000000,9.000000,0.000000,7.000000,-2.000000
1301656.945654,1.000000,-3.000000,-5.000000,11.000000,4.000000,-2.000000,-4.000000,-1.000000
1301656.963340,12.000000,3.000000,-22.000000,-22.000000,-4.000000,-5.000000,-8.000000,4.000000
1301656.963382,-3.000000,-9.000000,26.000000,6.000000,-8.000000,3.000000,3.000000,-4.000000
1301656.964691,5.000000,4.000000,-6.000000,15.000000,4.000000,-10.000000,20.000000,-5.000000
1301656.964718,-10.000000,-4.000000,42.000000,-43.000000,-2.000000,-1.000000,-34.000000,-9.000000
1301656.985532,-23.000000,-1.000000,-63.000000,36.000000,5.000000,9.000000,7.000000,4.000000
1301656.985561,-2.000000,-1.000000,5.000000,-31.000000,-19.000000,-21.000000,-7.000000,-11.000000
1301657.007874,-9.000000,-4.000000,15.000000,15.000000,8.000000,9.000000,2.000000,-10.000000
1301657.007924,-10.000000,-9.000000,20.000000,-23.000000,0.000000,5.000000,-30.000000,-19.000000
1301657.015412,1.000000,5.000000,56.000000,84.000000,20.000000,9.000000,11.000000,7.000000
1301657.015466,22.000000,-1.000000,-11.000000,-21.000000,-11.000000,-7.000000,20.000000,19.000000
1301657.030270,10.000000,-13.000000,-3.000000,-36.000000,-7.000000,-7.000000,-14.000000,5.000000
1301657.030299,-27.000000,0.000000,-57.000000,-13.000000,3.000000,4.000000,-9.000000,-12.000000
1301657.045448,-3.000000,6.000000,-38.000000,39.000000,9.000000,1.000000,19.000000,3.000000
1301657.045506,-11.000000,-1.000000,9.000000,-21.000000,-11.000000,-4.000000,-17.000000,2.000000
1301657.060604,15.000000,-10.000000,-29.000000,-79.000000,-8.000000,-4.000000,20.000000,-3.000000
1301657.060639,-21.000000,1.000000,4.000000,64.000000,-4.000000,-11.000000,-27.000000,-6.000000
1301657.083994,18.000000,18.000000,24.000000,-2.000000,-1.000000,-4.000000,7.000000,23.000000
1301657.084545,-4.000000,3.000000,-23.000000,-28.000000,-11.000000,-7.000000,-3.000000,-7.000000
1301657.086726,-7.000000,-3.000000,7.000000,-14.000000,6.000000,3.000000,-23.000000,-11.000000
1301657.086783,-10.000000,3.000000,-23.000000,17.000000,12.000000,11.000000,21.000000,6.000000
1301657.087143,23.000000,1.000000,4.000000,-9.000000,-6.000000,2.000000,17.000000,6.000000
1301657.087188,-20.000000,-6.000000,5.000000,18.000000,7.000000,2.000000,-1.000000,15.000000
1301657.087935,-15.000000,6.000000,46.000000,78.000000,9.000000,1.000000,-5.000000,-8.000000
1301657.088112,5.000000,-3.000000,7.000000,19.000000,6.000000,3.000000,-13.000000,1.000000
1301657.098428,-4.000000,-8.000000,0.000000,68.000000,8.000000,0.000000,-12.000000,-8.000000
1301657.098478,11.000000,-2.000000,5.000000,-11.000000,-3.000000,7.000000,-31.000000,4.000000
1301657.105448,28.000000,0.000000,22.000000,-50.000000,-10.000000,-5.000000,27.000000,10.000000
1301657.105510,-29.000000,4.000000,-81.000000,27.000000,-6.000000,-19.000000,7.000000,-2.000000
1301657.120436,0.000000,-6.000000,12.000000,5.000000,-7.000000,-2.000000,-19.000000,-10.000000
1301657.120485,15.000000,-4.000000,12.000000,-22.000000,-6.000000,4.000000,-10.000000,-11.000000
1301657.150411,-1.000000,0.000000,20.000000,12.000000,0.000000,4.000000,10.000000,10.000000
1301657.150469,10.000000,-3.000000,-28.000000,17.000000,5.000000,-3.000000,-1.000000,-3.000000
1301657.158403,2.000000,1.000000,-4.000000,0.000000,6.000000,0.000000,-2.000000,8.000000
1301657.158436,-5.000000,-2.000000,-11.000000,-14.000000,-6.000000,4.000000,8.000000,-10.000000
1301657.180592,-3.000000,-2.000000,63.000000,-53.000000,-10.000000,3.000000,-23.000000,-3.000000
1301657.180640,-5.000000,-5.000000,-128.000000,95.000000,16.000000,2.000000,2.000000,13.000000
1301657.203578,-11.000000,5.000000,62.000000,-1.000000,-1.000000,2.000000,19.000000,-10.000000
1301657.203622,2.000000,-7.000000,-4.000000,-24.000000,-4.000000,2.000000,-28.000000,1.000000
1301657.205439,1.000000,-4.000000,7.000000,-28.000000,-8.000000,-8.000000,0.000000,-4.000000
1301657.205468,-15.000000,0.000000,-17.000000,-12.000000,2.000000,4.000000,-8.000000,-4.000000
1301657.206914,7.000000,3.000000,-19.000000,-64.000000,-15.000000,0.000000,11.000000,-8.000000
1301657.207344,14.000000,-8.000000,-34.000000,96.000000,6.000000,-3.000000,5.000000,24.000000
1301657.207593,-39.000000,-2.000000,9.000000,-67.000000,-3.000000,7.000000,-6.000000,-22.000000
1301657.207646,-13.000000,-3.000000,-117.000000,33.000000,8.000000,-4.000000,-3.000000,-1.000000
1301657.208243,2.000000,-6.000000,127.000000,23.000000,-3.000000,-3.000000,26.000000,26.000000
1301657.208268,3.000000,-3.000000,11.000000,-26.000000,-7.000000,-5.000000,-9.000000,-8.000000
1301657.210266,-15.000000,-2.000000,-32.000000,49.000000,3.000000,-5.000000,12.000000,6.000000
1301657.210426,-6.000000,-3.000000,-41.000000,35.000000,15.000000,4.000000,-33.000000,-5.000000
1301657.225236,-1.000000,-8.000000,5.000000,-20.000000,-7.000000,11.000000,-8.000000,-10.000000
1301657.225264,-3.000000,-4.000000,-22.000000,-54.000000,-16.000000,-10.000000,68.000000,15.000000
1301657.240553,6.000000,7.000000,-36.000000,5.000000,-7.000000,-3.000000,-29.000000,6.000000
1301657.240611,7.000000,-6.000000,86.000000,41.000000,11.000000,-9.000000,-28.000000,-20.000000
1301657.255908,-29.000000,2.000000,5.000000,-12.000000,-4.000000,9.000000,-5.000000,-9.000000
1301657.255938,2.000000,-1.000000,1.000000,-2.000000,3.000000,8.000000,-3.000000,1.000000
1301657.263264,-5.000000,-3.000000,1.000000,-3.000000,-6.000000,-7.000000,0.000000,-1.000000
1301657.263294,13.000000,-7.000000,-6.000000,-6.000000,-3.000000,-1.000000,1.000000,4.000000
1301657.285764,-6.000000,0.000000,21.000000,-6.000000,1.000000,2.000000,-13.000000,-8.000000
1301657.285822,-3.000000,-3.000000,0.000000,38.000000,15.000000,1.000000,-4.000000,-1.000000
1301657.300672,0.000000,-3.000000,68.000000,21.000000,5.000000,4.000000,27.000000,10.000000
1301657.300748,1.000000,4.000000,17.000000,-22.000000,-10.000000,-7.000000,-2.000000,1.000000
1301657.338967,1.000000,7.000000,-128.000000,66.000000,5.000000,-11.000000,-24.000000,-11.000000
1301657.339548,-10.000000,4.000000,42.000000,-10.000000,6.000000,9.000000,13.000000,-8.000000
1301657.339884,24.000000,2.000000,8.000000,-32.000000,-13.000000,-11.000000,10.000000,12.000000
1301657.339924,-18.000000,5.000000,16.000000,-67.000000,-19.000000,-21.000000,18.000000,-8.000000
1301657.341537,-29.000000,4.000000,-128.000000,36.000000,11.000000,7.000000,-16.000000,-8.000000
1301657.341599,26.000000,-6.000000,75.000000,-4.000000,-3.000000,8.000000,23.000000,13.000000
1301657.342597,-29.000000,4.000000,-18.000000,-37.000000,-8.000000,-4.000000,-29.000000,-14.000000
1301657.342643,-8.000000,-8.000000,3.000000,-12.000000,1.000000,3.000000,4.000000,0.000000
1301657.353611,10.000000,-6.000000,-9.000000,-2.000000,5.000000,-2.000000,14.000000,8.000000
1301657.353660,6.000000,0.000000,-6.000000,-10.000000,1.000000,-10.000000,9.000000,16.000000
1301657.360755,10.000000,-1.000000,-44.000000,-53.000000,-13.000000,-9.000000,-23.000000,-20.000000
1301657.360785,-16.000000,-8.000000,122.000000,127.000000,30.000000,11.000000,9.000000,17.000000
1301657.382754,-4.000000,0.000000,29.000000,32.000000,-7.000000,-2.000000,9.000000,4.000000
1301657.382814,-10.000000,-1.000000,-46.000000,-41.000000,-8.000000,-8.000000,-4.000000,-21.000000
1301657.397861,20.000000,2.000000,15.000000,-20.000000,-1.000000,7.000000,-3.000000,3.000000
1301657.397910,1.000000,1.000000,15.000000,-13.000000,-7.000000,0.000000,0.000000,3.000000
1301657.413966,3.000000,8.000000,9.000000,25.000000,4.000000,3.000000,-19.000000,4.000000
1301657.414041,11.000000,-1.000000,48.000000,-33.000000,-3.000000,6.000000,-2.000000,1.000000
1301657.414646,7.000000,-5.000000,-63.000000,18.000000,-8.000000,-12.000000,9.000000,-6.000000
1301657.414994,9.000000,3.000000,55.000000,24.000000,5.000000,6.000000,5.000000,6.000000
1301657.420177,-1.000000,-3.000000,-1.000000,-20.000000,-6.000000,-1.000000,-22.000000,-3.000000
1301657.420540,-3.000000,-2.000000,-25.000000,-1.000000,-2.000000,10.000000,4.000000,-4.000000
1301657.421330,-11.000000,-3.000000,38.000000,-55.000000,-20.000000,-30.000000,6.000000,2.000000
1301657.421435,19.000000,1.000000,-16.000000,107.000000,10.000000,-5.000000,29.000000,8.000000
1301657.423114,7.000000,2.000000,20.000000,-12.000000,-4.000000,-3.000000,-13.000000,-4.000000
1301657.423160,-4.000000,-7.000000,-17.000000,-14.000000,2.000000,3.000000,-26.000000,-17.000000
1301657.435735,-7.000000,-1.000000,-7.000000,-28.000000,-5.000000,9.000000,-6.000000,7.000000
1301657.435769,-2.000000,3.000000,20.000000,28.000000,8.000000,9.000000,24.000000,7.000000
1301657.443051,-12.000000,0.000000,47.000000,86.000000,19.000000,3.000000,-19.000000,6.000000
1301657.443118,13.000000,11.000000,8.000000,-15.000000,-3.000000,0.000000,8.000000,2.000000
1301657.458193,19.000000,0.000000,-16.000000,-21.000000,6.000000,12.000000,-2.000000,-1.000000
1301657.458221,6.000000,-3.000000,13.000000,-29.000000,-11.000000,-5.000000,20.000000,-2.000000
1301657.480376,2.000000,0.000000,98.000000,95.000000,7.000000,-6.000000,1.000000,2.000000
1301657.480429,7.000000,-1.000000,-6.000000,-26.000000,-3.000000,1.000000,-4.000000,9.000000
1301657.487869,3.000000,2.000000,12.000000,-20.000000,-1.000000,8.000000,-30.000000,-7.000000
1301657.487921,-2.000000,1.000000,-71.000000,-9.000000,-1.000000,-7.000000,14.000000,-4.000000
1301657.517961,1.000000,2.000000,34.000000,-17.000000,-15.000000,-11.000000,0.000000,-6.000000
1301657.518014,29.000000,2.000000,-75.000000,-2.000000,11.000000,13.000000,35.000000,14.000000
1301657.532779,5.000000,3.000000,-58.000000,4.000000,-3.000000,2.000000,-44.000000,13.000000
1301657.532835,-19.000000,-11.000000,63.000000,7.000000,2.000000,-3.000000,-18.000000,-39.000000
1301657.541982,14.000000,6.000000,26.000000,-16.000000,4.000000,9.000000,12.000000,5.000000
1301657.542047,-3.000000,0.000000,60.000000,118.000000,15.000000,-9.000000,45.000000,19.000000
1301657.542923,-13.000000,-8.000000,-13.000000,-41.000000,-9.000000,-1.000000,-26.000000,-13.000000
1301657.543661,-8.000000,-8.000000,-38.000000,-12.000000,-3.000000,-1.000000,-18.000000,-14.000000
1301657.544704,5.000000,-2.000000,23.000000,-1.000000,6.000000,-6.000000,9.000000,8.000000
1301657.544749,13.000000,3.000000,-76.000000,-7.000000,-8.000000,1.000000,-11.000000,5.000000
1301657.544983,11.000000,3.000000,-50.000000,7.000000,0.000000,2.000000,18.000000,22.000000
1301657.545064,-7.000000,-6.000000,127.000000,9.000000,-9.000000,-9.000000,8.000000,-10.000000
1301657.555723,3.000000,0.000000,-102.000000,-53.000000,-11.000000,-2.000000,-18.000000,7.000000
1301657.556022,5.000000,2.000000,-7.000000,-18.000000,-8.000000,-1.000000,28.000000,-3.000000
1301657.562841,11.000000,-5.000000,14.000000,7.000000,3.000000,-5.000000,-7.000000,4.000000
1301657.562866,-27.000000,0.000000,22.000000,0.000000,1.000000,-1.000000,18.000000,-13.000000
1301657.570231,9.000000,0.000000,-2.000000,-12.000000,-7.000000,-10.000000,-1.000000,-9.000000
1301657.570372,6.000000,-2.000000,6.000000,4.000000,5.000000,8.000000,-4.000000,15.000000
1301657.600544,-2.000000,0.000000,-3.000000,2.000000,-8.000000,-13.000000,9.000000,1.000000
1301657.600602,-22.000000,0.000000,-26.000000,-21.000000,-4.000000,-4.000000,-8.000000,-11.000000
1301657.607952,-6.000000,-2.000000,23.000000,41.000000,9.000000,6.000000,-12.000000,0.000000
1301657.607981,-15.000000,1.000000,-46.000000,-58.000000,-8.000000,3.000000,-23.000000,-9.000000
1301657.638804,3.000000,-4.000000,-17.000000,-19.000000,1.000000,1.000000,-15.000000,-1.000000
1301657.639334,7.000000,2.000000,43.000000,-23.000000,-5.000000,-1.000000,2.000000,0.000000
1301657.639897,0.000000,-3.000000,-16.000000,31.000000,-4.000000,-1.000000,25.000000,-8.000000
1301657.639943,-27.000000,1.000000,20.000000,28.000000,6.000000,-4.000000,7.000000,22.000000
1301657.642488,7.000000,1.000000,46.000000,-16.000000,3.000000,-2.000000,22.000000,-3.000000
1301657.642531,-26.000000,1.000000,-117.000000,3.000000,-5.000000,-4.000000,-26.000000,-9.000000
1301657.642751,1.000000,3.000000,-3.000000,-2.000000,-5.000000,-12.000000,6.000000,13.000000
1301657.642801,3.000000,-8.000000,12.000000,-15.000000,-3.000000,4.000000,0.000000,11.000000
1301657.645660,16.000000,-3.000000,-28.000000,-7.000000,-6.000000,-2.000000,1.000000,5.000000
1301657.645690,-24.000000,-4.000000,59.000000,9.000000,3.000000,1.000000,-15.000000,-8.000000
1301657.654792,22.000000,-4.000000,21.000000,32.000000,12.000000,6.000000,25.000000,6.000000
1301657.654843,-5.000000,-1.000000,6.000000,-18.000000,-2.000000,1.000000,10.000000,-9.000000
1301657.675929,-9.000000,-1.000000,-19.000000,14.000000,8.000000,5.000000,-33.000000,1.000000
1301657.676062,20.000000,1.000000,3.000000,-3.000000,4.000000,-4.000000,33.000000,26.000000
1301657.677160,1.000000,3.000000,7.000000,-20.000000,-5.000000,1.000000,-3.000000,-9.000000
1301657.677209,-3.000000,-6.000000,54.000000,19.000000,4.000000,0.000000,9.000000,-2.000000
1301657.689706,2.000000,-3.000000,-57.000000,12.000000,5.000000,9.000000,2.000000,2.000000
1301657.689726,10.000000,-2.000000,6.000000,-25.000000,-4.000000,-4.000000,-32.000000,-2.000000
1301657.697457,-9.000000,5.000000,10.000000,45.000000,0.000000,-2.000000,18.000000,-11.000000
1301657.697486,-1.000000,5.000000,19.000000,-18.000000,-13.000000,-15.000000,19.000000,14.000000
1301657.721221,-3.000000,-3.000000,-13.000000,-14.000000,-4.000000,-1.000000,-15.000000,-3.000000
1301657.721264,0.000000,-5.000000,61.000000,-26.000000,-1.000000,9.000000,0.000000,7.000000
1301657.741201,-8.000000,-5.000000,-97.000000,73.000000,11.000000,-1.000000,-1.000000,-10.000000
1301657.741264,-7.000000,1.000000,19.000000,33.000000,5.000000,6.000000,-14.000000,9.000000
1301657.779708,-5.000000,0.000000,-12.000000,-24.000000,-9.000000,-4.000000,-5.000000,-15.000000
1301657.779733,-3.000000,1.000000,-9.000000,-12.000000,2.000000,0.000000,6.000000,3.000000
1301657.780342,-3.000000,-3.000000,-1.000000,-28.000000,-6.000000,-9.000000,-7.000000,-9.000000
1301657.780507,-1.000000,3.000000,28.000000,-22.000000,-12.000000,-3.000000,23.000000,0.000000
1301657.781515,-9.000000,-7.000000,-29.000000,45.000000,11.000000,6.000000,-12.000000,-12.000000
1301657.781537,4.000000,-3.000000,8.000000,-18.000000,-4.000000,-6.000000,-9.000000,7.000000
1301657.782193,10.000000,-5.000000,13.000000,-41.000000,-5.000000,1.000000,-22.000000,-14.000000
1301657.782229,-3.000000,-8.000000,50.000000,106.000000,14.000000,-17.000000,-3.000000,3.000000
1301657.794697,-8.000000,-1.000000,28.000000,-22.000000,-12.000000,-11.000000,1.000000,-2.000000
1301657.795038,15.000000,-7.000000,-27.000000,-52.000000,-10.000000,1.000000,15.000000,12.000000
1301657.795440,14.000000,1.000000,-22.000000,0.000000,9.000000,5.000000,-8.000000,-5.000000
1301657.795462,-11.000000,0.000000,32.000000,3.000000,-6.000000,2.000000,5.000000,21.000000
1301657.817603,-11.000000,-6.000000,37.000000,1.000000,4.000000,-6.000000,26.000000,-11.000000
1301657.817700,1.000000,-7.000000,2.000000,-6.000000,13.000000,13.000000,-30.000000,1.000000
1301657.818065,2.000000,1.000000,-4.000000,-5.000000,3.000000,5.000000,20.000000,2.000000
1301657.818100,-1.000000,-5.000000,-26.000000,-12.000000,-4.000000,-3.000000,-26.000000,-9.000000
1301657.832308,-8.000000,-4.000000,8.000000,-7.000000,-7.000000,-10.000000,-8.000000,6.000000
1301657.832344,12.000000,-1.000000,36.000000,12.000000,3.000000,-5.000000,2.000000,3.000000
1301657.839808,-36.000000,1.000000,-34.000000,-1.000000,-1.000000,4.000000,5.000000,-1.000000
1301657.839842,-12.000000,-10.000000,-20.000000,-48.000000,-10.000000,-6.000000,-23.000000,-11.000000
1301657.877277,10.000000,6.000000,-3.000000,34.000000,10.000000,9.000000,26.000000,0.000000
1301657.877311,1.000000,2.000000,42.000000,-56.000000,-17.000000,-15.000000,-15.000000,-1.000000
1301657.884864,2.000000,-5.000000,-128.000000,6.000000,1.000000,-2.000000,-26.000000,-1.000000
1301657.884886,-2.000000,-3.000000,36.000000,-24.000000,2.000000,6.000000,18.000000,-13.000000
1301657.914915,5.000000,4.000000,87.000000,20.000000,0.000000,3.000000,-3.000000,10.000000
1301657.914934,-2.000000,4.000000,-78.000000,-39.000000,-11.000000,-10.000000,-8.000000,-4.000000
1301657.929850,-1.000000,0.000000,-18.000000,58.000000,10.000000,7.000000,-1.000000,-9.000000
1301657.929873,-7.000000,3.000000,-3.000000,-30.000000,-10.000000,3.000000,-11.000000,6.000000
1301657.952536,11.000000,1.000000,-40.000000,-28.000000,-8.000000,-6.000000,10.000000,2.000000
1301657.952565,2.000000,5.000000,72.000000,47.000000,13.000000,8.000000,-9.000000,-1.000000
1301657.975110,-3.000000,-1.000000,-2.000000,-16.000000,-5.000000,9.000000,7.000000,-1.000000
1301657.975138,14.000000,0.000000,22.000000,13.000000,4.000000,-7.000000,-10.000000,29.000000
1301657.982230,-8.000000,-9.000000,0.000000,1.000000,8.000000,10.000000,6.000000,-3.000000
1301657.982262,-12.000000,-4.000000,-9.000000,-21.000000,-8.000000,-12.000000,-2.000000,-21.000000
1301657.989769,20.000000,-4.000000,2.000000,30.000000,7.000000,9.000000,10.000000,13.000000
1301657.989788,11.000000,-3.000000,2.000000,-7.000000,0.000000,5.000000,9.000000,-1.000000
1301657.997371,-5.000000,-1.000000,3.000000,57.000000,9.000000,8.000000,-28.000000,-5.000000
1301657.997389,6.000000,-1.000000,-20.000000,11.000000,3.000000,3.000000,24.000000,15.000000
1301658.005170,-14.000000,-8.000000,2.000000,-31.000000,-8.000000,-3.000000,7.000000,-2.000000
1301658.005211,-13.000000,-1.000000,-31.000000,-32.000000,-8.000000,1.000000,15.000000,8.000000
1301658.012477,2.000000,-3.000000,47.000000,-14.000000,-4.000000,-1.000000,2.000000,-12.000000
1301658.012495,11.000000,5.000000,-1.000000,66.000000,16.000000,4.000000,5.000000,2.000000
1301658.034958,8.000000,15.000000,-9.000000,-12.000000,-4.000000,12.000000,26.000000,13.000000
1301658.035272,4.000000,-5.000000,55.000000,4.000000,-5.000000,0.000000,19.000000,-4.000000
1301658.036137,-6.000000,-4.000000,4.000000,-11.000000,-7.000000,-15.000000,8.000000,-1.000000
1301658.036166,-2.000000,4.000000,22.000000,2.000000,0.000000,3.000000,0.000000,-12.000000
1301658.037430,-35.000000,-9.000000,-42.000000,-9.000000,1.000000,2.000000,-11.000000,2.000000
1301658.037775,16.000000,7.000000,26.000000,0.000000,2.000000,7.000000,-10.000000,0.000000
1301658.038145,-4.000000,2.000000,46.000000,-45.000000,-6.000000,3.000000,-9.000000,-3.000000
1301658.038172,-6.000000,-2.000000,-90.000000,103.000000,9.000000,-5.000000,22.000000,1.000000
1301658.038506,7.000000,4.000000,30.000000,24.000000,3.000000,7.000000,8.000000,8.000000
1301658.038521,-4.000000,-3.000000,-38.000000,-42.000000,-10.000000,-12.000000,-24.000000,6.000000
1301658.038748,-12.000000,9.000000,-10.000000,-29.000000,-7.000000,0.000000,2.000000,-21.000000
1301658.038782,-45.000000,1.000000,-25.000000,-56.000000,-12.000000,-12.000000,14.000000,7.000000
1301658.050011,2.000000,4.000000,52.000000,84.000000,21.000000,2.000000,-15.000000,-11.000000
1301658.050039,1.000000,-4.000000,-35.000000,16.000000,14.000000,11.000000,-26.000000,7.000000
1301658.057556,-1.000000,-6.000000,-2.000000,-21.000000,-14.000000,-19.000000,-15.000000,-18.000000
1301658.057586,1.000000,0.000000,-10.000000,-38.000000,-7.000000,4.000000,14.000000,14.000000
1301658.095181,11.000000,4.000000,-18.000000,-3.000000,-5.000000,6.000000,23.000000,5.000000
1301658.095202,-21.000000,7.000000,-22.000000,-37.000000,-2.000000,0.000000,10.000000,-7.000000
1301658.117273,1.000000,-2.000000,35.000000,43.000000,9.000000,1.000000,-15.000000,3.000000
1301658.117290,17.000000,-11.000000,-5.000000,-9.000000,2.000000,2.000000,-14.000000,2.000000
1301658.132218,-23.000000,3.000000,16.000000,-10.000000,0.000000,2.000000,-14.000000,-12.000000
1301658.132421,10.000000,-6.000000,-41.000000,-13.000000,-3.000000,-3.000000,31.000000,13.000000
1301658.133477,-1.000000,-9.000000,90.000000,24.000000,1.000000,-7.000000,-2.000000,7.000000
1301658.133519,-16.000000,1.000000,64.000000,-11.000000,4.000000,6.000000,4.000000,-7.000000
1301658.134389,8.000000,-4.000000,-128.000000,15.000000,1.000000,-1.000000,1.000000,8.000000
1301658.134761,10.000000,0.000000,-5.000000,0.000000,-4.000000,-7.000000,2.000000,16.000000
1301658.136019,-2.000000,-3.000000,-46.000000,33.000000,2.000000,5.000000,20.000000,-2.000000
1301658.136067,-1.000000,-5.000000,19.000000,0.000000,-5.000000,-3.000000,6.000000,8.000000
1301658.156114,11.000000,-5.000000,39.000000,14.000000,3.000000,2.000000,-3.000000,-15.000000
1301658.156131,-9.000000,-7.000000,-19.000000,-27.000000,-9.000000,-16.000000,-20.000000,-1.000000
1301658.156618,21.000000,1.000000,-8.000000,-16.000000,1.000000,1.000000,2.000000,10.000000
1301658.156637,12.000000,-7.000000,40.000000,-25.000000,-6.000000,-3.000000,1.000000,8.000000
1301658.157508,-27.000000,0.000000,-123.000000,43.000000,5.000000,-6.000000,-12.000000,-18.000000
1301658.157543,-7.000000,5.000000,64.000000,5.000000,-2.000000,5.000000,21.000000,3.000000
1301658.169916,-3.000000,-4.000000,-18.000000,-40.000000,-15.000000,-15.000000,-11.000000,9.000000
1301658.169936,-11.000000,-1.000000,18.000000,-8.000000,-1.000000,2.000000,-27.000000,-36.000000
1301658.192274,29.000000,-5.000000,38.000000,37.000000,10.000000,2.000000,18.000000,5.000000
1301658.192293,-41.000000,-6.000000,121.000000,-12.000000,3.000000,3.000000,-2.000000,-3.000000
1301658.207404,-1.000000,7.000000,-87.000000,97.000000,19.000000,7.000000,-19.000000,-5.000000
1301658.207422,0.000000,-3.000000,6.000000,-3.000000,-4.000000,-7.000000,24.000000,7.000000
1301658.252419,-1.000000,0.000000,-20.000000,-29.000000,-9.000000,-4.000000,-4.000000,-5.000000
1301658.252634,-6.000000,-5.000000,-7.000000,-13.000000,0.000000,3.000000,2.000000,-1.000000
1301658.253153,-3.000000,4.000000,-11.000000,-39.000000,-7.000000,-1.000000,-25.000000,2.000000
1301658.253188,1.000000,1.000000,-70.000000,35.000000,9.000000,3.000000,39.000000,17.000000
1301658.254346,-7.000000,1.000000,73.000000,-7.000000,-7.000000,-7.000000,-17.000000,-19.000000
1301658.254377,-22.000000,-5.000000,-14.000000,-10.000000,1.000000,1.000000,19.000000,-9.000000
1301658.255305,10.000000,5.000000,-10.000000,-25.000000,-7.000000,-3.000000,-1.000000,6.000000
1301658.255476,-22.000000,-3.000000,1.000000,-5.000000,-3.000000,-3.000000,-11.000000,3.000000
1301658.256361,12.000000,-1.000000,-26.000000,-42.000000,-7.000000,8.000000,-8.000000,-7.000000
1301658.256395,-12.000000,0.000000,31.000000,56.000000,10.000000,-1.000000,14.000000,-15.000000
1301658.259820,-3.000000,2.000000,-63.000000,-30.000000,-9.000000,-20.000000,-6.000000,-4.000000
1301658.259850,20.000000,-3.000000,32.000000,24.000000,9.000000,9.000000,-21.000000,-2.000000
1301658.267209,-13.000000,-6.000000,13.000000,39.000000,7.000000,-2.000000,26.000000,-6.000000
1301658.267311,5.000000,-3.000000,30.000000,-40.000000,-22.000000,-10.000000,-8.000000,-1.000000
1301658.290137,2.000000,0.000000,-19.000000,105.000000,26.000000,7.000000,8.000000,6.000000
1301658.290156,4.000000,1.000000,9.000000,-36.000000,-15.000000,-11.000000,2.000000,-4.000000
1301658.312192,1.000000,1.000000,0.000000,-33.000000,-6.000000,3.000000,-25.000000,-2.000000
1301658.312212,-12.000000,-1.000000,-12.000000,36.000000,9.000000,-3.000000,-1.000000,-6.000000
1301658.349801,18.000000,5.000000,51.000000,6.000000,-12.000000,-4.000000,-4.000000,0.000000
1301658.349835,18.000000,-11.000000,-51.000000,24.000000,18.000000,29.000000,54.000000,37.000000
1301658.364608,-14.000000,-3.000000,13.000000,-16.000000,-8.000000,-18.000000,-12.000000,-19.000000
1301658.364642,23.000000,-7.000000,18.000000,13.000000,8.000000,6.000000,-16.000000,14.000000
1301658.372881,-17.000000,1.000000,-15.000000,-13.000000,-3.000000,2.000000,-27.000000,0.000000
1301658.373076,37.000000,-6.000000,4.000000,-37.000000,-12.000000,-3.000000,25.000000,-9.000000
1301658.373589,-10.000000,-7.000000,-12.000000,32.000000,4.000000,1.000000,-13.000000,-2.000000
1301658.373625,19.000000,1.000000,21.000000,-22.000000,-8.000000,7.000000,29.000000,0.000000
1301658.375528,4.000000,8.000000,-54.000000,0.000000,11.000000,8.000000,1.000000,-16.000000
1301658.375545,5.000000,0.000000,4.000000,-6.000000,-4.000000,6.000000,20.000000,7.000000
1301658.387857,8.000000,-8.000000,11.000000,-19.000000,-11.000000,-17.000000,12.000000,-7.000000
1301658.387890,-27.000000,1.000000,-26.000000,-1.000000,1.000000,3.000000,-21.000000,-8.000000
1301658.388453,14.000000,-10.000000,0.000000,-6.000000,2.000000,4.000000,14.000000,5.000000
1301658.388485,-10.000000,-3.000000,5.000000,-4.000000,-6.000000,-6.000000,-7.000000,-4.000000
1301658.395217,0.000000,0.000000,-14.000000,-5.000000,-3.000000,-3.000000,4.000000,-7.000000
1301658.395249,-2.000000,1.000000,3.000000,-87.000000,-15.000000,5.000000,22.000000,13.000000
1301658.402227,2.000000,-12.000000,-74.000000,50.000000,8.000000,-4.000000,24.000000,0.000000
1301658.402262,7.000000,2.000000,55.000000,0.000000,3.000000,0.000000,-15.000000,19.000000
1301658.470167,6.000000,5.000000,7.000000,-36.000000,-5.000000,-1.000000,-15.000000,-10.000000
1301658.470282,-11.000000,-9.000000,-70.000000,-19.000000,-3.000000,-2.000000,-14.000000,-7.000000
1301658.470975,0.000000,3.000000,-10.000000,-36.000000,-3.000000,2.000000,1.000000,-4.000000
1301658.471085,8.000000,-1.000000,119.000000,70.000000,5.000000,6.000000,11.000000,4.000000
1301658.472147,4.000000,4.000000,-34.000000,10.000000,-1.000000,-1.000000,1.000000,13.000000
1301658.472178,-13.000000,-2.000000,-15.000000,-28.000000,-8.000000,0.000000,4.000000,-25.000000
1301658.473104,11.000000,7.000000,6.000000,2.000000,-3.000000,-8.000000,-36.000000,-3.000000
1301658.473134,2.000000,7.000000,49.000000,39.000000,0.000000,-6.000000,20.000000,3.000000
1301658.473890,8.000000,1.000000,-48.000000,-27.000000,2.000000,15.000000,-16.000000,-10.000000
1301658.473906,-6.000000,-6.000000,56.000000,52.000000,1.000000,-12.000000,22.000000,26.000000
1301658.484591,-17.000000,-5.000000,37.000000,-13.000000,-4.000000,-3.000000,-16.000000,-5.000000
1301658.484624,-2.000000,0.000000,44.000000,-59.000000,-10.000000,2.000000,-10.000000,-9.000000
1301658.485505,-12.000000,1.000000,-82.000000,116.000000,22.000000,5.000000,-1.000000,-9.000000
1301658.485525,-13.000000,-3.000000,-7.000000,-17.000000,-6.000000,-2.000000,16.000000,7.000000
1301658.507331,-14.000000,-7.000000,8.000000,-11.000000,-11.000000,-8.000000,-19.000000,-19.000000
1301658.507364,18.000000,-1.000000,-16.000000,-38.000000,-4.000000,2.000000,2.000000,8.000000
1301658.507990,-10.000000,-3.000000,-44.000000,-26.000000,0.000000,10.000000,4.000000,5.000000
1301658.508008,-10.000000,-1.000000,127.000000,65.000000,8.000000,-2.000000,-10.000000,-11.000000
1301658.537377,2.000000,2.000000,-13.000000,-19.000000,-3.000000,-3.000000,10.000000,6.000000
1301658.537417,20.000000,2.000000,-10.000000,-22.000000,-7.000000,-9.000000,-33.000000,-5.000000
1301658.544802,-15.000000,8.000000,-25.000000,-24.000000,-1.000000,9.000000,9.000000,2.000000
1301658.544836,8.000000,5.000000,10.000000,-31.000000,-5.000000,-4.000000,9.000000,9.000000
1301658.567201,2.000000,2.000000,127.000000,127.000000,39.000000,14.000000,11.000000,14.000000
1301658.567236,4.000000,-3.000000,7.000000,-35.000000,-15.000000,-5.000000,-4.000000,3.000000
1301658.589869,-1.000000,4.000000,6.000000,-19.000000,-2.000000,9.000000,-21.000000,-8.000000
1301658.589888,4.000000,-3.000000,-6.000000,-45.000000,-5.000000,4.000000,8.000000,7.000000
1301658.612098,-10.000000,-9.000000,-128.000000,58.000000,3.000000,-2.000000,-1.000000,-5.000000
1301658.612115,4.000000,2.000000,30.000000,-1.000000,1.000000,-4.000000,-14.000000,5.000000
1301658.627296,-6.000000,-4.000000,-10.000000,-18.000000,-5.000000,-4.000000,-19.000000,-17.000000
1301658.627331,-2.000000,2.000000,3.000000,-13.000000,-8.000000,-19.000000,19.000000,10.000000
1301658.687434,-5.000000,3.000000,-11.000000,-4.000000,-1.000000,-3.000000,-27.000000,1.000000
1301658.687470,-13.000000,-2.000000,5.000000,10.000000,7.000000,2.000000,9.000000,-6.000000
1301658.709803,4.000000,-5.000000,-39.000000,-6.000000,1.000000,11.000000,-6.000000,3.000000
1301658.709839,15.000000,-1.000000,52.000000,-11.000000,-16.000000,-20.000000,8.000000,2.000000
1301658.717123,-40.000000,-2.000000,-15.000000,-87.000000,-9.000000,-2.000000,4.000000,-7.000000
1301658.717164,6.000000,-6.000000,-84.000000,50.000000,7.000000,2.000000,-5.000000,8.000000
1301658.724535,-14.000000,1.000000,-13.000000,-26.000000,-3.000000,2.000000,-16.000000,-6.000000
1301658.724554,-6.000000,-4.000000,-35.000000,-25.000000,-1.000000,-4.000000,7.000000,4.000000
1301658.726530,-19.000000,-1.000000,65.000000,77.000000,4.000000,-12.000000,-3.000000,-5.000000
1301658.726565,-18.000000,-3.000000,-18.000000,-36.000000,-5.000000,-2.000000,-31.000000,-9.000000
1301658.727264,6.000000,-4.000000,11.000000,18.000000,6.000000,1.000000,-5.000000,2.000000
1301658.727333,27.000000,5.000000,20.000000,-9.000000,1.000000,4.000000,3.000000,12.000000
1301658.727940,12.000000,3.000000,18.000000,20.000000,0.000000,7.000000,-20.000000,0.000000
1301658.727963,4.000000,-5.000000,-40.000000,-30.000000,-7.000000,7.000000,14.000000,0.000000
1301658.748137,-2.000000,-3.000000,31.000000,-12.000000,9.000000,6.000000,-5.000000,-5.000000
1301658.748157,-10.000000,-4.000000,37.000000,-8.000000,-12.000000,-18.000000,17.000000,-3.000000
1301658.748772,9.000000,0.000000,6.000000,38.000000,13.000000,11.000000,-8.000000,9.000000
1301658.748798,2.000000,5.000000,-6.000000,-6.000000,7.000000,4.000000,-39.000000,-6.000000
1301658.762398,6.000000,4.000000,-7.000000,-27.000000,-1.000000,9.000000,-1.000000,0.000000
1301658.762432,-4.000000,-2.000000,18.000000,30.000000,-5.000000,-11.000000,30.000000,0.000000
1301658.769798,8.000000,0.000000,63.000000,-24.000000,-5.000000,-2.000000,-28.000000,-12.000000
1301658.769823,1.000000,3.000000,59.000000,91.000000,28.000000,9.000000,-7.000000,0.000000
1301658.807288,-5.000000,0.000000,49.000000,6.000000,-3.000000,2.000000,12.000000,18.000000
1301658.807322,-19.000000,4.000000,-16.000000,-33.000000,-16.000000,-10.000000,-5.000000,-33.000000
1301658.814631,-13.000000,-7.000000,-21.000000,-19.000000,-3.000000,-9.000000,-19.000000,-5.000000
1301658.814667,10.000000,-5.000000,31.000000,-10.000000,4.000000,5.000000,-12.000000,0.000000
1301658.829649,-1.000000,7.000000,-44.000000,17.000000,2.000000,4.000000,10.000000,2.000000
1301658.829684,2.000000,-2.000000,10.000000,-14.000000,-13.000000,-7.000000,-29.000000,-6.000000
1301658.830323,5.000000,-2.000000,27.000000,31.000000,8.000000,6.000000,8.000000,-5.000000
1301658.830518,-9.000000,-5.000000,4.000000,1.000000,0.000000,-12.000000,40.000000,7.000000
1301658.831766,13.000000,-5.000000,-5.000000,-10.000000,-2.000000,0.000000,-16.000000,1.000000
1301658.831784,4.000000,-6.000000,-1.000000,-2.000000,-1.000000,3.000000,-27.000000,0.000000
1301658.832309,-38.000000,-5.000000,-15.000000,-25.000000,3.000000,9.000000,-1.000000,-7.000000
1301658.832328,-7.000000,9.000000,19.000000,-5.000000,-10.000000,-8.000000,-3.000000,8.000000
1301658.845241,1.000000,-6.000000,-7.000000,15.000000,7.000000,7.000000,14.000000,-27.000000
1301658.845278,4.000000,0.000000,-111.000000,-1.000000,4.000000,1.000000,-13.000000,-4.000000
1301658.846063,-2.000000,-1.000000,83.000000,36.000000,-3.000000,-14.000000,-5.000000,10.000000
1301658.846098,-1.000000,2.000000,-11.000000,-36.000000,-1.000000,-2.000000,-11.000000,-3.000000
1301658.868284,-8.000000,-3.000000,-17.000000,0.000000,2.000000,1.000000,-4.000000,-2.000000
1301658.868325,-1.000000,-3.000000,17.000000,-11.000000,5.000000,2.000000,8.000000,-1.000000
1301658.869004,15.000000,4.000000,-43.000000,7.000000,0.000000,4.000000,6.000000,8.000000
1301658.869035,-7.000000,6.000000,12.000000,-2.000000,-10.000000,-8.000000,11.000000,-1.000000
1301658.889730,1.000000,1.000000,4.000000,-3.000000,1.000000,2.000000,-2.000000,2.000000
1301658.889751,7.000000,-3.000000,-18.000000,6.000000,-5.000000,-2.000000,-15.000000,-10.000000
1301658.904766,13.000000,3.000000,21.000000,14.000000,-4.000000,-5.000000,-3.000000,14.000000
1301658.904784,2.000000,3.000000,22.000000,6.000000,-4.000000,-3.000000,1.000000,2.000000
1301658.950348,-28.000000,0.000000,7.000000,1.000000,4.000000,-8.000000,3.000000,-4.000000
1301658.950537,3.000000,-6.000000,-9.000000,-4.000000,2.000000,5.000000,-18.000000,-12.000000
1301658.951164,3.000000,-8.000000,32.000000,-25.000000,-5.000000,2.000000,14.000000,9.000000
1301658.951213,10.000000,6.000000,-52.000000,79.000000,9.000000,1.000000,13.000000,10.000000
1301658.952480,-6.000000,-2.000000,-14.000000,-1.000000,-6.000000,-14.000000,-5.000000,-15.000000
1301658.952517,2.000000,-1.000000,-4.000000,-20.000000,-5.000000,0.000000,-12.000000,-16.000000
1301658.953221,-12.000000,0.000000,12.000000,-72.000000,-9.000000,-2.000000,-9.000000,-21.000000
1301658.953241,14.000000,0.000000,-28.000000,96.000000,17.000000,7.000000,32.000000,11.000000
1301658.964799,-5.000000,-4.000000,25.000000,2.000000,5.000000,1.000000,10.000000,-6.000000
1301658.964824,-14.000000,1.000000,-15.000000,-13.000000,-4.000000,-8.000000,10.000000,2.000000
1301658.965356,3.000000,1.000000,34.000000,-5.000000,2.000000,-4.000000,-11.000000,-2.000000
1301658.965388,6.000000,7.000000,21.000000,43.000000,13.000000,8.000000,13.000000,-9.000000
1301658.987788,-9.000000,4.000000,-7.000000,-20.000000,-10.000000,-7.000000,21.000000,4.000000
1301658.987836,-5.000000,4.000000,44.000000,-24.000000,-3.000000,11.000000,1.000000,0.000000
1301658.988719,-8.000000,-5.000000,-128.000000,-72.000000,-22.000000,-21.000000,1.000000,1.000000
1301658.988752,-3.000000,-1.000000,63.000000,93.000000,18.000000,0.000000,-11.000000,-13.000000
1301659.017302,2.000000,-2.000000,-4.000000,-2.000000,4.000000,2.000000,18.000000,17.000000
1301659.017336,-2.000000,6.000000,-14.000000,-27.000000,-6.000000,-4.000000,-7.000000,-2.000000
1301659.024959,8.000000,-3.000000,-7.000000,-18.000000,-1.000000,4.000000,22.000000,0.000000
1301659.024996,-18.000000,0.000000,-63.000000,-6.000000,0.000000,0.000000,3.000000,-7.000000
1301659.047261,-8.000000,-5.000000,69.000000,19.000000,-4.000000,0.000000,-19.000000,-3.000000
1301659.047357,11.000000,4.000000,-66.000000,-33.000000,-9.000000,-8.000000,-3.000000,-5.000000
1301659.062303,-30.000000,-5.000000,37.000000,-3.000000,4.000000,4.000000,9.000000,0.000000
1301659.062338,4.000000,0.000000,75.000000,63.000000,5.000000,4.000000,9.000000,11.000000
1301659.063624,8.000000,-3.000000,22.000000,-27.000000,-7.000000,-3.000000,-13.000000,-4.000000
1301659.063642,-3.000000,2.000000,10.000000,8.000000,3.000000,1.000000,5.000000,-12.000000
1301659.064202,8.000000,-4.000000,-25.000000,-4.000000,-2.000000,-5.000000,24.000000,10.000000
1301659.064412,11.000000,-9.000000,30.000000,6.000000,4.000000,2.000000,-11.000000,-4.000000
1301659.065463,-11.000000,-2.000000,-1.000000,-27.000000,-7.000000,-3.000000,17.000000,-4.000000
1301659.065497,-51.000000,-2.000000,8.000000,40.000000,11.000000,-5.000000,2.000000,-5.000000
1301659.085058,13.000000,3.000000,-2.000000,-20.000000,-1.000000,2.000000,-30.000000,7.000000
1301659.085096,3.000000,1.000000,37.000000,-51.000000,-17.000000,-4.000000,28.000000,3.000000
1301659.086616,2.000000,-6.000000,-104.000000,88.000000,14.000000,12.000000,-8.000000,0.000000
1301659.086719,-5.000000,-4.000000,-15.000000,-43.000000,-10.000000,-16.000000,-17.000000,-3.000000
1301659.087052,5.000000,-1.000000,8.000000,-3.000000,-10.000000,-1.000000,-7.000000,-7.000000
1301659.087075,0.000000,2.000000,27.000000,14.000000,13.000000,10.000000,1.000000,-7.000000
1301659.099570,4.000000,2.000000,117.000000,53.000000,6.000000,1.000000,-1.000000,10.000000
1301659.099605,1.000000,-2.000000,-14.000000,-19.000000,-3.000000,-4.000000,5.000000,11.000000
1301659.107368,2.000000,-3.000000,-14.000000,-10.000000,3.000000,3.000000,-18.000000,-14.000000
1301659.107385,41.000000,1.000000,34.000000,-46.000000,-3.000000,6.000000,5.000000,6.000000
1301659.160072,-15.000000,0.000000,-128.000000,38.000000,3.000000,-20.000000,62.000000,-18.000000
1301659.160091,5.000000,-3.000000,43.000000,-15.000000,-9.000000,-3.000000,2.000000,9.000000
1301659.167218,0.000000,4.000000,22.000000,-22.000000,8.000000,9.000000,-8.000000,0.000000
1301659.167258,13.000000,2.000000,10.000000,18.000000,-1.000000,3.000000,-22.000000,-7.000000
1301659.205023,3.000000,-7.000000,0.000000,-29.000000,-11.000000,1.000000,-11.000000,-1.000000
1301659.205043,6.000000,-3.000000,-40.000000,18.000000,8.000000,1.000000,28.000000,-6.000000
1301659.219780,-14.000000,-2.000000,87.000000,62.000000,10.000000,1.000000,-5.000000,0.000000
1301659.219886,-1.000000,-1.000000,-26.000000,-21.000000,-3.000000,-3.000000,-7.000000,0.000000
1301659.242196,8.000000,1.000000,-17.000000,-8.000000,7.000000,8.000000,2.000000,1.000000
1301659.242227,1.000000,-5.000000,7.000000,-32.000000,-7.000000,-6.000000,-1.000000,-4.000000
1301659.279685,9.000000,-1.000000,-14.000000,16.000000,0.000000,-22.000000,20.000000,-13.000000
1301659.279719,-7.000000,0.000000,25.000000,8.000000,9.000000,-1.000000,-4.000000,3.000000
1301659.317119,-8.000000,-5.000000,1.000000,-19.000000,1.000000,5.000000,3.000000,12.000000
1301659.317137,5.000000,2.000000,14.000000,-34.000000,-1.000000,-8.000000,-14.000000,-10.000000
1301659.318916,-7.000000,-8.000000,25.000000,25.000000,9.000000,10.000000,-40.000000,-3.000000
1301659.319182,-11.000000,1.000000,13.000000,-5.000000,-11.000000,-19.000000,31.000000,1.000000
1301659.320455,-9.000000,-3.000000,-128.000000,34.000000,12.000000,0.000000,-15.000000,-24.000000
1301659.320549,-3.000000,-2.000000,85.000000,38.000000,7.000000,10.000000,4.000000,15.000000
1301659.324637,11.000000,3.000000,36.000000,-12.000000,-6.000000,1.000000,14.000000,10.000000
1301659.324654,1.000000,0.000000,-4.000000,45.000000,12.000000,4.000000,-30.000000,-5.000000
1301659.340371,-11.000000,-7.000000,20.000000,-22.000000,-6.000000,-7.000000,-6.000000,-7.000000
1301659.340400,-21.000000,2.000000,-46.000000,59.000000,11.000000,1.000000,2.000000,-9.000000
1301659.362341,-8.000000,3.000000,11.000000,-24.000000,-15.000000,-5.000000,3.000000,2.000000
1301659.362377,19.000000,-2.000000,-19.000000,-20.000000,-3.000000,-1.000000,-3.000000,-6.000000
1301659.377263,-5.000000,3.000000,15.000000,5.000000,0.000000,0.000000,-17.000000,0.000000
1301659.377336,0.000000,-2.000000,-14.000000,-13.000000,2.000000,5.000000,9.000000,-13.000000
1301659.384706,-3.000000,-4.000000,10.000000,-11.000000,-6.000000,-3.000000,13.000000,3.000000
1301659.384724,10.000000,5.000000,93.000000,25.000000,-1.000000,-6.000000,-9.000000,14.000000
1301659.422657,-20.000000,-1.000000,-127.000000,-1.000000,6.000000,13.000000,-1.000000,-20.000000
1301659.422700,7.000000,-1.000000,2.000000,15.000000,-1.000000,10.000000,24.000000,4.000000
1301659.437391,7.000000,-2.000000,18.000000,-3.000000,0.000000,-15.000000,-2.000000,5.000000
1301659.437429,-2.000000,-7.000000,27.000000,16.000000,-4.000000,-6.000000,-16.000000,0.000000
1301659.445378,9.000000,2.000000,31.000000,-18.000000,-8.000000,9.000000,47.000000,11.000000
1301659.445401,-7.000000,-5.000000,-19.000000,-8.000000,1.000000,1.000000,1.000000,-5.000000
1301659.445940,-2.000000,-2.000000,51.000000,46.000000,10.000000,8.000000,-11.000000,-6.000000
1301659.446189,21.000000,-5.000000,3.000000,-10.000000,-5.000000,2.000000,-2.000000,10.000000
1301659.447144,-5.000000,-4.000000,-22.000000,-8.000000,0.000000,1.000000,2.000000,-1.000000
1301659.447170,-21.000000,1.000000,-6.000000,-20.000000,-9.000000,-5.000000,-25.000000,-16.000000
1301659.460386,-13.000000,1.000000,2.000000,-9.000000,9.000000,-7.000000,-8.000000,-3.000000
1301659.460417,0.000000,-3.000000,17.000000,45.000000,0.000000,12.000000,41.000000,17.000000
1301659.467014,10.000000,-13.000000,-21.000000,-25.000000,-3.000000,-2.000000,-40.000000,-7.000000
1301659.467032,0.000000,-6.000000,-11.000000,-13.000000,6.000000,4.000000,17.000000,1.000000
1301659.482245,11.000000,3.000000,78.000000,40.000000,7.000000,2.000000,6.000000,8.000000
1301659.482264,-4.000000,1.000000,-33.000000,-73.000000,-15.000000,-3.000000,-6.000000,-7.000000
1301659.497296,-15.000000,4.000000,-95.000000,49.000000,3.000000,-2.000000,-20.000000,-7.000000
1301659.497320,-2.000000,-4.000000,24.000000,4.000000,-3.000000,-3.000000,13.000000,-4.000000
1301659.512096,-16.000000,2.000000,-7.000000,-66.000000,-7.000000,1.000000,-16.000000,-14.000000
1301659.512114,17.000000,1.000000,-80.000000,13.000000,-2.000000,-8.000000,15.000000,19.000000
1301659.519620,-8.000000,1.000000,42.000000,-3.000000,-1.000000,-3.000000,-29.000000,-14.000000
1301659.519654,-26.000000,-5.000000,-66.000000,-42.000000,-6.000000,3.000000,52.000000,-17.000000
1301659.543221,4.000000,-4.000000,53.000000,35.000000,9.000000,-9.000000,-28.000000,10.000000
1301659.543252,-9.000000,-3.000000,6.000000,-2.000000,-1.000000,8.000000,27.000000,-1.000000
1301659.543500,17.000000,3.000000,-2.000000,-11.000000,-8.000000,-7.000000,6.000000,-2.000000
1301659.543517,-19.000000,-6.000000,-11.000000,-7.000000,3.000000,6.000000,-16.000000,-15.000000
1301659.544948,9.000000,5.000000,6.000000,-4.000000,-5.000000,1.000000,10.000000,5.000000
1301659.544986,2.000000,3.000000,-4.000000,-22.000000,-12.000000,-3.000000,8.000000,4.000000
1301659.557398,6.000000,2.000000,21.000000,6.000000,-5.000000,-5.000000,-13.000000,-2.000000
1301659.557563,-22.000000,3.000000,22.000000,3.000000,0.000000,-6.000000,-15.000000,-5.000000
1301659.558667,8.000000,-7.000000,-71.000000,-62.000000,-4.000000,-3.000000,14.000000,-4.000000
1301659.558700,-11.000000,2.000000,36.000000,29.000000,5.000000,8.000000,-30.000000,-13.000000
1301659.572646,-3.000000,-3.000000,94.000000,52.000000,9.000000,6.000000,14.000000,6.000000
1301659.572688,11.000000,4.000000,-90.000000,-46.000000,-24.000000,-25.000000,28.000000,11.000000
1301659.594879,-16.000000,0.000000,33.000000,22.000000,7.000000,7.000000,-5.000000,4.000000
1301659.594917,-8.000000,-9.000000,-23.000000,-40.000000,-29.000000,-10.000000,-73.000000,-24.000000
1301659.602266,-21.000000,3.000000,-25.000000,-19.000000,0.000000,-20.000000,36.000000,-4.000000
1301659.602296,7.000000,-3.000000,1.000000,0.000000,0.000000,6.000000,6.000000,4.000000
1301659.625277,3.000000,-7.000000,-6.000000,-10.000000,-4.000000,7.000000,-3.000000,2.000000
1301659.625302,23.000000,-1.000000,44.000000,0.000000,5.000000,3.000000,11.000000,-1.000000
1301659.640300,-11.000000,-2.000000,-68.000000,11.000000,-2.000000,-7.000000,-32.000000,-4.000000
1301659.640329,-5.000000,-5.000000,-16.000000,-16.000000,-6.000000,4.000000,24.000000,-5.000000
1301659.654849,13.000000,3.000000,4.000000,19.000000,2.000000,-9.000000,-4.000000,-1.000000
1301659.654869,8.000000,-10.000000,15.000000,-17.000000,-4.000000,-7.000000,-6.000000,0.000000
1301659.662529,-5.000000,-1.000000,-20.000000,-25.000000,-7.000000,-7.000000,-7.000000,-18.000000
1301659.662563,4.000000,4.000000,49.000000,19.000000,12.000000,8.000000,-17.000000,6.000000
1301659.677194,-26.000000,-6.000000,77.000000,13.000000,1.000000,4.000000,36.000000,-2.000000
1301659.677486,-13.000000,3.000000,-85.000000,-2.000000,-6.000000,-12.000000,22.000000,-5.000000
1301659.677880,-11.000000,-2.000000,43.000000,-14.000000,0.000000,-5.000000,-24.000000,-4.000000
1301659.678084,6.000000,8.000000,-69.000000,4.000000,-6.000000,-11.000000,-7.000000,6.000000
1301659.678997,-1.000000,3.000000,50.000000,-6.000000,5.000000,5.000000,-6.000000,-5.000000
1301659.679020,-3.000000,3.000000,-48.000000,33.000000,-4.000000,1.000000,-4.000000,4.000000
1301659.679617,2.000000,1.000000,-5.000000,-38.000000,-14.000000,-11.000000,-4.000000,-23.000000
1301659.679649,-15.000000,-2.000000,1.000000,15.000000,15.000000,14.000000,-37.000000,0.000000
1301659.681366,-1.000000,4.000000,23.000000,-31.000000,-12.000000,-21.000000,11.000000,6.000000
1301659.681398,-8.000000,3.000000,-64.000000,6.000000,-4.000000,-4.000000,-2.000000,-8.000000
1301659.699820,28.000000,-2.000000,0.000000,-11.000000,-2.000000,7.000000,-5.000000,0.000000
1301659.699944,-7.000000,-5.000000,-11.000000,-6.000000,-1.000000,-1.000000,-19.000000,-7.000000
1301659.701181,-23.000000,5.000000,20.000000,-9.000000,-3.000000,0.000000,-6.000000,-13.000000
1301659.701205,14.000000,1.000000,4.000000,21.000000,3.000000,8.000000,0.000000,12.000000
1301659.714755,-4.000000,-2.000000,-57.000000,-60.000000,-17.000000,-23.000000,19.000000,5.000000
1301659.714774,4.000000,9.000000,51.000000,59.000000,8.000000,3.000000,-17.000000,-7.000000
1301659.737516,1.000000,-1.000000,27.000000,23.000000,0.000000,-10.000000,-7.000000,2.000000
1301659.737551,-1.000000,-10.000000,4.000000,-3.000000,1.000000,6.000000,-12.000000,-6.000000
1301659.760022,1.000000,-4.000000,-18.000000,-44.000000,-14.000000,0.000000,36.000000,20.000000
1301659.760062,11.000000,-3.000000,-50.000000,-24.000000,-3.000000,-8.000000,-21.000000,-24.000000
1301659.775248,12.000000,-9.000000,33.000000,11.000000,5.000000,8.000000,-12.000000,-1.000000
1301659.775343,3.000000,0.000000,21.000000,20.000000,9.000000,9.000000,-13.000000,2.000000
1301659.775994,7.000000,-5.000000,19.000000,-20.000000,-15.000000,-14.000000,72.000000,2.000000
1301659.776017,1.000000,1.000000,-96.000000,12.000000,4.000000,-2.000000,-24.000000,-11.000000
1301659.777322,5.000000,6.000000,-2.000000,-13.000000,-3.000000,0.000000,-4.000000,7.000000
1301659.777338,-2.000000,-4.000000,-23.000000,-16.000000,1.000000,1.000000,-22.000000,-5.000000
1301659.777955,1.000000,1.000000,-20.000000,9.000000,8.000000,5.000000,-30.000000,-6.000000
1301659.777990,-1.000000,1.000000,44.000000,2.000000,-12.000000,-7.000000,51.000000,8.000000
1301659.782208,0.000000,-5.000000,-36.000000,-22.000000,1.000000,6.000000,-9.000000,14.000000
1301659.782243,-1.000000,5.000000,-11.000000,-15.000000,-7.000000,0.000000,0.000000,-6.000000
1301659.789766,-9.000000,-2.000000,-21.000000,3.000000,2.000000,2.000000,-21.000000,-10.000000
1301659.789800,3.000000,-6.000000,45.000000,48.000000,7.000000,12.000000,4.000000,-5.000000
1301659.798059,-14.000000,3.000000,-3.000000,-20.000000,2.000000,5.000000,-6.000000,-7.000000
1301659.798076,1.000000,-2.000000,-9.000000,-15.000000,-4.000000,-5.000000,4.000000,-16.000000
1301659.819828,-2.000000,9.000000,31.000000,-26.000000,-9.000000,-6.000000,-16.000000,-9.000000
1301659.820027,28.000000,2.000000,9.000000,31.000000,7.000000,-7.000000,-17.000000,-1.000000
1301659.821426,-17.000000,3.000000,50.000000,-30.000000,3.000000,4.000000,16.000000,15.000000
1301659.821458,-3.000000,-5.000000,-70.000000,31.000000,-11.000000,-12.000000,0.000000,-5.000000
1301659.827277,6.000000,-7.000000,18.000000,-14.000000,-2.000000,0.000000,-16.000000,-1.000000
1301659.827303,-7.000000,0.000000,-3.000000,-20.000000,-2.000000,1.000000,-32.000000,-19.000000
1301659.857554,0.000000,2.000000,-18.000000,-12.000000,-8.000000,-3.000000,40.000000,18.000000
1301659.857590,-12.000000,-3.000000,4.000000,-22.000000,-11.000000,-7.000000,-3.000000,-1.000000
1301659.872521,-4.000000,-4.000000,-36.000000,-5.000000,2.000000,-3.000000,-15.000000,-5.000000
1301659.872556,1.000000,-2.000000,37.000000,-13.000000,-5.000000,3.000000,-1.000000,0.000000
1301659.894782,-5.000000,3.000000,-25.000000,11.000000,7.000000,-3.000000,-7.000000,-14.000000
1301659.894816,12.000000,-3.000000,-26.000000,-47.000000,-10.000000,-5.000000,-1.000000,11.000000
1301659.910011,-17.000000,2.000000,-81.000000,8.000000,4.000000,4.000000,-6.000000,-7.000000
1301659.910044,-1.000000,-2.000000,79.000000,20.000000,0.000000,0.000000,20.000000,5.000000
1301659.925184,2.000000,-3.000000,15.000000,-28.000000,-3.000000,-1.000000,-25.000000,-2.000000
1301659.925222,-2.000000,2.000000,16.000000,-16.000000,-7.000000,-3.000000,22.000000,-6.000000
1301659.925735,14.000000,-10.000000,12.000000,9.000000,-7.000000,-2.000000,-3.000000,12.000000
1301659.925762,-10.000000,-4.000000,-27.000000,-9.000000,4.000000,-1.000000,-2.000000,-13.000000
1301659.926764,-1.000000,7.000000,9.000000,13.000000,6.000000,-3.000000,-12.000000,2.000000
1301659.926793,14.000000,1.000000,0.000000,-2.000000,-2.000000,6.000000,30.000000,8.000000
1301659.932441,4.000000,-3.000000,29.000000,11.000000,-4.000000,2.000000,-5.000000,-1.000000
1301659.932478,3.000000,-4.000000,127.000000,37.000000,3.000000,1.000000,17.000000,15.000000
1301659.939833,4.000000,3.000000,-18.000000,-49.000000,-3.000000,-2.000000,-9.000000,-8.000000
1301659.939866,1.000000,0.000000,27.000000,-10.000000,0.000000,6.000000,-2.000000,4.000000
1301659.977178,-7.000000,5.000000,-49.000000,9.000000,-3.000000,-10.000000,34.000000,5.000000
1301659.977197,1.000000,0.000000,-10.000000,-28.000000,-5.000000,-3.000000,-24.000000,4.000000
1301659.999753,7.000000,5.000000,-12.000000,-1.000000,10.000000,10.000000,-22.000000,-1.000000
1301659.999786,-2.000000,2.000000,-8.000000,-3.000000,-1.000000,-1.000000,11.000000,0.000000
1301660.014902,-16.000000,-1.000000,-24.000000,-24.000000,-12.000000,-18.000000,-3.000000,-5.000000
1301660.015179,11.000000,1.000000,45.000000,27.000000,9.000000,6.000000,27.000000,-3.000000
1301660.016122,-4.000000,1.000000,-19.000000,-32.000000,-3.000000,-3.000000,-7.000000,19.000000
1301660.016272,12.000000,2.000000,-5.000000,18.000000,0.000000,-2.000000,-9.000000,-18.000000
1301660.016665,-10.000000,0.000000,14.000000,1.000000,-9.000000,-3.000000,-19.000000,-2.000000
1301660.016803,-3.000000,9.000000,-17.000000,1.000000,7.000000,5.000000,-9.000000,2.000000
1301660.017949,-1.000000,4.000000,25.000000,-27.000000,0.000000,5.000000,7.000000,-11.000000
1301660.017979,12.000000,-4.000000,-94.000000,-23.000000,-8.000000,4.000000,-10.000000,-7.000000
1301660.022372,7.000000,6.000000,16.000000,37.000000,6.000000,-8.000000,5.000000,8.000000
1301660.022407,-19.000000,-2.000000,5.000000,-33.000000,-8.000000,-3.000000,5.000000,4.000000
1301660.037722,10.000000,-11.000000,-3.000000,-22.000000,-6.000000,-4.000000,-8.000000,-1.000000
1301660.037888,5.000000,1.000000,-16.000000,6.000000,8.000000,11.000000,-43.000000,-6.000000
1301660.038626,-2.000000,-5.000000,53.000000,-15.000000,-10.000000,-5.000000,38.000000,0.000000
1301660.038642,-11.000000,-9.000000,-120.000000,77.000000,4.000000,-12.000000,1.000000,2.000000
1301660.052232,3.000000,-2.000000,73.000000,-12.000000,2.000000,6.000000,-3.000000,-5.000000
1301660.052276,-1.000000,2.000000,-2.000000,-23.000000,-1.000000,5.000000,5.000000,-5.000000
1301660.059750,-28.000000,0.000000,-32.000000,-35.000000,-1.000000,7.000000,-17.000000,8.000000
1301660.059784,16.000000,30.000000,5.000000,5.000000,1.000000,-2.000000,3.000000,-3.000000
1301660.074835,1.000000,9.000000,39.000000,21.000000,3.000000,5.000000,21.000000,19.000000
1301660.074865,-3.000000,2.000000,-15.000000,-17.000000,-5.000000,2.000000,-6.000000,-4.000000
1301660.112246,-23.000000,-3.000000,-5.000000,-15.000000,-6.000000,-7.000000,-6.000000,-19.000000
1301660.112265,2.000000,8.000000,8.000000,-8.000000,-5.000000,-2.000000,2.000000,1.000000
1301660.127100,12.000000,3.000000,-13.000000,14.000000,1.000000,-11.000000,-39.000000,-4.000000
1301660.127134,10.000000,-1.000000,-22.000000,-34.000000,-9.000000,-8.000000,33.000000,8.000000
1301660.135344,-5.000000,-8.000000,-16.000000,1.000000,3.000000,3.000000,-9.000000,-6.000000
1301660.135374,23.000000,1.000000,35.000000,30.000000,4.000000,-5.000000,-5.000000,9.000000
1301660.136016,-12.000000,8.000000,82.000000,10.000000,-1.000000,3.000000,8.000000,1.000000
1301660.136055,-1.000000,-5.000000,-128.000000,-3.000000,1.000000,-8.000000,-15.000000,18.000000
1301660.137660,6.000000,4.000000,111.000000,-6.000000,-6.000000,3.000000,-8.000000,-11.000000
1301660.137680,-7.000000,-8.000000,-41.000000,56.000000,6.000000,3.000000,-17.000000,1.000000
1301660.138365,-7.000000,3.000000,-6.000000,-38.000000,-11.000000,-6.000000,14.000000,-2.000000
1301660.138394,1.000000,7.000000,-5.000000,22.000000,6.000000,-2.000000,22.000000,7.000000
1301660.149830,0.000000,-3.000000,-5.000000,-11.000000,-6.000000,1.000000,-10.000000,-1.000000
1301660.149850,11.000000,0.000000,10.000000,-28.000000,-1.000000,-2.000000,-8.000000,-10.000000
1301660.150410,3.000000,4.000000,-40.000000,16.000000,13.000000,9.000000,-10.000000,-9.000000
1301660.150426,-13.000000,1.000000,45.000000,17.000000,-14.000000,-33.000000,37.000000,-11.000000
1301660.157942,12.000000,6.000000,20.000000,4.000000,0.000000,-5.000000,4.000000,17.000000
1301660.157977,29.000000,1.000000,-21.000000,-14.000000,-7.000000,5.000000,-12.000000,-8.000000
1301660.172322,-8.000000,0.000000,-35.000000,-25.000000,-2.000000,4.000000,-32.000000,-1.000000
1301660.172364,-5.000000,2.000000,37.000000,12.000000,7.000000,13.000000,27.000000,-2.000000
1301660.187472,15.000000,-2.000000,12.000000,39.000000,10.000000,-7.000000,34.000000,17.000000
1301660.187506,0.000000,-3.000000,-34.000000,-4.000000,-4.000000,-6.000000,-25.000000,-4.000000
1301660.194929,-9.000000,-2.000000,5.000000,-1.000000,-4.000000,3.000000,-8.000000,-6.000000
1301660.194954,-1.000000,-2.000000,31.000000,-2.000000,3.000000,6.000000,4.000000,-4.000000
1301660.209984,-26.000000,4.000000,-49.000000,-23.000000,-7.000000,3.000000,10.000000,-6.000000
1301660.210015,3.000000,7.000000,21.000000,28.000000,-5.000000,-2.000000,-10.000000,-2.000000
1301660.217453,-14.000000,-7.000000,15.000000,-23.000000,-1.000000,-7.000000,-1.000000,-8.000000
1301660.217483,10.000000,-5.000000,-17.000000,16.000000,8.000000,2.000000,1.000000,6.000000
1301660.232373,0.000000,0.000000,13.000000,-20.000000,-4.000000,-3.000000,-13.000000,-1.000000
1301660.232713,-2.000000,-7.000000,3.000000,-15.000000,5.000000,-4.000000,6.000000,-4.000000
1301660.233131,3.000000,-7.000000,32.000000,6.000000,-4.000000,7.000000,15.000000,0.000000
1301660.233338,10.000000,-1.000000,44.000000,32.000000,5.000000,2.000000,25.000000,12.000000
1301660.254865,3.000000,-3.000000,2.000000,1.000000,-1.000000,-13.000000,-4.000000,-3.000000
1301660.255060,-10.000000,0.000000,0.000000,-10.000000,2.000000,1.000000,-27.000000,-7.000000
1301660.255906,32.000000,1.000000,-18.000000,-18.000000,-5.000000,-5.000000,18.000000,9.000000
1301660.255925,10.000000,15.000000,21.000000,2.000000,0.000000,-20.000000,-5.000000,4.000000
1301660.269519,-27.000000,5.000000,-42.000000,3.000000,4.000000,6.000000,-10.000000,-12.000000
1301660.269552,5.000000,-4.000000,-13.000000,-10.000000,-5.000000,-5.000000,-6.000000,-5.000000
1301660.270554,-12.000000,3.000000,50.000000,18.000000,-5.000000,-5.000000,1.000000,16.000000
1301660.270572,-25.000000,3.000000,-54.000000,-12.000000,5.000000,4.000000,6.000000,-28.000000
1301660.278217,5.000000,0.000000,11.000000,9.000000,8.000000,7.000000,-6.000000,-13.000000
1301660.278238,9.000000,-3.000000,55.000000,-1.000000,-12.000000,-5.000000,12.000000,18.000000
1301660.292471,-3.000000,-5.000000,-87.000000,26.000000,5.000000,-1.000000,-9.000000,4.000000
1301660.292711,12.000000,-9.000000,33.000000,-31.000000,-18.000000,-17.000000,17.000000,1.000000
1301660.315046,-7.000000,3.000000,-38.000000,-16.000000,1.000000,7.000000,-27.000000,-5.000000
1301660.315183,-18.000000,6.000000,-9.000000,17.000000,5.000000,5.000000,18.000000,-16.000000
1301660.329743,21.000000,-11.000000,60.000000,35.000000,-10.000000,-9.000000,-1.000000,3.000000
1301660.329762,-9.000000,5.000000,1.000000,-17.000000,-1.000000,9.000000,-22.000000,-1.000000
1301660.344937,7.000000,1.000000,-25.000000,-30.000000,-2.000000,0.000000,31.000000,2.000000
1301660.344975,1.000000,5.000000,7.000000,-10.000000,-2.000000,0.000000,19.000000,-7.000000
1301660.375019,23.000000,-4.000000,-1.000000,39.000000,0.000000,-4.000000,-23.000000,6.000000
1301660.375040,-24.000000,-4.000000,14.000000,8.000000,6.000000,8.000000,-10.000000,-15.000000
1301660.389958,13.000000,-4.000000,7.000000,-6.000000,3.000000,8.000000,13.000000,1.000000
1301660.390170,-7.000000,3.000000,7.000000,-35.000000,-5.000000,-8.000000,-20.000000,5.000000
1301660.390860,-1.000000,-2.000000,-7.000000,1.000000,0.000000,-3.000000,0.000000,6.000000
1301660.390885,-5.000000,7.000000,90.000000,19.000000,10.000000,6.000000,-4.000000,-7.000000
1301660.392064,-10.000000,-3.000000,-52.000000,33.000000,6.000000,3.000000,15.000000,-1.000000
1301660.392208,6.000000,-6.000000,18.000000,4.000000,-5.000000,2.000000,-3.000000,3.000000
1301660.392581,3.000000,-1.000000,2.000000,5.000000,2.000000,-4.000000,3.000000,2.000000
1301660.392606,-12.000000,2.000000,-26.000000,-59.000000,-24.000000,-19.000000,-21.000000,-1.000000
1301660.393353,-14.000000,5.000000,-16.000000,61.000000,14.000000,9.000000,8.000000,-15.000000
1301660.393622,17.000000,3.000000,-24.000000,-24.000000,1.000000,10.000000,2.000000,4.000000
1301660.394168,14.000000,-4.000000,32.000000,-3.000000,-11.000000,-25.000000,34.000000,19.000000
1301660.394186,18.000000,5.000000,-41.000000,-19.000000,-7.000000,-16.000000,-4.000000,4.000000
1301660.413691,-2.000000,4.000000,-51.000000,-25.000000,-3.000000,8.000000,-9.000000,-15.000000
1301660.413729,28.000000,-1.000000,46.000000,22.000000,8.000000,16.000000,19.000000,27.000000
1301660.413900,-37.000000,8.000000,-4.000000,12.000000,4.000000,3.000000,-11.000000,-39.000000
1301660.413927,-5.000000,-11.000000,2.000000,-16.000000,-8.000000,-8.000000,-11.000000,-7.000000
1301660.420060,19.000000,-3.000000,-3.000000,-1.000000,4.000000,3.000000,-3.000000,8.000000
1301660.420095,7.000000,1.000000,33.000000,17.000000,3.000000,1.000000,-17.000000,12.000000
1301660.427562,3.000000,-4.000000,-13.000000,-69.000000,-13.000000,-9.000000,12.000000,0.000000
1301660.427597,-14.000000,-2.000000,-35.000000,44.000000,6.000000,0.000000,3.000000,-11.000000
1301660.450015,-4.000000,-1.000000,-30.000000,6.000000,2.000000,-4.000000,-12.000000,0.000000
1301660.450034,-14.000000,2.000000,7.000000,-31.000000,-5.000000,-1.000000,-17.000000,-10.000000
1301660.472355,0.000000,-6.000000,-50.000000,-8.000000,1.000000,-4.000000,27.000000,-4.000000
1301660.472532,11.000000,2.000000,20.000000,-13.000000,-1.000000,0.000000,-17.000000,8.000000
1301660.473752,-12.000000,-4.000000,1.000000,8.000000,13.000000,12.000000,-2.000000,-6.000000
1301660.473781,10.000000,2.000000,20.000000,-6.000000,-9.000000,-6.000000,8.000000,-6.000000
1301660.474344,-6.000000,0.000000,-35.000000,15.000000,-8.000000,-11.000000,0.000000,8.000000
