# participant_id: P5
# gesture: medium
# trial_number: 2
# stream_name: Myo_EMG
# stream_type: emg
# timestamp: 20260420_140701
# samples: 5454
# duration_sec: 30.607
# nominal_sample_rate: 200.0
# effective_sample_rate: 178.16
#
timestamp,emg_1,emg_2,emg_3,emg_4,emg_5,emg_6,emg_7,emg_8
1298712.637346,-128.000000,-49.000000,-93.000000,-128.000000,-18.000000,-24.000000,-19.000000,-22.000000
1298712.637373,127.000000,57.000000,18.000000,18.000000,-6.000000,-3.000000,-11.000000,14.000000
1298712.652013,-128.000000,-128.000000,-8.000000,-18.000000,-9.000000,-12.000000,-31.000000,-123.000000
1298712.652068,117.000000,64.000000,20.000000,4.000000,15.000000,20.000000,19.000000,30.000000
1298712.659650,-111.000000,-18.000000,29.000000,63.000000,10.000000,5.000000,14.000000,-4.000000
1298712.659697,-11.000000,-16.000000,-34.000000,-27.000000,-9.000000,-4.000000,6.000000,-1.000000
1298712.690040,-55.000000,-7.000000,-36.000000,-30.000000,-8.000000,-4.000000,-5.000000,3.000000
1298712.690085,38.000000,46.000000,43.000000,17.000000,1.000000,-1.000000,6.000000,19.000000
1298712.690345,-34.000000,-11.000000,12.000000,23.000000,5.000000,1.000000,-1.000000,-8.000000
1298712.690384,3.000000,-30.000000,-23.000000,-5.000000,11.000000,16.000000,24.000000,33.000000
1298712.692152,76.000000,-17.000000,76.000000,59.000000,19.000000,-8.000000,-13.000000,-12.000000
1298712.692188,-128.000000,-45.000000,-13.000000,7.000000,2.000000,2.000000,-7.000000,-26.000000
1298712.697330,38.000000,12.000000,18.000000,-19.000000,-2.000000,17.000000,24.000000,32.000000
1298712.697356,115.000000,19.000000,19.000000,29.000000,9.000000,3.000000,12.000000,32.000000
1298712.720783,26.000000,67.000000,34.000000,42.000000,11.000000,16.000000,21.000000,34.000000
1298712.721401,87.000000,-7.000000,-7.000000,-54.000000,-9.000000,7.000000,18.000000,7.000000
1298712.722800,-100.000000,-50.000000,-43.000000,-22.000000,-1.000000,0.000000,-6.000000,-30.000000
1298712.722826,-120.000000,-18.000000,-19.000000,11.000000,10.000000,1.000000,0.000000,-6.000000
1298712.724069,47.000000,-81.000000,34.000000,0.000000,0.000000,3.000000,4.000000,12.000000
1298712.724117,10.000000,23.000000,8.000000,12.000000,-3.000000,2.000000,9.000000,20.000000
1298712.734573,39.000000,27.000000,23.000000,62.000000,9.000000,1.000000,5.000000,15.000000
1298712.734600,-79.000000,-109.000000,-40.000000,-89.000000,-35.000000,-37.000000,-58.000000,-65.000000
1298712.757081,-9.000000,-6.000000,-11.000000,-1.000000,4.000000,6.000000,8.000000,7.000000
1298712.757111,-21.000000,3.000000,8.000000,11.000000,6.000000,8.000000,3.000000,-13.000000
1298712.764567,110.000000,33.000000,14.000000,14.000000,1.000000,-5.000000,2.000000,35.000000
1298712.764618,47.000000,-19.000000,-11.000000,-6.000000,-1.000000,-6.000000,-7.000000,-28.000000
1298712.787038,-78.000000,-32.000000,-10.000000,0.000000,-3.000000,-10.000000,-25.000000,-22.000000
1298712.787090,117.000000,38.000000,8.000000,3.000000,9.000000,15.000000,41.000000,59.000000
1298712.794910,46.000000,5.000000,-15.000000,1.000000,-7.000000,-6.000000,-10.000000,-4.000000
1298712.794969,-86.000000,-45.000000,-37.000000,-75.000000,-29.000000,-12.000000,-12.000000,-20.000000
1298712.809420,39.000000,-3.000000,-1.000000,-4.000000,-4.000000,-2.000000,14.000000,29.000000
1298712.809472,102.000000,102.000000,43.000000,48.000000,10.000000,2.000000,-8.000000,7.000000
1298712.824548,-128.000000,-42.000000,-66.000000,-76.000000,-22.000000,-13.000000,-6.000000,-47.000000
1298712.824597,35.000000,-14.000000,-2.000000,2.000000,2.000000,3.000000,5.000000,-8.000000
1298712.847126,39.000000,-5.000000,16.000000,21.000000,5.000000,1.000000,12.000000,27.000000
1298712.847171,-97.000000,-25.000000,40.000000,2.000000,1.000000,-3.000000,-11.000000,-12.000000
1298712.862434,82.000000,23.000000,7.000000,36.000000,18.000000,13.000000,18.000000,12.000000
1298712.862484,-30.000000,42.000000,-59.000000,-48.000000,-29.000000,-11.000000,8.000000,19.000000
1298712.863686,-96.000000,-20.000000,-42.000000,-64.000000,-29.000000,-46.000000,-80.000000,-111.000000
1298712.863734,3.000000,3.000000,76.000000,47.000000,19.000000,19.000000,19.000000,24.000000
1298712.877276,46.000000,52.000000,-2.000000,32.000000,7.000000,6.000000,21.000000,39.000000
1298712.877307,73.000000,13.000000,10.000000,-12.000000,3.000000,9.000000,13.000000,18.000000
1298712.914869,50.000000,11.000000,29.000000,4.000000,8.000000,9.000000,11.000000,21.000000
1298712.915065,-10.000000,-42.000000,-66.000000,-23.000000,-23.000000,-23.000000,-6.000000,-1.000000
1298712.918095,65.000000,68.000000,36.000000,19.000000,8.000000,8.000000,25.000000,55.000000
1298712.918127,113.000000,1.000000,-47.000000,-24.000000,-14.000000,-18.000000,-33.000000,-34.000000
1298712.919000,-118.000000,-58.000000,-4.000000,-2.000000,-11.000000,-14.000000,-12.000000,-34.000000
1298712.919149,84.000000,21.000000,-18.000000,1.000000,4.000000,6.000000,11.000000,29.000000
1298712.919365,36.000000,54.000000,29.000000,39.000000,14.000000,5.000000,-1.000000,9.000000
1298712.919411,-29.000000,-21.000000,-29.000000,-73.000000,-37.000000,-36.000000,-43.000000,-51.000000
1298712.922714,-93.000000,-24.000000,-19.000000,-44.000000,-14.000000,-3.000000,-3.000000,-20.000000
1298712.922760,93.000000,55.000000,60.000000,39.000000,14.000000,12.000000,20.000000,39.000000
1298712.929333,41.000000,3.000000,28.000000,42.000000,12.000000,7.000000,-3.000000,-15.000000
1298712.929357,-33.000000,9.000000,0.000000,-9.000000,19.000000,10.000000,-12.000000,1.000000
1298712.960140,-32.000000,-36.000000,-19.000000,-82.000000,-41.000000,-28.000000,-34.000000,-39.000000
1298712.960520,-22.000000,-24.000000,-15.000000,-11.000000,-9.000000,-3.000000,0.000000,4.000000
1298712.960777,16.000000,28.000000,24.000000,19.000000,6.000000,10.000000,15.000000,10.000000
1298712.960812,57.000000,20.000000,38.000000,21.000000,13.000000,17.000000,25.000000,33.000000
1298712.961934,99.000000,15.000000,9.000000,21.000000,11.000000,12.000000,13.000000,15.000000
1298712.962062,-96.000000,-57.000000,-31.000000,-32.000000,-20.000000,-26.000000,-21.000000,7.000000
1298712.989776,-128.000000,-28.000000,-18.000000,-8.000000,-7.000000,-12.000000,-29.000000,-72.000000
1298712.989829,-12.000000,-51.000000,2.000000,8.000000,-2.000000,2.000000,-2.000000,-4.000000
1298713.004325,110.000000,32.000000,31.000000,25.000000,13.000000,23.000000,65.000000,97.000000
1298713.004376,127.000000,4.000000,-24.000000,-16.000000,-8.000000,-17.000000,-15.000000,26.000000
1298713.011974,-128.000000,-30.000000,-2.000000,-28.000000,-24.000000,-25.000000,-37.000000,-61.000000
1298713.012038,14.000000,-7.000000,13.000000,43.000000,9.000000,-1.000000,-11.000000,20.000000
1298713.034653,25.000000,-28.000000,-44.000000,-48.000000,-15.000000,-4.000000,11.000000,15.000000
1298713.034792,-20.000000,7.000000,-15.000000,-12.000000,15.000000,7.000000,0.000000,-12.000000
1298713.042057,48.000000,82.000000,-14.000000,-35.000000,-23.000000,10.000000,23.000000,35.000000
1298713.042107,-10.000000,13.000000,50.000000,40.000000,19.000000,11.000000,10.000000,9.000000
1298713.064653,36.000000,24.000000,-11.000000,-8.000000,2.000000,0.000000,2.000000,9.000000
1298713.064709,-57.000000,-37.000000,-21.000000,-13.000000,-15.000000,-16.000000,-38.000000,-52.000000
1298713.072893,26.000000,32.000000,28.000000,18.000000,14.000000,22.000000,35.000000,27.000000
1298713.072923,-19.000000,-19.000000,2.000000,37.000000,13.000000,14.000000,38.000000,45.000000
1298713.075847,29.000000,111.000000,-66.000000,-53.000000,-7.000000,-13.000000,-15.000000,-14.000000
1298713.076172,-128.000000,-8.000000,-3.000000,-33.000000,-19.000000,-8.000000,-4.000000,-15.000000
1298713.076662,51.000000,34.000000,8.000000,10.000000,4.000000,13.000000,18.000000,7.000000
1298713.076709,9.000000,8.000000,8.000000,19.000000,4.000000,3.000000,-5.000000,12.000000
1298713.077100,-75.000000,-74.000000,-41.000000,-10.000000,-9.000000,-16.000000,-28.000000,-31.000000
1298713.077144,29.000000,23.000000,-11.000000,-8.000000,8.000000,13.000000,25.000000,39.000000
1298713.077457,42.000000,42.000000,30.000000,27.000000,2.000000,6.000000,4.000000,17.000000
1298713.077505,-17.000000,-50.000000,-5.000000,11.000000,1.000000,-1.000000,-1.000000,-3.000000
1298713.087150,12.000000,18.000000,0.000000,-7.000000,-6.000000,-1.000000,4.000000,4.000000
1298713.087178,17.000000,12.000000,20.000000,44.000000,9.000000,10.000000,-1.000000,-3.000000
1298713.109796,13.000000,7.000000,-17.000000,-51.000000,-8.000000,-3.000000,-7.000000,5.000000
1298713.109846,20.000000,-43.000000,12.000000,-10.000000,-5.000000,-12.000000,-12.000000,-10.000000
1298713.147034,-94.000000,-16.000000,-20.000000,-10.000000,-2.000000,-6.000000,-25.000000,-50.000000
1298713.147084,-36.000000,1.000000,12.000000,26.000000,17.000000,16.000000,5.000000,-12.000000
1298713.154604,18.000000,-1.000000,49.000000,21.000000,-1.000000,-11.000000,-7.000000,14.000000
1298713.154659,0.000000,12.000000,4.000000,16.000000,0.000000,14.000000,15.000000,15.000000
1298713.169760,16.000000,8.000000,-1.000000,11.000000,9.000000,25.000000,47.000000,31.000000
1298713.169786,89.000000,37.000000,-7.000000,-24.000000,-11.000000,-14.000000,-12.000000,55.000000
1298713.170262,-128.000000,-39.000000,1.000000,-21.000000,-27.000000,-46.000000,-72.000000,-118.000000
1298713.170288,-12.000000,-46.000000,10.000000,16.000000,12.000000,14.000000,22.000000,2.000000
1298713.171774,-84.000000,-25.000000,2.000000,9.000000,6.000000,-4.000000,-8.000000,-11.000000
1298713.171794,20.000000,31.000000,7.000000,5.000000,5.000000,3.000000,2.000000,1.000000
1298713.193090,-19.000000,53.000000,-34.000000,-72.000000,-14.000000,-7.000000,-5.000000,-28.000000
1298713.193130,46.000000,15.000000,-43.000000,-5.000000,-1.000000,7.000000,16.000000,38.000000
1298713.194025,106.000000,97.000000,25.000000,4.000000,6.000000,22.000000,25.000000,50.000000
1298713.194196,-117.000000,-30.000000,-12.000000,33.000000,-11.000000,-31.000000,-35.000000,-58.000000
1298713.194691,-128.000000,-57.000000,-9.000000,-32.000000,-8.000000,-12.000000,-32.000000,-37.000000
1298713.194713,78.000000,11.000000,-16.000000,1.000000,5.000000,31.000000,60.000000,80.000000
1298713.207045,40.000000,-38.000000,-46.000000,-25.000000,-16.000000,-19.000000,-30.000000,-33.000000
1298713.207069,-32.000000,5.000000,18.000000,5.000000,4.000000,-2.000000,-7.000000,0.000000
1298713.214647,49.000000,42.000000,29.000000,28.000000,9.000000,12.000000,15.000000,21.000000
1298713.214689,122.000000,-12.000000,-4.000000,40.000000,16.000000,6.000000,10.000000,31.000000
1298713.244507,-128.000000,-45.000000,-61.000000,-110.000000,-41.000000,-23.000000,-20.000000,-55.000000
1298713.244557,27.000000,8.000000,-27.000000,7.000000,2.000000,-4.000000,5.000000,27.000000
1298713.252013,10.000000,24.000000,26.000000,-19.000000,-10.000000,1.000000,8.000000,22.000000
1298713.252064,-28.000000,-18.000000,-17.000000,-9.000000,-8.000000,-11.000000,-10.000000,-25.000000
1298713.282181,68.000000,17.000000,19.000000,19.000000,11.000000,5.000000,7.000000,16.000000
1298713.282238,-64.000000,17.000000,12.000000,7.000000,-4.000000,-8.000000,-21.000000,-37.000000
1298713.290002,29.000000,15.000000,22.000000,11.000000,16.000000,12.000000,22.000000,19.000000
1298713.290030,2.000000,-25.000000,-10.000000,-8.000000,-6.000000,-5.000000,7.000000,4.000000
1298713.319576,-5.000000,43.000000,36.000000,21.000000,2.000000,1.000000,9.000000,13.000000
1298713.319626,23.000000,-38.000000,-11.000000,14.000000,7.000000,5.000000,10.000000,22.000000
1298713.321087,119.000000,35.000000,-1.000000,13.000000,12.000000,18.000000,42.000000,65.000000
1298713.321114,-128.000000,-19.000000,9.000000,-46.000000,-28.000000,-35.000000,-71.000000,-39.000000
1298713.321654,51.000000,61.000000,30.000000,13.000000,14.000000,23.000000,40.000000,53.000000
1298713.321676,19.000000,-37.000000,-35.000000,-22.000000,-14.000000,-31.000000,-26.000000,-36.000000
1298713.323009,-46.000000,-30.000000,8.000000,32.000000,3.000000,-5.000000,-15.000000,-14.000000
1298713.323052,33.000000,-19.000000,-20.000000,-26.000000,0.000000,10.000000,15.000000,17.000000
1298713.326996,2.000000,-11.000000,26.000000,25.000000,6.000000,3.000000,1.000000,-5.000000
1298713.327138,62.000000,34.000000,-10.000000,-14.000000,-7.000000,4.000000,10.000000,22.000000
1298713.341755,-40.000000,5.000000,5.000000,9.000000,0.000000,1.000000,-1.000000,-7.000000
1298713.341780,-40.000000,34.000000,21.000000,12.000000,-3.000000,-10.000000,-23.000000,-29.000000
1298713.357054,33.000000,-64.000000,-66.000000,-6.000000,6.000000,0.000000,0.000000,22.000000
1298713.357102,-2.000000,-15.000000,-27.000000,-4.000000,-20.000000,-30.000000,-41.000000,-61.000000
1298713.364711,-35.000000,-14.000000,29.000000,-4.000000,-7.000000,3.000000,15.000000,1.000000
1298713.364749,-13.000000,13.000000,7.000000,22.000000,13.000000,16.000000,22.000000,16.000000
1298713.387219,107.000000,31.000000,-40.000000,-31.000000,-1.000000,26.000000,63.000000,85.000000
1298713.387245,-59.000000,-20.000000,2.000000,5.000000,-13.000000,-33.000000,-63.000000,-44.000000
1298713.394295,36.000000,7.000000,-6.000000,33.000000,13.000000,21.000000,31.000000,43.000000
1298713.394344,19.000000,-15.000000,-20.000000,-37.000000,-8.000000,3.000000,22.000000,5.000000
1298713.396682,-60.000000,-12.000000,-6.000000,-6.000000,-7.000000,-10.000000,-20.000000,-39.000000
1298713.396729,50.000000,22.000000,28.000000,27.000000,4.000000,4.000000,6.000000,8.000000
1298713.397500,-51.000000,62.000000,-10.000000,-1.000000,10.000000,6.000000,1.000000,-10.000000
1298713.397550,33.000000,-72.000000,-27.000000,-15.000000,-14.000000,-6.000000,-13.000000,-13.000000
1298713.403492,21.000000,14.000000,-16.000000,-19.000000,-3.000000,6.000000,19.000000,32.000000
1298713.403538,-25.000000,-74.000000,-46.000000,4.000000,4.000000,-16.000000,-28.000000,-48.000000
1298713.424881,-23.000000,65.000000,-13.000000,4.000000,-8.000000,-7.000000,-24.000000,-27.000000
1298713.424907,-1.000000,-49.000000,-17.000000,-18.000000,-3.000000,7.000000,8.000000,21.000000
1298713.439488,65.000000,25.000000,34.000000,17.000000,10.000000,10.000000,25.000000,40.000000
1298713.439548,33.000000,0.000000,26.000000,28.000000,8.000000,19.000000,36.000000,24.000000
1298713.446954,-60.000000,-30.000000,-59.000000,-44.000000,-5.000000,-5.000000,-19.000000,-20.000000
1298713.447004,10.000000,29.000000,21.000000,8.000000,-4.000000,-3.000000,3.000000,13.000000
1298713.477190,111.000000,19.000000,-3.000000,13.000000,5.000000,4.000000,5.000000,14.000000
1298713.477241,-101.000000,-18.000000,-34.000000,9.000000,6.000000,9.000000,14.000000,12.000000
1298713.484993,48.000000,-3.000000,14.000000,-15.000000,-5.000000,-3.000000,3.000000,9.000000
1298713.485020,-22.000000,0.000000,-25.000000,-16.000000,-7.000000,-5.000000,-3.000000,18.000000
1298713.514450,30.000000,15.000000,12.000000,40.000000,4.000000,-10.000000,-25.000000,-12.000000
1298713.514498,54.000000,-37.000000,-33.000000,-54.000000,-10.000000,0.000000,6.000000,-6.000000
1298713.521789,-128.000000,-29.000000,-25.000000,-35.000000,-5.000000,-8.000000,-11.000000,-30.000000
1298713.521838,0.000000,13.000000,61.000000,24.000000,-1.000000,-10.000000,-15.000000,5.000000
1298713.553913,-5.000000,35.000000,21.000000,22.000000,6.000000,5.000000,6.000000,7.000000
1298713.554324,47.000000,38.000000,28.000000,36.000000,12.000000,4.000000,0.000000,18.000000
1298713.554563,60.000000,-37.000000,-33.000000,2.000000,-5.000000,-11.000000,-13.000000,-8.000000
1298713.554608,-124.000000,-20.000000,6.000000,-19.000000,-11.000000,-13.000000,-19.000000,-33.000000
1298713.555619,99.000000,32.000000,-17.000000,4.000000,7.000000,20.000000,28.000000,34.000000
1298713.555641,3.000000,-22.000000,-37.000000,-79.000000,-13.000000,-7.000000,-5.000000,-19.000000
1298713.555792,53.000000,18.000000,32.000000,24.000000,8.000000,13.000000,28.000000,37.000000
1298713.555829,40.000000,11.000000,16.000000,14.000000,13.000000,4.000000,6.000000,18.000000
1298713.567134,38.000000,12.000000,23.000000,41.000000,12.000000,7.000000,6.000000,13.000000
1298713.567182,57.000000,48.000000,9.000000,59.000000,20.000000,15.000000,23.000000,49.000000
1298713.575222,43.000000,-128.000000,-111.000000,-122.000000,-36.000000,-54.000000,-67.000000,-72.000000
1298713.575264,-128.000000,-26.000000,31.000000,7.000000,-2.000000,1.000000,-12.000000,-53.000000
1298713.589826,46.000000,54.000000,68.000000,55.000000,18.000000,24.000000,32.000000,35.000000
1298713.589880,96.000000,98.000000,42.000000,35.000000,13.000000,12.000000,19.000000,40.000000
1298713.597269,-29.000000,-43.000000,13.000000,23.000000,11.000000,6.000000,9.000000,3.000000
1298713.597314,-16.000000,-4.000000,4.000000,12.000000,3.000000,1.000000,3.000000,-13.000000
1298713.627454,12.000000,19.000000,-10.000000,-24.000000,-10.000000,-6.000000,-7.000000,0.000000
1298713.627484,-17.000000,-11.000000,-13.000000,3.000000,8.000000,1.000000,7.000000,22.000000
1298713.634738,-54.000000,-8.000000,-4.000000,2.000000,-4.000000,2.000000,6.000000,-14.000000
1298713.634764,-22.000000,-40.000000,-37.000000,-33.000000,-22.000000,-22.000000,-39.000000,-10.000000
1298713.672818,-10.000000,21.000000,13.000000,16.000000,1.000000,4.000000,-2.000000,-15.000000
1298713.673214,7.000000,48.000000,-15.000000,6.000000,3.000000,-9.000000,-5.000000,15.000000
1298713.674337,2.000000,-36.000000,-16.000000,-30.000000,-19.000000,-8.000000,11.000000,8.000000
1298713.674536,-63.000000,-36.000000,4.000000,-5.000000,-12.000000,-24.000000,-59.000000,-76.000000
1298713.675677,26.000000,22.000000,3.000000,-3.000000,-8.000000,7.000000,14.000000,31.000000
1298713.676180,2.000000,-77.000000,-40.000000,7.000000,0.000000,-5.000000,-2.000000,-17.000000
1298713.677484,50.000000,33.000000,46.000000,32.000000,10.000000,6.000000,0.000000,-9.000000
1298713.677529,-83.000000,-9.000000,-22.000000,-9.000000,-6.000000,4.000000,0.000000,-9.000000
1298713.677800,10.000000,30.000000,5.000000,1.000000,-10.000000,-15.000000,-12.000000,-1.000000
1298713.677864,-33.000000,-25.000000,-8.000000,-1.000000,4.000000,2.000000,7.000000,-3.000000
1298713.702541,40.000000,0.000000,0.000000,5.000000,-8.000000,-14.000000,-30.000000,-29.000000
1298713.702569,-128.000000,-19.000000,-35.000000,-20.000000,-9.000000,-2.000000,5.000000,-11.000000
1298713.709618,-24.000000,-64.000000,-34.000000,12.000000,-12.000000,-18.000000,-28.000000,-17.000000
1298713.709659,36.000000,57.000000,41.000000,-2.000000,-4.000000,-4.000000,-2.000000,25.000000
1298713.724875,24.000000,-1.000000,-32.000000,-4.000000,3.000000,1.000000,-2.000000,-11.000000
1298713.724915,-6.000000,1.000000,-3.000000,-28.000000,-11.000000,-6.000000,-7.000000,-3.000000
1298713.747570,33.000000,2.000000,16.000000,21.000000,7.000000,11.000000,31.000000,31.000000
1298713.747618,-27.000000,2.000000,-6.000000,31.000000,12.000000,5.000000,-3.000000,-11.000000
1298713.762628,-13.000000,-6.000000,-8.000000,1.000000,-10.000000,-10.000000,-13.000000,5.000000
1298713.762659,37.000000,12.000000,-6.000000,-12.000000,-7.000000,-3.000000,-10.000000,-22.000000
1298713.792775,-82.000000,-25.000000,-21.000000,-38.000000,-15.000000,-22.000000,-27.000000,-42.000000
1298713.793264,-20.000000,1.000000,-2.000000,20.000000,11.000000,17.000000,15.000000,17.000000
1298713.795768,96.000000,32.000000,38.000000,46.000000,13.000000,15.000000,32.000000,31.000000
1298713.795827,-107.000000,-63.000000,-38.000000,-63.000000,-21.000000,-25.000000,-37.000000,-63.000000
1298713.796342,26.000000,-20.000000,-7.000000,0.000000,-7.000000,-11.000000,-15.000000,-13.000000
1298713.796361,-32.000000,19.000000,16.000000,25.000000,7.000000,0.000000,2.000000,1.000000
1298713.796457,-38.000000,-14.000000,22.000000,30.000000,10.000000,12.000000,17.000000,21.000000
1298713.796473,95.000000,58.000000,19.000000,-21.000000,-1.000000,-5.000000,-17.000000,-22.000000
1298713.814652,108.000000,10.000000,-6.000000,13.000000,4.000000,-7.000000,-12.000000,10.000000
1298713.814700,-59.000000,-21.000000,-19.000000,-48.000000,-14.000000,1.000000,4.000000,-4.000000
1298713.829920,-100.000000,-9.000000,-2.000000,-3.000000,-13.000000,-18.000000,-25.000000,-31.000000
1298713.829978,15.000000,-6.000000,-3.000000,22.000000,9.000000,11.000000,3.000000,-5.000000
1298713.844881,48.000000,1.000000,-24.000000,-53.000000,-8.000000,16.000000,17.000000,13.000000
1298713.844938,25.000000,12.000000,0.000000,4.000000,-9.000000,-8.000000,-13.000000,7.000000
1298713.852211,-23.000000,-13.000000,6.000000,32.000000,14.000000,-12.000000,-22.000000,-22.000000
1298713.852263,-9.000000,-18.000000,-3.000000,-24.000000,-3.000000,3.000000,18.000000,17.000000
1298713.874689,39.000000,0.000000,7.000000,-20.000000,5.000000,7.000000,4.000000,3.000000
1298713.874743,3.000000,21.000000,32.000000,28.000000,10.000000,15.000000,28.000000,24.000000
1298713.882065,34.000000,13.000000,-3.000000,59.000000,2.000000,-15.000000,-12.000000,-6.000000
1298713.882563,33.000000,12.000000,1.000000,-39.000000,-18.000000,12.000000,20.000000,52.000000
1298713.884319,-86.000000,-34.000000,-51.000000,-36.000000,-1.000000,-7.000000,-7.000000,-26.000000
1298713.884369,73.000000,6.000000,-26.000000,3.000000,-15.000000,-17.000000,-11.000000,-9.000000
1298713.885808,-41.000000,-1.000000,0.000000,-1.000000,5.000000,14.000000,7.000000,4.000000
1298713.885926,49.000000,15.000000,-4.000000,-1.000000,-4.000000,-2.000000,13.000000,22.000000
1298713.886320,-36.000000,-19.000000,-13.000000,10.000000,-5.000000,-20.000000,-23.000000,-24.000000
1298713.886360,-9.000000,3.000000,-7.000000,-56.000000,-16.000000,3.000000,5.000000,7.000000
1298713.904884,-6.000000,3.000000,6.000000,12.000000,8.000000,13.000000,11.000000,24.000000
1298713.904999,21.000000,-9.000000,31.000000,23.000000,5.000000,0.000000,5.000000,-2.000000
1298713.906098,8.000000,1.000000,-28.000000,-18.000000,-11.000000,0.000000,5.000000,1.000000
1298713.906121,-5.000000,-14.000000,-5.000000,32.000000,3.000000,0.000000,0.000000,-10.000000
1298713.911939,-108.000000,0.000000,-1.000000,-35.000000,-6.000000,-11.000000,-23.000000,-15.000000
1298713.911971,70.000000,14.000000,39.000000,19.000000,-3.000000,-9.000000,0.000000,-10.000000
1298713.934548,-39.000000,4.000000,12.000000,15.000000,0.000000,-2.000000,-21.000000,-30.000000
1298713.934609,45.000000,49.000000,16.000000,-14.000000,17.000000,21.000000,9.000000,-4.000000
1298713.949786,34.000000,-5.000000,-17.000000,3.000000,3.000000,7.000000,22.000000,61.000000
1298713.949812,-52.000000,-2.000000,-2.000000,16.000000,3.000000,-10.000000,-23.000000,-18.000000
1298713.995018,85.000000,62.000000,6.000000,-36.000000,-5.000000,11.000000,19.000000,24.000000
1298713.995471,6.000000,-18.000000,7.000000,-5.000000,6.000000,-2.000000,-13.000000,-21.000000
1298713.995814,7.000000,-3.000000,4.000000,-5.000000,-4.000000,-4.000000,-17.000000,10.000000
1298713.995855,62.000000,-11.000000,-2.000000,5.000000,-3.000000,-7.000000,-24.000000,-28.000000
1298713.997814,-11.000000,121.000000,23.000000,12.000000,-10.000000,-3.000000,8.000000,21.000000
1298713.997846,32.000000,18.000000,26.000000,17.000000,14.000000,19.000000,37.000000,52.000000
1298713.998512,61.000000,4.000000,8.000000,-24.000000,-3.000000,-1.000000,17.000000,11.000000
1298713.998534,-55.000000,20.000000,-8.000000,14.000000,2.000000,-3.000000,-9.000000,-9.000000
1298713.999455,7.000000,-77.000000,-45.000000,-3.000000,0.000000,6.000000,12.000000,16.000000
1298713.999501,-4.000000,127.000000,36.000000,2.000000,-4.000000,-7.000000,-25.000000,-11.000000
1298714.025030,23.000000,49.000000,27.000000,26.000000,10.000000,11.000000,8.000000,19.000000
1298714.025071,72.000000,39.000000,-51.000000,-33.000000,-19.000000,-11.000000,7.000000,22.000000
1298714.025840,-1.000000,-14.000000,2.000000,47.000000,7.000000,2.000000,-13.000000,-19.000000
1298714.026068,1.000000,35.000000,33.000000,-12.000000,-3.000000,15.000000,7.000000,9.000000
1298714.026851,6.000000,-55.000000,-51.000000,-4.000000,-2.000000,-18.000000,-31.000000,-26.000000
1298714.026896,-13.000000,18.000000,4.000000,11.000000,5.000000,5.000000,-5.000000,-19.000000
1298714.069696,-15.000000,-3.000000,22.000000,42.000000,20.000000,22.000000,28.000000,49.000000
1298714.069722,47.000000,17.000000,9.000000,-18.000000,-21.000000,-33.000000,-40.000000,-29.000000
1298714.084540,-53.000000,19.000000,2.000000,-29.000000,-7.000000,5.000000,-3.000000,-17.000000
1298714.084599,26.000000,-7.000000,-11.000000,-14.000000,1.000000,-8.000000,-29.000000,-37.000000
1298714.107285,80.000000,22.000000,16.000000,26.000000,2.000000,0.000000,5.000000,4.000000
1298714.107312,-128.000000,-20.000000,-11.000000,0.000000,-12.000000,-16.000000,-25.000000,-48.000000
1298714.122024,16.000000,-36.000000,3.000000,8.000000,-2.000000,-3.000000,-18.000000,-29.000000
1298714.122051,47.000000,4.000000,-27.000000,-25.000000,3.000000,4.000000,6.000000,1.000000
1298714.144794,-52.000000,-58.000000,-68.000000,-21.000000,-13.000000,-5.000000,-13.000000,-24.000000
1298714.144823,19.000000,26.000000,19.000000,12.000000,-1.000000,-11.000000,-22.000000,14.000000
1298714.152718,-28.000000,-7.000000,8.000000,12.000000,5.000000,4.000000,10.000000,-3.000000
1298714.153090,19.000000,30.000000,43.000000,44.000000,7.000000,-1.000000,-16.000000,-20.000000
1298714.154088,38.000000,23.000000,-36.000000,-62.000000,0.000000,6.000000,10.000000,10.000000
1298714.154377,44.000000,2.000000,1.000000,-20.000000,-15.000000,1.000000,6.000000,8.000000
1298714.155588,-31.000000,34.000000,44.000000,33.000000,13.000000,-2.000000,-14.000000,-12.000000
1298714.155647,59.000000,72.000000,15.000000,2.000000,-1.000000,11.000000,18.000000,13.000000
1298714.156472,27.000000,85.000000,-15.000000,-23.000000,-6.000000,9.000000,22.000000,11.000000
1298714.156519,27.000000,-35.000000,23.000000,10.000000,-3.000000,-6.000000,-18.000000,-12.000000
1298714.160060,-18.000000,-21.000000,-15.000000,1.000000,3.000000,-3.000000,-12.000000,-20.000000
1298714.160084,-17.000000,-68.000000,-24.000000,11.000000,1.000000,17.000000,40.000000,64.000000
1298714.182459,13.000000,-15.000000,-35.000000,-45.000000,-19.000000,-19.000000,-21.000000,4.000000
1298714.182489,15.000000,-8.000000,16.000000,3.000000,1.000000,-4.000000,-2.000000,-23.000000
1298714.189786,22.000000,15.000000,28.000000,44.000000,10.000000,-1.000000,-25.000000,-29.000000
1298714.189869,60.000000,49.000000,-11.000000,-31.000000,-5.000000,11.000000,25.000000,52.000000
1298714.212023,-5.000000,-59.000000,-22.000000,-1.000000,1.000000,-9.000000,-1.000000,4.000000
1298714.212198,-50.000000,-89.000000,-47.000000,-85.000000,-26.000000,-21.000000,-33.000000,-62.000000
1298714.219463,1.000000,-21.000000,5.000000,17.000000,4.000000,4.000000,9.000000,9.000000
1298714.219488,9.000000,13.000000,-16.000000,6.000000,7.000000,11.000000,15.000000,13.000000
1298714.228076,21.000000,-5.000000,8.000000,-16.000000,-9.000000,-26.000000,-35.000000,-15.000000
1298714.228407,-11.000000,5.000000,0.000000,15.000000,-3.000000,2.000000,9.000000,13.000000
1298714.228877,38.000000,10.000000,-4.000000,-23.000000,4.000000,17.000000,18.000000,18.000000
1298714.229090,6.000000,-7.000000,4.000000,21.000000,3.000000,-6.000000,4.000000,-4.000000
1298714.229670,-20.000000,-4.000000,7.000000,-19.000000,-13.000000,-8.000000,-4.000000,-9.000000
1298714.229735,64.000000,36.000000,3.000000,22.000000,11.000000,11.000000,9.000000,6.000000
1298714.234598,-68.000000,-59.000000,-31.000000,-11.000000,-10.000000,1.000000,13.000000,19.000000
1298714.234634,45.000000,-17.000000,-24.000000,-30.000000,-7.000000,3.000000,15.000000,28.000000
1298714.266596,-14.000000,63.000000,30.000000,5.000000,8.000000,-7.000000,-12.000000,-3.000000
1298714.266898,-44.000000,-23.000000,-20.000000,0.000000,8.000000,7.000000,-2.000000,-22.000000
1298714.267476,-116.000000,-28.000000,-18.000000,-12.000000,-21.000000,-13.000000,-8.000000,-29.000000
1298714.267531,42.000000,36.000000,-46.000000,-27.000000,-7.000000,0.000000,7.000000,24.000000
1298714.268357,-3.000000,21.000000,53.000000,15.000000,0.000000,-4.000000,1.000000,-5.000000
1298714.268410,27.000000,65.000000,-16.000000,7.000000,3.000000,5.000000,7.000000,9.000000
1298714.302670,27.000000,-28.000000,-34.000000,-29.000000,-7.000000,5.000000,11.000000,22.000000
1298714.302719,-9.000000,17.000000,66.000000,27.000000,2.000000,-7.000000,-14.000000,-22.000000
1298714.317180,25.000000,4.000000,-64.000000,-5.000000,6.000000,11.000000,2.000000,-8.000000
1298714.317230,-33.000000,-29.000000,-68.000000,-35.000000,-12.000000,-11.000000,-2.000000,10.000000
1298714.324330,45.000000,14.000000,11.000000,5.000000,-5.000000,12.000000,25.000000,32.000000
1298714.324467,-75.000000,6.000000,44.000000,47.000000,15.000000,-4.000000,-6.000000,-5.000000
1298714.348793,25.000000,44.000000,-12.000000,5.000000,-4.000000,-15.000000,-40.000000,-39.000000
1298714.348833,-76.000000,-30.000000,-85.000000,-86.000000,-22.000000,6.000000,15.000000,0.000000
1298714.350006,46.000000,9.000000,81.000000,41.000000,9.000000,10.000000,5.000000,-1.000000
1298714.350044,42.000000,8.000000,5.000000,28.000000,9.000000,-14.000000,-26.000000,-17.000000
1298714.350736,-27.000000,20.000000,28.000000,-51.000000,-7.000000,23.000000,45.000000,64.000000
1298714.350768,11.000000,-18.000000,29.000000,24.000000,6.000000,1.000000,-8.000000,-25.000000
1298714.350974,15.000000,24.000000,-7.000000,-3.000000,0.000000,14.000000,19.000000,3.000000
1298714.351016,17.000000,-22.000000,96.000000,67.000000,17.000000,2.000000,-9.000000,2.000000
1298714.354650,21.000000,-20.000000,-42.000000,-18.000000,0.000000,-2.000000,8.000000,-3.000000
1298714.354693,-31.000000,-33.000000,64.000000,24.000000,9.000000,14.000000,35.000000,26.000000
1298714.369802,42.000000,-10.000000,-27.000000,1.000000,-12.000000,-22.000000,-57.000000,-29.000000
1298714.369838,-30.000000,24.000000,92.000000,46.000000,18.000000,12.000000,13.000000,-11.000000
1298714.384969,0.000000,-47.000000,-128.000000,-74.000000,-22.000000,-10.000000,-7.000000,12.000000
1298714.385447,-22.000000,-16.000000,54.000000,8.000000,-5.000000,-11.000000,-21.000000,-29.000000
1298714.386884,-54.000000,-13.000000,-4.000000,-3.000000,-9.000000,-3.000000,0.000000,-9.000000
1298714.386959,14.000000,42.000000,82.000000,79.000000,25.000000,22.000000,16.000000,18.000000
1298714.402312,28.000000,21.000000,-76.000000,-102.000000,-20.000000,-9.000000,-9.000000,-3.000000
1298714.402438,-37.000000,-24.000000,12.000000,-9.000000,-7.000000,1.000000,3.000000,-8.000000
1298714.414745,3.000000,19.000000,32.000000,22.000000,3.000000,3.000000,5.000000,12.000000
1298714.414787,53.000000,87.000000,78.000000,56.000000,16.000000,16.000000,5.000000,15.000000
1298714.422178,-13.000000,-27.000000,-42.000000,10.000000,-1.000000,-1.000000,-7.000000,-7.000000
1298714.422224,67.000000,13.000000,-20.000000,-15.000000,4.000000,10.000000,38.000000,55.000000
1298714.452211,-113.000000,30.000000,51.000000,-5.000000,-11.000000,-42.000000,-111.000000,-128.000000
1298714.452316,-7.000000,-31.000000,-115.000000,-18.000000,-9.000000,-5.000000,5.000000,23.000000
1298714.460260,35.000000,10.000000,42.000000,-22.000000,-6.000000,6.000000,19.000000,8.000000
1298714.460526,-24.000000,50.000000,11.000000,19.000000,13.000000,19.000000,38.000000,36.000000
1298714.461234,-49.000000,2.000000,41.000000,24.000000,2.000000,-15.000000,-16.000000,-25.000000
1298714.461274,21.000000,26.000000,19.000000,13.000000,5.000000,-2.000000,1.000000,0.000000
1298714.467062,1.000000,-33.000000,-7.000000,-20.000000,-7.000000,7.000000,16.000000,4.000000
1298714.467335,55.000000,26.000000,-3.000000,6.000000,0.000000,3.000000,-4.000000,-9.000000
1298714.468970,28.000000,22.000000,20.000000,41.000000,13.000000,2.000000,-8.000000,-38.000000
1298714.468995,-5.000000,-102.000000,6.000000,39.000000,26.000000,1.000000,-6.000000,4.000000
1298714.474435,28.000000,5.000000,-39.000000,-85.000000,-6.000000,12.000000,17.000000,39.000000
1298714.474484,-38.000000,89.000000,46.000000,16.000000,-14.000000,-24.000000,-29.000000,-44.000000
1298714.504434,-17.000000,-77.000000,-103.000000,0.000000,7.000000,19.000000,30.000000,25.000000
1298714.504487,-8.000000,-26.000000,12.000000,-11.000000,-8.000000,2.000000,12.000000,-10.000000
1298714.505635,-7.000000,-21.000000,-31.000000,-5.000000,-3.000000,-4.000000,-6.000000,-3.000000
1298714.505691,66.000000,43.000000,21.000000,0.000000,3.000000,-2.000000,-21.000000,3.000000
1298714.507358,-17.000000,-31.000000,6.000000,11.000000,2.000000,-6.000000,-8.000000,-37.000000
1298714.507405,8.000000,-1.000000,29.000000,51.000000,15.000000,5.000000,10.000000,3.000000
1298714.542214,-26.000000,-31.000000,-50.000000,-79.000000,-23.000000,-8.000000,-5.000000,-9.000000
1298714.542244,6.000000,33.000000,33.000000,36.000000,9.000000,-3.000000,-14.000000,-22.000000
1298714.557078,-36.000000,-13.000000,-20.000000,-35.000000,-11.000000,-5.000000,-6.000000,1.000000
1298714.557190,32.000000,25.000000,57.000000,23.000000,5.000000,5.000000,3.000000,14.000000
1298714.579733,30.000000,40.000000,40.000000,19.000000,15.000000,-3.000000,-3.000000,-10.000000
1298714.579793,9.000000,-10.000000,22.000000,18.000000,-1.000000,13.000000,35.000000,19.000000
1298714.594546,-5.000000,62.000000,-15.000000,-27.000000,-7.000000,-16.000000,-29.000000,-10.000000
1298714.594602,40.000000,-32.000000,-47.000000,-30.000000,-20.000000,-17.000000,-5.000000,1.000000
1298714.602271,-19.000000,14.000000,14.000000,2.000000,0.000000,-2.000000,-3.000000,12.000000
1298714.602323,-10.000000,-8.000000,-11.000000,11.000000,4.000000,-8.000000,-29.000000,-15.000000
1298714.624834,-15.000000,47.000000,-25.000000,-2.000000,-10.000000,0.000000,13.000000,8.000000
1298714.624885,-57.000000,-104.000000,-45.000000,-15.000000,-1.000000,-5.000000,-7.000000,-12.000000
1298714.632276,28.000000,12.000000,6.000000,17.000000,5.000000,12.000000,23.000000,6.000000
1298714.632334,36.000000,-17.000000,4.000000,-32.000000,-19.000000,-20.000000,-17.000000,-18.000000
1298714.639885,47.000000,1.000000,-3.000000,21.000000,-1.000000,-5.000000,-21.000000,-30.000000
1298714.639944,21.000000,72.000000,32.000000,24.000000,4.000000,7.000000,23.000000,26.000000
1298714.641870,-7.000000,36.000000,45.000000,19.000000,7.000000,4.000000,21.000000,20.000000
1298714.641917,40.000000,-50.000000,-77.000000,-40.000000,-1.000000,-4.000000,7.000000,12.000000
1298714.643274,-44.000000,18.000000,18.000000,-22.000000,-7.000000,-6.000000,-8.000000,1.000000
1298714.643299,64.000000,8.000000,7.000000,-11.000000,-3.000000,5.000000,-2.000000,8.000000
1298714.662417,35.000000,21.000000,0.000000,23.000000,3.000000,5.000000,10.000000,16.000000
1298714.662476,-128.000000,-47.000000,-27.000000,5.000000,0.000000,-6.000000,4.000000,-22.000000
1298714.669779,-4.000000,51.000000,11.000000,-34.000000,-11.000000,-8.000000,-7.000000,27.000000
1298714.669805,12.000000,-60.000000,-35.000000,3.000000,-9.000000,-23.000000,-28.000000,1.000000
1298714.699467,-67.000000,7.000000,-1.000000,4.000000,1.000000,4.000000,3.000000,-5.000000
1298714.699493,-19.000000,25.000000,0.000000,-7.000000,-3.000000,10.000000,26.000000,19.000000
1298714.706828,116.000000,18.000000,17.000000,18.000000,1.000000,-14.000000,-27.000000,-3.000000
1298714.706875,-38.000000,43.000000,127.000000,57.000000,8.000000,10.000000,-1.000000,-20.000000
1298714.737070,-102.000000,-78.000000,-128.000000,-128.000000,-36.000000,-15.000000,-18.000000,-67.000000
1298714.737122,55.000000,20.000000,53.000000,46.000000,21.000000,12.000000,20.000000,33.000000
1298714.744831,42.000000,-6.000000,0.000000,-29.000000,-6.000000,-6.000000,-16.000000,-16.000000
1298714.744886,6.000000,44.000000,124.000000,38.000000,9.000000,14.000000,15.000000,17.000000
1298714.753278,35.000000,-29.000000,-34.000000,32.000000,14.000000,18.000000,15.000000,5.000000
1298714.753599,-71.000000,-12.000000,-30.000000,-56.000000,-24.000000,-26.000000,-37.000000,-66.000000
1298714.753809,76.000000,13.000000,36.000000,47.000000,14.000000,8.000000,17.000000,51.000000
1298714.753834,-128.000000,-62.000000,-1.000000,-37.000000,-13.000000,-14.000000,-40.000000,-80.000000
1298714.755029,20.000000,-15.000000,21.000000,10.000000,6.000000,1.000000,-17.000000,3.000000
1298714.755078,-2.000000,-10.000000,-39.000000,-2.000000,-5.000000,-1.000000,17.000000,13.000000
1298714.782271,74.000000,16.000000,-13.000000,-18.000000,0.000000,1.000000,6.000000,9.000000
1298714.782304,-128.000000,-54.000000,59.000000,12.000000,-5.000000,-8.000000,-25.000000,-68.000000
1298714.820425,23.000000,-5.000000,-11.000000,34.000000,22.000000,9.000000,17.000000,24.000000
1298714.820479,80.000000,25.000000,-22.000000,-68.000000,-23.000000,-3.000000,-5.000000,-14.000000
1298714.820995,-110.000000,11.000000,4.000000,25.000000,-10.000000,-35.000000,-52.000000,-46.000000
1298714.821023,-21.000000,-51.000000,-59.000000,-28.000000,-2.000000,0.000000,31.000000,10.000000
1298714.822869,22.000000,6.000000,41.000000,30.000000,5.000000,3.000000,0.000000,21.000000
1298714.822959,-52.000000,-41.000000,-28.000000,-15.000000,-14.000000,-19.000000,-17.000000,-35.000000
1298714.823295,-108.000000,-25.000000,-30.000000,-42.000000,-5.000000,-9.000000,-15.000000,-33.000000
1298714.823343,18.000000,11.000000,-9.000000,10.000000,9.000000,10.000000,15.000000,8.000000
1298714.824578,12.000000,9.000000,44.000000,21.000000,5.000000,-4.000000,2.000000,8.000000
1298714.824627,-29.000000,25.000000,-11.000000,-24.000000,-15.000000,-6.000000,-6.000000,2.000000
1298714.826910,61.000000,35.000000,9.000000,27.000000,-1.000000,0.000000,-1.000000,20.000000
1298714.826961,-43.000000,-29.000000,-7.000000,-22.000000,-2.000000,-2.000000,13.000000,-25.000000
1298714.849205,-8.000000,10.000000,30.000000,4.000000,-6.000000,-6.000000,-9.000000,3.000000
1298714.849253,30.000000,21.000000,-29.000000,4.000000,2.000000,-5.000000,-21.000000,-3.000000
1298714.857770,17.000000,26.000000,9.000000,15.000000,3.000000,4.000000,8.000000,15.000000
1298714.858126,-43.000000,-4.000000,81.000000,-3.000000,14.000000,17.000000,12.000000,-7.000000
1298714.858959,40.000000,-12.000000,-22.000000,-6.000000,-6.000000,-5.000000,3.000000,14.000000
1298714.858996,-33.000000,2.000000,1.000000,-3.000000,-5.000000,-1.000000,-4.000000,10.000000
1298714.864635,81.000000,87.000000,91.000000,95.000000,25.000000,15.000000,29.000000,41.000000
1298714.864659,-114.000000,-128.000000,-128.000000,-128.000000,-57.000000,-55.000000,-61.000000,-30.000000
1298714.886881,107.000000,11.000000,10.000000,-1.000000,-4.000000,-7.000000,-19.000000,-32.000000
1298714.886933,-86.000000,55.000000,24.000000,10.000000,-1.000000,2.000000,1.000000,-13.000000
1298714.901948,55.000000,30.000000,11.000000,18.000000,11.000000,14.000000,29.000000,41.000000
1298714.901999,1.000000,79.000000,7.000000,24.000000,11.000000,1.000000,0.000000,-9.000000
1298714.917286,6.000000,-73.000000,-13.000000,2.000000,-4.000000,-5.000000,0.000000,-4.000000
1298714.917316,74.000000,11.000000,-15.000000,14.000000,18.000000,23.000000,28.000000,52.000000
1298714.939837,-14.000000,-4.000000,-8.000000,17.000000,-1.000000,-2.000000,-7.000000,-35.000000
1298714.939866,-120.000000,-27.000000,35.000000,-6.000000,-10.000000,-24.000000,-39.000000,-49.000000
1298714.949098,19.000000,-12.000000,19.000000,-30.000000,-11.000000,7.000000,29.000000,55.000000
1298714.949142,49.000000,22.000000,56.000000,25.000000,-1.000000,-11.000000,-19.000000,0.000000
1298714.949408,-28.000000,-11.000000,-51.000000,47.000000,16.000000,13.000000,26.000000,11.000000
1298714.949449,40.000000,-5.000000,-92.000000,-100.000000,-35.000000,-14.000000,-15.000000,-14.000000
1298714.950860,-69.000000,-73.000000,-44.000000,-9.000000,-12.000000,-16.000000,-14.000000,-33.000000
1298714.951061,10.000000,-43.000000,48.000000,61.000000,20.000000,11.000000,15.000000,12.000000
1298714.951323,-33.000000,20.000000,36.000000,-33.000000,-23.000000,-21.000000,-38.000000,-44.000000
1298714.951356,34.000000,15.000000,-7.000000,-6.000000,7.000000,4.000000,-8.000000,-19.000000
1298714.978062,-55.000000,10.000000,21.000000,19.000000,-2.000000,14.000000,34.000000,37.000000
1298714.978111,39.000000,26.000000,63.000000,52.000000,14.000000,6.000000,15.000000,29.000000
1298714.984507,-114.000000,-128.000000,-128.000000,-54.000000,-19.000000,-18.000000,3.000000,4.000000
1298714.984866,6.000000,10.000000,-6.000000,-6.000000,0.000000,10.000000,-5.000000,16.000000
1298714.986008,47.000000,45.000000,25.000000,-10.000000,10.000000,10.000000,21.000000,29.000000
1298714.986032,54.000000,-27.000000,4.000000,3.000000,-3.000000,6.000000,21.000000,33.000000
1298714.992172,15.000000,-26.000000,11.000000,21.000000,9.000000,-2.000000,20.000000,21.000000
1298714.992221,-102.000000,-53.000000,53.000000,-15.000000,-15.000000,-21.000000,-28.000000,-21.000000
1298715.021753,-86.000000,19.000000,8.000000,21.000000,6.000000,5.000000,5.000000,-13.000000
1298715.021778,63.000000,33.000000,17.000000,12.000000,19.000000,18.000000,25.000000,29.000000
1298715.029561,-22.000000,-5.000000,40.000000,-13.000000,-5.000000,-8.000000,-18.000000,-24.000000
1298715.029610,-14.000000,-21.000000,-36.000000,27.000000,-4.000000,-4.000000,-15.000000,-32.000000
1298715.059843,68.000000,20.000000,13.000000,-3.000000,11.000000,12.000000,22.000000,41.000000
1298715.059924,2.000000,-17.000000,-16.000000,-11.000000,-3.000000,2.000000,2.000000,7.000000
1298715.061519,54.000000,31.000000,46.000000,55.000000,14.000000,16.000000,15.000000,16.000000
1298715.061569,75.000000,-46.000000,-38.000000,-26.000000,-6.000000,-6.000000,-15.000000,5.000000
1298715.062720,-33.000000,116.000000,-47.000000,-57.000000,-16.000000,-12.000000,-12.000000,-21.000000
1298715.062755,-106.000000,49.000000,16.000000,6.000000,-2.000000,-2.000000,-15.000000,-41.000000
1298715.063495,-59.000000,-30.000000,-2.000000,1.000000,2.000000,11.000000,21.000000,23.000000
1298715.063532,63.000000,33.000000,32.000000,49.000000,16.000000,2.000000,9.000000,37.000000
1298715.063993,17.000000,-50.000000,-15.000000,-24.000000,-9.000000,-3.000000,-2.000000,-26.000000
1298715.064023,22.000000,-7.000000,-70.000000,-27.000000,1.000000,8.000000,19.000000,26.000000
1298715.067279,-28.000000,11.000000,-16.000000,-56.000000,-17.000000,-4.000000,-5.000000,-11.000000
1298715.067325,53.000000,33.000000,18.000000,23.000000,9.000000,18.000000,15.000000,18.000000
1298715.089654,-37.000000,-6.000000,32.000000,10.000000,-5.000000,-22.000000,-45.000000,-46.000000
1298715.089898,-57.000000,-25.000000,-31.000000,-2.000000,-7.000000,-15.000000,-18.000000,-15.000000
1298715.090539,-34.000000,-42.000000,-16.000000,-21.000000,-5.000000,3.000000,3.000000,-11.000000
1298715.090575,81.000000,47.000000,16.000000,46.000000,22.000000,19.000000,24.000000,62.000000
1298715.097721,-49.000000,-57.000000,-30.000000,-50.000000,-16.000000,-26.000000,-59.000000,-82.000000
1298715.097749,-71.000000,-24.000000,14.000000,13.000000,-5.000000,2.000000,-6.000000,-14.000000
1298715.134911,38.000000,-6.000000,-27.000000,1.000000,-8.000000,-3.000000,25.000000,45.000000
1298715.134963,63.000000,-25.000000,-80.000000,-64.000000,-20.000000,-18.000000,-30.000000,-37.000000
1298715.149531,-62.000000,0.000000,18.000000,13.000000,2.000000,2.000000,0.000000,-25.000000
1298715.149580,-35.000000,-4.000000,-26.000000,8.000000,-5.000000,6.000000,0.000000,4.000000
1298715.179703,34.000000,30.000000,17.000000,29.000000,-1.000000,-1.000000,8.000000,15.000000
1298715.179732,-16.000000,-28.000000,-19.000000,-29.000000,1.000000,-9.000000,-17.000000,-24.000000
1298715.194448,-32.000000,27.000000,15.000000,0.000000,0.000000,5.000000,6.000000,-6.000000
1298715.194498,-6.000000,-67.000000,-76.000000,-27.000000,-14.000000,-29.000000,-23.000000,-32.000000
1298715.217740,24.000000,13.000000,19.000000,10.000000,10.000000,7.000000,19.000000,21.000000
1298715.217790,5.000000,13.000000,13.000000,-15.000000,-12.000000,-7.000000,-4.000000,-2.000000
1298715.219071,-57.000000,-45.000000,25.000000,20.000000,2.000000,-17.000000,-24.000000,-38.000000
1298715.220032,30.000000,19.000000,-49.000000,-25.000000,-13.000000,-8.000000,-10.000000,19.000000
1298715.221142,-16.000000,22.000000,32.000000,9.000000,-3.000000,-1.000000,1.000000,-20.000000
1298715.221163,27.000000,9.000000,30.000000,43.000000,11.000000,7.000000,21.000000,28.000000
1298715.221278,52.000000,18.000000,-31.000000,8.000000,9.000000,21.000000,46.000000,60.000000
1298715.221291,32.000000,-7.000000,25.000000,29.000000,13.000000,3.000000,10.000000,-1.000000
1298715.221733,-76.000000,-17.000000,2.000000,-23.000000,-15.000000,-14.000000,-17.000000,-1.000000
1298715.221757,14.000000,22.000000,-16.000000,-6.000000,-2.000000,-3.000000,-3.000000,1.000000
1298715.232055,56.000000,27.000000,20.000000,44.000000,12.000000,-4.000000,-5.000000,7.000000
1298715.232105,-59.000000,-40.000000,-31.000000,-33.000000,-7.000000,4.000000,-1.000000,-23.000000
1298715.262142,1.000000,3.000000,16.000000,11.000000,8.000000,9.000000,29.000000,42.000000
1298715.262170,-24.000000,-23.000000,19.000000,6.000000,-1.000000,-1.000000,4.000000,3.000000
1298715.270387,1.000000,4.000000,5.000000,29.000000,-2.000000,4.000000,1.000000,-1.000000
1298715.270436,65.000000,31.000000,3.000000,-23.000000,-9.000000,-7.000000,-17.000000,-7.000000
1298715.292668,-59.000000,3.000000,7.000000,24.000000,5.000000,5.000000,2.000000,-5.000000
1298715.293078,-13.000000,-40.000000,-66.000000,-52.000000,-11.000000,-5.000000,-6.000000,-1.000000
1298715.294089,19.000000,19.000000,17.000000,0.000000,-6.000000,-18.000000,-29.000000,-13.000000
1298715.294396,15.000000,-5.000000,11.000000,9.000000,-3.000000,-1.000000,-5.000000,-25.000000
1298715.295017,-33.000000,2.000000,7.000000,9.000000,-6.000000,-9.000000,-14.000000,-2.000000
1298715.295059,95.000000,-11.000000,-13.000000,8.000000,2.000000,10.000000,20.000000,29.000000
1298715.295414,-48.000000,-23.000000,10.000000,46.000000,18.000000,-4.000000,-32.000000,-48.000000
1298715.295467,119.000000,107.000000,-19.000000,-105.000000,-14.000000,17.000000,36.000000,44.000000
1298715.300911,-24.000000,12.000000,5.000000,1.000000,-5.000000,-13.000000,-31.000000,-28.000000
1298715.300964,-45.000000,-14.000000,1.000000,4.000000,-1.000000,-3.000000,0.000000,-11.000000
1298715.307275,22.000000,8.000000,4.000000,20.000000,5.000000,11.000000,14.000000,15.000000
1298715.307306,47.000000,24.000000,4.000000,42.000000,21.000000,17.000000,31.000000,36.000000
1298715.330649,49.000000,-99.000000,-23.000000,-41.000000,-17.000000,-13.000000,-5.000000,38.000000
1298715.330752,-36.000000,-36.000000,-18.000000,-1.000000,-6.000000,-22.000000,-37.000000,-65.000000
1298715.331069,21.000000,-3.000000,25.000000,1.000000,7.000000,29.000000,63.000000,79.000000
1298715.331114,-33.000000,-5.000000,-36.000000,-6.000000,-3.000000,-2.000000,2.000000,-9.000000
1298715.344753,22.000000,5.000000,34.000000,12.000000,4.000000,1.000000,19.000000,10.000000
1298715.344780,58.000000,10.000000,-13.000000,3.000000,8.000000,7.000000,-23.000000,5.000000
1298715.359816,-25.000000,-81.000000,-16.000000,13.000000,14.000000,34.000000,72.000000,89.000000
1298715.359858,-2.000000,12.000000,-27.000000,-21.000000,-28.000000,-64.000000,-106.000000,-85.000000
1298715.374549,-6.000000,39.000000,2.000000,-32.000000,-13.000000,-6.000000,-21.000000,-3.000000
1298715.374600,-52.000000,16.000000,-25.000000,34.000000,14.000000,30.000000,79.000000,25.000000
1298715.382164,23.000000,-18.000000,-34.000000,-23.000000,2.000000,4.000000,-10.000000,37.000000
1298715.382202,-35.000000,3.000000,-25.000000,-52.000000,-30.000000,-33.000000,-42.000000,-24.000000
1298715.412474,20.000000,39.000000,-10.000000,-6.000000,-6.000000,-1.000000,26.000000,-10.000000
1298715.412507,-46.000000,23.000000,26.000000,27.000000,10.000000,9.000000,-7.000000,-2.000000
1298715.419821,33.000000,-18.000000,18.000000,10.000000,3.000000,9.000000,15.000000,30.000000
1298715.419878,14.000000,-6.000000,3.000000,30.000000,12.000000,4.000000,3.000000,7.000000
1298715.458218,15.000000,-5.000000,-10.000000,-64.000000,-8.000000,20.000000,61.000000,52.000000
1298715.458603,34.000000,55.000000,62.000000,59.000000,13.000000,11.000000,-24.000000,-21.000000
1298715.459587,-71.000000,-78.000000,-74.000000,-88.000000,-30.000000,-36.000000,-63.000000,-60.000000
1298715.459943,-16.000000,-23.000000,11.000000,22.000000,15.000000,6.000000,4.000000,13.000000
1298715.461645,-3.000000,-93.000000,-4.000000,2.000000,-2.000000,4.000000,-6.000000,-8.000000
1298715.461686,54.000000,38.000000,62.000000,34.000000,18.000000,5.000000,-6.000000,-13.000000
1298715.462125,20.000000,38.000000,19.000000,-33.000000,-9.000000,7.000000,16.000000,22.000000
1298715.462176,-5.000000,2.000000,-38.000000,-24.000000,-15.000000,-9.000000,17.000000,24.000000
1298715.462865,53.000000,24.000000,9.000000,25.000000,7.000000,-5.000000,-20.000000,-30.000000
1298715.462901,-33.000000,-40.000000,-15.000000,5.000000,3.000000,8.000000,19.000000,28.000000
1298715.495131,40.000000,40.000000,-48.000000,-54.000000,-19.000000,-17.000000,-7.000000,-10.000000
1298715.495183,-83.000000,-2.000000,-6.000000,-26.000000,-20.000000,-15.000000,4.000000,-15.000000
1298715.510116,37.000000,26.000000,25.000000,31.000000,11.000000,16.000000,24.000000,35.000000
1298715.510166,90.000000,112.000000,18.000000,9.000000,3.000000,-1.000000,11.000000,21.000000
1298715.517652,22.000000,20.000000,16.000000,62.000000,25.000000,6.000000,9.000000,-1.000000
1298715.517715,-76.000000,-23.000000,-52.000000,-89.000000,-37.000000,-35.000000,-65.000000,-57.000000
1298715.534809,16.000000,-29.000000,11.000000,28.000000,5.000000,6.000000,6.000000,16.000000
1298715.534864,0.000000,-14.000000,-17.000000,2.000000,1.000000,-8.000000,-27.000000,-3.000000
1298715.535421,10.000000,-33.000000,-5.000000,-7.000000,0.000000,2.000000,11.000000,27.000000
1298715.535466,-33.000000,-13.000000,10.000000,1.000000,-7.000000,-10.000000,-17.000000,-52.000000
1298715.536423,40.000000,-26.000000,-6.000000,-17.000000,5.000000,9.000000,28.000000,25.000000
1298715.536472,35.000000,61.000000,46.000000,44.000000,12.000000,12.000000,24.000000,46.000000
1298715.537584,-50.000000,-76.000000,-32.000000,-30.000000,-3.000000,-7.000000,-18.000000,-19.000000
1298715.537630,47.000000,-23.000000,-20.000000,-5.000000,6.000000,5.000000,10.000000,26.000000
1298715.540866,-77.000000,-28.000000,3.000000,-4.000000,-12.000000,-9.000000,-1.000000,-38.000000
1298715.540919,-70.000000,-49.000000,-43.000000,-7.000000,1.000000,6.000000,-8.000000,-23.000000
1298715.547608,-21.000000,12.000000,-15.000000,-18.000000,-1.000000,4.000000,32.000000,21.000000
1298715.547657,27.000000,114.000000,8.000000,24.000000,1.000000,-14.000000,-61.000000,2.000000
1298715.571694,6.000000,-75.000000,-15.000000,-24.000000,-3.000000,-1.000000,-20.000000,-42.000000
1298715.571754,-41.000000,-6.000000,-58.000000,-25.000000,-2.000000,11.000000,34.000000,25.000000
1298715.571992,15.000000,23.000000,23.000000,20.000000,3.000000,7.000000,20.000000,27.000000
1298715.572017,5.000000,-21.000000,3.000000,16.000000,6.000000,-12.000000,4.000000,16.000000
1298715.578348,-13.000000,-7.000000,-2.000000,-33.000000,-14.000000,4.000000,-5.000000,-13.000000
1298715.578399,-1.000000,17.000000,5.000000,12.000000,10.000000,14.000000,22.000000,16.000000
1298715.599492,5.000000,23.000000,0.000000,15.000000,4.000000,7.000000,19.000000,21.000000
1298715.599519,-22.000000,-5.000000,6.000000,-6.000000,-5.000000,4.000000,-14.000000,-31.000000
1298715.637062,-5.000000,-128.000000,-18.000000,-16.000000,6.000000,-9.000000,-10.000000,25.000000
1298715.637115,-19.000000,71.000000,33.000000,31.000000,11.000000,6.000000,3.000000,-11.000000
1298715.652687,-10.000000,14.000000,-35.000000,-29.000000,-19.000000,-15.000000,-26.000000,-36.000000
1298715.652787,65.000000,51.000000,29.000000,41.000000,26.000000,40.000000,69.000000,63.000000
1298715.654923,-6.000000,51.000000,-11.000000,-58.000000,-24.000000,-26.000000,-32.000000,-5.000000
1298715.654951,-10.000000,22.000000,-18.000000,-1.000000,-5.000000,-8.000000,-25.000000,-44.000000
1298715.655203,12.000000,50.000000,115.000000,54.000000,18.000000,15.000000,27.000000,31.000000
1298715.655250,62.000000,-30.000000,-42.000000,-4.000000,13.000000,24.000000,47.000000,67.000000
1298715.656638,-69.000000,-14.000000,-7.000000,-33.000000,-20.000000,-37.000000,-66.000000,-43.000000
1298715.656815,-17.000000,-11.000000,13.000000,21.000000,-6.000000,0.000000,8.000000,-8.000000
1298715.657263,57.000000,-13.000000,5.000000,5.000000,4.000000,6.000000,23.000000,20.000000
1298715.657307,24.000000,2.000000,5.000000,15.000000,-6.000000,-10.000000,-45.000000,-15.000000
1298715.660710,-35.000000,24.000000,-2.000000,15.000000,7.000000,-17.000000,-9.000000,-7.000000
1298715.660736,6.000000,-70.000000,-51.000000,-60.000000,-20.000000,-1.000000,19.000000,14.000000
1298715.666813,2.000000,11.000000,29.000000,18.000000,6.000000,11.000000,24.000000,45.000000
1298715.666862,54.000000,-52.000000,-5.000000,-6.000000,2.000000,-9.000000,-26.000000,-13.000000
1298715.691022,-1.000000,22.000000,13.000000,10.000000,4.000000,9.000000,18.000000,-2.000000
1298715.691131,19.000000,-52.000000,9.000000,27.000000,1.000000,-7.000000,-2.000000,50.000000
1298715.691473,-128.000000,-39.000000,-18.000000,-17.000000,-12.000000,-10.000000,-30.000000,-81.000000
1298715.691521,97.000000,59.000000,27.000000,29.000000,17.000000,21.000000,31.000000,53.000000
1298715.698002,27.000000,10.000000,-18.000000,21.000000,34.000000,15.000000,22.000000,13.000000
1298715.698048,-20.000000,-9.000000,-16.000000,-57.000000,-24.000000,-3.000000,4.000000,4.000000
1298715.734604,66.000000,22.000000,16.000000,20.000000,7.000000,3.000000,-5.000000,14.000000
1298715.734655,-42.000000,-47.000000,7.000000,11.000000,-1.000000,8.000000,20.000000,19.000000
1298715.749725,29.000000,3.000000,-53.000000,11.000000,15.000000,-6.000000,-1.000000,-4.000000
1298715.749770,-63.000000,0.000000,68.000000,-31.000000,-21.000000,-15.000000,-18.000000,-22.000000
1298715.772441,-33.000000,11.000000,-28.000000,6.000000,10.000000,14.000000,6.000000,-4.000000
1298715.772494,64.000000,-62.000000,-39.000000,-28.000000,-8.000000,-9.000000,-17.000000,14.000000
1298715.787553,-76.000000,-22.000000,14.000000,-2.000000,-1.000000,7.000000,9.000000,-19.000000
1298715.787606,8.000000,1.000000,17.000000,18.000000,-2.000000,-10.000000,-4.000000,10.000000
1298715.788418,82.000000,-50.000000,-30.000000,-3.000000,-3.000000,-5.000000,15.000000,36.000000
1298715.788474,-42.000000,18.000000,-2.000000,20.000000,17.000000,17.000000,21.000000,26.000000
1298715.789991,14.000000,5.000000,11.000000,-21.000000,-9.000000,-15.000000,-30.000000,-38.000000
1298715.790011,34.000000,39.000000,24.000000,35.000000,10.000000,2.000000,-2.000000,8.000000
1298715.790242,-50.000000,-23.000000,-18.000000,-37.000000,-1.000000,10.000000,22.000000,-11.000000
1298715.790265,-11.000000,-29.000000,4.000000,4.000000,-1.000000,-14.000000,-30.000000,-26.000000
1298715.791010,84.000000,23.000000,-3.000000,-1.000000,0.000000,16.000000,34.000000,54.000000
1298715.791035,-77.000000,2.000000,0.000000,-17.000000,-8.000000,-13.000000,-36.000000,-42.000000
1298715.810272,-31.000000,21.000000,11.000000,-7.000000,-7.000000,0.000000,6.000000,-6.000000
1298715.810295,16.000000,-32.000000,-26.000000,25.000000,23.000000,19.000000,26.000000,17.000000
1298715.811299,-11.000000,-5.000000,-27.000000,4.000000,-3.000000,-1.000000,11.000000,0.000000
1298715.811445,3.000000,2.000000,-42.000000,-37.000000,-20.000000,-17.000000,-60.000000,-71.000000
1298715.817912,58.000000,38.000000,42.000000,55.000000,17.000000,26.000000,57.000000,92.000000
1298715.818019,-82.000000,-113.000000,-51.000000,-19.000000,-2.000000,-17.000000,-26.000000,-25.000000
1298715.839788,13.000000,31.000000,-3.000000,-41.000000,-10.000000,1.000000,2.000000,4.000000
1298715.839834,3.000000,18.000000,-4.000000,-16.000000,-7.000000,-14.000000,2.000000,16.000000
1298715.854788,4.000000,-18.000000,-7.000000,-9.000000,-12.000000,5.000000,17.000000,-4.000000
1298715.854813,-24.000000,-46.000000,3.000000,24.000000,17.000000,5.000000,23.000000,50.000000
1298715.885643,96.000000,24.000000,10.000000,-3.000000,-12.000000,-36.000000,-42.000000,-31.000000
1298715.885695,-79.000000,97.000000,-24.000000,-2.000000,-1.000000,11.000000,45.000000,38.000000
1298715.899552,44.000000,109.000000,17.000000,14.000000,-1.000000,9.000000,3.000000,19.000000
1298715.899602,-17.000000,45.000000,26.000000,17.000000,5.000000,2.000000,18.000000,14.000000
1298715.914757,28.000000,5.000000,23.000000,16.000000,12.000000,-2.000000,8.000000,16.000000
1298715.914801,-31.000000,-22.000000,-25.000000,-25.000000,-1.000000,11.000000,25.000000,14.000000
1298715.916630,45.000000,48.000000,22.000000,13.000000,12.000000,9.000000,-1.000000,2.000000
1298715.916689,39.000000,28.000000,-40.000000,-41.000000,-20.000000,-14.000000,-13.000000,-10.000000
1298715.917888,-82.000000,-69.000000,-10.000000,20.000000,1.000000,6.000000,8.000000,-7.000000
1298715.917939,65.000000,46.000000,6.000000,6.000000,-1.000000,5.000000,24.000000,53.000000
1298715.918771,54.000000,35.000000,1.000000,18.000000,1.000000,0.000000,3.000000,20.000000
1298715.918822,49.000000,24.000000,-14.000000,-4.000000,2.000000,2.000000,1.000000,17.000000
1298715.931013,0.000000,5.000000,13.000000,27.000000,11.000000,15.000000,22.000000,11.000000
1298715.931220,-95.000000,-34.000000,-21.000000,-11.000000,-14.000000,-16.000000,-25.000000,-42.000000
1298715.931851,30.000000,10.000000,8.000000,-11.000000,-5.000000,8.000000,16.000000,20.000000
1298715.931898,38.000000,-6.000000,3.000000,28.000000,5.000000,4.000000,7.000000,7.000000
1298715.944829,-6.000000,7.000000,-10.000000,-2.000000,3.000000,-14.000000,-13.000000,-2.000000
1298715.945029,4.000000,-22.000000,15.000000,-9.000000,-15.000000,-12.000000,-5.000000,-8.000000
1298715.967472,-47.000000,6.000000,35.000000,20.000000,15.000000,7.000000,2.000000,-22.000000
1298715.967873,75.000000,72.000000,8.000000,11.000000,-1.000000,-2.000000,-18.000000,2.000000
1298715.969343,-58.000000,11.000000,7.000000,16.000000,-3.000000,1.000000,0.000000,2.000000
1298715.969369,-34.000000,21.000000,16.000000,13.000000,6.000000,-4.000000,-18.000000,-28.000000
1298715.974721,0.000000,-8.000000,15.000000,25.000000,10.000000,12.000000,33.000000,20.000000
1298715.974776,63.000000,39.000000,-5.000000,-19.000000,-12.000000,-12.000000,-20.000000,-13.000000
1298716.012401,6.000000,2.000000,33.000000,10.000000,9.000000,15.000000,-1.000000,-15.000000
1298716.012428,-42.000000,8.000000,33.000000,14.000000,7.000000,13.000000,9.000000,13.000000
1298716.019746,33.000000,49.000000,-24.000000,4.000000,4.000000,8.000000,9.000000,14.000000
1298716.019792,4.000000,3.000000,23.000000,26.000000,4.000000,3.000000,-8.000000,-7.000000
1298716.057320,5.000000,3.000000,-1.000000,-20.000000,-6.000000,-5.000000,-12.000000,-2.000000
1298716.057372,-44.000000,-34.000000,1.000000,-29.000000,-15.000000,-4.000000,-8.000000,-26.000000
1298716.057975,17.000000,35.000000,16.000000,13.000000,6.000000,13.000000,12.000000,1.000000
1298716.058218,-35.000000,-45.000000,1.000000,37.000000,12.000000,8.000000,26.000000,28.000000
1298716.059330,25.000000,18.000000,19.000000,-17.000000,-13.000000,-19.000000,-37.000000,-20.000000
1298716.059381,4.000000,2.000000,-35.000000,-21.000000,-11.000000,-5.000000,3.000000,8.000000
1298716.060560,12.000000,-15.000000,33.000000,23.000000,5.000000,7.000000,11.000000,11.000000
1298716.060598,21.000000,20.000000,-6.000000,18.000000,6.000000,2.000000,-12.000000,-21.000000
1298716.087559,39.000000,-3.000000,-17.000000,25.000000,10.000000,2.000000,15.000000,20.000000
1298716.087658,-32.000000,-71.000000,-55.000000,-42.000000,-20.000000,-17.000000,-24.000000,-33.000000
1298716.094891,-61.000000,31.000000,-40.000000,-14.000000,-4.000000,11.000000,31.000000,7.000000
1298716.094943,87.000000,45.000000,23.000000,45.000000,-1.000000,-3.000000,1.000000,17.000000
1298716.124618,-109.000000,-52.000000,-59.000000,-58.000000,-11.000000,-6.000000,-23.000000,-50.000000
1298716.124676,-1.000000,13.000000,38.000000,14.000000,2.000000,5.000000,13.000000,13.000000
1298716.125754,24.000000,19.000000,16.000000,30.000000,12.000000,4.000000,12.000000,4.000000
1298716.125789,11.000000,14.000000,-13.000000,-48.000000,-4.000000,3.000000,-10.000000,-11.000000
1298716.132753,-4.000000,2.000000,-16.000000,-7.000000,-4.000000,-1.000000,10.000000,18.000000
1298716.132809,16.000000,-50.000000,-42.000000,2.000000,-8.000000,-25.000000,-46.000000,-12.000000
1298716.133264,21.000000,13.000000,8.000000,-7.000000,0.000000,4.000000,0.000000,-8.000000
1298716.133833,-37.000000,54.000000,22.000000,5.000000,-10.000000,5.000000,19.000000,8.000000
1298716.135268,-9.000000,-23.000000,-25.000000,-12.000000,-7.000000,-10.000000,-15.000000,-10.000000
1298716.135307,83.000000,11.000000,20.000000,32.000000,28.000000,18.000000,41.000000,35.000000
1298716.135947,-68.000000,82.000000,21.000000,-48.000000,-22.000000,-13.000000,-3.000000,-10.000000
1298716.135995,-30.000000,-19.000000,9.000000,15.000000,0.000000,8.000000,10.000000,-29.000000
1298716.141259,44.000000,29.000000,38.000000,30.000000,21.000000,21.000000,18.000000,46.000000
1298716.141310,7.000000,-78.000000,-79.000000,-38.000000,-14.000000,0.000000,4.000000,22.000000
1298716.162368,-25.000000,-86.000000,-25.000000,0.000000,-1.000000,2.000000,34.000000,21.000000
1298716.162413,74.000000,26.000000,11.000000,27.000000,8.000000,4.000000,-3.000000,14.000000
1298716.164209,-76.000000,-47.000000,-24.000000,-26.000000,-5.000000,-18.000000,-36.000000,-41.000000
1298716.164259,-39.000000,-15.000000,2.000000,-5.000000,-2.000000,-1.000000,14.000000,-3.000000
1298716.169726,18.000000,0.000000,8.000000,44.000000,18.000000,9.000000,2.000000,21.000000
1298716.169783,78.000000,19.000000,-31.000000,-53.000000,-13.000000,-1.000000,9.000000,7.000000
1298716.192154,-100.000000,-36.000000,5.000000,25.000000,15.000000,-2.000000,-10.000000,-18.000000
1298716.192180,-6.000000,-59.000000,-29.000000,-53.000000,-27.000000,-7.000000,-7.000000,-31.000000
1298716.207038,17.000000,9.000000,10.000000,27.000000,14.000000,25.000000,36.000000,46.000000
1298716.207066,-14.000000,-40.000000,3.000000,-14.000000,0.000000,5.000000,22.000000,17.000000
1298716.252125,-6.000000,9.000000,-18.000000,12.000000,-6.000000,-9.000000,-5.000000,-4.000000
1298716.252170,33.000000,19.000000,9.000000,-43.000000,-13.000000,-7.000000,-17.000000,-17.000000
1298716.259874,-27.000000,-29.000000,3.000000,21.000000,7.000000,3.000000,0.000000,-21.000000
1298716.259908,16.000000,14.000000,-24.000000,-28.000000,0.000000,15.000000,29.000000,59.000000
1298716.289709,-18.000000,-87.000000,2.000000,9.000000,4.000000,-7.000000,-23.000000,-43.000000
1298716.289761,34.000000,-26.000000,-22.000000,15.000000,8.000000,-3.000000,0.000000,17.000000
1298716.291134,-128.000000,-44.000000,-39.000000,-59.000000,-24.000000,-16.000000,-45.000000,-65.000000
1298716.291180,64.000000,-37.000000,35.000000,24.000000,14.000000,21.000000,7.000000,-26.000000
1298716.292459,51.000000,37.000000,34.000000,15.000000,11.000000,18.000000,23.000000,36.000000
1298716.292507,-11.000000,21.000000,-7.000000,19.000000,4.000000,-5.000000,-10.000000,20.000000
1298716.297234,-48.000000,-49.000000,-9.000000,7.000000,0.000000,-5.000000,-14.000000,-16.000000
1298716.297262,6.000000,69.000000,20.000000,28.000000,0.000000,8.000000,22.000000,26.000000
1298716.327712,21.000000,2.000000,-36.000000,-26.000000,-16.000000,-5.000000,7.000000,18.000000
1298716.327772,-52.000000,-7.000000,3.000000,-24.000000,-3.000000,-13.000000,-33.000000,-57.000000
1298716.342329,-9.000000,11.000000,-10.000000,-11.000000,-3.000000,-9.000000,-10.000000,19.000000
1298716.342383,15.000000,-70.000000,12.000000,-23.000000,-18.000000,-12.000000,-15.000000,-12.000000
1298716.365984,-54.000000,-21.000000,-30.000000,7.000000,8.000000,3.000000,-27.000000,-43.000000
1298716.366744,4.000000,20.000000,6.000000,-1.000000,-9.000000,-7.000000,8.000000,11.000000
1298716.368409,-34.000000,-1.000000,-21.000000,-51.000000,-22.000000,-10.000000,-8.000000,-21.000000
1298716.368797,13.000000,13.000000,3.000000,-3.000000,4.000000,14.000000,28.000000,19.000000
1298716.369058,26.000000,-19.000000,13.000000,5.000000,0.000000,5.000000,20.000000,17.000000
1298716.369087,-1.000000,-25.000000,-20.000000,32.000000,5.000000,-15.000000,-27.000000,-1.000000
1298716.369657,37.000000,29.000000,4.000000,36.000000,12.000000,-8.000000,-44.000000,-49.000000
1298716.369800,-37.000000,-7.000000,-36.000000,-8.000000,-5.000000,3.000000,9.000000,3.000000
1298716.370118,-70.000000,-128.000000,3.000000,-4.000000,-3.000000,1.000000,-1.000000,1.000000
1298716.370171,24.000000,-68.000000,-6.000000,3.000000,-1.000000,-5.000000,14.000000,9.000000
1298716.372955,-32.000000,-48.000000,10.000000,6.000000,-2.000000,-9.000000,-26.000000,-30.000000
1298716.373065,7.000000,32.000000,10.000000,-4.000000,-10.000000,-4.000000,-6.000000,-4.000000
1298716.380738,31.000000,7.000000,-2.000000,-1.000000,-2.000000,4.000000,22.000000,36.000000
1298716.380791,42.000000,-8.000000,8.000000,-2.000000,-6.000000,-11.000000,-23.000000,-10.000000
1298716.402678,-72.000000,-10.000000,17.000000,8.000000,-2.000000,-19.000000,-40.000000,-81.000000
1298716.402960,-28.000000,-38.000000,-18.000000,-2.000000,7.000000,15.000000,19.000000,-9.000000
1298716.403836,8.000000,-38.000000,2.000000,19.000000,17.000000,7.000000,9.000000,29.000000
1298716.403884,70.000000,45.000000,23.000000,29.000000,6.000000,6.000000,23.000000,42.000000
1298716.416864,-63.000000,-4.000000,-49.000000,-28.000000,-19.000000,-25.000000,-46.000000,-72.000000
1298716.416912,-68.000000,95.000000,52.000000,26.000000,20.000000,13.000000,5.000000,-9.000000
1298716.439689,6.000000,-38.000000,-12.000000,-3.000000,-3.000000,8.000000,14.000000,9.000000
1298716.439740,28.000000,-7.000000,17.000000,16.000000,0.000000,-6.000000,-22.000000,-7.000000
1298716.447059,1.000000,-77.000000,-24.000000,22.000000,-1.000000,-7.000000,-7.000000,-10.000000
1298716.447111,-99.000000,-26.000000,-19.000000,-41.000000,-17.000000,-12.000000,-6.000000,-28.000000
1298716.469918,34.000000,-6.000000,25.000000,16.000000,10.000000,6.000000,1.000000,3.000000
1298716.469962,-25.000000,-1.000000,13.000000,-19.000000,-3.000000,2.000000,6.000000,5.000000
1298716.484553,-11.000000,-10.000000,5.000000,4.000000,-6.000000,-11.000000,-4.000000,-11.000000
1298716.484595,11.000000,-2.000000,-13.000000,13.000000,3.000000,-2.000000,-3.000000,1.000000
1298716.487044,-41.000000,-30.000000,-10.000000,-57.000000,-5.000000,9.000000,29.000000,52.000000
1298716.487112,-14.000000,80.000000,38.000000,22.000000,5.000000,-8.000000,-5.000000,5.000000
1298716.487333,26.000000,19.000000,16.000000,1.000000,5.000000,0.000000,-4.000000,11.000000
1298716.487382,44.000000,16.000000,30.000000,35.000000,8.000000,6.000000,10.000000,12.000000
1298716.488788,-4.000000,-44.000000,-1.000000,-24.000000,-8.000000,3.000000,-3.000000,-14.000000
1298716.488847,12.000000,-42.000000,-33.000000,7.000000,3.000000,-3.000000,-18.000000,-22.000000
1298716.491850,-26.000000,80.000000,37.000000,8.000000,6.000000,13.000000,7.000000,2.000000
1298716.491901,20.000000,35.000000,29.000000,34.000000,13.000000,6.000000,10.000000,-5.000000
1298716.500205,6.000000,-20.000000,-34.000000,-7.000000,1.000000,6.000000,20.000000,40.000000
1298716.500257,4.000000,39.000000,-24.000000,-15.000000,-23.000000,-35.000000,-57.000000,-82.000000
1298716.522578,-15.000000,16.000000,15.000000,-7.000000,-5.000000,7.000000,21.000000,20.000000
1298716.522868,38.000000,24.000000,38.000000,22.000000,27.000000,18.000000,15.000000,17.000000
1298716.523543,90.000000,69.000000,59.000000,16.000000,-6.000000,-1.000000,7.000000,48.000000
1298716.523586,-115.000000,-30.000000,-43.000000,-39.000000,-21.000000,-26.000000,-27.000000,-42.000000
1298716.529555,-54.000000,-108.000000,-6.000000,10.000000,-13.000000,-5.000000,-19.000000,-21.000000
1298716.529605,7.000000,-5.000000,2.000000,-3.000000,-4.000000,-7.000000,-8.000000,-11.000000
1298716.544672,63.000000,-16.000000,7.000000,4.000000,6.000000,3.000000,6.000000,16.000000
1298716.544721,9.000000,-51.000000,40.000000,42.000000,24.000000,22.000000,40.000000,20.000000
1298716.567130,-72.000000,2.000000,-46.000000,-23.000000,-8.000000,-10.000000,5.000000,11.000000
1298716.567176,-2.000000,21.000000,21.000000,4.000000,-9.000000,-28.000000,-60.000000,-59.000000
1298716.581828,-27.000000,-3.000000,-6.000000,-8.000000,-6.000000,6.000000,15.000000,-1.000000
1298716.581857,10.000000,49.000000,31.000000,24.000000,19.000000,32.000000,70.000000,66.000000
1298716.582749,39.000000,31.000000,-1.000000,3.000000,-8.000000,-14.000000,-25.000000,12.000000
1298716.582808,-30.000000,-28.000000,-47.000000,-54.000000,-20.000000,-15.000000,-15.000000,-36.000000
1298716.584185,-83.000000,-74.000000,-6.000000,9.000000,-9.000000,-10.000000,-9.000000,-27.000000
1298716.584246,41.000000,28.000000,39.000000,89.000000,27.000000,40.000000,57.000000,63.000000
1298716.604949,21.000000,-28.000000,-65.000000,-107.000000,-43.000000,-51.000000,-68.000000,-40.000000
1298716.605003,-58.000000,127.000000,26.000000,-1.000000,-5.000000,1.000000,-7.000000,-15.000000
1298716.606150,25.000000,30.000000,4.000000,3.000000,-3.000000,8.000000,35.000000,65.000000
1298716.606274,36.000000,75.000000,22.000000,63.000000,17.000000,12.000000,38.000000,48.000000
1298716.611980,-12.000000,-55.000000,-45.000000,-91.000000,-20.000000,-26.000000,-69.000000,-86.000000
1298716.612099,19.000000,33.000000,-4.000000,0.000000,1.000000,8.000000,4.000000,12.000000
1298716.642101,11.000000,21.000000,11.000000,1.000000,-3.000000,8.000000,15.000000,15.000000
1298716.642152,17.000000,-14.000000,-18.000000,13.000000,0.000000,0.000000,5.000000,2.000000
1298716.649568,-19.000000,15.000000,-15.000000,-28.000000,-13.000000,-11.000000,-14.000000,-13.000000
1298716.649601,-24.000000,-37.000000,-9.000000,-1.000000,0.000000,-6.000000,-17.000000,-16.000000
1298716.687087,23.000000,-37.000000,25.000000,43.000000,9.000000,0.000000,-4.000000,-12.000000
1298716.687206,46.000000,5.000000,4.000000,-43.000000,-8.000000,4.000000,20.000000,41.000000
1298716.725148,-17.000000,24.000000,19.000000,17.000000,7.000000,3.000000,10.000000,-33.000000
1298716.725201,-17.000000,-2.000000,-24.000000,-29.000000,-5.000000,-7.000000,1.000000,23.000000
1298716.726689,69.000000,2.000000,0.000000,9.000000,-3.000000,-11.000000,-29.000000,-29.000000
1298716.726717,-92.000000,-2.000000,-17.000000,-19.000000,-6.000000,-4.000000,-4.000000,-24.000000
1298716.727913,-41.000000,-128.000000,-24.000000,12.000000,-2.000000,-8.000000,-4.000000,-12.000000
1298716.727951,-17.000000,-18.000000,2.000000,-15.000000,-6.000000,-1.000000,-5.000000,1.000000
1298716.729280,31.000000,36.000000,21.000000,10.000000,4.000000,12.000000,26.000000,24.000000
1298716.729304,-9.000000,90.000000,-2.000000,11.000000,14.000000,-5.000000,-7.000000,8.000000
1298716.729447,-3.000000,-39.000000,-46.000000,-51.000000,-18.000000,-7.000000,3.000000,17.000000
1298716.729481,-8.000000,-10.000000,22.000000,23.000000,8.000000,0.000000,3.000000,7.000000
1298716.731882,-3.000000,-5.000000,7.000000,-35.000000,-15.000000,-8.000000,-7.000000,-8.000000
1298716.731932,3.000000,-14.000000,-17.000000,-36.000000,-4.000000,-3.000000,-8.000000,-3.000000
1298716.747952,-45.000000,-33.000000,10.000000,9.000000,7.000000,8.000000,13.000000,9.000000
1298716.747978,-1.000000,-19.000000,-39.000000,16.000000,3.000000,-10.000000,-3.000000,-1.000000
1298716.754450,1.000000,1.000000,18.000000,-7.000000,-9.000000,-3.000000,-7.000000,-16.000000
1298716.754486,20.000000,-10.000000,-32.000000,-15.000000,-3.000000,-5.000000,1.000000,16.000000
1298716.762019,-21.000000,7.000000,14.000000,17.000000,-1.000000,-6.000000,-25.000000,-35.000000
1298716.762067,9.000000,-5.000000,14.000000,-7.000000,-1.000000,9.000000,10.000000,-1.000000
1298716.769748,25.000000,37.000000,23.000000,41.000000,22.000000,11.000000,21.000000,30.000000
1298716.769799,62.000000,-48.000000,-6.000000,-9.000000,-8.000000,-17.000000,-28.000000,-22.000000
1298716.799501,-128.000000,-101.000000,4.000000,-83.000000,-28.000000,-6.000000,-20.000000,-56.000000
1298716.799551,18.000000,41.000000,-1.000000,11.000000,8.000000,9.000000,21.000000,28.000000
1298716.806935,54.000000,95.000000,10.000000,25.000000,3.000000,6.000000,6.000000,2.000000
1298716.806985,34.000000,-20.000000,-22.000000,1.000000,7.000000,8.000000,15.000000,10.000000
1298716.845165,-41.000000,2.000000,17.000000,12.000000,-5.000000,-19.000000,-38.000000,-59.000000
1298716.845220,2.000000,-13.000000,-30.000000,-3.000000,-1.000000,6.000000,17.000000,27.000000
1298716.845548,30.000000,-34.000000,-28.000000,-33.000000,-8.000000,0.000000,-12.000000,-17.000000
1298716.845806,-26.000000,15.000000,46.000000,21.000000,13.000000,10.000000,13.000000,6.000000
1298716.847213,2.000000,-5.000000,13.000000,2.000000,-4.000000,-4.000000,-3.000000,-1.000000
1298716.847273,-6.000000,22.000000,-1.000000,-14.000000,-11.000000,-8.000000,-31.000000,-5.000000
1298716.851771,-9.000000,21.000000,17.000000,1.000000,2.000000,8.000000,6.000000,0.000000
1298716.851985,15.000000,10.000000,26.000000,17.000000,9.000000,11.000000,26.000000,24.000000
1298716.853430,14.000000,-28.000000,-16.000000,-5.000000,-5.000000,2.000000,19.000000,18.000000
1298716.853809,46.000000,14.000000,-3.000000,-1.000000,-5.000000,-5.000000,-3.000000,3.000000
1298716.854388,-50.000000,-58.000000,-7.000000,5.000000,-2.000000,-2.000000,-9.000000,-19.000000
1298716.854420,-14.000000,7.000000,-21.000000,-23.000000,3.000000,4.000000,5.000000,0.000000
1298716.883358,123.000000,49.000000,27.000000,1.000000,1.000000,11.000000,18.000000,23.000000
1298716.883790,-112.000000,-46.000000,-8.000000,34.000000,20.000000,1.000000,1.000000,-6.000000
1298716.884482,-48.000000,1.000000,-42.000000,-52.000000,-28.000000,-16.000000,1.000000,9.000000
1298716.884527,-3.000000,6.000000,-57.000000,-46.000000,-12.000000,-5.000000,-9.000000,-7.000000
1298716.885255,39.000000,9.000000,44.000000,32.000000,10.000000,13.000000,16.000000,5.000000
1298716.885280,-9.000000,33.000000,36.000000,52.000000,16.000000,7.000000,25.000000,15.000000
1298716.897175,20.000000,10.000000,-14.000000,-26.000000,-5.000000,-9.000000,-7.000000,67.000000
1298716.897222,22.000000,22.000000,3.000000,-1.000000,6.000000,-13.000000,-41.000000,-51.000000
1298716.911986,-113.000000,-100.000000,-5.000000,11.000000,12.000000,5.000000,10.000000,-6.000000
1298716.912009,32.000000,47.000000,-10.000000,3.000000,-3.000000,10.000000,17.000000,16.000000
1298716.919513,3.000000,-7.000000,10.000000,-6.000000,0.000000,3.000000,16.000000,16.000000
1298716.919560,58.000000,20.000000,14.000000,16.000000,9.000000,13.000000,20.000000,30.000000
1298716.934515,17.000000,7.000000,25.000000,28.000000,6.000000,-10.000000,14.000000,9.000000
1298716.934564,-12.000000,49.000000,-31.000000,-34.000000,-16.000000,-6.000000,-12.000000,-20.000000
1298716.958372,-5.000000,13.000000,-4.000000,-18.000000,-10.000000,-3.000000,-2.000000,8.000000
1298716.958892,73.000000,127.000000,30.000000,5.000000,13.000000,26.000000,45.000000,55.000000
1298716.960376,-60.000000,38.000000,34.000000,3.000000,-14.000000,-24.000000,-23.000000,-30.000000
1298716.960417,-65.000000,-128.000000,-50.000000,15.000000,-4.000000,2.000000,17.000000,-15.000000
1298716.960574,8.000000,-57.000000,-44.000000,-43.000000,-4.000000,-5.000000,-9.000000,-3.000000
1298716.960619,-34.000000,1.000000,10.000000,10.000000,8.000000,7.000000,-1.000000,18.000000
1298716.964561,-4.000000,32.000000,30.000000,22.000000,3.000000,-6.000000,-14.000000,-28.000000
1298716.964587,4.000000,-1.000000,-3.000000,-8.000000,-5.000000,-3.000000,-3.000000,-18.000000
1298716.972010,71.000000,17.000000,6.000000,21.000000,8.000000,10.000000,17.000000,23.000000
1298716.972039,-108.000000,-26.000000,-14.000000,28.000000,12.000000,9.000000,1.000000,-15.000000
1298716.988042,28.000000,20.000000,-19.000000,-73.000000,-10.000000,10.000000,2.000000,-5.000000
1298716.988090,33.000000,-7.000000,51.000000,58.000000,38.000000,29.000000,37.000000,49.000000
1298716.994244,89.000000,4.000000,-14.000000,5.000000,6.000000,10.000000,26.000000,49.000000
1298716.994271,-128.000000,-58.000000,-45.000000,-66.000000,-27.000000,-14.000000,-28.000000,-75.000000
1298717.002357,-7.000000,9.000000,2.000000,11.000000,5.000000,23.000000,26.000000,24.000000
1298717.002382,-1.000000,32.000000,32.000000,40.000000,14.000000,11.000000,27.000000,16.000000
1298717.039626,-31.000000,18.000000,29.000000,-20.000000,-5.000000,-19.000000,-30.000000,-25.000000
1298717.039676,67.000000,5.000000,-8.000000,11.000000,3.000000,6.000000,9.000000,-1.000000
1298717.077182,-56.000000,-4.000000,-3.000000,-36.000000,-8.000000,15.000000,30.000000,51.000000
1298717.077240,-30.000000,-98.000000,-14.000000,-16.000000,-10.000000,-17.000000,-22.000000,-33.000000
1298717.084940,-9.000000,32.000000,16.000000,29.000000,8.000000,13.000000,17.000000,20.000000
1298717.085197,19.000000,-28.000000,-7.000000,-20.000000,-12.000000,-15.000000,-32.000000,-71.000000
1298717.086660,-43.000000,13.000000,3.000000,24.000000,8.000000,-2.000000,-6.000000,-24.000000
1298717.086706,-23.000000,12.000000,21.000000,15.000000,-4.000000,-8.000000,-29.000000,-25.000000
1298717.088426,-22.000000,-46.000000,-43.000000,-63.000000,-22.000000,-3.000000,6.000000,-6.000000
1298717.088481,-11.000000,32.000000,48.000000,31.000000,6.000000,8.000000,17.000000,25.000000
1298717.088677,16.000000,22.000000,15.000000,-2.000000,-6.000000,-9.000000,-22.000000,13.000000
1298717.088692,-12.000000,21.000000,-11.000000,20.000000,15.000000,11.000000,20.000000,15.000000
1298717.092058,19.000000,-1.000000,-16.000000,-21.000000,-15.000000,2.000000,20.000000,26.000000
1298717.092084,-12.000000,-5.000000,14.000000,22.000000,9.000000,0.000000,-7.000000,-13.000000
1298717.122120,16.000000,20.000000,12.000000,2.000000,-6.000000,-13.000000,-8.000000,3.000000
1298717.122169,30.000000,25.000000,3.000000,-7.000000,1.000000,-12.000000,-3.000000,-11.000000
1298717.123082,-11.000000,49.000000,-16.000000,-12.000000,-13.000000,-10.000000,-23.000000,-4.000000
1298717.123107,-12.000000,7.000000,-8.000000,14.000000,5.000000,8.000000,16.000000,-3.000000
1298717.159953,-12.000000,-6.000000,14.000000,-9.000000,-10.000000,-19.000000,-23.000000,-36.000000
1298717.159985,-16.000000,-12.000000,-33.000000,34.000000,-7.000000,-18.000000,-6.000000,-13.000000
1298717.167694,73.000000,42.000000,-50.000000,-77.000000,-26.000000,-9.000000,6.000000,15.000000
1298717.167801,-68.000000,-4.000000,1.000000,8.000000,2.000000,-9.000000,-22.000000,-40.000000
1298717.174450,-19.000000,-25.000000,1.000000,38.000000,7.000000,6.000000,2.000000,-11.000000
1298717.174495,25.000000,25.000000,0.000000,-29.000000,9.000000,11.000000,8.000000,28.000000
1298717.197301,14.000000,-7.000000,-21.000000,-13.000000,-2.000000,1.000000,17.000000,20.000000
1298717.197328,-9.000000,-24.000000,-58.000000,2.000000,-1.000000,-11.000000,-16.000000,-23.000000
1298717.211967,32.000000,-3.000000,-19.000000,-18.000000,-14.000000,2.000000,7.000000,-2.000000
1298717.212019,13.000000,-14.000000,44.000000,74.000000,28.000000,24.000000,23.000000,33.000000
1298717.234811,-64.000000,-70.000000,-63.000000,-76.000000,-28.000000,-20.000000,-17.000000,-19.000000
1298717.234858,-43.000000,-29.000000,-7.000000,-18.000000,-8.000000,-10.000000,-19.000000,-33.000000
1298717.237146,19.000000,98.000000,26.000000,20.000000,10.000000,11.000000,27.000000,26.000000
1298717.237194,-19.000000,-19.000000,16.000000,35.000000,17.000000,2.000000,-4.000000,-16.000000
1298717.237476,18.000000,17.000000,-26.000000,-4.000000,3.000000,9.000000,35.000000,40.000000
1298717.237517,26.000000,1.000000,20.000000,40.000000,4.000000,-12.000000,-10.000000,20.000000
1298717.239139,-28.000000,-30.000000,-35.000000,-13.000000,0.000000,2.000000,-11.000000,-30.000000
1298717.239305,-13.000000,-4.000000,-8.000000,-3.000000,-3.000000,-2.000000,17.000000,26.000000
1298717.239942,46.000000,22.000000,15.000000,19.000000,16.000000,22.000000,39.000000,40.000000
1298717.239971,41.000000,0.000000,-29.000000,-12.000000,-15.000000,-5.000000,-11.000000,0.000000
1298717.242105,5.000000,19.000000,2.000000,-3.000000,-4.000000,-6.000000,-6.000000,-7.000000
1298717.242158,28.000000,126.000000,11.000000,11.000000,3.000000,5.000000,1.000000,-7.000000
1298717.264601,-20.000000,39.000000,37.000000,38.000000,18.000000,18.000000,23.000000,24.000000
1298717.264652,10.000000,-26.000000,-16.000000,-3.000000,-5.000000,-21.000000,-14.000000,6.000000
1298717.279542,-101.000000,-22.000000,22.000000,-8.000000,-10.000000,-17.000000,-20.000000,-55.000000
1298717.279590,-18.000000,28.000000,32.000000,32.000000,19.000000,21.000000,-11.000000,-66.000000
1298717.287451,32.000000,-13.000000,-2.000000,5.000000,2.000000,6.000000,35.000000,59.000000
1298717.287637,7.000000,-39.000000,-30.000000,-8.000000,-12.000000,-26.000000,-41.000000,-25.000000
1298717.302821,28.000000,18.000000,7.000000,-39.000000,4.000000,20.000000,27.000000,19.000000
1298717.302872,-5.000000,82.000000,-2.000000,-13.000000,-10.000000,3.000000,17.000000,9.000000
1298717.309958,23.000000,15.000000,12.000000,26.000000,21.000000,11.000000,-1.000000,-18.000000
1298717.310011,2.000000,12.000000,13.000000,9.000000,1.000000,6.000000,21.000000,22.000000
1298717.324760,2.000000,-15.000000,-14.000000,-22.000000,-4.000000,-18.000000,-36.000000,-20.000000
1298717.324790,-12.000000,-38.000000,20.000000,31.000000,11.000000,6.000000,11.000000,7.000000
1298717.332194,61.000000,1.000000,5.000000,53.000000,3.000000,-4.000000,-8.000000,17.000000
1298717.332248,-103.000000,-128.000000,-68.000000,-76.000000,-11.000000,-3.000000,2.000000,-18.000000
1298717.355765,-2.000000,-7.000000,6.000000,-37.000000,-9.000000,-1.000000,2.000000,-4.000000
1298717.355937,21.000000,-13.000000,23.000000,16.000000,0.000000,-7.000000,-12.000000,-5.000000
1298717.356245,-35.000000,-24.000000,-12.000000,33.000000,-2.000000,-5.000000,-9.000000,7.000000
1298717.356296,8.000000,-13.000000,17.000000,0.000000,8.000000,9.000000,21.000000,15.000000
1298717.357967,-36.000000,-16.000000,-14.000000,-1.000000,-7.000000,-15.000000,-28.000000,6.000000
1298717.358009,17.000000,33.000000,12.000000,2.000000,-10.000000,-18.000000,-37.000000,-37.000000
1298717.358281,-12.000000,-57.000000,19.000000,8.000000,7.000000,15.000000,19.000000,12.000000
1298717.358329,-26.000000,-30.000000,19.000000,3.000000,9.000000,5.000000,5.000000,-5.000000
1298717.362304,25.000000,5.000000,0.000000,15.000000,-11.000000,-16.000000,-14.000000,14.000000
1298717.362329,17.000000,19.000000,-10.000000,-39.000000,-13.000000,-7.000000,-10.000000,-22.000000
1298717.377237,-78.000000,-1.000000,0.000000,-3.000000,0.000000,0.000000,-3.000000,-43.000000
1298717.377263,15.000000,13.000000,38.000000,53.000000,13.000000,15.000000,31.000000,58.000000
1298717.407240,12.000000,0.000000,13.000000,0.000000,-1.000000,2.000000,17.000000,7.000000
1298717.407266,20.000000,-10.000000,-21.000000,-13.000000,-4.000000,-4.000000,-1.000000,6.000000
1298717.414620,-8.000000,1.000000,-8.000000,0.000000,3.000000,8.000000,-3.000000,2.000000
1298717.414748,46.000000,6.000000,45.000000,45.000000,10.000000,3.000000,17.000000,22.000000
1298717.438037,-49.000000,-13.000000,-27.000000,-39.000000,-14.000000,-19.000000,-25.000000,-21.000000
1298717.438084,56.000000,87.000000,21.000000,17.000000,22.000000,16.000000,3.000000,-4.000000
1298717.440036,-14.000000,27.000000,33.000000,18.000000,10.000000,-2.000000,-8.000000,6.000000
1298717.440284,46.000000,-2.000000,20.000000,8.000000,-6.000000,3.000000,13.000000,20.000000
1298717.441133,9.000000,13.000000,18.000000,7.000000,-6.000000,-6.000000,-7.000000,-1.000000
1298717.441159,-19.000000,-29.000000,42.000000,28.000000,8.000000,-9.000000,-36.000000,-72.000000
1298717.441605,-43.000000,6.000000,-9.000000,-32.000000,-8.000000,5.000000,3.000000,5.000000
1298717.441633,14.000000,-8.000000,-19.000000,-5.000000,-5.000000,-8.000000,1.000000,3.000000
1298717.444388,-7.000000,5.000000,7.000000,0.000000,-4.000000,-9.000000,-2.000000,-3.000000
1298717.444439,25.000000,-8.000000,18.000000,1.000000,2.000000,-1.000000,-7.000000,-19.000000
1298717.451978,-2.000000,13.000000,11.000000,21.000000,11.000000,29.000000,44.000000,55.000000
1298717.452028,31.000000,18.000000,12.000000,22.000000,2.000000,-6.000000,-26.000000,-13.000000
1298717.474821,5.000000,-4.000000,-6.000000,-18.000000,4.000000,-2.000000,3.000000,9.000000
1298717.474854,-30.000000,-2.000000,-17.000000,-4.000000,-15.000000,-23.000000,-27.000000,-27.000000
1298717.475818,-10.000000,-5.000000,30.000000,-15.000000,-11.000000,-5.000000,-7.000000,-26.000000
1298717.475870,22.000000,23.000000,-2.000000,29.000000,8.000000,9.000000,17.000000,22.000000
1298717.481865,26.000000,45.000000,25.000000,-18.000000,-2.000000,7.000000,7.000000,7.000000
1298717.481915,-46.000000,-103.000000,-44.000000,-4.000000,1.000000,-10.000000,-18.000000,-22.000000
1298717.512278,73.000000,127.000000,81.000000,64.000000,11.000000,4.000000,1.000000,43.000000
1298717.512310,-15.000000,-31.000000,-105.000000,-91.000000,-11.000000,-10.000000,-29.000000,-69.000000
1298717.526750,-57.000000,-1.000000,58.000000,3.000000,-3.000000,6.000000,2.000000,17.000000
1298717.526775,47.000000,-11.000000,2.000000,3.000000,6.000000,5.000000,-2.000000,-18.000000
1298717.542205,-33.000000,43.000000,19.000000,17.000000,0.000000,4.000000,8.000000,22.000000
1298717.542260,4.000000,-57.000000,-16.000000,-9.000000,-3.000000,-15.000000,-24.000000,-38.000000
1298717.558545,4.000000,19.000000,-13.000000,8.000000,5.000000,0.000000,-3.000000,-12.000000
1298717.558584,14.000000,23.000000,24.000000,-31.000000,-17.000000,-1.000000,7.000000,9.000000
1298717.560256,45.000000,20.000000,9.000000,-11.000000,3.000000,8.000000,11.000000,42.000000
1298717.560764,27.000000,18.000000,19.000000,25.000000,3.000000,-5.000000,-2.000000,25.000000
1298717.561703,5.000000,-7.000000,-19.000000,6.000000,-13.000000,-13.000000,-10.000000,12.000000
1298717.561753,-12.000000,-14.000000,-32.000000,-28.000000,1.000000,-1.000000,-17.000000,-40.000000
1298717.562032,5.000000,4.000000,-16.000000,-2.000000,10.000000,8.000000,9.000000,15.000000
1298717.562062,-25.000000,-92.000000,20.000000,17.000000,6.000000,13.000000,15.000000,-12.000000
1298717.564389,2.000000,-4.000000,-9.000000,-21.000000,-4.000000,16.000000,49.000000,52.000000
1298717.564439,-6.000000,10.000000,26.000000,9.000000,3.000000,-6.000000,-20.000000,-5.000000
1298717.579819,9.000000,16.000000,4.000000,40.000000,-6.000000,-10.000000,10.000000,11.000000
1298717.579858,53.000000,127.000000,-40.000000,-28.000000,0.000000,9.000000,16.000000,22.000000
1298717.586836,28.000000,54.000000,9.000000,-18.000000,-9.000000,-7.000000,12.000000,4.000000
1298717.586886,-69.000000,-114.000000,-104.000000,-71.000000,-6.000000,-16.000000,-36.000000,-51.000000
1298717.594470,-40.000000,-2.000000,0.000000,18.000000,3.000000,5.000000,17.000000,-17.000000
1298717.594511,10.000000,49.000000,59.000000,34.000000,9.000000,-3.000000,-7.000000,37.000000
1298717.609539,25.000000,13.000000,-20.000000,13.000000,-3.000000,-15.000000,-42.000000,-38.000000
1298717.609564,8.000000,-21.000000,-11.000000,-28.000000,-1.000000,0.000000,14.000000,20.000000
1298717.632024,-1.000000,23.000000,46.000000,29.000000,10.000000,-1.000000,6.000000,1.000000
1298717.632075,6.000000,30.000000,-13.000000,13.000000,-3.000000,-6.000000,5.000000,10.000000
1298717.647896,32.000000,11.000000,-14.000000,-48.000000,-15.000000,6.000000,9.000000,17.000000
1298717.647947,-12.000000,-32.000000,-9.000000,-6.000000,1.000000,-3.000000,-4.000000,-2.000000
1298717.648800,13.000000,42.000000,48.000000,33.000000,8.000000,-5.000000,-13.000000,1.000000
1298717.648860,-26.000000,12.000000,-17.000000,23.000000,6.000000,4.000000,4.000000,3.000000
1298717.650299,-33.000000,-55.000000,20.000000,-40.000000,-9.000000,5.000000,-12.000000,2.000000
1298717.650323,17.000000,-66.000000,-41.000000,1.000000,-6.000000,-15.000000,-39.000000,-52.000000
1298717.654941,-57.000000,-26.000000,11.000000,6.000000,-14.000000,-25.000000,-35.000000,-28.000000
1298717.654989,2.000000,16.000000,18.000000,0.000000,-1.000000,7.000000,4.000000,7.000000
1298717.662495,54.000000,13.000000,7.000000,34.000000,12.000000,15.000000,18.000000,21.000000
1298717.662676,-3.000000,15.000000,10.000000,-24.000000,-14.000000,-8.000000,3.000000,14.000000
1298717.678366,5.000000,-37.000000,-45.000000,-11.000000,-10.000000,-8.000000,-17.000000,-20.000000
1298717.678400,11.000000,47.000000,53.000000,29.000000,0.000000,-3.000000,-3.000000,18.000000
1298717.685305,1.000000,-30.000000,-42.000000,24.000000,8.000000,1.000000,-7.000000,-15.000000
1298717.685353,3.000000,-30.000000,-25.000000,-31.000000,-1.000000,6.000000,22.000000,30.000000
1298717.714924,-5.000000,-5.000000,45.000000,24.000000,16.000000,6.000000,5.000000,2.000000
1298717.714966,-4.000000,-34.000000,-13.000000,-34.000000,-22.000000,-3.000000,-6.000000,-9.000000
1298717.729748,-75.000000,17.000000,-8.000000,16.000000,4.000000,-2.000000,-1.000000,3.000000
1298717.729802,-2.000000,-6.000000,36.000000,13.000000,1.000000,-4.000000,-13.000000,-14.000000
1298717.737411,56.000000,35.000000,-15.000000,12.000000,5.000000,8.000000,20.000000,26.000000
1298717.737464,-16.000000,6.000000,-4.000000,5.000000,5.000000,1.000000,-3.000000,-16.000000
1298717.760153,-9.000000,3.000000,3.000000,16.000000,1.000000,-6.000000,-3.000000,-1.000000
1298717.760189,20.000000,-13.000000,-7.000000,-13.000000,-1.000000,6.000000,4.000000,-16.000000
1298717.767273,-16.000000,-71.000000,-3.000000,10.000000,4.000000,5.000000,-5.000000,27.000000
1298717.767325,-45.000000,-35.000000,-51.000000,-8.000000,7.000000,-7.000000,-7.000000,7.000000
1298717.791554,-26.000000,-13.000000,-12.000000,-19.000000,-6.000000,4.000000,2.000000,-9.000000
1298717.792282,29.000000,3.000000,-31.000000,-29.000000,-12.000000,0.000000,3.000000,11.000000
1298717.792987,-11.000000,33.000000,34.000000,35.000000,8.000000,1.000000,-13.000000,-12.000000
1298717.793063,44.000000,-9.000000,-24.000000,-2.000000,12.000000,22.000000,39.000000,46.000000
1298717.794479,6.000000,16.000000,-17.000000,-44.000000,-28.000000,-16.000000,-24.000000,6.000000
1298717.794619,-46.000000,8.000000,37.000000,30.000000,7.000000,-8.000000,-19.000000,-29.000000
1298717.795050,-31.000000,2.000000,17.000000,16.000000,6.000000,7.000000,2.000000,-2.000000
1298717.795078,23.000000,3.000000,-6.000000,-22.000000,-13.000000,2.000000,18.000000,27.000000
1298717.795399,50.000000,3.000000,45.000000,22.000000,10.000000,7.000000,11.000000,25.000000
1298717.795447,12.000000,18.000000,-7.000000,-8.000000,-3.000000,6.000000,-6.000000,-27.000000
1298717.797279,-95.000000,-26.000000,-25.000000,32.000000,1.000000,-10.000000,-40.000000,-38.000000
1298717.797307,9.000000,-1.000000,13.000000,-44.000000,0.000000,5.000000,5.000000,-4.000000
1298717.805848,4.000000,-9.000000,38.000000,8.000000,0.000000,2.000000,16.000000,5.000000
1298717.805900,48.000000,35.000000,-9.000000,23.000000,2.000000,-6.000000,-28.000000,23.000000
1298717.827610,-19.000000,-39.000000,-32.000000,-14.000000,3.000000,8.000000,27.000000,24.000000
1298717.827664,-36.000000,9.000000,-17.000000,-22.000000,-10.000000,-25.000000,-11.000000,-22.000000
1298717.834583,-6.000000,-15.000000,5.000000,15.000000,-3.000000,2.000000,5.000000,-16.000000
1298717.834614,3.000000,-77.000000,13.000000,3.000000,1.000000,-4.000000,-12.000000,-31.000000
1298717.857135,-31.000000,12.000000,20.000000,37.000000,3.000000,-5.000000,-2.000000,-6.000000
1298717.857191,-19.000000,19.000000,-57.000000,-69.000000,-17.000000,-5.000000,0.000000,4.000000
1298717.872320,9.000000,5.000000,71.000000,14.000000,4.000000,-2.000000,-2.000000,3.000000
1298717.872347,-22.000000,-21.000000,-5.000000,-18.000000,-5.000000,4.000000,11.000000,24.000000
1298717.879550,-5.000000,-41.000000,-42.000000,-2.000000,-4.000000,-3.000000,-18.000000,-18.000000
1298717.879588,-52.000000,2.000000,9.000000,34.000000,-1.000000,-1.000000,-4.000000,-14.000000
1298717.901889,25.000000,2.000000,22.000000,77.000000,15.000000,3.000000,34.000000,67.000000
1298717.901913,11.000000,37.000000,-21.000000,-128.000000,-34.000000,-4.000000,13.000000,46.000000
1298717.909457,14.000000,-11.000000,-14.000000,22.000000,1.000000,-2.000000,-13.000000,-23.000000
1298717.909483,3.000000,127.000000,60.000000,67.000000,15.000000,4.000000,9.000000,21.000000
1298717.924492,-20.000000,32.000000,-15.000000,-40.000000,-8.000000,-19.000000,-38.000000,-34.000000
1298717.924617,-11.000000,-19.000000,-31.000000,21.000000,10.000000,9.000000,8.000000,-16.000000
1298717.954837,-110.000000,-18.000000,9.000000,38.000000,19.000000,11.000000,25.000000,22.000000
1298717.954866,-7.000000,39.000000,43.000000,8.000000,-12.000000,-14.000000,-33.000000,-54.000000
1298717.969703,17.000000,24.000000,8.000000,-111.000000,-3.000000,17.000000,34.000000,42.000000
1298717.969743,16.000000,-15.000000,-14.000000,-15.000000,1.000000,9.000000,16.000000,52.000000
1298717.992233,47.000000,6.000000,41.000000,43.000000,8.000000,8.000000,13.000000,23.000000
1298717.992259,-17.000000,0.000000,-1.000000,23.000000,0.000000,-14.000000,-5.000000,3.000000
1298718.007038,36.000000,-60.000000,6.000000,10.000000,-2.000000,-9.000000,-24.000000,-30.000000
1298718.007063,-42.000000,11.000000,-3.000000,9.000000,4.000000,3.000000,1.000000,-8.000000
1298718.030252,36.000000,36.000000,8.000000,-12.000000,-8.000000,-9.000000,4.000000,32.000000
1298718.030586,32.000000,10.000000,-22.000000,-19.000000,-13.000000,-16.000000,-29.000000,-45.000000
1298718.032038,-29.000000,-4.000000,-2.000000,-7.000000,-2.000000,6.000000,1.000000,11.000000
1298718.032089,23.000000,87.000000,5.000000,55.000000,15.000000,7.000000,22.000000,27.000000
1298718.033816,-1.000000,19.000000,-8.000000,20.000000,17.000000,-3.000000,2.000000,-9.000000
1298718.033839,42.000000,-18.000000,-28.000000,-3.000000,-12.000000,-3.000000,0.000000,-3.000000
1298718.034436,33.000000,-8.000000,31.000000,20.000000,7.000000,-4.000000,-26.000000,-12.000000
1298718.034482,21.000000,31.000000,-11.000000,14.000000,5.000000,8.000000,16.000000,24.000000
1298718.037800,37.000000,9.000000,-18.000000,-25.000000,-5.000000,-7.000000,-7.000000,1.000000
1298718.037847,-35.000000,-27.000000,13.000000,-3.000000,-6.000000,-9.000000,-21.000000,-23.000000
1298718.044627,-59.000000,-46.000000,-5.000000,-12.000000,-8.000000,-13.000000,-4.000000,-10.000000
1298718.044683,36.000000,25.000000,-6.000000,6.000000,3.000000,12.000000,22.000000,18.000000
1298718.060901,31.000000,12.000000,51.000000,71.000000,17.000000,4.000000,3.000000,14.000000
1298718.060949,35.000000,31.000000,-44.000000,-55.000000,11.000000,5.000000,1.000000,-3.000000
1298718.067005,-39.000000,-63.000000,5.000000,-12.000000,-10.000000,-3.000000,-7.000000,-7.000000
1298718.067050,-9.000000,6.000000,14.000000,1.000000,-3.000000,3.000000,4.000000,5.000000
1298718.082100,10.000000,8.000000,-4.000000,12.000000,2.000000,-1.000000,0.000000,-5.000000
1298718.082187,7.000000,14.000000,43.000000,73.000000,19.000000,4.000000,4.000000,0.000000
1298718.112337,42.000000,27.000000,-36.000000,-42.000000,1.000000,6.000000,10.000000,19.000000
1298718.112391,6.000000,-44.000000,25.000000,-53.000000,-24.000000,-14.000000,-29.000000,-41.000000
1298718.134974,-94.000000,11.000000,9.000000,24.000000,7.000000,2.000000,-6.000000,-5.000000
1298718.135026,-15.000000,-42.000000,-2.000000,8.000000,-9.000000,-13.000000,-5.000000,-8.000000
1298718.149587,6.000000,-4.000000,34.000000,19.000000,7.000000,16.000000,42.000000,39.000000
1298718.149659,102.000000,101.000000,-38.000000,0.000000,-1.000000,1.000000,3.000000,28.000000
1298718.151418,-29.000000,25.000000,14.000000,-5.000000,3.000000,-1.000000,-12.000000,-15.000000
1298718.152022,-32.000000,-60.000000,5.000000,5.000000,-1.000000,9.000000,11.000000,-20.000000
1298718.153254,33.000000,20.000000,4.000000,15.000000,10.000000,16.000000,31.000000,33.000000
1298718.153295,-17.000000,-7.000000,-8.000000,0.000000,1.000000,1.000000,6.000000,-8.000000
1298718.153872,48.000000,8.000000,6.000000,19.000000,-1.000000,-12.000000,-13.000000,0.000000
1298718.153949,-81.000000,-68.000000,13.000000,5.000000,6.000000,-2.000000,-14.000000,-27.000000
1298718.154548,14.000000,24.000000,22.000000,-13.000000,-1.000000,6.000000,18.000000,18.000000
1298718.154598,26.000000,42.000000,1.000000,-2.000000,-5.000000,2.000000,7.000000,14.000000
1298718.158451,15.000000,29.000000,17.000000,-11.000000,-9.000000,-3.000000,-4.000000,1.000000
1298718.158500,-62.000000,-2.000000,-15.000000,39.000000,-9.000000,-16.000000,-11.000000,6.000000
1298718.164498,-13.000000,-10.000000,-44.000000,-52.000000,-11.000000,-6.000000,15.000000,15.000000
1298718.164543,45.000000,33.000000,20.000000,-7.000000,4.000000,15.000000,22.000000,33.000000
1298718.194657,-1.000000,6.000000,7.000000,39.000000,-6.000000,-26.000000,-32.000000,-44.000000
1298718.194708,-16.000000,10.000000,0.000000,38.000000,11.000000,2.000000,-12.000000,-7.000000
1298718.231896,16.000000,2.000000,-15.000000,-64.000000,-12.000000,4.000000,-5.000000,-20.000000
1298718.231941,23.000000,23.000000,-3.000000,17.000000,5.000000,7.000000,-13.000000,-3.000000
1298718.247007,-66.000000,65.000000,4.000000,-1.000000,-12.000000,-16.000000,-52.000000,-56.000000
1298718.247057,50.000000,29.000000,39.000000,23.000000,6.000000,-2.000000,22.000000,39.000000
1298718.270099,-21.000000,3.000000,-14.000000,-15.000000,-18.000000,-29.000000,-44.000000,-25.000000
1298718.270144,-46.000000,-34.000000,-15.000000,-13.000000,-21.000000,-12.000000,-1.000000,35.000000
1298718.272313,34.000000,127.000000,2.000000,-8.000000,10.000000,6.000000,-3.000000,-29.000000
1298718.272790,-3.000000,19.000000,-59.000000,6.000000,3.000000,7.000000,10.000000,0.000000
1298718.273906,48.000000,9.000000,-18.000000,-55.000000,-20.000000,-5.000000,-5.000000,-5.000000
1298718.273935,38.000000,17.000000,-28.000000,-11.000000,-7.000000,-8.000000,-4.000000,7.000000
1298718.274348,0.000000,-128.000000,-98.000000,-57.000000,-16.000000,-8.000000,-23.000000,-24.000000
1298718.274368,43.000000,99.000000,29.000000,9.000000,-8.000000,-17.000000,-31.000000,-3.000000
1298718.274799,-30.000000,-36.000000,-4.000000,41.000000,10.000000,-3.000000,-19.000000,-23.000000
1298718.274849,41.000000,9.000000,14.000000,-23.000000,-5.000000,24.000000,36.000000,55.000000
1298718.277777,5.000000,32.000000,5.000000,-9.000000,21.000000,7.000000,-14.000000,-16.000000
1298718.277826,65.000000,28.000000,22.000000,-14.000000,-10.000000,-26.000000,-37.000000,-25.000000
1298718.284897,-128.000000,-128.000000,-1.000000,33.000000,18.000000,13.000000,6.000000,-34.000000
1298718.284948,3.000000,16.000000,21.000000,-22.000000,-10.000000,-4.000000,-6.000000,-20.000000
1298718.315066,5.000000,-25.000000,25.000000,24.000000,13.000000,15.000000,18.000000,14.000000
1298718.315094,-2.000000,-10.000000,33.000000,28.000000,1.000000,-12.000000,-11.000000,-41.000000
1298718.322089,30.000000,36.000000,14.000000,-8.000000,8.000000,15.000000,19.000000,51.000000
1298718.322142,46.000000,-3.000000,15.000000,15.000000,10.000000,1.000000,-12.000000,-13.000000
1298718.344546,-10.000000,15.000000,-3.000000,10.000000,1.000000,-1.000000,-3.000000,-10.000000
1298718.344595,-31.000000,-61.000000,-21.000000,-17.000000,-22.000000,-13.000000,-22.000000,-57.000000
1298718.352195,-88.000000,2.000000,7.000000,17.000000,5.000000,0.000000,25.000000,45.000000
1298718.352253,-5.000000,24.000000,-59.000000,-15.000000,-3.000000,-7.000000,-19.000000,-22.000000
1298718.375205,16.000000,-1.000000,17.000000,-12.000000,-7.000000,-10.000000,-26.000000,-54.000000
1298718.375259,5.000000,41.000000,-13.000000,-16.000000,-7.000000,5.000000,21.000000,37.000000
1298718.390620,48.000000,10.000000,-3.000000,-11.000000,-2.000000,4.000000,27.000000,35.000000
1298718.390965,-67.000000,6.000000,-23.000000,43.000000,6.000000,-7.000000,-25.000000,-12.000000
1298718.391694,11.000000,-36.000000,40.000000,15.000000,13.000000,5.000000,1.000000,8.000000
1298718.391718,-102.000000,-32.000000,-54.000000,-57.000000,-6.000000,4.000000,-6.000000,-28.000000
1298718.392537,-11.000000,-104.000000,-43.000000,-6.000000,-6.000000,-3.000000,27.000000,29.000000
1298718.392780,24.000000,47.000000,25.000000,28.000000,5.000000,-2.000000,-22.000000,9.000000
1298718.393759,-17.000000,-6.000000,14.000000,1.000000,2.000000,12.000000,25.000000,36.000000
1298718.393806,-28.000000,13.000000,-5.000000,5.000000,9.000000,12.000000,10.000000,4.000000
1298718.398116,16.000000,8.000000,-18.000000,17.000000,6.000000,0.000000,0.000000,21.000000
1298718.398170,9.000000,-26.000000,8.000000,-29.000000,-12.000000,-1.000000,-1.000000,-2.000000
1298718.412406,-35.000000,-22.000000,-17.000000,-28.000000,-15.000000,-8.000000,-3.000000,-6.000000
1298718.412461,41.000000,48.000000,25.000000,-6.000000,8.000000,11.000000,9.000000,1.000000
1298718.420312,-30.000000,-50.000000,17.000000,16.000000,9.000000,-4.000000,-15.000000,-21.000000
1298718.420352,-22.000000,12.000000,16.000000,-5.000000,-14.000000,-17.000000,-21.000000,-9.000000
1298718.427187,21.000000,2.000000,-26.000000,-15.000000,7.000000,16.000000,30.000000,43.000000
1298718.427237,31.000000,-17.000000,-32.000000,24.000000,11.000000,4.000000,15.000000,14.000000
1298718.442162,15.000000,30.000000,26.000000,-23.000000,-9.000000,-15.000000,-33.000000,-20.000000
1298718.442195,-106.000000,-128.000000,-30.000000,-25.000000,-7.000000,7.000000,7.000000,-11.000000
1298718.449931,-55.000000,-84.000000,-25.000000,11.000000,-11.000000,-8.000000,-5.000000,-13.000000
1298718.449984,9.000000,9.000000,16.000000,7.000000,-1.000000,-4.000000,6.000000,-12.000000
1298718.472870,4.000000,-58.000000,10.000000,20.000000,15.000000,18.000000,27.000000,29.000000
1298718.472916,10.000000,6.000000,-3.000000,-6.000000,-10.000000,-26.000000,-59.000000,-42.000000
1298718.480034,54.000000,7.000000,-2.000000,-9.000000,-7.000000,-4.000000,3.000000,4.000000
1298718.480080,-114.000000,-47.000000,-7.000000,0.000000,-3.000000,-3.000000,-10.000000,-46.000000
1298718.481616,-64.000000,15.000000,30.000000,12.000000,8.000000,11.000000,2.000000,-23.000000
1298718.481740,40.000000,-21.000000,-30.000000,-9.000000,-4.000000,3.000000,3.000000,-20.000000
1298718.487261,10.000000,27.000000,23.000000,20.000000,-1.000000,-6.000000,-5.000000,4.000000
1298718.487307,27.000000,6.000000,-26.000000,-29.000000,-10.000000,-9.000000,-11.000000,1.000000
1298718.517357,-58.000000,-113.000000,7.000000,-8.000000,-10.000000,-13.000000,-20.000000,-46.000000
1298718.517408,35.000000,20.000000,-18.000000,27.000000,28.000000,6.000000,-7.000000,-31.000000
1298718.518574,30.000000,103.000000,26.000000,-1.000000,3.000000,10.000000,17.000000,29.000000
1298718.518602,-3.000000,11.000000,1.000000,-33.000000,-24.000000,-19.000000,-19.000000,6.000000
1298718.519790,-30.000000,-64.000000,-17.000000,29.000000,0.000000,-8.000000,-11.000000,-25.000000
1298718.519833,27.000000,-25.000000,-17.000000,46.000000,22.000000,24.000000,52.000000,63.000000
1298718.524980,-78.000000,-29.000000,-42.000000,-60.000000,-17.000000,-18.000000,-12.000000,-23.000000
1298718.525032,-42.000000,2.000000,37.000000,14.000000,0.000000,7.000000,17.000000,19.000000
1298718.555073,33.000000,24.000000,10.000000,8.000000,2.000000,13.000000,26.000000,15.000000
1298718.555124,40.000000,-6.000000,-40.000000,-17.000000,-20.000000,-15.000000,-13.000000,5.000000
1298718.562176,-9.000000,-17.000000,7.000000,-12.000000,-22.000000,-26.000000,-42.000000,-78.000000
1298718.562203,52.000000,127.000000,69.000000,33.000000,2.000000,6.000000,33.000000,35.000000
1298718.592553,74.000000,-19.000000,-6.000000,-42.000000,12.000000,13.000000,15.000000,14.000000
1298718.592612,-113.000000,-35.000000,-18.000000,-10.000000,-13.000000,-16.000000,-48.000000,-75.000000
1298718.599792,-32.000000,-3.000000,24.000000,6.000000,-2.000000,-6.000000,-10.000000,-8.000000
1298718.599817,32.000000,127.000000,16.000000,-5.000000,-4.000000,8.000000,22.000000,30.000000
1298718.630216,60.000000,25.000000,-3.000000,49.000000,10.000000,12.000000,15.000000,33.000000
1298718.630279,-11.000000,-14.000000,32.000000,29.000000,16.000000,20.000000,38.000000,42.000000
1298718.637304,-1.000000,-4.000000,-51.000000,-88.000000,-20.000000,-16.000000,20.000000,4.000000
1298718.637330,-23.000000,-30.000000,-21.000000,8.000000,3.000000,2.000000,-2.000000,2.000000
1298718.654570,9.000000,37.000000,43.000000,-17.000000,-4.000000,-4.000000,-26.000000,-23.000000
1298718.654604,27.000000,15.000000,34.000000,63.000000,20.000000,13.000000,17.000000,49.000000
1298718.655088,-61.000000,-95.000000,-48.000000,-58.000000,18.000000,9.000000,10.000000,-4.000000
1298718.655146,22.000000,-60.000000,3.000000,3.000000,-13.000000,-16.000000,-20.000000,9.000000
1298718.655457,42.000000,24.000000,-19.000000,-10.000000,1.000000,12.000000,21.000000,26.000000
1298718.655482,18.000000,-51.000000,5.000000,5.000000,3.000000,1.000000,-8.000000,-1.000000
1298718.674715,18.000000,17.000000,3.000000,7.000000,3.000000,10.000000,11.000000,-12.000000
1298718.674770,-30.000000,-18.000000,-5.000000,14.000000,4.000000,-1.000000,-9.000000,-6.000000
1298718.704512,30.000000,40.000000,26.000000,24.000000,-10.000000,-25.000000,-48.000000,-40.000000
1298718.704572,-60.000000,-87.000000,-48.000000,-70.000000,-4.000000,0.000000,-1.000000,-20.000000
1298718.712468,31.000000,1.000000,-8.000000,33.000000,11.000000,-10.000000,1.000000,12.000000
1298718.712505,-14.000000,-6.000000,-12.000000,-34.000000,-8.000000,10.000000,18.000000,16.000000
1298718.721785,37.000000,46.000000,29.000000,-4.000000,-4.000000,11.000000,21.000000,33.000000
1298718.722126,51.000000,-48.000000,33.000000,51.000000,-1.000000,-3.000000,5.000000,-13.000000
1298718.722569,-44.000000,-6.000000,-47.000000,-69.000000,-2.000000,-3.000000,-8.000000,10.000000
1298718.722961,28.000000,-13.000000,-32.000000,2.000000,-6.000000,-17.000000,-19.000000,-40.000000
1298718.724069,-54.000000,4.000000,18.000000,13.000000,-1.000000,-1.000000,-10.000000,-10.000000
1298718.724110,84.000000,0.000000,-15.000000,-20.000000,8.000000,13.000000,32.000000,45.000000
1298718.727254,29.000000,66.000000,50.000000,66.000000,21.000000,33.000000,56.000000,27.000000
1298718.727312,-98.000000,-84.000000,2.000000,-24.000000,-22.000000,-61.000000,-107.000000,-81.000000
1298718.743122,17.000000,-67.000000,-88.000000,-47.000000,-25.000000,-13.000000,-15.000000,-27.000000
1298718.743173,-8.000000,84.000000,36.000000,5.000000,0.000000,15.000000,15.000000,13.000000
1298718.749481,39.000000,7.000000,-13.000000,6.000000,-1.000000,-9.000000,-13.000000,-12.000000
1298718.749532,-64.000000,3.000000,15.000000,27.000000,3.000000,-13.000000,-30.000000,-32.000000
1298718.758089,-15.000000,-45.000000,-35.000000,-31.000000,-6.000000,6.000000,7.000000,3.000000
1298718.758142,15.000000,-128.000000,-1.000000,35.000000,21.000000,4.000000,16.000000,14.000000
1298718.787028,23.000000,-10.000000,-9.000000,-66.000000,-16.000000,-24.000000,-35.000000,-38.000000
1298718.787057,-20.000000,-33.000000,27.000000,52.000000,13.000000,2.000000,-8.000000,-13.000000
1298718.801960,-20.000000,-38.000000,-9.000000,-29.000000,2.000000,14.000000,-5.000000,-33.000000
1298718.801985,16.000000,15.000000,-6.000000,-3.000000,2.000000,-4.000000,-5.000000,4.000000
1298718.824406,2.000000,-14.000000,15.000000,17.000000,-1.000000,-1.000000,7.000000,4.000000
1298718.824454,-9.000000,-1.000000,-10.000000,-3.000000,-12.000000,0.000000,13.000000,-2.000000
1298718.826667,-15.000000,17.000000,-22.000000,8.000000,-5.000000,-24.000000,-59.000000,-48.000000
1298718.826725,-39.000000,1.000000,-23.000000,-35.000000,-16.000000,-2.000000,7.000000,-15.000000
1298718.827046,12.000000,127.000000,22.000000,15.000000,9.000000,26.000000,45.000000,56.000000
1298718.827103,59.000000,44.000000,1.000000,-8.000000,0.000000,-5.000000,-25.000000,-31.000000
1298718.828608,-41.000000,-43.000000,44.000000,77.000000,26.000000,6.000000,-4.000000,-11.000000
1298718.828640,45.000000,-9.000000,-55.000000,-80.000000,7.000000,1.000000,4.000000,-6.000000
1298718.831986,-6.000000,36.000000,44.000000,13.000000,10.000000,17.000000,19.000000,33.000000
1298718.832028,-8.000000,33.000000,36.000000,30.000000,4.000000,-1.000000,-4.000000,16.000000
1298718.840292,9.000000,-32.000000,-18.000000,20.000000,5.000000,-1.000000,-6.000000,5.000000
1298718.840337,-3.000000,33.000000,-19.000000,-36.000000,-7.000000,-16.000000,-45.000000,-53.000000
1298718.854617,-28.000000,16.000000,0.000000,-32.000000,-5.000000,4.000000,8.000000,3.000000
1298718.854645,3.000000,52.000000,23.000000,26.000000,11.000000,10.000000,2.000000,-26.000000
1298718.862613,-4.000000,-73.000000,10.000000,12.000000,-6.000000,3.000000,15.000000,26.000000
1298718.862660,51.000000,34.000000,-13.000000,-26.000000,-4.000000,1.000000,-3.000000,3.000000
1298718.869644,-55.000000,-4.000000,-5.000000,-8.000000,14.000000,13.000000,14.000000,0.000000
1298718.869701,52.000000,23.000000,-1.000000,12.000000,10.000000,29.000000,56.000000,65.000000
1298718.878135,-51.000000,-128.000000,-7.000000,31.000000,10.000000,0.000000,-29.000000,-4.000000
1298718.878159,-45.000000,-65.000000,-54.000000,-57.000000,-24.000000,-15.000000,-30.000000,-42.000000
1298718.899521,-29.000000,6.000000,15.000000,15.000000,5.000000,7.000000,16.000000,20.000000
1298718.899547,-1.000000,41.000000,5.000000,21.000000,4.000000,8.000000,29.000000,44.000000
1298718.914265,74.000000,68.000000,-74.000000,-17.000000,-15.000000,13.000000,49.000000,61.000000
1298718.914313,9.000000,-13.000000,6.000000,-20.000000,-20.000000,-27.000000,-18.000000,-33.000000
1298718.921995,-53.000000,27.000000,-19.000000,-44.000000,-29.000000,-38.000000,-38.000000,-32.000000
1298718.922052,-17.000000,-66.000000,-19.000000,-16.000000,-8.000000,-10.000000,7.000000,36.000000
1298718.937183,-57.000000,-88.000000,-52.000000,-8.000000,-4.000000,-12.000000,-15.000000,-14.000000
1298718.937234,24.000000,34.000000,2.000000,20.000000,-3.000000,2.000000,11.000000,30.000000
1298718.944526,29.000000,-2.000000,-5.000000,3.000000,-3.000000,2.000000,10.000000,7.000000
1298718.944576,12.000000,35.000000,-6.000000,4.000000,-7.000000,-1.000000,-2.000000,-19.000000
1298718.967496,-8.000000,-7.000000,-32.000000,-32.000000,-9.000000,-24.000000,-28.000000,-16.000000
1298718.967927,-45.000000,-9.000000,-17.000000,-22.000000,-21.000000,-21.000000,-26.000000,-17.000000
1298718.968496,16.000000,45.000000,25.000000,12.000000,7.000000,0.000000,-18.000000,-47.000000
1298718.968526,-20.000000,-13.000000,15.000000,24.000000,11.000000,5.000000,6.000000,-3.000000
1298718.969803,123.000000,42.000000,54.000000,30.000000,20.000000,34.000000,57.000000,80.000000
1298718.969851,-51.000000,-94.000000,-42.000000,4.000000,-8.000000,-17.000000,-27.000000,-43.000000
1298718.974232,-1.000000,-14.000000,-26.000000,-36.000000,0.000000,4.000000,39.000000,50.000000
1298718.974284,13.000000,-56.000000,-50.000000,-30.000000,-17.000000,-11.000000,-27.000000,-13.000000
1298718.981926,-65.000000,-18.000000,16.000000,30.000000,6.000000,-8.000000,19.000000,24.000000
1298718.981976,9.000000,3.000000,-15.000000,-70.000000,-28.000000,-14.000000,-29.000000,19.000000
1298718.989522,-23.000000,-51.000000,4.000000,33.000000,16.000000,12.000000,11.000000,22.000000
1298718.989546,26.000000,-15.000000,42.000000,42.000000,10.000000,10.000000,23.000000,14.000000
1298718.998081,39.000000,-13.000000,0.000000,-18.000000,-4.000000,4.000000,2.000000,20.000000
1298718.998128,-51.000000,-4.000000,-1.000000,11.000000,-5.000000,-17.000000,-25.000000,-18.000000
1298719.012307,-51.000000,-32.000000,-60.000000,-41.000000,-25.000000,-18.000000,-15.000000,-17.000000
1298719.012357,25.000000,-48.000000,-18.000000,26.000000,12.000000,9.000000,33.000000,38.000000
1298719.034304,69.000000,12.000000,33.000000,0.000000,8.000000,9.000000,26.000000,15.000000
1298719.034329,9.000000,-18.000000,-17.000000,-11.000000,1.000000,2.000000,3.000000,30.000000
1298719.064638,-71.000000,20.000000,-36.000000,-27.000000,-17.000000,-25.000000,-46.000000,-56.000000
1298719.064665,-11.000000,-19.000000,1.000000,10.000000,5.000000,9.000000,21.000000,21.000000
1298719.073798,98.000000,50.000000,15.000000,12.000000,4.000000,5.000000,17.000000,18.000000
1298719.073830,-110.000000,-43.000000,-31.000000,15.000000,-5.000000,-19.000000,-36.000000,-60.000000
1298719.074494,-23.000000,-25.000000,-29.000000,-51.000000,-11.000000,-2.000000,-3.000000,9.000000
1298719.074712,32.000000,20.000000,-13.000000,-5.000000,-2.000000,-1.000000,-4.000000,3.000000
1298719.075524,17.000000,46.000000,17.000000,30.000000,0.000000,7.000000,11.000000,6.000000
1298719.075548,-81.000000,-25.000000,-11.000000,-37.000000,-12.000000,-5.000000,9.000000,-1.000000
1298719.075736,1.000000,25.000000,8.000000,70.000000,1.000000,-7.000000,-7.000000,-8.000000
1298719.075761,-11.000000,-28.000000,-28.000000,-54.000000,-2.000000,-5.000000,-2.000000,1.000000
1298719.080445,-14.000000,-8.000000,-16.000000,-20.000000,-15.000000,-12.000000,-17.000000,-20.000000
1298719.080471,17.000000,29.000000,36.000000,41.000000,6.000000,0.000000,1.000000,-22.000000
1298719.102593,-9.000000,-55.000000,-30.000000,-2.000000,15.000000,6.000000,30.000000,53.000000
1298719.102648,38.000000,23.000000,27.000000,16.000000,-5.000000,-7.000000,-21.000000,-21.000000
1298719.103952,-65.000000,-1.000000,-8.000000,-33.000000,-4.000000,6.000000,19.000000,25.000000
1298719.103993,2.000000,-23.000000,18.000000,-3.000000,9.000000,17.000000,54.000000,80.000000
1298719.109424,57.000000,19.000000,-8.000000,-17.000000,-19.000000,-23.000000,-21.000000,-4.000000
1298719.109541,-126.000000,-2.000000,-8.000000,-7.000000,-6.000000,-4.000000,-14.000000,-75.000000
1298719.117697,37.000000,-87.000000,-54.000000,12.000000,11.000000,12.000000,29.000000,57.000000
1298719.117867,15.000000,52.000000,23.000000,-24.000000,-5.000000,-7.000000,5.000000,39.000000
1298719.139565,-32.000000,-111.000000,5.000000,4.000000,-3.000000,-7.000000,-31.000000,-67.000000
1298719.139618,11.000000,58.000000,-13.000000,-13.000000,-5.000000,-5.000000,4.000000,8.000000
1298719.155519,-8.000000,91.000000,-4.000000,12.000000,7.000000,15.000000,34.000000,43.000000
1298719.155639,-9.000000,22.000000,28.000000,29.000000,17.000000,5.000000,-6.000000,-7.000000
1298719.170627,10.000000,-5.000000,7.000000,4.000000,-21.000000,5.000000,15.000000,13.000000
1298719.170686,2.000000,-11.000000,-52.000000,-43.000000,-9.000000,-9.000000,-7.000000,-10.000000
1298719.185169,-16.000000,15.000000,50.000000,51.000000,0.000000,-15.000000,-39.000000,-52.000000
1298719.185220,17.000000,-17.000000,-11.000000,-40.000000,-2.000000,3.000000,16.000000,-5.000000
1298719.192194,26.000000,2.000000,-17.000000,6.000000,4.000000,-4.000000,9.000000,6.000000
1298719.192256,-93.000000,-3.000000,1.000000,-1.000000,-13.000000,-6.000000,-24.000000,-41.000000
1298719.222074,-49.000000,-30.000000,-7.000000,11.000000,-5.000000,-16.000000,-18.000000,1.000000
1298719.222130,35.000000,-53.000000,41.000000,23.000000,13.000000,11.000000,17.000000,38.000000
1298719.229922,24.000000,19.000000,-12.000000,-16.000000,-14.000000,-15.000000,-15.000000,-26.000000
1298719.230083,-30.000000,-13.000000,-31.000000,-10.000000,-5.000000,3.000000,4.000000,5.000000
1298719.232340,51.000000,3.000000,22.000000,20.000000,7.000000,11.000000,48.000000,67.000000
1298719.232390,-50.000000,-45.000000,-13.000000,0.000000,3.000000,0.000000,-7.000000,-40.000000
1298719.233207,-31.000000,8.000000,23.000000,18.000000,-9.000000,-7.000000,-6.000000,2.000000
1298719.233253,37.000000,-46.000000,-75.000000,-69.000000,-7.000000,-11.000000,-10.000000,-3.000000
1298719.233973,-50.000000,12.000000,8.000000,-3.000000,-12.000000,-3.000000,-14.000000,-22.000000
1298719.234023,9.000000,-8.000000,7.000000,13.000000,9.000000,6.000000,10.000000,20.000000
1298719.244542,19.000000,-2.000000,-35.000000,-43.000000,-24.000000,-10.000000,14.000000,13.000000
1298719.244593,-14.000000,-76.000000,-26.000000,5.000000,1.000000,-5.000000,-13.000000,-20.000000
1298719.259823,-25.000000,-29.000000,1.000000,3.000000,0.000000,6.000000,0.000000,-21.000000
1298719.259851,48.000000,34.000000,-46.000000,21.000000,3.000000,-2.000000,6.000000,22.000000
1298719.274536,-35.000000,-114.000000,-33.000000,-70.000000,-20.000000,-24.000000,-79.000000,-79.000000
1298719.274585,-24.000000,51.000000,33.000000,17.000000,7.000000,15.000000,41.000000,50.000000
1298719.297270,11.000000,-8.000000,-4.000000,7.000000,-3.000000,5.000000,21.000000,25.000000
1298719.297322,38.000000,-4.000000,-15.000000,-17.000000,-11.000000,-17.000000,-31.000000,-14.000000
1298719.306123,-39.000000,-2.000000,18.000000,22.000000,5.000000,-4.000000,-1.000000,3.000000
1298719.306247,21.000000,1.000000,31.000000,24.000000,9.000000,12.000000,5.000000,-19.000000
1298719.306774,18.000000,90.000000,19.000000,-10.000000,-15.000000,-10.000000,-38.000000,-25.000000
1298719.306823,8.000000,-59.000000,-11.000000,-39.000000,-6.000000,-3.000000,-6.000000,-8.000000
1298719.307845,-5.000000,-1.000000,14.000000,18.000000,7.000000,2.000000,1.000000,-30.000000
1298719.307880,28.000000,31.000000,-25.000000,0.000000,0.000000,8.000000,35.000000,28.000000
1298719.320622,-28.000000,-7.000000,-5.000000,8.000000,-6.000000,-8.000000,-13.000000,-4.000000
1298719.320673,9.000000,0.000000,9.000000,13.000000,7.000000,12.000000,13.000000,4.000000
1298719.342991,-43.000000,50.000000,1.000000,20.000000,-17.000000,-15.000000,-9.000000,7.000000
1298719.343315,-35.000000,-61.000000,-41.000000,-101.000000,-33.000000,-20.000000,-16.000000,-34.000000
1298719.343615,-15.000000,-77.000000,-30.000000,-3.000000,2.000000,-2.000000,-10.000000,-5.000000
1298719.343870,18.000000,-63.000000,-8.000000,12.000000,4.000000,12.000000,17.000000,20.000000
1298719.344615,20.000000,12.000000,41.000000,20.000000,13.000000,22.000000,18.000000,19.000000
1298719.344636,53.000000,79.000000,-14.000000,17.000000,10.000000,20.000000,45.000000,49.000000
1298719.349560,-37.000000,27.000000,16.000000,20.000000,-1.000000,-29.000000,-57.000000,-30.000000
1298719.349613,-39.000000,-66.000000,-54.000000,-50.000000,-17.000000,-9.000000,-12.000000,-21.000000
1298719.379608,21.000000,8.000000,7.000000,3.000000,3.000000,3.000000,-15.000000,-8.000000
1298719.379633,-63.000000,-87.000000,34.000000,27.000000,3.000000,9.000000,5.000000,-10.000000
1298719.387134,-24.000000,-20.000000,-29.000000,-17.000000,-7.000000,-13.000000,-13.000000,0.000000
1298719.387158,61.000000,34.000000,24.000000,24.000000,17.000000,11.000000,31.000000,51.000000
1298719.417024,9.000000,-107.000000,-11.000000,-11.000000,-10.000000,-4.000000,-3.000000,-35.000000
1298719.417068,-54.000000,0.000000,-19.000000,-30.000000,-11.000000,-6.000000,7.000000,9.000000
1298719.424632,40.000000,18.000000,-7.000000,9.000000,-6.000000,-2.000000,5.000000,18.000000
1298719.424680,-11.000000,-41.000000,-24.000000,27.000000,10.000000,-1.000000,-14.000000,-26.000000
1298719.433005,18.000000,-23.000000,-3.000000,-20.000000,-8.000000,8.000000,26.000000,37.000000
1298719.433061,23.000000,19.000000,-7.000000,-19.000000,-2.000000,-6.000000,0.000000,27.000000
1298719.433502,-23.000000,76.000000,15.000000,-6.000000,-15.000000,-34.000000,-53.000000,-36.000000
1298719.433550,-21.000000,5.000000,-8.000000,4.000000,-5.000000,-3.000000,9.000000,12.000000
1298719.435189,-39.000000,14.000000,16.000000,-6.000000,-2.000000,-4.000000,-5.000000,-19.000000
1298719.435211,-19.000000,-81.000000,-28.000000,-4.000000,-1.000000,2.000000,10.000000,16.000000
1298719.455718,41.000000,43.000000,36.000000,27.000000,1.000000,4.000000,39.000000,17.000000
1298719.455965,-69.000000,-108.000000,-25.000000,-22.000000,-6.000000,-22.000000,-34.000000,-35.000000
1298719.456218,-26.000000,-51.000000,-16.000000,-20.000000,-17.000000,0.000000,4.000000,1.000000
1298719.456269,16.000000,46.000000,7.000000,1.000000,-3.000000,3.000000,5.000000,3.000000
1298719.462101,56.000000,3.000000,23.000000,38.000000,26.000000,21.000000,36.000000,22.000000
1298719.462161,28.000000,2.000000,-9.000000,23.000000,3.000000,-7.000000,0.000000,25.000000
1298719.484769,-79.000000,-66.000000,-70.000000,-95.000000,-29.000000,-24.000000,-68.000000,-115.000000
1298719.484864,-23.000000,-62.000000,3.000000,15.000000,3.000000,11.000000,40.000000,57.000000
1298719.492060,58.000000,77.000000,66.000000,48.000000,18.000000,25.000000,43.000000,54.000000
1298719.492086,-23.000000,-42.000000,-53.000000,-47.000000,-10.000000,-34.000000,-38.000000,-51.000000
1298719.499440,-83.000000,-100.000000,-26.000000,-24.000000,-9.000000,-3.000000,-5.000000,-17.000000
