# participant_id: P5
# gesture: medium
# trial_number: 1
# stream_name: Myo_EMG
# stream_type: emg
# timestamp: 20260420_140111
# samples: 5622
# duration_sec: 30.569
# nominal_sample_rate: 200.0
# effective_sample_rate: 183.88
#
timestamp,emg_1,emg_2,emg_3,emg_4,emg_5,emg_6,emg_7,emg_8
1298363.587336,110.000000,44.000000,34.000000,-6.000000,-3.000000,18.000000,21.000000,39.000000
1298363.587387,-111.000000,127.000000,37.000000,-6.000000,-7.000000,-6.000000,5.000000,-17.000000
1298363.594066,18.000000,3.000000,0.000000,15.000000,-4.000000,-9.000000,-30.000000,-23.000000
1298363.594114,-24.000000,-11.000000,-14.000000,-3.000000,-17.000000,-17.000000,-28.000000,-26.000000
1298363.616696,127.000000,63.000000,18.000000,14.000000,-5.000000,-5.000000,4.000000,40.000000
1298363.617073,-99.000000,-45.000000,16.000000,13.000000,-3.000000,-16.000000,-30.000000,-84.000000
1298363.617710,-79.000000,-19.000000,-35.000000,-26.000000,-18.000000,-11.000000,-10.000000,-24.000000
1298363.617927,-35.000000,-53.000000,22.000000,22.000000,-3.000000,-3.000000,2.000000,3.000000
1298363.626045,85.000000,19.000000,-1.000000,-26.000000,11.000000,20.000000,36.000000,53.000000
1298363.626124,55.000000,-13.000000,5.000000,-1.000000,-6.000000,-12.000000,1.000000,15.000000
1298363.632250,43.000000,16.000000,0.000000,21.000000,2.000000,-8.000000,-21.000000,-8.000000
1298363.632280,-40.000000,36.000000,-37.000000,-28.000000,1.000000,10.000000,3.000000,-23.000000
1298363.661535,-39.000000,-9.000000,3.000000,-7.000000,-1.000000,8.000000,10.000000,21.000000
1298363.661562,79.000000,90.000000,53.000000,43.000000,4.000000,9.000000,6.000000,4.000000
1298363.668864,-99.000000,-91.000000,-68.000000,-27.000000,17.000000,12.000000,25.000000,12.000000
1298363.668915,62.000000,-5.000000,7.000000,-10.000000,1.000000,-1.000000,-8.000000,30.000000
1298363.698991,48.000000,29.000000,-2.000000,-3.000000,-5.000000,-11.000000,-6.000000,-6.000000
1298363.699583,-128.000000,-46.000000,-14.000000,1.000000,-14.000000,-17.000000,-49.000000,-81.000000
1298363.700299,-55.000000,-2.000000,-12.000000,-39.000000,-6.000000,12.000000,17.000000,-8.000000
1298363.700353,-12.000000,-1.000000,-5.000000,16.000000,0.000000,0.000000,-6.000000,22.000000
1298363.701642,107.000000,16.000000,-19.000000,-3.000000,2.000000,4.000000,11.000000,39.000000
1298363.701689,32.000000,74.000000,49.000000,8.000000,3.000000,-4.000000,5.000000,12.000000
1298363.701905,13.000000,-15.000000,9.000000,1.000000,4.000000,1.000000,-1.000000,7.000000
1298363.701921,17.000000,7.000000,-21.000000,27.000000,5.000000,-4.000000,-8.000000,-11.000000
1298363.707244,-17.000000,-1.000000,-29.000000,-14.000000,-7.000000,-12.000000,-8.000000,-11.000000
1298363.707292,-58.000000,-45.000000,-1.000000,-20.000000,-4.000000,-12.000000,-23.000000,-36.000000
1298363.736518,74.000000,57.000000,23.000000,37.000000,8.000000,17.000000,22.000000,53.000000
1298363.736898,127.000000,-4.000000,15.000000,26.000000,20.000000,10.000000,8.000000,13.000000
1298363.738070,-128.000000,-128.000000,-54.000000,-75.000000,-30.000000,-23.000000,-19.000000,-87.000000
1298363.738354,127.000000,27.000000,-33.000000,-2.000000,-2.000000,0.000000,-12.000000,-1.000000
1298363.738825,90.000000,41.000000,44.000000,36.000000,7.000000,9.000000,24.000000,79.000000
1298363.738871,127.000000,55.000000,7.000000,-16.000000,-4.000000,-8.000000,-36.000000,-23.000000
1298363.744942,-128.000000,9.000000,0.000000,-7.000000,-14.000000,-4.000000,0.000000,-50.000000
1298363.744988,79.000000,-20.000000,-31.000000,-7.000000,-5.000000,-6.000000,7.000000,6.000000
1298363.774119,-23.000000,15.000000,3.000000,28.000000,4.000000,-4.000000,8.000000,14.000000
1298363.774182,68.000000,22.000000,-18.000000,-59.000000,-15.000000,5.000000,12.000000,37.000000
1298363.796337,-11.000000,9.000000,14.000000,16.000000,10.000000,7.000000,5.000000,9.000000
1298363.796387,5.000000,9.000000,30.000000,29.000000,6.000000,10.000000,7.000000,11.000000
1298363.819066,15.000000,10.000000,28.000000,17.000000,10.000000,3.000000,9.000000,16.000000
1298363.819116,10.000000,41.000000,-5.000000,34.000000,8.000000,-13.000000,-2.000000,-6.000000
1298363.828255,127.000000,84.000000,29.000000,33.000000,15.000000,17.000000,8.000000,42.000000
1298363.828592,-128.000000,-92.000000,-54.000000,-23.000000,-16.000000,-27.000000,-30.000000,-89.000000
1298363.828783,-68.000000,-28.000000,-36.000000,-79.000000,-23.000000,-8.000000,-42.000000,-67.000000
1298363.828807,-128.000000,-36.000000,-22.000000,-12.000000,-15.000000,0.000000,-2.000000,-8.000000
1298363.830158,-19.000000,-45.000000,39.000000,9.000000,-8.000000,-15.000000,-41.000000,-60.000000
1298363.830205,127.000000,-6.000000,1.000000,2.000000,12.000000,17.000000,48.000000,106.000000
1298363.830611,-128.000000,-14.000000,21.000000,-2.000000,-5.000000,-3.000000,-22.000000,-87.000000
1298363.830653,-98.000000,-8.000000,-24.000000,-21.000000,-10.000000,-1.000000,11.000000,2.000000
1298363.841330,-33.000000,2.000000,-11.000000,-26.000000,-34.000000,-40.000000,-60.000000,-46.000000
1298363.841358,46.000000,-24.000000,-32.000000,-36.000000,9.000000,4.000000,6.000000,7.000000
1298363.857126,127.000000,71.000000,34.000000,3.000000,20.000000,20.000000,34.000000,62.000000
1298363.857252,-74.000000,-124.000000,-19.000000,25.000000,5.000000,-17.000000,-64.000000,-128.000000
1298363.857611,-32.000000,-128.000000,-47.000000,-63.000000,-28.000000,-9.000000,-5.000000,-25.000000
1298363.857638,127.000000,86.000000,39.000000,79.000000,38.000000,37.000000,76.000000,127.000000
1298363.871357,127.000000,36.000000,16.000000,-7.000000,-12.000000,-22.000000,-26.000000,-50.000000
1298363.871405,-128.000000,-82.000000,-19.000000,-24.000000,-18.000000,-16.000000,-57.000000,-77.000000
1298363.879059,115.000000,32.000000,21.000000,15.000000,2.000000,10.000000,1.000000,-23.000000
1298363.879177,-128.000000,-44.000000,-11.000000,14.000000,6.000000,13.000000,8.000000,-37.000000
1298363.901512,-128.000000,-3.000000,9.000000,16.000000,-1.000000,3.000000,14.000000,-21.000000
1298363.901564,98.000000,52.000000,15.000000,-2.000000,7.000000,9.000000,15.000000,58.000000
1298363.908986,91.000000,54.000000,21.000000,15.000000,14.000000,11.000000,34.000000,60.000000
1298363.909013,18.000000,-15.000000,0.000000,5.000000,-7.000000,-31.000000,-69.000000,-35.000000
1298363.939192,44.000000,6.000000,56.000000,46.000000,17.000000,20.000000,16.000000,9.000000
1298363.939222,-118.000000,-34.000000,-37.000000,-37.000000,-18.000000,-2.000000,34.000000,28.000000
1298363.946261,56.000000,-24.000000,11.000000,-21.000000,5.000000,20.000000,26.000000,40.000000
1298363.946287,-8.000000,9.000000,-1.000000,32.000000,-1.000000,-23.000000,-55.000000,-68.000000
1298363.977071,91.000000,32.000000,23.000000,12.000000,10.000000,18.000000,27.000000,37.000000
1298363.977121,-39.000000,-64.000000,4.000000,14.000000,-3.000000,-4.000000,-13.000000,-35.000000
1298363.984205,-77.000000,81.000000,14.000000,6.000000,3.000000,9.000000,24.000000,28.000000
1298363.984270,8.000000,35.000000,2.000000,3.000000,7.000000,-12.000000,-26.000000,-72.000000
1298364.014296,-99.000000,-128.000000,-47.000000,-11.000000,-19.000000,-18.000000,-3.000000,5.000000
1298364.014346,97.000000,-5.000000,31.000000,11.000000,1.000000,3.000000,0.000000,35.000000
1298364.021568,127.000000,-42.000000,50.000000,18.000000,7.000000,7.000000,16.000000,25.000000
1298364.021594,-113.000000,-4.000000,9.000000,9.000000,1.000000,3.000000,-4.000000,3.000000
1298364.051536,127.000000,20.000000,-6.000000,5.000000,9.000000,12.000000,19.000000,57.000000
1298364.051591,-128.000000,-32.000000,-3.000000,-10.000000,-6.000000,-7.000000,-7.000000,-70.000000
1298364.058899,-40.000000,48.000000,-8.000000,-66.000000,-22.000000,-6.000000,-27.000000,-20.000000
1298364.059313,-88.000000,-87.000000,-57.000000,-16.000000,-13.000000,-14.000000,-8.000000,-39.000000
1298364.060937,103.000000,58.000000,38.000000,6.000000,-7.000000,5.000000,11.000000,37.000000
1298364.060994,127.000000,30.000000,0.000000,9.000000,10.000000,6.000000,23.000000,36.000000
1298364.062313,-128.000000,-54.000000,-3.000000,-4.000000,3.000000,-5.000000,-21.000000,-54.000000
1298364.062363,91.000000,-2.000000,15.000000,-13.000000,-14.000000,-1.000000,13.000000,-4.000000
1298364.067257,20.000000,46.000000,20.000000,-19.000000,-11.000000,-8.000000,1.000000,1.000000
1298364.067283,-5.000000,1.000000,-4.000000,-9.000000,-5.000000,-6.000000,2.000000,26.000000
1298364.096674,111.000000,43.000000,24.000000,5.000000,3.000000,-5.000000,-8.000000,-25.000000
1298364.097045,-128.000000,-54.000000,-38.000000,5.000000,-25.000000,-31.000000,-34.000000,-98.000000
1298364.098595,71.000000,-25.000000,-30.000000,-20.000000,-11.000000,-6.000000,0.000000,13.000000
1298364.098641,89.000000,41.000000,47.000000,22.000000,1.000000,1.000000,12.000000,66.000000
1298364.099013,115.000000,40.000000,6.000000,15.000000,6.000000,3.000000,10.000000,76.000000
1298364.099047,127.000000,-6.000000,-22.000000,-34.000000,-11.000000,-16.000000,-18.000000,-52.000000
1298364.119101,-128.000000,-128.000000,-106.000000,-46.000000,-36.000000,-41.000000,-56.000000,-84.000000
1298364.119153,79.000000,127.000000,61.000000,37.000000,20.000000,40.000000,54.000000,43.000000
1298364.133942,49.000000,4.000000,2.000000,22.000000,15.000000,9.000000,38.000000,69.000000
1298364.133991,-17.000000,5.000000,-5.000000,-2.000000,2.000000,-15.000000,-25.000000,-22.000000
1298364.149124,-43.000000,-10.000000,16.000000,-66.000000,-14.000000,-4.000000,6.000000,-13.000000
1298364.149149,107.000000,35.000000,16.000000,28.000000,6.000000,20.000000,25.000000,46.000000
1298364.156412,-128.000000,2.000000,-16.000000,2.000000,2.000000,-1.000000,2.000000,-49.000000
1298364.156460,-13.000000,1.000000,19.000000,3.000000,0.000000,-12.000000,-23.000000,-31.000000
1298364.173391,59.000000,12.000000,18.000000,25.000000,14.000000,11.000000,-1.000000,-15.000000
1298364.173694,-53.000000,-10.000000,3.000000,15.000000,2.000000,-3.000000,-2.000000,15.000000
1298364.174446,39.000000,9.000000,2.000000,6.000000,4.000000,1.000000,11.000000,9.000000
1298364.174469,-18.000000,-8.000000,-5.000000,-16.000000,8.000000,-2.000000,-26.000000,-54.000000
1298364.175062,-128.000000,-1.000000,-18.000000,12.000000,-2.000000,9.000000,4.000000,-35.000000
1298364.175186,-24.000000,24.000000,7.000000,17.000000,-5.000000,1.000000,9.000000,25.000000
1298364.179063,120.000000,-10.000000,-18.000000,10.000000,1.000000,-3.000000,11.000000,48.000000
1298364.179171,127.000000,70.000000,26.000000,-28.000000,-6.000000,-6.000000,-22.000000,-42.000000
1298364.187137,31.000000,-5.000000,-4.000000,25.000000,7.000000,9.000000,12.000000,27.000000
1298364.187162,120.000000,10.000000,29.000000,29.000000,5.000000,-6.000000,-8.000000,26.000000
1298364.209160,-115.000000,-74.000000,-16.000000,-9.000000,-9.000000,-22.000000,-53.000000,-123.000000
1298364.209298,25.000000,83.000000,15.000000,17.000000,3.000000,12.000000,14.000000,26.000000
1298364.210964,127.000000,-7.000000,39.000000,46.000000,22.000000,16.000000,44.000000,100.000000
1298364.210984,32.000000,-26.000000,-30.000000,-25.000000,17.000000,-2.000000,-2.000000,-8.000000
1298364.216874,-110.000000,-40.000000,-25.000000,-86.000000,-35.000000,-33.000000,-66.000000,-94.000000
1298364.216918,13.000000,-111.000000,-37.000000,12.000000,-10.000000,-14.000000,9.000000,-16.000000
1298364.231581,-128.000000,-58.000000,-34.000000,-32.000000,-12.000000,-8.000000,1.000000,-35.000000
1298364.231610,69.000000,39.000000,11.000000,27.000000,7.000000,25.000000,24.000000,46.000000
1298364.254001,125.000000,38.000000,21.000000,4.000000,-3.000000,5.000000,24.000000,25.000000
1298364.254027,-109.000000,-15.000000,-23.000000,-2.000000,-7.000000,-20.000000,-44.000000,-62.000000
1298364.269145,29.000000,56.000000,33.000000,19.000000,3.000000,14.000000,16.000000,32.000000
1298364.269172,-15.000000,-31.000000,27.000000,24.000000,26.000000,23.000000,26.000000,29.000000
1298364.276453,116.000000,32.000000,14.000000,-17.000000,11.000000,4.000000,12.000000,13.000000
1298364.276479,-89.000000,8.000000,2.000000,23.000000,-15.000000,-13.000000,-30.000000,-41.000000
1298364.293027,61.000000,-34.000000,-24.000000,10.000000,30.000000,19.000000,26.000000,69.000000
1298364.293076,127.000000,80.000000,-27.000000,-45.000000,-11.000000,4.000000,36.000000,74.000000
1298364.293292,-128.000000,-51.000000,-2.000000,26.000000,-11.000000,-29.000000,-77.000000,-128.000000
1298364.293322,-41.000000,-14.000000,-23.000000,-24.000000,-17.000000,18.000000,27.000000,54.000000
1298364.294879,127.000000,-11.000000,-20.000000,17.000000,9.000000,-1.000000,13.000000,41.000000
1298364.295008,124.000000,51.000000,40.000000,17.000000,18.000000,16.000000,40.000000,69.000000
1298364.299113,0.000000,12.000000,-5.000000,14.000000,2.000000,-11.000000,-53.000000,-50.000000
1298364.299164,-115.000000,-12.000000,2.000000,-31.000000,-12.000000,-13.000000,-16.000000,-31.000000
1298364.307351,119.000000,-2.000000,-13.000000,-4.000000,14.000000,30.000000,67.000000,91.000000
1298364.307391,-128.000000,-45.000000,-10.000000,-7.000000,1.000000,-5.000000,-16.000000,-31.000000
1298364.321899,-128.000000,101.000000,50.000000,16.000000,0.000000,4.000000,-6.000000,-21.000000
1298364.321932,49.000000,-37.000000,-54.000000,-76.000000,-12.000000,-10.000000,-1.000000,-24.000000
1298364.329170,68.000000,-11.000000,28.000000,28.000000,2.000000,16.000000,29.000000,53.000000
1298364.329206,2.000000,0.000000,-19.000000,-8.000000,0.000000,4.000000,10.000000,2.000000
1298364.336355,1.000000,-36.000000,11.000000,9.000000,-12.000000,-40.000000,-49.000000,-63.000000
1298364.336406,61.000000,-71.000000,-34.000000,-13.000000,-6.000000,-13.000000,-23.000000,-34.000000
1298364.351796,-111.000000,-21.000000,-18.000000,8.000000,11.000000,28.000000,53.000000,44.000000
1298364.351838,51.000000,39.000000,5.000000,8.000000,-2.000000,2.000000,-15.000000,14.000000
1298364.374144,127.000000,19.000000,-10.000000,-34.000000,-15.000000,-4.000000,20.000000,26.000000
1298364.374199,-82.000000,43.000000,5.000000,23.000000,6.000000,3.000000,6.000000,9.000000
1298364.396692,-78.000000,-14.000000,-3.000000,0.000000,-16.000000,-5.000000,-3.000000,-14.000000
1298364.396730,27.000000,35.000000,16.000000,6.000000,8.000000,11.000000,11.000000,21.000000
1298364.404250,97.000000,-45.000000,-3.000000,-13.000000,4.000000,-6.000000,-15.000000,4.000000
1298364.404299,52.000000,28.000000,21.000000,1.000000,0.000000,-4.000000,-20.000000,-5.000000
1298364.413453,-128.000000,-71.000000,-12.000000,18.000000,4.000000,5.000000,4.000000,-65.000000
1298364.413914,103.000000,21.000000,53.000000,32.000000,3.000000,2.000000,32.000000,57.000000
1298364.414469,-10.000000,-1.000000,-12.000000,-67.000000,-8.000000,-7.000000,-38.000000,-42.000000
1298364.414526,-4.000000,7.000000,22.000000,22.000000,6.000000,10.000000,20.000000,15.000000
1298364.416052,20.000000,-3.000000,-20.000000,-8.000000,-6.000000,-8.000000,-13.000000,5.000000
1298364.416079,67.000000,26.000000,21.000000,5.000000,6.000000,8.000000,6.000000,21.000000
1298364.419078,9.000000,27.000000,15.000000,2.000000,2.000000,10.000000,14.000000,24.000000
1298364.419137,127.000000,11.000000,-4.000000,22.000000,-3.000000,-37.000000,-50.000000,-3.000000
1298364.427277,-128.000000,40.000000,-25.000000,-9.000000,-7.000000,-3.000000,-6.000000,-60.000000
1298364.427305,-50.000000,-71.000000,-58.000000,-22.000000,-22.000000,-2.000000,4.000000,6.000000
1298364.449615,40.000000,30.000000,19.000000,-20.000000,-5.000000,7.000000,17.000000,28.000000
1298364.449851,-7.000000,-31.000000,-30.000000,-7.000000,0.000000,-11.000000,-31.000000,-33.000000
1298364.450513,127.000000,127.000000,44.000000,22.000000,6.000000,14.000000,11.000000,40.000000
1298364.450556,33.000000,58.000000,31.000000,29.000000,4.000000,12.000000,17.000000,32.000000
1298364.456507,-8.000000,-128.000000,-59.000000,-17.000000,9.000000,-12.000000,-8.000000,-18.000000
1298364.456532,-114.000000,-29.000000,-44.000000,-19.000000,-27.000000,-47.000000,-80.000000,-66.000000
1298364.486573,127.000000,-17.000000,16.000000,-2.000000,-7.000000,19.000000,44.000000,59.000000
1298364.486623,-128.000000,-15.000000,-6.000000,18.000000,4.000000,-6.000000,-21.000000,-94.000000
1298364.493934,46.000000,43.000000,46.000000,43.000000,13.000000,4.000000,-18.000000,-2.000000
1298364.493984,127.000000,-7.000000,-35.000000,-12.000000,-7.000000,6.000000,14.000000,36.000000
1298364.508813,-44.000000,-23.000000,-12.000000,-24.000000,-9.000000,-19.000000,-30.000000,-68.000000
1298364.508861,26.000000,4.000000,0.000000,6.000000,2.000000,9.000000,27.000000,42.000000
1298364.531780,4.000000,31.000000,37.000000,45.000000,9.000000,8.000000,24.000000,19.000000
1298364.531838,20.000000,-5.000000,-12.000000,-46.000000,-14.000000,-22.000000,-19.000000,20.000000
1298364.533850,42.000000,-12.000000,-35.000000,6.000000,-5.000000,-11.000000,-6.000000,3.000000
1298364.533897,-89.000000,50.000000,17.000000,25.000000,8.000000,-2.000000,-10.000000,-43.000000
1298364.534151,40.000000,0.000000,-14.000000,-5.000000,-12.000000,1.000000,6.000000,24.000000
1298364.534187,-3.000000,-91.000000,1.000000,32.000000,0.000000,-7.000000,3.000000,-2.000000
1298364.540083,-15.000000,-30.000000,-49.000000,-64.000000,-20.000000,-18.000000,-36.000000,-36.000000
1298364.540109,-26.000000,-55.000000,-13.000000,15.000000,12.000000,2.000000,-8.000000,-9.000000
1298364.540799,77.000000,10.000000,24.000000,-8.000000,-11.000000,-6.000000,-4.000000,-5.000000
1298364.540820,-75.000000,27.000000,33.000000,19.000000,1.000000,5.000000,7.000000,-6.000000
1298364.547388,26.000000,-12.000000,31.000000,31.000000,16.000000,16.000000,10.000000,26.000000
1298364.547432,125.000000,3.000000,1.000000,7.000000,-1.000000,3.000000,38.000000,51.000000
1298364.569307,-113.000000,19.000000,27.000000,-4.000000,-8.000000,-29.000000,-75.000000,-58.000000
1298364.569543,-39.000000,-17.000000,-24.000000,0.000000,-9.000000,-6.000000,-6.000000,-36.000000
1298364.571051,5.000000,-49.000000,-18.000000,-13.000000,0.000000,8.000000,11.000000,17.000000
1298364.571108,-72.000000,1.000000,22.000000,11.000000,1.000000,-1.000000,13.000000,0.000000
1298364.576762,-37.000000,-20.000000,-30.000000,-26.000000,-17.000000,-26.000000,-33.000000,-3.000000
1298364.576789,66.000000,3.000000,13.000000,15.000000,7.000000,3.000000,-2.000000,-7.000000
1298364.600300,53.000000,20.000000,4.000000,21.000000,8.000000,21.000000,48.000000,64.000000
1298364.600354,-24.000000,-34.000000,-29.000000,-33.000000,-22.000000,-65.000000,-118.000000,-96.000000
1298364.607326,-94.000000,-75.000000,33.000000,35.000000,-19.000000,-11.000000,-11.000000,-38.000000
1298364.607368,74.000000,20.000000,-27.000000,-66.000000,0.000000,18.000000,32.000000,43.000000
1298364.616273,58.000000,-5.000000,23.000000,40.000000,17.000000,1.000000,10.000000,19.000000
1298364.616515,-35.000000,-1.000000,3.000000,1.000000,-4.000000,-8.000000,-25.000000,-35.000000
1298364.617185,3.000000,51.000000,6.000000,-13.000000,2.000000,19.000000,16.000000,-3.000000
1298364.617224,-106.000000,-128.000000,-6.000000,-26.000000,-18.000000,-15.000000,-8.000000,-1.000000
1298364.651478,108.000000,70.000000,47.000000,20.000000,8.000000,9.000000,15.000000,36.000000
1298364.651530,22.000000,-21.000000,55.000000,26.000000,18.000000,8.000000,-7.000000,-20.000000
1298364.658892,-128.000000,-128.000000,-90.000000,-36.000000,-17.000000,-13.000000,-7.000000,-36.000000
1298364.658943,127.000000,98.000000,50.000000,46.000000,17.000000,12.000000,33.000000,97.000000
1298364.689789,-128.000000,-31.000000,-28.000000,-67.000000,-30.000000,-39.000000,-101.000000,-128.000000
1298364.689835,112.000000,47.000000,48.000000,28.000000,3.000000,10.000000,21.000000,37.000000
1298364.690977,127.000000,39.000000,17.000000,5.000000,12.000000,23.000000,50.000000,70.000000
1298364.691080,-34.000000,10.000000,20.000000,9.000000,6.000000,-1.000000,-3.000000,20.000000
1298364.696953,90.000000,21.000000,6.000000,7.000000,2.000000,5.000000,11.000000,16.000000
1298364.697022,-128.000000,-50.000000,-14.000000,2.000000,-3.000000,-3.000000,2.000000,-31.000000
1298364.703970,-92.000000,1.000000,26.000000,-2.000000,-6.000000,-7.000000,-5.000000,-6.000000
1298364.703995,46.000000,21.000000,12.000000,35.000000,12.000000,4.000000,-5.000000,-15.000000
1298364.726781,98.000000,18.000000,-3.000000,-2.000000,9.000000,9.000000,24.000000,43.000000
1298364.726830,-115.000000,-58.000000,-26.000000,-7.000000,-16.000000,-33.000000,-90.000000,-121.000000
1298364.741511,-84.000000,-24.000000,-34.000000,-19.000000,-12.000000,1.000000,19.000000,16.000000
1298364.741557,113.000000,18.000000,54.000000,53.000000,16.000000,13.000000,28.000000,67.000000
1298364.748890,-2.000000,33.000000,-29.000000,-75.000000,-11.000000,-11.000000,-18.000000,-6.000000
1298364.748916,127.000000,11.000000,-5.000000,-11.000000,-5.000000,0.000000,-7.000000,-11.000000
1298364.765591,-128.000000,-24.000000,10.000000,12.000000,-1.000000,4.000000,5.000000,-15.000000
1298364.766133,95.000000,34.000000,17.000000,25.000000,9.000000,21.000000,22.000000,45.000000
1298364.766543,19.000000,26.000000,5.000000,-14.000000,-6.000000,-31.000000,-14.000000,-9.000000
1298364.766568,-111.000000,-40.000000,-58.000000,-48.000000,-20.000000,-23.000000,-29.000000,-37.000000
1298364.767354,-12.000000,23.000000,37.000000,19.000000,5.000000,14.000000,8.000000,8.000000
1298364.767689,63.000000,93.000000,23.000000,18.000000,7.000000,7.000000,27.000000,39.000000
1298364.768546,107.000000,5.000000,33.000000,21.000000,10.000000,-8.000000,-5.000000,7.000000
1298364.768591,-54.000000,79.000000,3.000000,5.000000,11.000000,13.000000,11.000000,11.000000
1298364.771726,30.000000,-21.000000,-22.000000,-38.000000,-7.000000,7.000000,15.000000,31.000000
1298364.771794,-102.000000,4.000000,18.000000,-15.000000,-27.000000,-38.000000,-42.000000,-80.000000
1298364.778821,107.000000,-34.000000,-15.000000,14.000000,-2.000000,-2.000000,10.000000,24.000000
1298364.778845,-128.000000,17.000000,37.000000,13.000000,13.000000,17.000000,8.000000,-26.000000
1298364.809699,20.000000,0.000000,8.000000,-2.000000,-3.000000,2.000000,22.000000,29.000000
1298364.809758,78.000000,2.000000,0.000000,-14.000000,-17.000000,-24.000000,-53.000000,-29.000000
1298364.817064,-31.000000,8.000000,18.000000,11.000000,1.000000,14.000000,23.000000,18.000000
1298364.817107,54.000000,20.000000,13.000000,38.000000,14.000000,8.000000,17.000000,35.000000
1298364.847366,7.000000,-26.000000,-9.000000,-41.000000,-4.000000,3.000000,14.000000,-2.000000
1298364.847511,-128.000000,-53.000000,-14.000000,-17.000000,-16.000000,-30.000000,-63.000000,-103.000000
1298364.854262,16.000000,-102.000000,-41.000000,9.000000,14.000000,6.000000,15.000000,12.000000
1298364.854392,-31.000000,-57.000000,-14.000000,2.000000,-9.000000,-8.000000,15.000000,20.000000
1298364.864984,8.000000,5.000000,-21.000000,-17.000000,-2.000000,5.000000,6.000000,20.000000
1298364.865019,-75.000000,-42.000000,-15.000000,33.000000,12.000000,-13.000000,-26.000000,-64.000000
1298364.865381,-29.000000,-79.000000,-11.000000,2.000000,-7.000000,1.000000,-6.000000,12.000000
1298364.865404,73.000000,27.000000,20.000000,-15.000000,3.000000,8.000000,28.000000,21.000000
1298364.866046,-107.000000,-9.000000,-6.000000,9.000000,-3.000000,-8.000000,-37.000000,-36.000000
1298364.866074,-24.000000,60.000000,6.000000,7.000000,0.000000,7.000000,26.000000,46.000000
1298364.866255,-14.000000,63.000000,39.000000,0.000000,10.000000,15.000000,17.000000,17.000000
1298364.866278,-31.000000,-68.000000,-78.000000,-19.000000,-9.000000,-28.000000,-9.000000,-35.000000
1298364.883658,-128.000000,5.000000,-16.000000,-20.000000,-23.000000,-17.000000,-41.000000,-51.000000
1298364.883915,95.000000,81.000000,26.000000,-2.000000,-2.000000,2.000000,1.000000,13.000000
1298364.884323,86.000000,30.000000,16.000000,15.000000,7.000000,12.000000,18.000000,31.000000
1298364.884345,53.000000,19.000000,28.000000,49.000000,18.000000,15.000000,29.000000,38.000000
1298364.891104,-92.000000,1.000000,-36.000000,-76.000000,-21.000000,-23.000000,-46.000000,-68.000000
1298364.891124,-6.000000,-17.000000,-25.000000,-24.000000,-5.000000,-1.000000,-13.000000,-17.000000
1298364.899343,62.000000,19.000000,29.000000,30.000000,8.000000,15.000000,24.000000,27.000000
1298364.899387,-50.000000,-69.000000,-77.000000,-10.000000,-1.000000,-4.000000,4.000000,0.000000
1298364.936301,-39.000000,13.000000,-3.000000,-26.000000,-8.000000,0.000000,-7.000000,-20.000000
1298364.936320,11.000000,-20.000000,-14.000000,-24.000000,-4.000000,8.000000,13.000000,23.000000
1298364.951018,-75.000000,-8.000000,10.000000,29.000000,6.000000,9.000000,12.000000,-12.000000
1298364.951056,60.000000,13.000000,-22.000000,-35.000000,-5.000000,-14.000000,-19.000000,2.000000
1298364.967447,94.000000,25.000000,1.000000,5.000000,7.000000,10.000000,5.000000,1.000000
1298364.967481,-128.000000,-57.000000,12.000000,-9.000000,-11.000000,1.000000,-9.000000,-61.000000
1298364.967749,127.000000,-4.000000,8.000000,9.000000,-5.000000,-2.000000,6.000000,46.000000
1298364.968322,118.000000,69.000000,13.000000,25.000000,20.000000,16.000000,49.000000,62.000000
1298364.969251,-115.000000,-53.000000,-28.000000,-25.000000,-16.000000,-15.000000,-22.000000,-38.000000
1298364.969274,-82.000000,-16.000000,7.000000,-2.000000,-7.000000,-9.000000,-18.000000,-14.000000
1298364.969622,127.000000,-22.000000,-8.000000,4.000000,7.000000,9.000000,28.000000,67.000000
1298364.969639,-91.000000,18.000000,18.000000,4.000000,2.000000,3.000000,9.000000,-20.000000
1298364.989202,-128.000000,-79.000000,-34.000000,-27.000000,-4.000000,-9.000000,-26.000000,-114.000000
1298364.989280,127.000000,35.000000,21.000000,19.000000,11.000000,21.000000,25.000000,51.000000
1298365.004570,108.000000,-13.000000,-2.000000,4.000000,-6.000000,-4.000000,-5.000000,-10.000000
1298365.004655,-128.000000,-33.000000,12.000000,-26.000000,-9.000000,-37.000000,-48.000000,-96.000000
1298365.004970,127.000000,71.000000,12.000000,25.000000,17.000000,27.000000,20.000000,53.000000
1298365.004993,69.000000,0.000000,3.000000,18.000000,11.000000,2.000000,19.000000,38.000000
1298365.010976,33.000000,-20.000000,-6.000000,-27.000000,-1.000000,0.000000,-8.000000,2.000000
1298365.011018,45.000000,49.000000,-6.000000,-32.000000,-3.000000,7.000000,2.000000,9.000000
1298365.018551,-121.000000,-29.000000,-7.000000,-5.000000,-15.000000,-23.000000,-31.000000,-59.000000
1298365.018585,-128.000000,-3.000000,-3.000000,8.000000,4.000000,-2.000000,12.000000,-30.000000
1298365.042192,-85.000000,-15.000000,-21.000000,-17.000000,-1.000000,-19.000000,-38.000000,-54.000000
1298365.042227,23.000000,-18.000000,19.000000,0.000000,7.000000,21.000000,20.000000,35.000000
1298365.042528,117.000000,31.000000,-3.000000,22.000000,11.000000,0.000000,18.000000,24.000000
1298365.042559,-63.000000,-5.000000,46.000000,9.000000,-6.000000,-7.000000,3.000000,-18.000000
1298365.048682,-80.000000,-66.000000,-47.000000,-37.000000,-17.000000,-24.000000,-36.000000,-36.000000
1298365.048819,-84.000000,40.000000,36.000000,18.000000,2.000000,-4.000000,-20.000000,-41.000000
1298365.056241,127.000000,53.000000,-11.000000,-10.000000,7.000000,16.000000,18.000000,37.000000
1298365.056277,7.000000,89.000000,21.000000,11.000000,2.000000,7.000000,18.000000,45.000000
1298365.093726,64.000000,21.000000,40.000000,22.000000,4.000000,1.000000,20.000000,41.000000
1298365.093757,-78.000000,-128.000000,-46.000000,-32.000000,-18.000000,-25.000000,-43.000000,-62.000000
1298365.101318,51.000000,-4.000000,-1.000000,14.000000,5.000000,4.000000,-12.000000,-30.000000
1298365.101363,43.000000,57.000000,26.000000,-4.000000,2.000000,19.000000,8.000000,26.000000
1298365.116762,49.000000,-25.000000,-47.000000,-4.000000,-3.000000,-6.000000,25.000000,57.000000
1298365.116780,-59.000000,57.000000,47.000000,58.000000,-4.000000,-17.000000,-35.000000,-38.000000
1298365.117497,-22.000000,-37.000000,-61.000000,-104.000000,-26.000000,-7.000000,0.000000,12.000000
1298365.117535,-59.000000,-36.000000,6.000000,14.000000,-11.000000,-21.000000,-59.000000,-95.000000
1298365.118825,-65.000000,24.000000,38.000000,27.000000,7.000000,8.000000,23.000000,47.000000
1298365.118893,127.000000,13.000000,-6.000000,15.000000,6.000000,10.000000,0.000000,1.000000
1298365.119521,-92.000000,-98.000000,-40.000000,-48.000000,-18.000000,-16.000000,-23.000000,-27.000000
1298365.119623,-128.000000,-23.000000,-8.000000,11.000000,-5.000000,-14.000000,-24.000000,-37.000000
1298365.131595,110.000000,38.000000,20.000000,23.000000,12.000000,20.000000,27.000000,40.000000
1298365.131629,22.000000,25.000000,34.000000,-7.000000,-7.000000,-2.000000,-6.000000,8.000000
1298365.138301,-15.000000,-46.000000,-25.000000,29.000000,20.000000,5.000000,17.000000,8.000000
1298365.138334,-1.000000,-32.000000,-14.000000,-13.000000,-5.000000,-8.000000,-2.000000,3.000000
1298365.169159,20.000000,38.000000,64.000000,-5.000000,-4.000000,-11.000000,-11.000000,-10.000000
1298365.169206,-50.000000,-25.000000,-66.000000,-78.000000,-18.000000,-11.000000,-16.000000,-64.000000
1298365.176712,7.000000,-3.000000,27.000000,27.000000,6.000000,11.000000,1.000000,20.000000
1298365.176738,121.000000,13.000000,17.000000,5.000000,-11.000000,-3.000000,7.000000,5.000000
1298365.206741,-128.000000,-11.000000,-3.000000,63.000000,23.000000,4.000000,6.000000,20.000000
1298365.206766,-32.000000,-24.000000,-12.000000,-75.000000,-16.000000,-13.000000,-9.000000,7.000000
1298365.207619,30.000000,-23.000000,-22.000000,-34.000000,-9.000000,-14.000000,-14.000000,-15.000000
1298365.207660,127.000000,43.000000,21.000000,24.000000,13.000000,25.000000,35.000000,71.000000
1298365.208439,-85.000000,-41.000000,-3.000000,32.000000,6.000000,-13.000000,-30.000000,-110.000000
1298365.208463,56.000000,79.000000,39.000000,-6.000000,-5.000000,-4.000000,-19.000000,26.000000
1298365.210149,93.000000,-95.000000,-76.000000,-16.000000,-7.000000,-1.000000,4.000000,18.000000
1298365.210175,89.000000,-12.000000,37.000000,33.000000,20.000000,11.000000,28.000000,31.000000
1298365.210911,-47.000000,15.000000,-25.000000,-59.000000,-17.000000,-12.000000,-25.000000,-4.000000
1298365.210968,-76.000000,-24.000000,10.000000,36.000000,10.000000,13.000000,23.000000,-6.000000
1298365.228968,-25.000000,-12.000000,-31.000000,-32.000000,-9.000000,-9.000000,-37.000000,-66.000000
1298365.229024,-88.000000,9.000000,41.000000,11.000000,4.000000,9.000000,17.000000,19.000000
1298365.243966,-17.000000,-31.000000,-52.000000,17.000000,17.000000,4.000000,15.000000,-7.000000
1298365.244014,-11.000000,-36.000000,-22.000000,-11.000000,7.000000,8.000000,24.000000,30.000000
1298365.251708,27.000000,32.000000,6.000000,19.000000,-5.000000,-13.000000,-35.000000,-70.000000
1298365.251736,-24.000000,-48.000000,-34.000000,-16.000000,11.000000,19.000000,33.000000,53.000000
1298365.281513,-55.000000,7.000000,50.000000,-13.000000,-6.000000,3.000000,-9.000000,-27.000000
1298365.281569,-116.000000,-22.000000,-27.000000,-4.000000,-1.000000,1.000000,-13.000000,-29.000000
1298365.289639,78.000000,51.000000,47.000000,20.000000,2.000000,-6.000000,2.000000,35.000000
1298365.289678,52.000000,18.000000,5.000000,13.000000,4.000000,2.000000,-3.000000,6.000000
1298365.318965,-23.000000,-3.000000,32.000000,3.000000,4.000000,4.000000,12.000000,19.000000
1298365.319022,-19.000000,-29.000000,-6.000000,-10.000000,-3.000000,-4.000000,-3.000000,-4.000000
1298365.326376,47.000000,15.000000,-4.000000,15.000000,-1.000000,12.000000,16.000000,35.000000
1298365.326435,13.000000,5.000000,7.000000,-5.000000,5.000000,3.000000,20.000000,15.000000
1298365.364575,1.000000,23.000000,-15.000000,2.000000,-26.000000,-56.000000,-128.000000,-120.000000
1298365.364631,17.000000,-61.000000,-24.000000,-5.000000,-7.000000,15.000000,27.000000,36.000000
1298365.365025,103.000000,52.000000,-30.000000,-4.000000,3.000000,4.000000,20.000000,24.000000
1298365.365049,-128.000000,-21.000000,9.000000,28.000000,9.000000,-8.000000,-13.000000,-47.000000
1298365.366742,127.000000,65.000000,44.000000,-9.000000,-3.000000,19.000000,45.000000,61.000000
1298365.367018,-128.000000,-112.000000,-43.000000,4.000000,-4.000000,-13.000000,-32.000000,-101.000000
1298365.367531,-113.000000,4.000000,-35.000000,10.000000,1.000000,-18.000000,-12.000000,-40.000000
1298365.367578,-81.000000,-18.000000,-5.000000,4.000000,-9.000000,-11.000000,-43.000000,-25.000000
1298365.367905,58.000000,21.000000,40.000000,7.000000,8.000000,5.000000,8.000000,25.000000
1298365.367952,-107.000000,-22.000000,-1.000000,16.000000,-11.000000,-12.000000,-25.000000,-57.000000
1298365.371499,127.000000,76.000000,13.000000,-31.000000,-2.000000,8.000000,33.000000,60.000000
1298365.371550,41.000000,33.000000,29.000000,30.000000,4.000000,-9.000000,-22.000000,-35.000000
1298365.378755,-54.000000,-47.000000,-56.000000,-47.000000,-13.000000,2.000000,3.000000,-10.000000
1298365.378780,46.000000,25.000000,18.000000,30.000000,2.000000,9.000000,12.000000,20.000000
1298365.394736,57.000000,58.000000,22.000000,3.000000,14.000000,6.000000,25.000000,59.000000
1298365.394762,127.000000,30.000000,22.000000,17.000000,-1.000000,-7.000000,-6.000000,4.000000
1298365.401841,-128.000000,-77.000000,-53.000000,-9.000000,-19.000000,-11.000000,-28.000000,-60.000000
1298365.401868,70.000000,24.000000,51.000000,16.000000,16.000000,20.000000,47.000000,62.000000
1298365.416769,-81.000000,-24.000000,-76.000000,-21.000000,-12.000000,-26.000000,-31.000000,-58.000000
1298365.416824,79.000000,32.000000,5.000000,-2.000000,-1.000000,8.000000,21.000000,35.000000
1298365.424187,-48.000000,-45.000000,33.000000,32.000000,3.000000,1.000000,13.000000,-5.000000
1298365.424234,1.000000,-2.000000,6.000000,-42.000000,-11.000000,-10.000000,1.000000,30.000000
1298365.439126,35.000000,42.000000,18.000000,16.000000,2.000000,-1.000000,-23.000000,-30.000000
1298365.439173,-57.000000,-38.000000,-10.000000,18.000000,-2.000000,0.000000,4.000000,-21.000000
1298365.447625,27.000000,-4.000000,-4.000000,-21.000000,5.000000,6.000000,26.000000,54.000000
1298365.447910,45.000000,9.000000,32.000000,31.000000,6.000000,-2.000000,-20.000000,-39.000000
1298365.448873,-128.000000,-23.000000,-20.000000,-67.000000,-13.000000,-8.000000,-10.000000,-28.000000
1298365.448923,57.000000,-8.000000,-23.000000,2.000000,-4.000000,-3.000000,-7.000000,18.000000
1298365.462410,70.000000,20.000000,15.000000,52.000000,18.000000,13.000000,28.000000,33.000000
1298365.462437,127.000000,108.000000,-10.000000,-38.000000,0.000000,3.000000,-2.000000,18.000000
1298365.485369,-100.000000,-74.000000,-21.000000,-6.000000,-7.000000,-13.000000,-18.000000,-44.000000
1298365.485418,26.000000,36.000000,25.000000,27.000000,16.000000,31.000000,63.000000,76.000000
1298365.486699,127.000000,63.000000,-44.000000,14.000000,-11.000000,-27.000000,-21.000000,2.000000
1298365.486751,-128.000000,-16.000000,16.000000,-67.000000,-44.000000,-36.000000,-64.000000,-96.000000
1298365.492086,55.000000,-47.000000,-30.000000,22.000000,4.000000,8.000000,27.000000,13.000000
1298365.492140,127.000000,89.000000,43.000000,27.000000,17.000000,22.000000,39.000000,72.000000
1298365.514100,9.000000,-47.000000,-24.000000,7.000000,9.000000,5.000000,1.000000,-26.000000
1298365.514148,-45.000000,19.000000,77.000000,11.000000,-3.000000,-11.000000,-9.000000,-20.000000
1298365.529158,-29.000000,-39.000000,-66.000000,-64.000000,-15.000000,-14.000000,-10.000000,-16.000000
1298365.529186,42.000000,1.000000,-5.000000,9.000000,10.000000,16.000000,18.000000,43.000000
1298365.536816,102.000000,9.000000,-19.000000,33.000000,12.000000,11.000000,17.000000,28.000000
1298365.536845,-109.000000,-26.000000,-19.000000,-30.000000,-37.000000,-48.000000,-71.000000,-90.000000
1298365.566681,38.000000,-42.000000,-8.000000,-27.000000,0.000000,15.000000,39.000000,46.000000
1298365.566727,1.000000,28.000000,34.000000,34.000000,12.000000,18.000000,15.000000,27.000000
1298365.574474,65.000000,7.000000,26.000000,13.000000,12.000000,-13.000000,-15.000000,1.000000
1298365.574531,-128.000000,-27.000000,4.000000,-7.000000,-5.000000,-18.000000,-42.000000,-99.000000
1298365.597863,-42.000000,-29.000000,-9.000000,22.000000,-1.000000,24.000000,19.000000,-15.000000
1298365.598431,77.000000,30.000000,25.000000,10.000000,10.000000,19.000000,45.000000,62.000000
1298365.600303,47.000000,26.000000,16.000000,20.000000,13.000000,-4.000000,0.000000,31.000000
1298365.600356,64.000000,-15.000000,-31.000000,-46.000000,-23.000000,-33.000000,-53.000000,-39.000000
1298365.600762,-49.000000,1.000000,4.000000,-2.000000,-6.000000,6.000000,13.000000,5.000000
1298365.600790,-27.000000,-25.000000,4.000000,3.000000,0.000000,-4.000000,2.000000,-19.000000
1298365.600968,61.000000,94.000000,15.000000,13.000000,5.000000,11.000000,12.000000,31.000000
1298365.601005,18.000000,-5.000000,-40.000000,-5.000000,5.000000,6.000000,0.000000,6.000000
1298365.601905,74.000000,23.000000,-46.000000,25.000000,8.000000,5.000000,3.000000,13.000000
1298365.601960,-128.000000,-54.000000,-56.000000,-69.000000,-15.000000,-7.000000,10.000000,-7.000000
1298365.611515,31.000000,15.000000,15.000000,31.000000,5.000000,-6.000000,-20.000000,-4.000000
1298365.611746,-128.000000,-72.000000,-53.000000,-55.000000,-24.000000,-33.000000,-85.000000,-116.000000
1298365.619650,127.000000,-1.000000,4.000000,-6.000000,-5.000000,-2.000000,-10.000000,35.000000
1298365.619691,34.000000,5.000000,-18.000000,-4.000000,-5.000000,-7.000000,9.000000,41.000000
1298365.641861,127.000000,47.000000,13.000000,5.000000,3.000000,8.000000,7.000000,6.000000
1298365.641901,-58.000000,-15.000000,24.000000,9.000000,4.000000,7.000000,22.000000,12.000000
1298365.650066,-7.000000,91.000000,35.000000,-8.000000,8.000000,7.000000,2.000000,31.000000
1298365.650215,18.000000,11.000000,2.000000,36.000000,5.000000,-5.000000,2.000000,-4.000000
1298365.679352,-73.000000,-62.000000,-44.000000,-53.000000,-7.000000,-3.000000,-13.000000,-21.000000
1298365.679499,125.000000,101.000000,33.000000,-45.000000,-10.000000,3.000000,12.000000,28.000000
1298365.687074,-128.000000,-99.000000,-40.000000,-8.000000,-12.000000,-17.000000,-30.000000,-97.000000
1298365.687544,127.000000,55.000000,55.000000,17.000000,0.000000,12.000000,35.000000,80.000000
1298365.689473,97.000000,41.000000,46.000000,39.000000,15.000000,16.000000,14.000000,18.000000
1298365.689536,-119.000000,-58.000000,-65.000000,-30.000000,-6.000000,-36.000000,-42.000000,-61.000000
1298365.689885,-10.000000,6.000000,21.000000,-12.000000,-1.000000,16.000000,0.000000,7.000000
1298365.689916,12.000000,32.000000,33.000000,30.000000,6.000000,9.000000,26.000000,28.000000
1298365.694158,127.000000,18.000000,15.000000,25.000000,1.000000,-3.000000,-2.000000,26.000000
1298365.694185,-128.000000,-47.000000,-62.000000,-55.000000,-2.000000,-24.000000,-54.000000,-59.000000
1298365.709079,-128.000000,-32.000000,5.000000,0.000000,-18.000000,-35.000000,-52.000000,-71.000000
1298365.709127,87.000000,34.000000,15.000000,32.000000,22.000000,31.000000,41.000000,41.000000
1298365.716688,97.000000,-55.000000,-18.000000,-31.000000,-8.000000,15.000000,29.000000,46.000000
1298365.716713,-122.000000,7.000000,-26.000000,-27.000000,-13.000000,-11.000000,-22.000000,-46.000000
1298365.724216,47.000000,15.000000,-1.000000,27.000000,5.000000,8.000000,4.000000,21.000000
1298365.724261,31.000000,-20.000000,-23.000000,-41.000000,-6.000000,-3.000000,7.000000,20.000000
1298365.731735,50.000000,37.000000,37.000000,20.000000,6.000000,6.000000,9.000000,30.000000
1298365.731786,-8.000000,8.000000,-2.000000,-3.000000,-5.000000,-6.000000,-22.000000,-35.000000
1298365.739252,-111.000000,-74.000000,-7.000000,-1.000000,-5.000000,-10.000000,-9.000000,-3.000000
1298365.739305,53.000000,40.000000,17.000000,11.000000,2.000000,5.000000,10.000000,18.000000
1298365.798962,-65.000000,-37.000000,-17.000000,-15.000000,-8.000000,-6.000000,14.000000,35.000000
1298365.799009,-62.000000,45.000000,1.000000,-36.000000,-9.000000,1.000000,-12.000000,-20.000000
1298365.806400,-128.000000,-116.000000,12.000000,11.000000,-10.000000,-23.000000,-58.000000,-58.000000
1298365.806452,127.000000,33.000000,-24.000000,-21.000000,2.000000,22.000000,35.000000,58.000000
1298365.836692,-13.000000,64.000000,31.000000,14.000000,6.000000,8.000000,12.000000,-7.000000
1298365.836738,-67.000000,-32.000000,-15.000000,20.000000,-6.000000,-29.000000,-46.000000,-54.000000
1298365.838208,52.000000,33.000000,41.000000,-10.000000,8.000000,16.000000,25.000000,33.000000
1298365.838808,87.000000,9.000000,-12.000000,-2.000000,4.000000,12.000000,8.000000,17.000000
1298365.840279,-46.000000,45.000000,0.000000,3.000000,1.000000,-11.000000,-12.000000,-24.000000
1298365.840329,28.000000,22.000000,-6.000000,10.000000,3.000000,-4.000000,-1.000000,26.000000
1298365.840582,-101.000000,12.000000,26.000000,-4.000000,-11.000000,-33.000000,-73.000000,-92.000000
1298365.840632,36.000000,-16.000000,-35.000000,-21.000000,-4.000000,11.000000,28.000000,32.000000
1298365.840842,127.000000,104.000000,-4.000000,18.000000,7.000000,10.000000,32.000000,56.000000
1298365.840860,-114.000000,-33.000000,0.000000,-48.000000,-25.000000,-18.000000,-25.000000,-59.000000
1298365.841226,0.000000,-35.000000,3.000000,3.000000,-5.000000,-8.000000,-14.000000,-10.000000
1298365.841269,80.000000,37.000000,12.000000,40.000000,9.000000,17.000000,26.000000,42.000000
1298365.843749,-11.000000,-29.000000,-37.000000,-26.000000,-14.000000,-34.000000,-57.000000,-63.000000
1298365.843778,-69.000000,-15.000000,-9.000000,-25.000000,-3.000000,9.000000,11.000000,8.000000
1298365.851749,43.000000,-5.000000,22.000000,19.000000,8.000000,10.000000,17.000000,33.000000
1298365.851801,-21.000000,-27.000000,22.000000,5.000000,-3.000000,-9.000000,-1.000000,1.000000
1298365.858996,-78.000000,-9.000000,-41.000000,-18.000000,-8.000000,-9.000000,-29.000000,-68.000000
1298365.859051,63.000000,17.000000,0.000000,10.000000,5.000000,9.000000,1.000000,9.000000
1298365.881583,43.000000,4.000000,21.000000,3.000000,1.000000,-3.000000,4.000000,12.000000
1298365.881692,-20.000000,-65.000000,13.000000,21.000000,4.000000,10.000000,32.000000,16.000000
1298365.888971,-5.000000,4.000000,-11.000000,2.000000,-3.000000,-8.000000,-9.000000,32.000000
1298365.889027,-5.000000,-21.000000,-54.000000,-78.000000,-11.000000,-11.000000,-13.000000,-42.000000
1298365.919420,-2.000000,-3.000000,11.000000,7.000000,0.000000,10.000000,19.000000,11.000000
1298365.919446,47.000000,31.000000,13.000000,26.000000,7.000000,9.000000,31.000000,48.000000
1298365.926551,-25.000000,-10.000000,-3.000000,9.000000,-5.000000,-30.000000,-66.000000,-128.000000
1298365.926576,18.000000,-128.000000,-77.000000,-39.000000,-16.000000,0.000000,23.000000,30.000000
1298365.956420,66.000000,-9.000000,4.000000,2.000000,-5.000000,-9.000000,-25.000000,-1.000000
1298365.956471,88.000000,61.000000,15.000000,20.000000,5.000000,10.000000,32.000000,34.000000
1298365.964628,50.000000,11.000000,-31.000000,1.000000,-6.000000,-19.000000,-30.000000,-26.000000
1298365.964676,-128.000000,-64.000000,-1.000000,-42.000000,-28.000000,-23.000000,-24.000000,-49.000000
1298365.986713,32.000000,-5.000000,1.000000,12.000000,8.000000,11.000000,18.000000,9.000000
1298365.987085,55.000000,17.000000,-3.000000,10.000000,5.000000,9.000000,6.000000,22.000000
1298365.987617,-83.000000,21.000000,-1.000000,16.000000,6.000000,-3.000000,6.000000,21.000000
1298365.988010,103.000000,127.000000,32.000000,-6.000000,3.000000,1.000000,3.000000,-31.000000
1298365.988777,-128.000000,-18.000000,17.000000,32.000000,9.000000,2.000000,-3.000000,-18.000000
1298365.988816,115.000000,0.000000,-20.000000,-21.000000,0.000000,-6.000000,-11.000000,-9.000000
1298365.993980,-128.000000,-37.000000,11.000000,20.000000,3.000000,-7.000000,-1.000000,-13.000000
1298365.994005,127.000000,43.000000,19.000000,-3.000000,10.000000,20.000000,55.000000,115.000000
1298366.001447,-55.000000,-11.000000,-18.000000,17.000000,-6.000000,-19.000000,-26.000000,-50.000000
1298366.001501,-128.000000,-28.000000,-12.000000,-38.000000,-16.000000,-5.000000,-4.000000,-11.000000
1298366.039139,127.000000,97.000000,48.000000,15.000000,19.000000,28.000000,57.000000,92.000000
1298366.039183,-47.000000,-63.000000,-30.000000,1.000000,-2.000000,-12.000000,-44.000000,-83.000000
1298366.040153,-85.000000,10.000000,12.000000,5.000000,2.000000,2.000000,11.000000,2.000000
1298366.040178,127.000000,-55.000000,0.000000,30.000000,11.000000,84.000000,1.000000,-16.000000
1298366.041218,-41.000000,-28.000000,-5.000000,-57.000000,-5.000000,30.000000,15.000000,23.000000
1298366.041260,127.000000,30.000000,-1.000000,2.000000,4.000000,8.000000,26.000000,71.000000
1298366.043067,121.000000,111.000000,71.000000,20.000000,5.000000,-14.000000,6.000000,13.000000
1298366.043109,-90.000000,-28.000000,-39.000000,-12.000000,-5.000000,-23.000000,-16.000000,-21.000000
1298366.044026,-115.000000,-14.000000,16.000000,-7.000000,0.000000,-12.000000,-16.000000,-4.000000
1298366.044054,33.000000,22.000000,-19.000000,56.000000,6.000000,-9.000000,17.000000,43.000000
1298366.053858,4.000000,30.000000,36.000000,27.000000,9.000000,3.000000,26.000000,33.000000
1298366.053908,9.000000,-7.000000,-24.000000,5.000000,10.000000,-1.000000,15.000000,-30.000000
1298366.076791,124.000000,-3.000000,27.000000,22.000000,10.000000,-6.000000,4.000000,-5.000000
1298366.076844,-128.000000,-30.000000,-16.000000,-9.000000,-8.000000,-30.000000,-56.000000,-68.000000
1298366.077991,120.000000,90.000000,-9.000000,15.000000,7.000000,8.000000,23.000000,39.000000
1298366.078040,60.000000,-102.000000,21.000000,13.000000,4.000000,6.000000,33.000000,41.000000
1298366.083848,-16.000000,-22.000000,-21.000000,13.000000,0.000000,-9.000000,-7.000000,-9.000000
1298366.084034,-128.000000,-32.000000,5.000000,-14.000000,-13.000000,-20.000000,-32.000000,-38.000000
1298366.091558,-65.000000,-79.000000,-32.000000,-6.000000,2.000000,-7.000000,10.000000,5.000000
1298366.091596,108.000000,34.000000,13.000000,-5.000000,3.000000,14.000000,7.000000,21.000000
1298366.098923,1.000000,-23.000000,4.000000,9.000000,4.000000,1.000000,-3.000000,0.000000
1298366.098956,6.000000,41.000000,51.000000,46.000000,20.000000,23.000000,28.000000,40.000000
1298366.122040,127.000000,11.000000,-6.000000,-13.000000,-3.000000,-3.000000,13.000000,71.000000
1298366.122071,-128.000000,-90.000000,-50.000000,-55.000000,-29.000000,-30.000000,-65.000000,-128.000000
1298366.129179,-128.000000,-128.000000,-10.000000,2.000000,-6.000000,-5.000000,-10.000000,-32.000000
1298366.129226,127.000000,74.000000,41.000000,33.000000,23.000000,47.000000,90.000000,117.000000
1298366.159373,111.000000,44.000000,-34.000000,9.000000,-7.000000,-18.000000,-9.000000,8.000000
1298366.159431,-128.000000,-37.000000,7.000000,-39.000000,-17.000000,-37.000000,-84.000000,-105.000000
1298366.166730,101.000000,3.000000,-1.000000,21.000000,18.000000,33.000000,53.000000,78.000000
1298366.166785,127.000000,91.000000,22.000000,6.000000,6.000000,14.000000,31.000000,48.000000
1298366.197148,-128.000000,-69.000000,8.000000,-3.000000,0.000000,-10.000000,-3.000000,-20.000000
1298366.197177,35.000000,45.000000,3.000000,13.000000,3.000000,8.000000,14.000000,35.000000
1298366.197615,127.000000,14.000000,8.000000,38.000000,26.000000,11.000000,2.000000,-9.000000
1298366.197644,-128.000000,-50.000000,-49.000000,-59.000000,-23.000000,-3.000000,-16.000000,-58.000000
1298366.199213,102.000000,17.000000,-8.000000,11.000000,8.000000,10.000000,20.000000,36.000000
1298366.199260,8.000000,11.000000,-3.000000,-10.000000,17.000000,12.000000,14.000000,26.000000
1298366.200669,127.000000,16.000000,28.000000,29.000000,6.000000,9.000000,3.000000,26.000000
1298366.200723,-128.000000,-103.000000,-69.000000,-57.000000,-22.000000,-22.000000,-28.000000,-78.000000
1298366.201875,-12.000000,-27.000000,13.000000,16.000000,1.000000,15.000000,38.000000,58.000000
1298366.201903,70.000000,35.000000,8.000000,3.000000,-12.000000,-36.000000,-83.000000,-59.000000
1298366.204066,-91.000000,-41.000000,-10.000000,14.000000,3.000000,4.000000,-3.000000,-29.000000
1298366.204092,102.000000,47.000000,0.000000,9.000000,5.000000,20.000000,27.000000,39.000000
1298366.234176,22.000000,29.000000,30.000000,42.000000,4.000000,4.000000,18.000000,33.000000
1298366.234232,39.000000,-6.000000,-18.000000,-13.000000,8.000000,7.000000,10.000000,8.000000
1298366.241952,-108.000000,7.000000,-9.000000,2.000000,-10.000000,-25.000000,-38.000000,-28.000000
1298366.242005,84.000000,-19.000000,-13.000000,-10.000000,-2.000000,10.000000,10.000000,9.000000
1298366.264194,-51.000000,29.000000,11.000000,21.000000,2.000000,11.000000,4.000000,-25.000000
1298366.264243,67.000000,24.000000,5.000000,25.000000,15.000000,4.000000,11.000000,29.000000
1298366.271440,23.000000,12.000000,13.000000,-11.000000,9.000000,-4.000000,-8.000000,5.000000
1298366.271464,-20.000000,-51.000000,-21.000000,-11.000000,-13.000000,-9.000000,-11.000000,-22.000000
1298366.286423,-16.000000,-17.000000,-14.000000,-17.000000,-15.000000,0.000000,-2.000000,4.000000
1298366.286460,49.000000,16.000000,21.000000,12.000000,9.000000,3.000000,16.000000,22.000000
1298366.293979,-42.000000,-30.000000,-23.000000,1.000000,4.000000,-9.000000,-20.000000,-5.000000
1298366.294006,-12.000000,21.000000,23.000000,15.000000,2.000000,-2.000000,-16.000000,-41.000000
1298366.316831,-14.000000,-13.000000,-8.000000,3.000000,4.000000,13.000000,32.000000,26.000000
1298366.316953,22.000000,-51.000000,7.000000,21.000000,13.000000,14.000000,28.000000,62.000000
1298366.317650,127.000000,7.000000,24.000000,16.000000,-6.000000,-29.000000,-78.000000,-105.000000
1298366.317689,-128.000000,-120.000000,-74.000000,-107.000000,-31.000000,-21.000000,-43.000000,-98.000000
1298366.319930,127.000000,61.000000,27.000000,23.000000,4.000000,25.000000,24.000000,45.000000
1298366.319956,-11.000000,-24.000000,-5.000000,2.000000,5.000000,0.000000,-3.000000,-4.000000
1298366.320541,-12.000000,-37.000000,-14.000000,-2.000000,-4.000000,-9.000000,-25.000000,-38.000000
1298366.320562,-63.000000,-18.000000,-12.000000,9.000000,1.000000,8.000000,7.000000,-6.000000
1298366.324850,43.000000,26.000000,9.000000,15.000000,8.000000,-6.000000,-8.000000,13.000000
1298366.324897,-81.000000,-8.000000,8.000000,-9.000000,-8.000000,-10.000000,-12.000000,-35.000000
1298366.354250,16.000000,17.000000,9.000000,-31.000000,-6.000000,5.000000,0.000000,22.000000
1298366.354286,116.000000,105.000000,41.000000,28.000000,17.000000,16.000000,17.000000,32.000000
1298366.369056,-5.000000,-16.000000,33.000000,-7.000000,-5.000000,-1.000000,14.000000,20.000000
1298366.369083,-50.000000,-52.000000,-69.000000,-42.000000,-13.000000,-16.000000,-38.000000,-37.000000
1298366.376752,-125.000000,-56.000000,4.000000,-21.000000,-12.000000,-4.000000,-27.000000,-54.000000
1298366.376792,42.000000,47.000000,27.000000,22.000000,9.000000,12.000000,12.000000,38.000000
1298366.394124,-114.000000,-26.000000,-14.000000,3.000000,-11.000000,-23.000000,-49.000000,-61.000000
1298366.394179,-107.000000,-23.000000,-21.000000,-29.000000,-11.000000,6.000000,8.000000,6.000000
1298366.394452,11.000000,-10.000000,-6.000000,12.000000,4.000000,5.000000,18.000000,29.000000
1298366.394502,127.000000,47.000000,-6.000000,3.000000,4.000000,-1.000000,-6.000000,-15.000000
1298366.395312,-15.000000,29.000000,33.000000,40.000000,13.000000,14.000000,19.000000,19.000000
1298366.395345,23.000000,-34.000000,-30.000000,-42.000000,-8.000000,-19.000000,-16.000000,-5.000000
1298366.395967,44.000000,43.000000,39.000000,30.000000,1.000000,0.000000,17.000000,25.000000
1298366.396004,35.000000,-7.000000,-4.000000,-26.000000,-8.000000,-7.000000,-12.000000,-15.000000
1298366.407781,17.000000,38.000000,23.000000,26.000000,4.000000,3.000000,-3.000000,8.000000
1298366.407825,36.000000,-15.000000,-12.000000,-44.000000,-7.000000,-1.000000,13.000000,9.000000
1298366.429417,-72.000000,-2.000000,-11.000000,-4.000000,-9.000000,-13.000000,-37.000000,-51.000000
1298366.429793,4.000000,-20.000000,-11.000000,-20.000000,-7.000000,4.000000,23.000000,19.000000
1298366.430878,124.000000,43.000000,22.000000,24.000000,12.000000,16.000000,24.000000,45.000000
1298366.430939,29.000000,16.000000,19.000000,22.000000,2.000000,-13.000000,-11.000000,-12.000000
1298366.431784,-117.000000,-37.000000,-56.000000,-31.000000,-12.000000,-1.000000,-14.000000,-42.000000
1298366.431846,88.000000,28.000000,9.000000,8.000000,8.000000,22.000000,22.000000,25.000000
1298366.444857,-128.000000,-32.000000,35.000000,1.000000,-10.000000,-7.000000,-10.000000,-37.000000
1298366.444911,7.000000,-46.000000,-29.000000,-9.000000,4.000000,11.000000,18.000000,26.000000
1298366.466564,116.000000,48.000000,38.000000,23.000000,10.000000,7.000000,14.000000,29.000000
1298366.466589,-26.000000,-37.000000,-20.000000,-29.000000,-2.000000,-2.000000,8.000000,10.000000
1298366.481355,-26.000000,-1.000000,-11.000000,6.000000,-3.000000,-20.000000,-54.000000,-66.000000
1298366.481381,5.000000,1.000000,16.000000,37.000000,16.000000,15.000000,27.000000,31.000000
1298366.489476,24.000000,2.000000,-3.000000,-23.000000,3.000000,-1.000000,16.000000,25.000000
1298366.489547,-57.000000,-78.000000,-18.000000,-18.000000,-13.000000,-18.000000,-29.000000,-51.000000
1298366.511309,-7.000000,-34.000000,-45.000000,-5.000000,-5.000000,-10.000000,-21.000000,-11.000000
1298366.511359,-9.000000,60.000000,49.000000,25.000000,1.000000,1.000000,17.000000,30.000000
1298366.519086,27.000000,-20.000000,-29.000000,-37.000000,-6.000000,11.000000,16.000000,12.000000
1298366.519155,-75.000000,12.000000,17.000000,30.000000,11.000000,10.000000,21.000000,0.000000
1298366.541524,-101.000000,-22.000000,-36.000000,-24.000000,-12.000000,-30.000000,-53.000000,-88.000000
1298366.541572,-48.000000,-26.000000,18.000000,-40.000000,-15.000000,8.000000,18.000000,8.000000
1298366.549127,76.000000,33.000000,14.000000,11.000000,0.000000,-1.000000,5.000000,30.000000
1298366.549177,-128.000000,-28.000000,-5.000000,21.000000,2.000000,-4.000000,-23.000000,-65.000000
1298366.564190,-52.000000,-35.000000,-21.000000,-13.000000,-10.000000,-3.000000,-1.000000,-12.000000
1298366.564230,47.000000,51.000000,6.000000,19.000000,11.000000,13.000000,18.000000,28.000000
1298366.579297,77.000000,49.000000,48.000000,15.000000,-1.000000,-3.000000,-1.000000,29.000000
1298366.579410,16.000000,-4.000000,-14.000000,-11.000000,-4.000000,-12.000000,-21.000000,-50.000000
1298366.601614,-102.000000,-15.000000,4.000000,4.000000,-17.000000,-13.000000,-4.000000,-16.000000
1298366.601641,63.000000,-22.000000,-9.000000,-11.000000,7.000000,8.000000,-7.000000,7.000000
1298366.632611,-89.000000,-27.000000,-17.000000,-11.000000,-6.000000,4.000000,-8.000000,-16.000000
1298366.633077,85.000000,16.000000,6.000000,17.000000,16.000000,25.000000,41.000000,43.000000
1298366.633908,-23.000000,29.000000,15.000000,22.000000,10.000000,-11.000000,-16.000000,3.000000
1298366.633969,-7.000000,-52.000000,-6.000000,-20.000000,-8.000000,-6.000000,-22.000000,-23.000000
1298366.639819,-105.000000,-50.000000,-6.000000,-5.000000,-6.000000,-19.000000,-45.000000,-56.000000
1298366.639864,76.000000,9.000000,-35.000000,-33.000000,-5.000000,9.000000,24.000000,43.000000
1298366.640535,42.000000,57.000000,9.000000,7.000000,-4.000000,-5.000000,2.000000,17.000000
1298366.640575,31.000000,8.000000,3.000000,3.000000,3.000000,6.000000,1.000000,6.000000
1298366.641859,-62.000000,-8.000000,0.000000,5.000000,-2.000000,-8.000000,-12.000000,-21.000000
1298366.641912,82.000000,11.000000,-30.000000,-11.000000,-12.000000,-17.000000,-5.000000,3.000000
1298366.647534,-44.000000,-26.000000,5.000000,-10.000000,-6.000000,-5.000000,-8.000000,-48.000000
1298366.647585,-43.000000,2.000000,8.000000,22.000000,1.000000,-5.000000,-34.000000,-33.000000
1298366.669577,15.000000,-10.000000,-13.000000,-24.000000,0.000000,4.000000,0.000000,5.000000
1298366.669615,101.000000,39.000000,22.000000,14.000000,8.000000,13.000000,33.000000,66.000000
1298366.670925,90.000000,-5.000000,10.000000,6.000000,5.000000,8.000000,23.000000,15.000000
1298366.670982,-128.000000,-43.000000,-23.000000,-5.000000,-12.000000,-23.000000,-46.000000,-66.000000
1298366.676366,12.000000,-67.000000,-42.000000,-12.000000,-6.000000,-2.000000,9.000000,13.000000
1298366.676389,33.000000,25.000000,-14.000000,-21.000000,-7.000000,1.000000,1.000000,7.000000
1298366.684894,32.000000,27.000000,43.000000,5.000000,6.000000,17.000000,35.000000,57.000000
1298366.685025,99.000000,-5.000000,9.000000,2.000000,-2.000000,-24.000000,-66.000000,-64.000000
1298366.691155,-128.000000,-37.000000,-25.000000,-9.000000,-10.000000,-9.000000,-5.000000,-26.000000
1298366.691180,-25.000000,-23.000000,-12.000000,-2.000000,-4.000000,-1.000000,-3.000000,-40.000000
1298366.713832,-15.000000,97.000000,30.000000,19.000000,16.000000,17.000000,24.000000,40.000000
1298366.713875,44.000000,-71.000000,-45.000000,-19.000000,-1.000000,-10.000000,9.000000,13.000000
1298366.721543,-128.000000,-9.000000,15.000000,-10.000000,-13.000000,-16.000000,-34.000000,-57.000000
1298366.721600,106.000000,55.000000,54.000000,40.000000,7.000000,7.000000,8.000000,9.000000
1298366.759397,-25.000000,-46.000000,-39.000000,-49.000000,-8.000000,-4.000000,-3.000000,-7.000000
1298366.759502,-5.000000,19.000000,-2.000000,4.000000,-1.000000,2.000000,-7.000000,-10.000000
1298366.766739,-54.000000,5.000000,-4.000000,0.000000,3.000000,5.000000,8.000000,25.000000
1298366.766789,52.000000,4.000000,23.000000,22.000000,-3.000000,-19.000000,-25.000000,2.000000
1298366.783208,-4.000000,3.000000,12.000000,28.000000,8.000000,6.000000,30.000000,32.000000
1298366.783868,-60.000000,-55.000000,-28.000000,-35.000000,-14.000000,-24.000000,-47.000000,-62.000000
1298366.784310,55.000000,6.000000,14.000000,16.000000,1.000000,6.000000,28.000000,20.000000
1298366.784368,127.000000,-8.000000,15.000000,5.000000,5.000000,-3.000000,16.000000,47.000000
1298366.785651,-128.000000,-67.000000,-33.000000,1.000000,-12.000000,-23.000000,-39.000000,-99.000000
1298366.785703,-11.000000,43.000000,49.000000,-24.000000,-4.000000,11.000000,9.000000,11.000000
1298366.786195,70.000000,-11.000000,39.000000,14.000000,-3.000000,-17.000000,-9.000000,15.000000
1298366.786219,55.000000,-17.000000,-37.000000,-36.000000,-19.000000,1.000000,6.000000,16.000000
1298366.797051,81.000000,27.000000,7.000000,-4.000000,3.000000,12.000000,9.000000,15.000000
1298366.797104,-75.000000,10.000000,24.000000,-30.000000,-12.000000,16.000000,16.000000,23.000000
1298366.804989,99.000000,32.000000,18.000000,20.000000,2.000000,-2.000000,15.000000,45.000000
1298366.805033,12.000000,-21.000000,-27.000000,-18.000000,-11.000000,-20.000000,-32.000000,-50.000000
1298366.811599,64.000000,17.000000,43.000000,31.000000,21.000000,27.000000,34.000000,36.000000
1298366.811651,53.000000,9.000000,-12.000000,10.000000,5.000000,1.000000,-12.000000,9.000000
1298366.833956,-78.000000,15.000000,-23.000000,-35.000000,-30.000000,-32.000000,-50.000000,-49.000000
1298366.834005,102.000000,39.000000,20.000000,10.000000,5.000000,17.000000,38.000000,59.000000
1298366.841305,57.000000,-10.000000,8.000000,1.000000,9.000000,15.000000,36.000000,48.000000
1298366.841356,-128.000000,-33.000000,2.000000,16.000000,-8.000000,-23.000000,-36.000000,-67.000000
1298366.872388,37.000000,-15.000000,-15.000000,-59.000000,-24.000000,-6.000000,-4.000000,-12.000000
1298366.872444,-18.000000,0.000000,2.000000,11.000000,6.000000,6.000000,2.000000,4.000000
1298366.873507,83.000000,2.000000,20.000000,27.000000,11.000000,9.000000,24.000000,51.000000
1298366.873566,120.000000,29.000000,-15.000000,-3.000000,-1.000000,1.000000,22.000000,27.000000
1298366.875063,-75.000000,27.000000,1.000000,6.000000,-10.000000,-24.000000,-52.000000,-81.000000
1298366.875158,-128.000000,-66.000000,-42.000000,-19.000000,-4.000000,6.000000,30.000000,14.000000
1298366.875771,50.000000,1.000000,-7.000000,-15.000000,-14.000000,-28.000000,-39.000000,-28.000000
1298366.875981,-15.000000,5.000000,30.000000,15.000000,8.000000,15.000000,11.000000,-12.000000
1298366.909784,54.000000,37.000000,4.000000,18.000000,10.000000,20.000000,33.000000,42.000000
1298366.909845,-16.000000,92.000000,-12.000000,10.000000,-4.000000,-18.000000,-26.000000,-30.000000
1298366.910202,11.000000,-21.000000,-11.000000,-29.000000,0.000000,16.000000,21.000000,22.000000
1298366.910260,-15.000000,31.000000,21.000000,39.000000,18.000000,6.000000,-3.000000,-10.000000
1298366.912006,127.000000,41.000000,2.000000,-26.000000,-18.000000,-12.000000,-16.000000,-26.000000
1298366.912031,-128.000000,38.000000,-27.000000,-16.000000,-7.000000,-5.000000,-9.000000,-44.000000
1298366.916350,-2.000000,-1.000000,3.000000,31.000000,-10.000000,-19.000000,-34.000000,5.000000
1298366.916373,127.000000,78.000000,28.000000,-9.000000,5.000000,5.000000,-1.000000,26.000000
1298366.925443,60.000000,0.000000,62.000000,25.000000,11.000000,10.000000,19.000000,12.000000
1298366.925501,-128.000000,-42.000000,-63.000000,3.000000,-2.000000,-8.000000,-11.000000,-36.000000
1298366.946692,-34.000000,3.000000,-10.000000,-63.000000,-34.000000,-10.000000,-15.000000,-21.000000
1298366.946738,3.000000,4.000000,76.000000,35.000000,21.000000,19.000000,27.000000,23.000000
1298366.962355,53.000000,-19.000000,-12.000000,17.000000,-2.000000,-4.000000,-1.000000,0.000000
1298366.962410,-52.000000,11.000000,17.000000,6.000000,4.000000,15.000000,14.000000,5.000000
1298366.969269,-22.000000,-57.000000,-12.000000,-19.000000,-8.000000,-15.000000,-17.000000,-6.000000
1298366.969456,7.000000,36.000000,5.000000,18.000000,4.000000,-3.000000,6.000000,26.000000
1298366.999254,109.000000,32.000000,30.000000,4.000000,6.000000,14.000000,32.000000,28.000000
1298366.999352,-128.000000,-38.000000,-38.000000,-13.000000,-17.000000,-32.000000,-76.000000,-51.000000
1298367.021902,-70.000000,-16.000000,5.000000,-7.000000,-2.000000,2.000000,-18.000000,-80.000000
1298367.021951,41.000000,27.000000,8.000000,17.000000,10.000000,24.000000,36.000000,59.000000
1298367.029886,16.000000,17.000000,5.000000,-15.000000,3.000000,11.000000,32.000000,42.000000
1298367.029939,73.000000,4.000000,0.000000,15.000000,1.000000,-10.000000,22.000000,30.000000
1298367.030193,-68.000000,-10.000000,1.000000,-32.000000,-23.000000,-46.000000,-120.000000,-100.000000
1298367.030234,48.000000,44.000000,2.000000,24.000000,14.000000,44.000000,67.000000,45.000000
1298367.032188,50.000000,-6.000000,-14.000000,18.000000,31.000000,18.000000,26.000000,47.000000
1298367.032224,15.000000,17.000000,1.000000,-11.000000,0.000000,-7.000000,-4.000000,-24.000000
1298367.033173,-107.000000,-17.000000,-1.000000,-21.000000,-3.000000,15.000000,26.000000,1.000000
1298367.033202,-47.000000,-52.000000,10.000000,24.000000,3.000000,2.000000,10.000000,-1.000000
1298367.036778,-14.000000,27.000000,-8.000000,15.000000,7.000000,9.000000,17.000000,21.000000
1298367.036803,36.000000,0.000000,16.000000,10.000000,6.000000,12.000000,4.000000,39.000000
1298367.059048,43.000000,-30.000000,-17.000000,17.000000,6.000000,3.000000,7.000000,8.000000
1298367.059116,0.000000,83.000000,38.000000,1.000000,-5.000000,-11.000000,-40.000000,-37.000000
1298367.074141,-63.000000,-64.000000,-59.000000,-36.000000,-9.000000,-3.000000,18.000000,3.000000
1298367.074168,40.000000,127.000000,13.000000,13.000000,9.000000,7.000000,4.000000,38.000000
1298367.096688,127.000000,25.000000,13.000000,11.000000,8.000000,5.000000,12.000000,32.000000
1298367.096715,-128.000000,-128.000000,-29.000000,-42.000000,-35.000000,-54.000000,-110.000000,-128.000000
1298367.103956,-9.000000,-2.000000,19.000000,7.000000,-2.000000,4.000000,13.000000,13.000000
1298367.103986,53.000000,26.000000,8.000000,12.000000,8.000000,19.000000,30.000000,47.000000
1298367.119349,64.000000,15.000000,4.000000,20.000000,3.000000,-4.000000,-2.000000,15.000000
1298367.119377,5.000000,-8.000000,-1.000000,-19.000000,-6.000000,7.000000,16.000000,15.000000
1298367.149020,-78.000000,-22.000000,-19.000000,-4.000000,0.000000,4.000000,11.000000,2.000000
1298367.149392,-86.000000,42.000000,50.000000,-6.000000,1.000000,6.000000,-3.000000,-3.000000
1298367.151185,-10.000000,-30.000000,-62.000000,-1.000000,-1.000000,0.000000,8.000000,-3.000000
1298367.151229,-5.000000,26.000000,17.000000,36.000000,15.000000,6.000000,2.000000,9.000000
1298367.151688,14.000000,30.000000,-2.000000,-18.000000,-9.000000,4.000000,-2.000000,5.000000
1298367.151737,28.000000,-68.000000,-6.000000,-18.000000,-6.000000,3.000000,15.000000,11.000000
1298367.152775,64.000000,-71.000000,-17.000000,-10.000000,-2.000000,-8.000000,-20.000000,1.000000
1298367.152823,-128.000000,-88.000000,10.000000,8.000000,-4.000000,-3.000000,-7.000000,-55.000000
1298367.156587,44.000000,2.000000,-28.000000,-11.000000,-13.000000,-7.000000,-18.000000,-28.000000
1298367.156884,-17.000000,29.000000,18.000000,11.000000,9.000000,20.000000,43.000000,41.000000
1298367.157623,-128.000000,-40.000000,22.000000,9.000000,-4.000000,-13.000000,-17.000000,-52.000000
1298367.157648,-10.000000,-59.000000,0.000000,0.000000,2.000000,12.000000,28.000000,45.000000
1298367.178906,103.000000,6.000000,19.000000,22.000000,3.000000,-8.000000,-6.000000,20.000000
1298367.178933,-62.000000,5.000000,26.000000,17.000000,4.000000,6.000000,3.000000,-22.000000
1298367.186941,-58.000000,-5.000000,-14.000000,-6.000000,18.000000,7.000000,4.000000,-5.000000
1298367.186972,-128.000000,-5.000000,-29.000000,-48.000000,-40.000000,-30.000000,-64.000000,-60.000000
1298367.201538,111.000000,60.000000,17.000000,12.000000,3.000000,14.000000,19.000000,24.000000
1298367.201564,-29.000000,18.000000,4.000000,25.000000,11.000000,9.000000,13.000000,-9.000000
1298367.209181,55.000000,41.000000,16.000000,-33.000000,-15.000000,2.000000,-13.000000,5.000000
1298367.209208,26.000000,-74.000000,-23.000000,16.000000,-1.000000,-3.000000,-8.000000,-14.000000
1298367.231212,34.000000,29.000000,46.000000,20.000000,21.000000,38.000000,90.000000,92.000000
1298367.231259,50.000000,3.000000,-9.000000,5.000000,-1.000000,-16.000000,-19.000000,33.000000
1298367.239112,-80.000000,-14.000000,72.000000,10.000000,-12.000000,-20.000000,-37.000000,-84.000000
1298367.239277,-128.000000,-18.000000,23.000000,-1.000000,-4.000000,11.000000,22.000000,11.000000
1298367.261624,86.000000,28.000000,-19.000000,-4.000000,12.000000,26.000000,39.000000,52.000000
1298367.261666,-1.000000,10.000000,27.000000,23.000000,5.000000,-3.000000,0.000000,17.000000
1298367.268891,54.000000,-25.000000,-9.000000,-36.000000,-15.000000,-23.000000,-40.000000,-34.000000
1298367.268919,-128.000000,-43.000000,-16.000000,-30.000000,-26.000000,-6.000000,-2.000000,-30.000000
1298367.283897,73.000000,11.000000,0.000000,15.000000,15.000000,28.000000,46.000000,53.000000
1298367.284046,116.000000,76.000000,3.000000,20.000000,14.000000,8.000000,17.000000,42.000000
1298367.299039,-30.000000,-35.000000,-9.000000,-23.000000,-24.000000,-38.000000,-68.000000,-66.000000
1298367.299085,-55.000000,-18.000000,-3.000000,-8.000000,-12.000000,1.000000,5.000000,-1.000000
1298367.314060,21.000000,85.000000,-12.000000,14.000000,9.000000,24.000000,46.000000,45.000000
1298367.314106,34.000000,30.000000,41.000000,37.000000,22.000000,10.000000,4.000000,21.000000
1298367.321475,-12.000000,36.000000,10.000000,-72.000000,-25.000000,-8.000000,-7.000000,-15.000000
1298367.321529,25.000000,72.000000,33.000000,22.000000,5.000000,16.000000,7.000000,6.000000
1298367.359377,-25.000000,-61.000000,-27.000000,-9.000000,-9.000000,-17.000000,-39.000000,-96.000000
1298367.359433,-128.000000,-54.000000,-3.000000,-25.000000,-10.000000,6.000000,11.000000,-35.000000
1298367.375463,-78.000000,-28.000000,-52.000000,-44.000000,-11.000000,-18.000000,-36.000000,-56.000000
1298367.375579,-74.000000,-33.000000,-20.000000,2.000000,0.000000,-9.000000,-1.000000,4.000000
1298367.382692,28.000000,19.000000,31.000000,28.000000,8.000000,4.000000,25.000000,40.000000
1298367.383215,-96.000000,-35.000000,-28.000000,-16.000000,-17.000000,-28.000000,-40.000000,-52.000000
1298367.384316,113.000000,36.000000,-6.000000,3.000000,-1.000000,1.000000,6.000000,55.000000
1298367.384401,127.000000,127.000000,26.000000,25.000000,8.000000,9.000000,30.000000,44.000000
1298367.386478,-128.000000,-45.000000,-2.000000,18.000000,-12.000000,-27.000000,-63.000000,-91.000000
1298367.386521,-37.000000,-29.000000,-37.000000,-62.000000,-14.000000,8.000000,21.000000,43.000000
1298367.386825,127.000000,-15.000000,13.000000,12.000000,15.000000,24.000000,59.000000,76.000000
1298367.386849,-128.000000,-89.000000,-20.000000,-9.000000,-9.000000,-33.000000,-37.000000,-94.000000
1298367.396899,-90.000000,2.000000,27.000000,17.000000,3.000000,7.000000,13.000000,-4.000000
1298367.396940,-128.000000,-32.000000,2.000000,-15.000000,-1.000000,11.000000,29.000000,-14.000000
1298367.434045,105.000000,-2.000000,14.000000,14.000000,0.000000,-3.000000,13.000000,35.000000
1298367.434093,8.000000,7.000000,28.000000,1.000000,-16.000000,-22.000000,-27.000000,-54.000000
1298367.449021,101.000000,8.000000,18.000000,13.000000,5.000000,24.000000,29.000000,45.000000
1298367.449073,-63.000000,-95.000000,-20.000000,-7.000000,10.000000,14.000000,31.000000,65.000000
1298367.471771,-4.000000,5.000000,5.000000,28.000000,16.000000,0.000000,-14.000000,-34.000000
1298367.471814,-113.000000,2.000000,15.000000,26.000000,-11.000000,-20.000000,-45.000000,-36.000000
1298367.474081,36.000000,13.000000,77.000000,-22.000000,-3.000000,12.000000,9.000000,26.000000
1298367.474253,75.000000,2.000000,-30.000000,-2.000000,-1.000000,-2.000000,21.000000,21.000000
1298367.474667,64.000000,21.000000,-21.000000,10.000000,5.000000,-5.000000,-14.000000,-16.000000
1298367.474723,101.000000,41.000000,-24.000000,-35.000000,7.000000,12.000000,2.000000,15.000000
1298367.475589,-128.000000,-5.000000,33.000000,16.000000,4.000000,8.000000,13.000000,-9.000000
1298367.475614,111.000000,-6.000000,-17.000000,-4.000000,-8.000000,-21.000000,-20.000000,1.000000
1298367.486373,40.000000,-7.000000,30.000000,19.000000,5.000000,-5.000000,-31.000000,-31.000000
1298367.486414,-24.000000,-22.000000,-12.000000,6.000000,1.000000,7.000000,1.000000,3.000000
1298367.501662,63.000000,-114.000000,-20.000000,-11.000000,3.000000,13.000000,25.000000,46.000000
1298367.501704,76.000000,-7.000000,-31.000000,-9.000000,-1.000000,4.000000,11.000000,-6.000000
1298367.502948,-128.000000,53.000000,8.000000,14.000000,-3.000000,-14.000000,-31.000000,-73.000000
1298367.502990,-7.000000,-76.000000,-29.000000,-7.000000,-13.000000,-8.000000,-7.000000,-7.000000
1298367.517063,127.000000,53.000000,10.000000,-30.000000,7.000000,28.000000,51.000000,96.000000
1298367.517087,42.000000,-16.000000,-31.000000,-8.000000,-3.000000,-22.000000,-30.000000,-12.000000
1298367.524979,13.000000,10.000000,9.000000,-7.000000,2.000000,-4.000000,-10.000000,-10.000000
1298367.525021,-128.000000,-36.000000,-60.000000,-15.000000,-14.000000,-1.000000,-23.000000,-79.000000
1298367.539131,67.000000,0.000000,-22.000000,1.000000,-1.000000,10.000000,31.000000,35.000000
1298367.539166,51.000000,-28.000000,58.000000,12.000000,-2.000000,-11.000000,-18.000000,0.000000
1298367.553985,16.000000,1.000000,0.000000,3.000000,2.000000,8.000000,37.000000,30.000000
1298367.554034,123.000000,31.000000,8.000000,1.000000,6.000000,11.000000,14.000000,40.000000
1298367.576649,-9.000000,-12.000000,-1.000000,-1.000000,-1.000000,-27.000000,-67.000000,-101.000000
1298367.576699,-128.000000,-68.000000,-10.000000,-6.000000,-5.000000,1.000000,-13.000000,-93.000000
1298367.591619,57.000000,66.000000,16.000000,-13.000000,-1.000000,16.000000,27.000000,43.000000
1298367.591666,76.000000,7.000000,7.000000,26.000000,11.000000,-5.000000,-15.000000,18.000000
1298367.599029,85.000000,8.000000,1.000000,-10.000000,-5.000000,-6.000000,-3.000000,-11.000000
1298367.599080,-128.000000,-2.000000,-7.000000,5.000000,5.000000,10.000000,6.000000,-11.000000
1298367.615220,30.000000,-26.000000,-33.000000,-6.000000,-5.000000,-5.000000,9.000000,17.000000
1298367.615264,23.000000,22.000000,-15.000000,-17.000000,-4.000000,6.000000,14.000000,19.000000
1298367.615625,-86.000000,-62.000000,-78.000000,-15.000000,-6.000000,-13.000000,-34.000000,-67.000000
1298367.615672,-17.000000,-43.000000,5.000000,17.000000,3.000000,0.000000,1.000000,10.000000
1298367.622771,-27.000000,-23.000000,-54.000000,-45.000000,-5.000000,-4.000000,7.000000,5.000000
1298367.622996,-48.000000,-44.000000,-7.000000,-1.000000,-7.000000,-16.000000,-29.000000,-30.000000
1298367.623220,-28.000000,-54.000000,-12.000000,12.000000,7.000000,10.000000,27.000000,14.000000
1298367.623244,27.000000,-6.000000,21.000000,-3.000000,-10.000000,-30.000000,-41.000000,-5.000000
1298367.629071,52.000000,16.000000,15.000000,16.000000,12.000000,17.000000,55.000000,64.000000
1298367.629105,32.000000,-5.000000,-24.000000,-1.000000,-1.000000,-7.000000,-33.000000,-14.000000
1298367.636821,-104.000000,5.000000,13.000000,-6.000000,-8.000000,-11.000000,-16.000000,-49.000000
1298367.636887,-98.000000,-24.000000,-14.000000,-6.000000,-2.000000,-4.000000,13.000000,6.000000
1298367.659639,127.000000,34.000000,3.000000,25.000000,7.000000,7.000000,19.000000,35.000000
1298367.659704,-128.000000,-37.000000,-1.000000,-19.000000,-12.000000,-8.000000,-3.000000,-41.000000
1298367.666613,37.000000,36.000000,-20.000000,-15.000000,9.000000,0.000000,-1.000000,16.000000
1298367.666669,-59.000000,-117.000000,-30.000000,-17.000000,-10.000000,-12.000000,-18.000000,-23.000000
1298367.681560,33.000000,49.000000,16.000000,0.000000,-3.000000,10.000000,16.000000,28.000000
1298367.681584,-70.000000,42.000000,-3.000000,18.000000,8.000000,5.000000,12.000000,3.000000
1298367.704346,18.000000,67.000000,64.000000,53.000000,8.000000,6.000000,20.000000,25.000000
1298367.704378,15.000000,-35.000000,-86.000000,-62.000000,-29.000000,-32.000000,-53.000000,-61.000000
1298367.705799,-128.000000,-3.000000,-19.000000,-14.000000,-9.000000,1.000000,5.000000,-10.000000
1298367.705844,67.000000,22.000000,24.000000,22.000000,10.000000,9.000000,38.000000,59.000000
1298367.707697,127.000000,36.000000,3.000000,36.000000,23.000000,25.000000,36.000000,72.000000
1298367.707720,-128.000000,-100.000000,-42.000000,-64.000000,-38.000000,-59.000000,-128.000000,-128.000000
1298367.708220,100.000000,-22.000000,-2.000000,-5.000000,-7.000000,-2.000000,-10.000000,29.000000
1298367.708350,115.000000,21.000000,46.000000,29.000000,13.000000,18.000000,42.000000,62.000000
1298367.726704,127.000000,75.000000,2.000000,40.000000,24.000000,13.000000,31.000000,65.000000
1298367.726760,6.000000,12.000000,3.000000,-42.000000,-23.000000,-5.000000,-3.000000,-26.000000
1298367.742851,-128.000000,-89.000000,-73.000000,-29.000000,-17.000000,-22.000000,-25.000000,-50.000000
1298367.743055,20.000000,43.000000,19.000000,26.000000,8.000000,13.000000,1.000000,12.000000
1298367.743727,46.000000,79.000000,46.000000,40.000000,16.000000,14.000000,37.000000,52.000000
1298367.743776,10.000000,42.000000,3.000000,-17.000000,-7.000000,-19.000000,-23.000000,-28.000000
1298367.748941,-41.000000,-61.000000,-20.000000,-17.000000,8.000000,11.000000,6.000000,-9.000000
1298367.748991,40.000000,11.000000,-11.000000,39.000000,16.000000,17.000000,20.000000,23.000000
1298367.756724,-104.000000,-40.000000,-21.000000,-43.000000,-16.000000,-17.000000,-32.000000,-57.000000
1298367.756830,34.000000,11.000000,1.000000,1.000000,-7.000000,0.000000,4.000000,10.000000
1298367.779187,-128.000000,-15.000000,5.000000,19.000000,0.000000,-14.000000,-40.000000,-78.000000
1298367.779382,91.000000,13.000000,14.000000,9.000000,0.000000,5.000000,18.000000,41.000000
1298367.787156,24.000000,31.000000,-34.000000,-23.000000,-5.000000,-1.000000,22.000000,24.000000
1298367.787221,38.000000,-22.000000,3.000000,24.000000,13.000000,11.000000,19.000000,48.000000
1298367.802202,6.000000,17.000000,-14.000000,-13.000000,-5.000000,-24.000000,-54.000000,-76.000000
1298367.802353,-128.000000,-16.000000,50.000000,3.000000,-7.000000,-12.000000,-25.000000,-52.000000
1298367.802918,-66.000000,-25.000000,-25.000000,1.000000,-2.000000,6.000000,19.000000,12.000000
1298367.802971,55.000000,15.000000,23.000000,-10.000000,-8.000000,-2.000000,2.000000,7.000000
1298367.831663,13.000000,3.000000,-35.000000,-1.000000,2.000000,-1.000000,13.000000,31.000000
1298367.831716,2.000000,-18.000000,-12.000000,-42.000000,-14.000000,-8.000000,-19.000000,-10.000000
1298367.839304,60.000000,16.000000,13.000000,20.000000,2.000000,4.000000,0.000000,-13.000000
1298367.839342,-39.000000,27.000000,9.000000,17.000000,0.000000,7.000000,19.000000,22.000000
1298367.861315,-8.000000,-19.000000,0.000000,-10.000000,2.000000,-12.000000,-31.000000,-21.000000
1298367.861344,-34.000000,-29.000000,-61.000000,-17.000000,-11.000000,-4.000000,-10.000000,-39.000000
1298367.868834,-128.000000,-56.000000,40.000000,9.000000,3.000000,13.000000,6.000000,-8.000000
1298367.868855,93.000000,45.000000,32.000000,41.000000,11.000000,18.000000,57.000000,75.000000
1298367.890809,-21.000000,-15.000000,-37.000000,-43.000000,-8.000000,-28.000000,-49.000000,-57.000000
1298367.890829,-128.000000,-77.000000,5.000000,-10.000000,-7.000000,1.000000,-25.000000,-83.000000
1298367.898280,-24.000000,-4.000000,25.000000,24.000000,9.000000,23.000000,40.000000,37.000000
1298367.898300,85.000000,74.000000,-17.000000,-1.000000,-11.000000,-25.000000,-38.000000,-22.000000
1298367.913294,46.000000,31.000000,13.000000,-17.000000,-7.000000,1.000000,7.000000,7.000000
1298367.913317,62.000000,-9.000000,7.000000,11.000000,13.000000,9.000000,25.000000,28.000000
1298367.920976,-75.000000,-6.000000,-9.000000,18.000000,11.000000,12.000000,13.000000,-15.000000
1298367.921025,23.000000,52.000000,22.000000,-12.000000,-6.000000,16.000000,18.000000,22.000000
1298367.935781,-8.000000,-15.000000,15.000000,27.000000,3.000000,13.000000,12.000000,8.000000
1298367.935819,22.000000,22.000000,19.000000,-3.000000,-9.000000,-5.000000,13.000000,32.000000
1298367.936349,16.000000,89.000000,33.000000,21.000000,11.000000,-6.000000,-26.000000,-7.000000
1298367.936375,-41.000000,-38.000000,19.000000,32.000000,3.000000,10.000000,19.000000,-15.000000
1298367.937171,102.000000,-20.000000,-8.000000,11.000000,6.000000,18.000000,37.000000,68.000000
1298367.937278,-74.000000,30.000000,9.000000,-51.000000,-30.000000,-81.000000,-128.000000,-128.000000
1298367.938068,-128.000000,-89.000000,-53.000000,-11.000000,-11.000000,3.000000,14.000000,-18.000000
1298367.938085,127.000000,60.000000,2.000000,17.000000,13.000000,43.000000,67.000000,70.000000
1298367.939009,98.000000,21.000000,23.000000,32.000000,12.000000,7.000000,26.000000,69.000000
1298367.939029,12.000000,56.000000,21.000000,11.000000,17.000000,-3.000000,-9.000000,-15.000000
1298367.943766,41.000000,-21.000000,-45.000000,8.000000,-1.000000,-3.000000,6.000000,12.000000
1298367.943783,-86.000000,-32.000000,-34.000000,-79.000000,-24.000000,10.000000,18.000000,14.000000
1298367.980710,-7.000000,5.000000,3.000000,-4.000000,5.000000,12.000000,24.000000,25.000000
1298367.980743,-128.000000,-128.000000,17.000000,54.000000,15.000000,-18.000000,-48.000000,-55.000000
1298367.981746,18.000000,-32.000000,-38.000000,-33.000000,-2.000000,9.000000,8.000000,20.000000
1298367.981788,-37.000000,55.000000,32.000000,27.000000,7.000000,1.000000,-4.000000,-22.000000
1298367.982610,-128.000000,-94.000000,-20.000000,-29.000000,-21.000000,-33.000000,-45.000000,-67.000000
1298367.982618,107.000000,38.000000,18.000000,4.000000,1.000000,5.000000,-1.000000,28.000000
1298367.988105,126.000000,7.000000,28.000000,-13.000000,-11.000000,-7.000000,8.000000,27.000000
1298367.988123,-128.000000,-44.000000,-1.000000,-2.000000,-10.000000,-17.000000,-29.000000,-106.000000
1298368.010689,82.000000,9.000000,-8.000000,31.000000,13.000000,2.000000,19.000000,40.000000
1298368.010719,111.000000,48.000000,7.000000,-4.000000,-14.000000,-14.000000,-22.000000,-25.000000
1298368.018556,123.000000,19.000000,1.000000,-19.000000,-4.000000,-6.000000,0.000000,36.000000
1298368.018565,-42.000000,-16.000000,-6.000000,-11.000000,-1.000000,4.000000,4.000000,-26.000000
1298368.019126,-47.000000,-15.000000,-9.000000,18.000000,7.000000,-7.000000,-8.000000,-12.000000
1298368.019143,-32.000000,-52.000000,5.000000,18.000000,-3.000000,-4.000000,9.000000,9.000000
1298368.025674,12.000000,31.000000,4.000000,-7.000000,10.000000,11.000000,13.000000,30.000000
1298368.025705,61.000000,7.000000,-6.000000,-10.000000,5.000000,6.000000,9.000000,33.000000
1298368.033488,-98.000000,-16.000000,15.000000,0.000000,-8.000000,-11.000000,-31.000000,-70.000000
1298368.033514,-34.000000,77.000000,-65.000000,-60.000000,-9.000000,2.000000,15.000000,14.000000
1298368.070724,45.000000,1.000000,59.000000,32.000000,8.000000,10.000000,19.000000,40.000000
1298368.070737,97.000000,35.000000,35.000000,30.000000,11.000000,15.000000,7.000000,12.000000
1298368.078251,-35.000000,-33.000000,-40.000000,-13.000000,2.000000,-15.000000,1.000000,-10.000000
1298368.078261,-128.000000,-85.000000,-16.000000,-4.000000,-10.000000,-12.000000,-39.000000,-95.000000
1298368.093366,65.000000,34.000000,38.000000,12.000000,2.000000,13.000000,22.000000,33.000000
1298368.093377,98.000000,-6.000000,-9.000000,4.000000,7.000000,10.000000,27.000000,51.000000
1298368.094050,41.000000,67.000000,28.000000,17.000000,2.000000,0.000000,-32.000000,-28.000000
1298368.094059,-70.000000,-11.000000,-20.000000,-1.000000,-10.000000,-5.000000,-5.000000,-24.000000
1298368.095381,-11.000000,-31.000000,-5.000000,7.000000,6.000000,9.000000,23.000000,6.000000
1298368.095412,49.000000,-4.000000,-11.000000,-36.000000,-8.000000,5.000000,33.000000,52.000000
1298368.096125,-14.000000,78.000000,44.000000,39.000000,5.000000,3.000000,-17.000000,-55.000000
1298368.096134,-11.000000,-15.000000,-52.000000,-9.000000,9.000000,17.000000,38.000000,33.000000
1298368.108955,33.000000,10.000000,3.000000,-12.000000,-11.000000,-30.000000,-55.000000,-18.000000
1298368.108995,-55.000000,17.000000,9.000000,4.000000,7.000000,3.000000,2.000000,-9.000000
1298368.137922,30.000000,-18.000000,10.000000,4.000000,0.000000,9.000000,4.000000,4.000000
1298368.137940,-39.000000,-7.000000,-4.000000,-5.000000,-3.000000,1.000000,12.000000,-23.000000
1298368.139133,77.000000,55.000000,24.000000,14.000000,-2.000000,-1.000000,23.000000,68.000000
1298368.139141,31.000000,-11.000000,-17.000000,37.000000,7.000000,-10.000000,-45.000000,-49.000000
1298368.139853,-42.000000,-72.000000,-71.000000,-63.000000,-18.000000,-14.000000,-13.000000,-5.000000
1298368.139872,13.000000,-20.000000,15.000000,3.000000,0.000000,2.000000,7.000000,-16.000000
1298368.145591,-90.000000,-96.000000,33.000000,9.000000,1.000000,9.000000,21.000000,16.000000
1298368.145605,12.000000,-18.000000,-5.000000,46.000000,17.000000,-4.000000,-35.000000,-20.000000
1298368.175869,-82.000000,4.000000,6.000000,-27.000000,-16.000000,-15.000000,-18.000000,-27.000000
1298368.175887,57.000000,7.000000,23.000000,27.000000,11.000000,16.000000,13.000000,18.000000
1298368.190449,41.000000,25.000000,-13.000000,5.000000,-1.000000,3.000000,27.000000,51.000000
1298368.190458,45.000000,-32.000000,-18.000000,-17.000000,-4.000000,-1.000000,10.000000,15.000000
1298368.198737,-89.000000,-44.000000,-28.000000,5.000000,-3.000000,-8.000000,-21.000000,-36.000000
1298368.198775,63.000000,72.000000,33.000000,30.000000,14.000000,24.000000,29.000000,30.000000
1298368.220537,-16.000000,-7.000000,-15.000000,-27.000000,-25.000000,-32.000000,-62.000000,-51.000000
1298368.220547,-40.000000,-34.000000,-26.000000,-6.000000,2.000000,6.000000,12.000000,-12.000000
1298368.227995,35.000000,12.000000,16.000000,10.000000,1.000000,11.000000,18.000000,29.000000
1298368.228009,-45.000000,-47.000000,-1.000000,-1.000000,5.000000,-6.000000,-40.000000,-35.000000
1298368.229082,7.000000,37.000000,5.000000,8.000000,-6.000000,-9.000000,-17.000000,7.000000
1298368.229102,-71.000000,-58.000000,-23.000000,-11.000000,-6.000000,-1.000000,-1.000000,-18.000000
1298368.229638,50.000000,22.000000,-13.000000,-2.000000,1.000000,-3.000000,-3.000000,30.000000
1298368.229648,127.000000,104.000000,36.000000,31.000000,28.000000,20.000000,31.000000,38.000000
1298368.231367,-80.000000,-9.000000,-23.000000,-15.000000,-17.000000,2.000000,3.000000,-26.000000
1298368.231380,-109.000000,-59.000000,4.000000,-16.000000,6.000000,3.000000,-7.000000,-7.000000
1298368.235358,43.000000,73.000000,-46.000000,-9.000000,0.000000,-3.000000,-9.000000,30.000000
1298368.235376,127.000000,37.000000,45.000000,41.000000,16.000000,13.000000,26.000000,60.000000
1298368.258796,-69.000000,-17.000000,-46.000000,-56.000000,-30.000000,-34.000000,-32.000000,-51.000000
1298368.258807,17.000000,46.000000,31.000000,18.000000,7.000000,10.000000,4.000000,-12.000000
1298368.259305,-107.000000,-78.000000,-35.000000,5.000000,1.000000,-2.000000,-3.000000,-11.000000
1298368.259326,32.000000,-9.000000,2.000000,-11.000000,5.000000,9.000000,19.000000,23.000000
1298368.265666,9.000000,18.000000,20.000000,9.000000,5.000000,6.000000,10.000000,14.000000
1298368.265686,56.000000,-21.000000,-40.000000,-11.000000,0.000000,5.000000,26.000000,38.000000
1298368.296428,-95.000000,-27.000000,21.000000,-1.000000,-8.000000,-38.000000,-84.000000,-85.000000
1298368.296468,7.000000,-3.000000,-10.000000,4.000000,-7.000000,11.000000,30.000000,25.000000
1298368.333710,-17.000000,-43.000000,-10.000000,28.000000,6.000000,3.000000,-2.000000,-4.000000
1298368.333730,-8.000000,-1.000000,-21.000000,-2.000000,-11.000000,-1.000000,11.000000,14.000000
1298368.334582,-59.000000,15.000000,4.000000,-53.000000,-14.000000,-12.000000,-20.000000,-8.000000
1298368.334600,-10.000000,10.000000,-2.000000,7.000000,1.000000,-4.000000,-8.000000,-6.000000
1298368.336359,127.000000,127.000000,54.000000,36.000000,12.000000,17.000000,40.000000,49.000000
1298368.336442,-48.000000,-34.000000,-15.000000,7.000000,-1.000000,-22.000000,-37.000000,-23.000000
1298368.336669,-28.000000,-12.000000,25.000000,15.000000,-3.000000,3.000000,10.000000,-1.000000
1298368.336707,110.000000,50.000000,10.000000,-3.000000,8.000000,14.000000,39.000000,42.000000
1298368.337578,22.000000,-38.000000,5.000000,-15.000000,-4.000000,-15.000000,-30.000000,-19.000000
1298368.337594,-17.000000,-4.000000,-36.000000,6.000000,6.000000,17.000000,12.000000,-13.000000
1298368.348505,32.000000,10.000000,-33.000000,-63.000000,-10.000000,0.000000,-1.000000,17.000000
1298368.348523,-6.000000,-11.000000,23.000000,-8.000000,-2.000000,-4.000000,-1.000000,25.000000
1298368.355976,98.000000,46.000000,-15.000000,24.000000,0.000000,-14.000000,-45.000000,-40.000000
1298368.356014,-99.000000,-24.000000,-16.000000,-17.000000,2.000000,-5.000000,-17.000000,-24.000000
1298368.371779,35.000000,13.000000,24.000000,17.000000,6.000000,10.000000,24.000000,21.000000
1298368.371814,100.000000,-10.000000,17.000000,24.000000,6.000000,13.000000,40.000000,57.000000
1298368.378573,-128.000000,23.000000,-16.000000,-12.000000,6.000000,-11.000000,-38.000000,-101.000000
1298368.378624,-7.000000,62.000000,-13.000000,-38.000000,-11.000000,-2.000000,-10.000000,1.000000
1298368.386501,40.000000,36.000000,32.000000,-11.000000,-12.000000,3.000000,27.000000,35.000000
1298368.386522,39.000000,-18.000000,28.000000,27.000000,16.000000,9.000000,18.000000,19.000000
1298368.393885,0.000000,10.000000,2.000000,4.000000,-3.000000,-7.000000,-2.000000,-9.000000
1298368.393905,-61.000000,-23.000000,-3.000000,-11.000000,-14.000000,-33.000000,-68.000000,-87.000000
1298368.423486,12.000000,-12.000000,8.000000,-15.000000,-4.000000,7.000000,16.000000,21.000000
1298368.423618,-128.000000,-47.000000,-10.000000,-11.000000,-1.000000,3.000000,-5.000000,-51.000000
1298368.446951,127.000000,88.000000,17.000000,20.000000,15.000000,18.000000,40.000000,63.000000
1298368.446973,49.000000,-10.000000,-9.000000,-8.000000,-8.000000,-15.000000,-21.000000,-2.000000
1298368.454779,-95.000000,-21.000000,8.000000,3.000000,-1.000000,0.000000,6.000000,-3.000000
1298368.454842,-80.000000,-34.000000,-19.000000,-7.000000,-13.000000,-15.000000,-17.000000,-25.000000
1298368.455022,48.000000,36.000000,19.000000,8.000000,8.000000,20.000000,46.000000,44.000000
1298368.455055,49.000000,39.000000,19.000000,4.000000,-2.000000,-17.000000,-23.000000,17.000000
1298368.456536,-5.000000,-3.000000,-3.000000,6.000000,-3.000000,6.000000,4.000000,-4.000000
1298368.456555,-57.000000,-21.000000,-22.000000,1.000000,3.000000,3.000000,-5.000000,-39.000000
1298368.461134,52.000000,17.000000,-29.000000,-44.000000,-10.000000,-21.000000,-30.000000,-11.000000
1298368.461154,-44.000000,-30.000000,-5.000000,0.000000,-19.000000,-10.000000,2.000000,-11.000000
1298368.491135,-44.000000,-13.000000,-3.000000,3.000000,12.000000,18.000000,22.000000,-3.000000
1298368.491182,-49.000000,22.000000,29.000000,19.000000,-7.000000,-20.000000,-22.000000,-1.000000
1298368.499565,-6.000000,-61.000000,-28.000000,-18.000000,-4.000000,0.000000,-3.000000,0.000000
1298368.499603,6.000000,10.000000,9.000000,13.000000,1.000000,-2.000000,-8.000000,-16.000000
1298368.500640,-29.000000,6.000000,-9.000000,4.000000,-1.000000,5.000000,17.000000,-12.000000
1298368.500872,-35.000000,15.000000,7.000000,-16.000000,2.000000,-8.000000,-8.000000,5.000000
1298368.501609,91.000000,89.000000,23.000000,27.000000,16.000000,17.000000,16.000000,46.000000
1298368.501626,127.000000,-37.000000,6.000000,-21.000000,-8.000000,-10.000000,-21.000000,-59.000000
1298368.506154,-73.000000,-10.000000,-9.000000,-2.000000,-8.000000,-20.000000,-51.000000,-25.000000
1298368.506192,49.000000,28.000000,23.000000,22.000000,6.000000,27.000000,33.000000,44.000000
1298368.521452,70.000000,21.000000,19.000000,26.000000,15.000000,1.000000,17.000000,30.000000
1298368.521472,-92.000000,-2.000000,-15.000000,-79.000000,-23.000000,-11.000000,-10.000000,-12.000000
1298368.543592,-59.000000,11.000000,20.000000,24.000000,14.000000,10.000000,7.000000,-22.000000
1298368.543613,-13.000000,-27.000000,-21.000000,-4.000000,-12.000000,-13.000000,-19.000000,-11.000000
1298368.558697,39.000000,7.000000,-15.000000,24.000000,14.000000,9.000000,16.000000,32.000000
1298368.558779,-24.000000,-38.000000,5.000000,-22.000000,-3.000000,-5.000000,-11.000000,-28.000000
1298368.574360,-40.000000,25.000000,9.000000,8.000000,-4.000000,-4.000000,-7.000000,0.000000
1298368.574580,54.000000,-16.000000,-4.000000,-4.000000,0.000000,4.000000,12.000000,5.000000
1298368.575115,17.000000,14.000000,17.000000,9.000000,6.000000,8.000000,24.000000,28.000000
1298368.575305,42.000000,17.000000,25.000000,19.000000,20.000000,16.000000,5.000000,-24.000000
1298368.576436,25.000000,4.000000,18.000000,32.000000,3.000000,-11.000000,-44.000000,-28.000000
1298368.576454,-128.000000,-51.000000,-58.000000,-75.000000,-39.000000,-34.000000,-45.000000,-95.000000
1298368.581135,39.000000,25.000000,19.000000,27.000000,10.000000,21.000000,36.000000,52.000000
1298368.581165,74.000000,8.000000,19.000000,21.000000,16.000000,23.000000,33.000000,49.000000
1298368.588532,51.000000,-72.000000,-50.000000,13.000000,2.000000,-11.000000,-4.000000,25.000000
1298368.588550,-70.000000,-44.000000,-29.000000,-70.000000,-34.000000,-15.000000,-9.000000,-34.000000
1298368.596227,7.000000,27.000000,19.000000,24.000000,1.000000,-1.000000,-3.000000,-4.000000
1298368.596332,-47.000000,76.000000,59.000000,70.000000,28.000000,14.000000,7.000000,4.000000
1298368.611995,-9.000000,-101.000000,-90.000000,-85.000000,-33.000000,-24.000000,-5.000000,-7.000000
1298368.612035,31.000000,28.000000,58.000000,21.000000,10.000000,9.000000,5.000000,20.000000
1298368.618672,47.000000,-5.000000,-9.000000,4.000000,7.000000,3.000000,0.000000,5.000000
1298368.618691,-20.000000,42.000000,19.000000,23.000000,4.000000,5.000000,16.000000,9.000000
1298368.633346,-27.000000,-9.000000,13.000000,-14.000000,-1.000000,-8.000000,-15.000000,-21.000000
1298368.633397,-50.000000,2.000000,0.000000,7.000000,0.000000,8.000000,8.000000,-3.000000
1298368.641469,14.000000,10.000000,21.000000,18.000000,8.000000,-9.000000,-26.000000,3.000000
1298368.641495,79.000000,30.000000,-9.000000,-12.000000,7.000000,17.000000,37.000000,59.000000
1298368.656631,82.000000,27.000000,19.000000,13.000000,1.000000,0.000000,12.000000,30.000000
1298368.656665,26.000000,-4.000000,-18.000000,5.000000,-7.000000,-22.000000,-54.000000,-57.000000
1298368.663718,-128.000000,-45.000000,-9.000000,-44.000000,-14.000000,6.000000,10.000000,-9.000000
1298368.663765,72.000000,28.000000,21.000000,16.000000,9.000000,20.000000,24.000000,31.000000
1298368.693962,-26.000000,-71.000000,-43.000000,-20.000000,-4.000000,-2.000000,20.000000,20.000000
1298368.694173,40.000000,15.000000,-12.000000,-16.000000,-8.000000,-13.000000,-12.000000,3.000000
1298368.694665,-51.000000,28.000000,4.000000,28.000000,9.000000,2.000000,-10.000000,-42.000000
1298368.694931,19.000000,67.000000,11.000000,-9.000000,-19.000000,-12.000000,-26.000000,-12.000000
1298368.696019,-94.000000,-63.000000,6.000000,-3.000000,3.000000,1.000000,9.000000,-16.000000
1298368.696053,35.000000,104.000000,0.000000,32.000000,18.000000,12.000000,16.000000,40.000000
1298368.701197,48.000000,-47.000000,-56.000000,-31.000000,-3.000000,-2.000000,14.000000,25.000000
1298368.701240,-38.000000,0.000000,-11.000000,-19.000000,-13.000000,-20.000000,-33.000000,-67.000000
1298368.708676,-34.000000,7.000000,-6.000000,15.000000,2.000000,2.000000,5.000000,19.000000
1298368.708712,5.000000,15.000000,-17.000000,-19.000000,-8.000000,6.000000,18.000000,27.000000
1298368.723733,78.000000,13.000000,38.000000,19.000000,6.000000,3.000000,27.000000,43.000000
1298368.723753,-112.000000,-15.000000,-23.000000,-7.000000,-11.000000,-22.000000,-54.000000,-84.000000
1298368.731878,102.000000,74.000000,19.000000,5.000000,0.000000,17.000000,30.000000,44.000000
1298368.731912,51.000000,10.000000,5.000000,34.000000,13.000000,-3.000000,-22.000000,-13.000000
1298368.738525,-80.000000,-17.000000,-1.000000,-40.000000,-7.000000,-4.000000,2.000000,-12.000000
1298368.738544,16.000000,19.000000,7.000000,-5.000000,-5.000000,11.000000,22.000000,27.000000
1298368.761284,126.000000,54.000000,33.000000,26.000000,14.000000,15.000000,26.000000,62.000000
1298368.761311,-61.000000,-13.000000,-12.000000,-33.000000,-14.000000,-32.000000,-77.000000,-101.000000
1298368.768594,-109.000000,-24.000000,-26.000000,4.000000,-4.000000,0.000000,1.000000,-24.000000
1298368.768614,1.000000,20.000000,17.000000,-17.000000,-13.000000,6.000000,17.000000,20.000000
1298368.783694,83.000000,23.000000,6.000000,13.000000,3.000000,4.000000,-2.000000,10.000000
1298368.783715,-71.000000,-30.000000,12.000000,7.000000,-2.000000,0.000000,29.000000,26.000000
1298368.791258,-55.000000,-12.000000,-8.000000,7.000000,-15.000000,-49.000000,-128.000000,-128.000000
1298368.791295,28.000000,3.000000,-17.000000,-7.000000,7.000000,18.000000,33.000000,21.000000
1298368.814481,-17.000000,17.000000,10.000000,-13.000000,-4.000000,3.000000,7.000000,6.000000
1298368.814524,75.000000,89.000000,10.000000,27.000000,5.000000,-3.000000,0.000000,9.000000
1298368.815418,16.000000,-72.000000,-15.000000,-10.000000,3.000000,-1.000000,-7.000000,-3.000000
1298368.815528,-18.000000,-6.000000,15.000000,-24.000000,-10.000000,0.000000,15.000000,6.000000
1298368.816571,-56.000000,-42.000000,-18.000000,-13.000000,-12.000000,-19.000000,-35.000000,-24.000000
1298368.816608,-36.000000,21.000000,-22.000000,-9.000000,5.000000,5.000000,-2.000000,-1.000000
1298368.820824,69.000000,12.000000,18.000000,-15.000000,-10.000000,-11.000000,-26.000000,3.000000
1298368.820865,26.000000,-33.000000,-4.000000,16.000000,4.000000,2.000000,16.000000,32.000000
1298368.835946,-11.000000,-5.000000,-9.000000,-7.000000,-8.000000,-15.000000,-41.000000,-44.000000
1298368.836072,-64.000000,-8.000000,7.000000,37.000000,18.000000,15.000000,18.000000,18.000000
1298368.836753,72.000000,-9.000000,2.000000,-47.000000,-17.000000,-9.000000,6.000000,28.000000
1298368.836769,-25.000000,-5.000000,15.000000,32.000000,3.000000,-1.000000,-13.000000,-52.000000
1298368.852103,-47.000000,-38.000000,-24.000000,-51.000000,-26.000000,-2.000000,-3.000000,-10.000000
1298368.852140,77.000000,16.000000,-6.000000,21.000000,7.000000,3.000000,18.000000,42.000000
1298368.858747,49.000000,20.000000,3.000000,5.000000,2.000000,-6.000000,-16.000000,1.000000
1298368.858781,87.000000,18.000000,45.000000,16.000000,-1.000000,2.000000,10.000000,18.000000
1298368.873507,-103.000000,-48.000000,-8.000000,-18.000000,0.000000,-12.000000,-6.000000,-36.000000
1298368.873544,-2.000000,-12.000000,-42.000000,-12.000000,-1.000000,-9.000000,-29.000000,-38.000000
1298368.888690,63.000000,25.000000,17.000000,12.000000,-1.000000,13.000000,19.000000,32.000000
1298368.888728,-77.000000,-10.000000,0.000000,-5.000000,-7.000000,-15.000000,-29.000000,-23.000000
1298368.903775,31.000000,-9.000000,-20.000000,0.000000,-11.000000,-13.000000,-8.000000,-6.000000
1298368.903814,-3.000000,-55.000000,-10.000000,9.000000,3.000000,2.000000,10.000000,-3.000000
1298368.911169,-60.000000,11.000000,-11.000000,-12.000000,6.000000,15.000000,12.000000,-2.000000
1298368.911185,34.000000,0.000000,5.000000,5.000000,0.000000,1.000000,9.000000,18.000000
1298368.933768,-31.000000,-12.000000,-19.000000,-28.000000,-12.000000,-11.000000,4.000000,1.000000
1298368.934075,25.000000,8.000000,0.000000,19.000000,11.000000,-7.000000,-45.000000,-54.000000
1298368.934525,-10.000000,7.000000,12.000000,-11.000000,-11.000000,-4.000000,1.000000,4.000000
1298368.934564,-34.000000,33.000000,4.000000,14.000000,12.000000,12.000000,17.000000,29.000000
1298368.935962,53.000000,26.000000,5.000000,-6.000000,19.000000,25.000000,25.000000,0.000000
1298368.935979,-121.000000,-20.000000,-27.000000,-21.000000,-15.000000,-19.000000,-43.000000,-47.000000
1298368.941025,-7.000000,10.000000,-14.000000,19.000000,-6.000000,-1.000000,-1.000000,7.000000
1298368.941065,41.000000,-35.000000,-13.000000,-14.000000,-1.000000,1.000000,21.000000,20.000000
1298368.963356,-37.000000,4.000000,1.000000,-4.000000,4.000000,0.000000,-13.000000,-15.000000
1298368.963393,18.000000,1.000000,46.000000,0.000000,2.000000,1.000000,10.000000,14.000000
1298368.971112,49.000000,18.000000,23.000000,15.000000,17.000000,9.000000,10.000000,26.000000
1298368.971143,14.000000,-17.000000,-33.000000,-26.000000,-10.000000,-3.000000,-8.000000,-11.000000
1298368.972404,-128.000000,-9.000000,-17.000000,1.000000,3.000000,-4.000000,1.000000,-68.000000
1298368.972423,-128.000000,-25.000000,-6.000000,-18.000000,-19.000000,-26.000000,-35.000000,-54.000000
1298368.978921,90.000000,21.000000,7.000000,10.000000,7.000000,28.000000,40.000000,47.000000
1298368.978956,32.000000,8.000000,-12.000000,-16.000000,6.000000,10.000000,16.000000,5.000000
1298369.001467,18.000000,32.000000,7.000000,5.000000,10.000000,-2.000000,-7.000000,22.000000
1298369.001487,59.000000,12.000000,6.000000,10.000000,3.000000,3.000000,11.000000,9.000000
1298369.008771,-128.000000,-98.000000,-10.000000,-27.000000,-9.000000,2.000000,8.000000,-4.000000
1298369.008872,17.000000,40.000000,11.000000,4.000000,2.000000,-4.000000,-19.000000,-6.000000
1298369.023496,6.000000,-23.000000,0.000000,4.000000,-1.000000,-5.000000,-1.000000,11.000000
1298369.023515,-50.000000,-8.000000,2.000000,17.000000,-7.000000,-5.000000,-12.000000,-16.000000
1298369.038899,39.000000,-84.000000,8.000000,11.000000,-7.000000,-5.000000,-1.000000,11.000000
1298369.038944,-54.000000,46.000000,-28.000000,-45.000000,-14.000000,-17.000000,-22.000000,-40.000000
1298369.040631,29.000000,-5.000000,13.000000,20.000000,6.000000,7.000000,-7.000000,-4.000000
1298369.040668,-57.000000,-107.000000,-73.000000,-70.000000,-8.000000,-14.000000,4.000000,-25.000000
1298369.041271,35.000000,56.000000,36.000000,26.000000,4.000000,1.000000,18.000000,14.000000
1298369.041291,-21.000000,-14.000000,-1.000000,22.000000,-1.000000,-15.000000,-54.000000,-64.000000
1298369.046209,-23.000000,54.000000,-20.000000,-31.000000,-14.000000,11.000000,22.000000,18.000000
1298369.046230,50.000000,7.000000,10.000000,1.000000,8.000000,7.000000,17.000000,26.000000
1298369.061118,40.000000,19.000000,4.000000,-8.000000,1.000000,-4.000000,6.000000,8.000000
1298369.061145,-35.000000,-4.000000,-6.000000,1.000000,-6.000000,2.000000,-7.000000,-10.000000
1298369.092271,47.000000,28.000000,15.000000,12.000000,-1.000000,-1.000000,19.000000,22.000000
1298369.092306,-52.000000,-11.000000,3.000000,3.000000,3.000000,9.000000,15.000000,0.000000
1298369.092597,6.000000,5.000000,2.000000,8.000000,4.000000,-2.000000,6.000000,-10.000000
1298369.092759,-29.000000,-13.000000,-41.000000,-46.000000,-6.000000,-8.000000,-21.000000,-24.000000
1298369.093767,-3.000000,3.000000,24.000000,1.000000,1.000000,1.000000,13.000000,23.000000
1298369.093879,-15.000000,-8.000000,-14.000000,31.000000,-4.000000,-9.000000,-9.000000,-9.000000
1298369.098405,-9.000000,-13.000000,-5.000000,23.000000,10.000000,4.000000,2.000000,0.000000
1298369.098423,53.000000,24.000000,17.000000,-10.000000,-13.000000,-6.000000,14.000000,21.000000
1298369.128634,-58.000000,-100.000000,-27.000000,-13.000000,-7.000000,-15.000000,-41.000000,-59.000000
1298369.128671,-4.000000,38.000000,0.000000,14.000000,6.000000,8.000000,-11.000000,-5.000000
1298369.136115,-126.000000,13.000000,-7.000000,-19.000000,-2.000000,6.000000,30.000000,16.000000
1298369.136153,20.000000,-13.000000,-15.000000,-2.000000,-16.000000,-31.000000,-57.000000,1.000000
1298369.166097,44.000000,19.000000,-18.000000,-10.000000,-3.000000,7.000000,19.000000,16.000000
1298369.166134,41.000000,72.000000,27.000000,30.000000,7.000000,15.000000,33.000000,45.000000
1298369.173528,1.000000,-32.000000,-61.000000,-14.000000,8.000000,-5.000000,-20.000000,-51.000000
1298369.173672,-35.000000,-4.000000,3.000000,-52.000000,-10.000000,3.000000,6.000000,-13.000000
1298369.203647,4.000000,-40.000000,-17.000000,12.000000,5.000000,8.000000,16.000000,14.000000
1298369.203684,18.000000,47.000000,41.000000,38.000000,5.000000,-10.000000,-1.000000,10.000000
1298369.211205,-20.000000,-21.000000,-16.000000,-27.000000,-17.000000,-8.000000,-4.000000,-12.000000
1298369.211232,12.000000,46.000000,27.000000,6.000000,9.000000,3.000000,-8.000000,-12.000000
1298369.226310,-34.000000,57.000000,-2.000000,-20.000000,-19.000000,-25.000000,-45.000000,-21.000000
1298369.226340,17.000000,-77.000000,-32.000000,-33.000000,-4.000000,1.000000,8.000000,20.000000
1298369.241324,22.000000,38.000000,53.000000,48.000000,19.000000,26.000000,38.000000,12.000000
1298369.241407,-57.000000,39.000000,-13.000000,-32.000000,-9.000000,-2.000000,4.000000,12.000000
1298369.248608,-35.000000,31.000000,33.000000,-3.000000,-17.000000,-31.000000,-53.000000,-94.000000
1298369.248633,71.000000,101.000000,19.000000,19.000000,12.000000,28.000000,43.000000,60.000000
1298369.256143,-16.000000,-8.000000,-15.000000,-11.000000,-7.000000,-26.000000,-38.000000,-32.000000
1298369.256164,47.000000,-1.000000,16.000000,11.000000,15.000000,13.000000,24.000000,17.000000
1298369.279106,59.000000,6.000000,12.000000,1.000000,0.000000,6.000000,16.000000,5.000000
1298369.279242,-5.000000,4.000000,15.000000,33.000000,19.000000,16.000000,15.000000,21.000000
1298369.279534,83.000000,3.000000,-30.000000,-37.000000,9.000000,14.000000,13.000000,21.000000
1298369.279572,-70.000000,0.000000,3.000000,21.000000,11.000000,1.000000,3.000000,-32.000000
1298369.286053,57.000000,5.000000,-8.000000,-9.000000,-3.000000,-2.000000,9.000000,28.000000
1298369.286298,-59.000000,-40.000000,-15.000000,-30.000000,-15.000000,-15.000000,-45.000000,-58.000000
1298369.287430,35.000000,58.000000,26.000000,19.000000,7.000000,2.000000,27.000000,34.000000
1298369.287746,-16.000000,24.000000,-22.000000,-24.000000,-21.000000,-29.000000,-63.000000,-57.000000
1298369.288594,2.000000,35.000000,40.000000,-7.000000,1.000000,11.000000,20.000000,15.000000
1298369.288611,-12.000000,-83.000000,-83.000000,-7.000000,-11.000000,-12.000000,11.000000,19.000000
1298369.289323,-84.000000,-24.000000,19.000000,-10.000000,-5.000000,-8.000000,-4.000000,-15.000000
1298369.289360,72.000000,9.000000,-3.000000,-12.000000,8.000000,14.000000,28.000000,39.000000
1298369.316234,36.000000,16.000000,16.000000,10.000000,11.000000,13.000000,-15.000000,-13.000000
1298369.316284,35.000000,57.000000,17.000000,29.000000,16.000000,10.000000,31.000000,47.000000
1298369.318020,33.000000,-1.000000,9.000000,8.000000,-10.000000,-29.000000,-73.000000,-66.000000
1298369.318059,-46.000000,39.000000,-12.000000,11.000000,-12.000000,-4.000000,-4.000000,2.000000
1298369.318488,39.000000,1.000000,5.000000,-22.000000,7.000000,12.000000,31.000000,19.000000
1298369.318517,-28.000000,3.000000,21.000000,16.000000,-1.000000,4.000000,10.000000,6.000000
1298369.330964,35.000000,-20.000000,-33.000000,16.000000,-3.000000,4.000000,1.000000,3.000000
1298369.330982,50.000000,-17.000000,15.000000,13.000000,1.000000,-6.000000,-3.000000,12.000000
1298369.338633,33.000000,-11.000000,-24.000000,-20.000000,8.000000,-5.000000,3.000000,7.000000
1298369.338670,-50.000000,63.000000,43.000000,23.000000,2.000000,-1.000000,-4.000000,-6.000000
1298369.376211,-12.000000,12.000000,13.000000,5.000000,16.000000,23.000000,24.000000,14.000000
1298369.376232,-50.000000,-60.000000,-53.000000,9.000000,-13.000000,-33.000000,-22.000000,-7.000000
1298369.390920,42.000000,-1.000000,-3.000000,-21.000000,-1.000000,-2.000000,-12.000000,-34.000000
1298369.390940,-8.000000,-2.000000,13.000000,-14.000000,-3.000000,9.000000,13.000000,23.000000
1298369.406868,-33.000000,2.000000,-4.000000,9.000000,-4.000000,-1.000000,-3.000000,1.000000
1298369.406887,55.000000,14.000000,4.000000,-3.000000,0.000000,-15.000000,-18.000000,8.000000
1298369.407960,-110.000000,-69.000000,-21.000000,-5.000000,-7.000000,-5.000000,-18.000000,-28.000000
1298369.408168,56.000000,9.000000,-3.000000,-22.000000,1.000000,11.000000,49.000000,47.000000
1298369.409555,30.000000,3.000000,17.000000,21.000000,7.000000,-11.000000,-7.000000,19.000000
1298369.409805,44.000000,-34.000000,-44.000000,-31.000000,-16.000000,-25.000000,-63.000000,-97.000000
1298369.410514,-73.000000,-17.000000,-15.000000,-1.000000,-12.000000,-22.000000,-18.000000,-9.000000
1298369.410547,29.000000,-17.000000,0.000000,-6.000000,1.000000,6.000000,4.000000,10.000000
1298369.422029,13.000000,22.000000,-3.000000,2.000000,-1.000000,7.000000,15.000000,21.000000
1298369.422049,2.000000,28.000000,33.000000,21.000000,8.000000,5.000000,12.000000,26.000000
1298369.428937,21.000000,19.000000,13.000000,-26.000000,-13.000000,-31.000000,-53.000000,-47.000000
1298369.428975,-60.000000,20.000000,-15.000000,-7.000000,-1.000000,-1.000000,-8.000000,-48.000000
1298369.444211,2.000000,-11.000000,8.000000,12.000000,4.000000,7.000000,19.000000,33.000000
1298369.444252,0.000000,-15.000000,-10.000000,-12.000000,-11.000000,-8.000000,-2.000000,1.000000
1298369.450993,26.000000,0.000000,-29.000000,7.000000,-6.000000,-4.000000,-32.000000,-43.000000
1298369.451030,-128.000000,-66.000000,12.000000,-10.000000,-6.000000,-1.000000,-2.000000,-9.000000
1298369.481205,74.000000,7.000000,-11.000000,19.000000,11.000000,11.000000,26.000000,49.000000
1298369.481296,6.000000,7.000000,-2.000000,-22.000000,-14.000000,-8.000000,-1.000000,-22.000000
1298369.488574,-80.000000,-66.000000,8.000000,-6.000000,-14.000000,-31.000000,-61.000000,-70.000000
1298369.488608,5.000000,-39.000000,-24.000000,-2.000000,7.000000,18.000000,24.000000,16.000000
1298369.518773,73.000000,38.000000,40.000000,9.000000,3.000000,10.000000,23.000000,43.000000
1298369.518793,30.000000,-1.000000,-12.000000,13.000000,8.000000,14.000000,18.000000,-9.000000
1298369.526451,-107.000000,-43.000000,-12.000000,-22.000000,0.000000,-20.000000,-42.000000,-64.000000
1298369.526488,105.000000,44.000000,20.000000,21.000000,11.000000,17.000000,28.000000,37.000000
1298369.528368,-42.000000,-26.000000,-28.000000,-18.000000,-9.000000,8.000000,10.000000,11.000000
1298369.528401,-5.000000,-4.000000,1.000000,-13.000000,-2.000000,-2.000000,8.000000,7.000000
1298369.528895,39.000000,20.000000,45.000000,34.000000,6.000000,-1.000000,-4.000000,10.000000
1298369.528928,-30.000000,-10.000000,-27.000000,-34.000000,-16.000000,-6.000000,-17.000000,-33.000000
1298369.529761,67.000000,-21.000000,20.000000,26.000000,17.000000,18.000000,31.000000,46.000000
1298369.529792,60.000000,-32.000000,12.000000,-15.000000,-15.000000,-22.000000,-31.000000,-34.000000
1298369.533528,-25.000000,45.000000,-39.000000,-8.000000,-1.000000,-5.000000,-24.000000,-17.000000
1298369.533546,73.000000,127.000000,80.000000,52.000000,17.000000,13.000000,24.000000,40.000000
1298369.548624,-48.000000,-128.000000,-107.000000,-86.000000,-33.000000,-29.000000,-39.000000,-51.000000
1298369.548662,-50.000000,-2.000000,4.000000,-3.000000,-4.000000,1.000000,-6.000000,-27.000000
1298369.556052,5.000000,97.000000,17.000000,17.000000,0.000000,5.000000,6.000000,8.000000
1298369.556070,53.000000,2.000000,27.000000,25.000000,1.000000,-1.000000,5.000000,22.000000
1298369.564392,-62.000000,-2.000000,-7.000000,7.000000,12.000000,4.000000,6.000000,-20.000000
1298369.564424,-27.000000,-8.000000,-1.000000,-23.000000,-15.000000,-5.000000,-11.000000,-19.000000
1298369.571130,13.000000,7.000000,0.000000,13.000000,5.000000,3.000000,-1.000000,14.000000
1298369.571174,70.000000,-3.000000,-6.000000,12.000000,9.000000,9.000000,22.000000,48.000000
1298369.601068,-42.000000,-5.000000,23.000000,-2.000000,-4.000000,-17.000000,-62.000000,-61.000000
1298369.601088,-34.000000,2.000000,-17.000000,-52.000000,-11.000000,-14.000000,4.000000,-7.000000
1298369.608822,47.000000,44.000000,34.000000,16.000000,-3.000000,10.000000,-8.000000,14.000000
1298369.608917,118.000000,-11.000000,-23.000000,6.000000,5.000000,7.000000,31.000000,28.000000
1298369.646768,-128.000000,-31.000000,9.000000,-9.000000,-12.000000,-15.000000,-44.000000,-72.000000
1298369.647204,-1.000000,-3.000000,-2.000000,6.000000,3.000000,10.000000,18.000000,17.000000
1298369.647742,62.000000,50.000000,32.000000,35.000000,19.000000,19.000000,26.000000,37.000000
1298369.648113,49.000000,-17.000000,32.000000,34.000000,6.000000,-11.000000,-10.000000,12.000000
1298369.648900,-113.000000,-61.000000,-47.000000,-74.000000,-22.000000,-19.000000,-29.000000,-66.000000
1298369.649023,-80.000000,0.000000,40.000000,31.000000,7.000000,9.000000,8.000000,3.000000
1298369.649397,47.000000,-4.000000,12.000000,27.000000,15.000000,9.000000,0.000000,21.000000
1298369.649413,105.000000,19.000000,4.000000,1.000000,-3.000000,-3.000000,19.000000,35.000000
1298369.649988,-78.000000,-35.000000,-30.000000,-19.000000,-16.000000,-34.000000,-68.000000,-89.000000
1298369.650003,-98.000000,1.000000,-1.000000,-9.000000,-13.000000,2.000000,-12.000000,-46.000000
1298369.653690,64.000000,34.000000,-2.000000,-5.000000,6.000000,12.000000,12.000000,27.000000
1298369.653714,-1.000000,6.000000,8.000000,-1.000000,-1.000000,1.000000,8.000000,15.000000
1298369.684183,41.000000,-2.000000,18.000000,22.000000,1.000000,-12.000000,-4.000000,17.000000
1298369.684220,-4.000000,-5.000000,-17.000000,-26.000000,-11.000000,-18.000000,-32.000000,-32.000000
1298369.684781,-17.000000,7.000000,-7.000000,-21.000000,-3.000000,2.000000,-2.000000,-15.000000
1298369.684816,-45.000000,-1.000000,16.000000,20.000000,6.000000,7.000000,17.000000,19.000000
1298369.691182,24.000000,98.000000,-23.000000,0.000000,-4.000000,-6.000000,-18.000000,18.000000
1298369.691220,82.000000,21.000000,13.000000,-9.000000,-1.000000,11.000000,28.000000,46.000000
1298369.698738,-40.000000,-12.000000,-16.000000,-13.000000,-6.000000,-14.000000,-23.000000,-42.000000
1298369.698781,-12.000000,15.000000,-1.000000,6.000000,-1.000000,6.000000,23.000000,8.000000
1298369.728426,69.000000,-37.000000,-18.000000,20.000000,13.000000,9.000000,9.000000,24.000000
1298369.728465,15.000000,39.000000,-20.000000,-53.000000,-14.000000,-13.000000,-7.000000,-5.000000
1298369.729234,3.000000,-8.000000,-12.000000,11.000000,-2.000000,2.000000,2.000000,-3.000000
1298369.729468,-59.000000,12.000000,-4.000000,-47.000000,-32.000000,-30.000000,-57.000000,-64.000000
1298369.730614,41.000000,19.000000,9.000000,0.000000,20.000000,17.000000,38.000000,47.000000
1298369.730651,-2.000000,7.000000,-17.000000,18.000000,4.000000,-3.000000,-13.000000,-23.000000
1298369.731299,-49.000000,-27.000000,37.000000,29.000000,9.000000,5.000000,-11.000000,-35.000000
1298369.731324,125.000000,70.000000,10.000000,-9.000000,-5.000000,5.000000,27.000000,56.000000
1298369.758657,-27.000000,-46.000000,-47.000000,-19.000000,-10.000000,-24.000000,-47.000000,-71.000000
1298369.758691,-68.000000,-27.000000,-1.000000,-10.000000,-2.000000,1.000000,-8.000000,-31.000000
1298369.766214,44.000000,8.000000,17.000000,18.000000,20.000000,15.000000,31.000000,45.000000
1298369.766239,127.000000,90.000000,0.000000,2.000000,5.000000,7.000000,-1.000000,18.000000
1298369.781414,-110.000000,-37.000000,-24.000000,-10.000000,-13.000000,-22.000000,-52.000000,-40.000000
1298369.781453,-36.000000,-17.000000,-2.000000,5.000000,-9.000000,-8.000000,-15.000000,-32.000000
1298369.782408,27.000000,2.000000,4.000000,-1.000000,4.000000,3.000000,17.000000,22.000000
1298369.782439,-14.000000,-82.000000,-7.000000,-3.000000,3.000000,5.000000,15.000000,16.000000
1298369.783314,-4.000000,-32.000000,-8.000000,-7.000000,-4.000000,4.000000,-1.000000,-5.000000
1298369.783351,-9.000000,-3.000000,15.000000,36.000000,2.000000,-5.000000,-11.000000,-16.000000
1298369.803639,18.000000,28.000000,11.000000,-19.000000,-8.000000,9.000000,25.000000,18.000000
1298369.803676,-45.000000,10.000000,-11.000000,22.000000,-2.000000,-12.000000,-18.000000,-20.000000
1298369.826190,1.000000,-46.000000,-37.000000,-29.000000,-6.000000,-3.000000,-20.000000,-30.000000
1298369.826228,19.000000,7.000000,11.000000,-13.000000,-9.000000,2.000000,16.000000,24.000000
1298369.841432,-8.000000,-31.000000,-25.000000,11.000000,3.000000,8.000000,19.000000,7.000000
1298369.841454,-60.000000,-43.000000,-7.000000,-13.000000,-7.000000,-14.000000,-28.000000,-20.000000
1298369.855995,73.000000,34.000000,17.000000,6.000000,1.000000,0.000000,-7.000000,-13.000000
1298369.856013,-39.000000,-6.000000,8.000000,8.000000,-4.000000,-2.000000,-2.000000,-10.000000
1298369.871106,-21.000000,-18.000000,-13.000000,0.000000,3.000000,-2.000000,-13.000000,-30.000000
1298369.871124,23.000000,-58.000000,7.000000,-22.000000,-8.000000,-3.000000,14.000000,13.000000
1298369.879563,-6.000000,-2.000000,13.000000,-11.000000,-9.000000,-11.000000,-21.000000,-28.000000
1298369.879767,-27.000000,5.000000,0.000000,33.000000,10.000000,7.000000,2.000000,-1.000000
1298369.880574,36.000000,12.000000,4.000000,-45.000000,-12.000000,2.000000,-5.000000,10.000000
1298369.880870,-6.000000,-5.000000,-7.000000,18.000000,10.000000,-3.000000,9.000000,4.000000
1298369.881823,-14.000000,-49.000000,19.000000,8.000000,-3.000000,-3.000000,5.000000,-5.000000
1298369.881864,-17.000000,-32.000000,10.000000,-9.000000,-12.000000,1.000000,0.000000,-3.000000
1298369.882057,12.000000,36.000000,4.000000,13.000000,-3.000000,-11.000000,1.000000,8.000000
1298369.882069,44.000000,14.000000,-6.000000,-12.000000,-16.000000,-2.000000,9.000000,13.000000
1298369.893645,9.000000,37.000000,15.000000,19.000000,10.000000,6.000000,13.000000,25.000000
1298369.893683,-16.000000,-34.000000,-49.000000,-46.000000,-20.000000,-18.000000,-35.000000,-23.000000
1298369.909067,-79.000000,-18.000000,1.000000,37.000000,4.000000,-10.000000,-11.000000,-20.000000
1298369.909085,30.000000,-42.000000,-45.000000,-37.000000,-7.000000,-1.000000,13.000000,29.000000
1298369.923560,-35.000000,15.000000,-5.000000,0.000000,2.000000,9.000000,3.000000,-20.000000
1298369.923590,-4.000000,49.000000,-4.000000,-15.000000,-5.000000,-5.000000,-21.000000,-17.000000
1298369.938737,62.000000,9.000000,-5.000000,15.000000,8.000000,6.000000,19.000000,23.000000
1298369.938756,-67.000000,-51.000000,0.000000,16.000000,8.000000,11.000000,39.000000,42.000000
1298369.961241,45.000000,-13.000000,-30.000000,-24.000000,-16.000000,-20.000000,-62.000000,-68.000000
1298369.961270,-99.000000,18.000000,10.000000,12.000000,-13.000000,-7.000000,6.000000,-12.000000
1298369.976348,57.000000,-6.000000,-16.000000,-11.000000,-4.000000,-2.000000,-14.000000,11.000000
1298369.976369,-62.000000,6.000000,-7.000000,11.000000,7.000000,3.000000,-6.000000,-39.000000
1298369.999077,26.000000,2.000000,2.000000,13.000000,16.000000,7.000000,9.000000,23.000000
1298369.999098,-17.000000,-29.000000,-53.000000,-18.000000,-19.000000,-26.000000,-51.000000,-58.000000
1298370.000174,-24.000000,-6.000000,11.000000,-18.000000,-2.000000,17.000000,30.000000,40.000000
1298370.000205,25.000000,127.000000,7.000000,33.000000,17.000000,9.000000,10.000000,11.000000
1298370.000501,-1.000000,-5.000000,23.000000,-17.000000,-8.000000,-2.000000,9.000000,0.000000
1298370.000689,31.000000,10.000000,3.000000,-10.000000,-6.000000,5.000000,-3.000000,3.000000
1298370.001861,-62.000000,-48.000000,-20.000000,9.000000,4.000000,-11.000000,-14.000000,-16.000000
1298370.001886,42.000000,10.000000,0.000000,7.000000,1.000000,-4.000000,3.000000,5.000000
1298370.002489,20.000000,-1.000000,-13.000000,-29.000000,-6.000000,6.000000,18.000000,11.000000
1298370.002507,3.000000,8.000000,39.000000,32.000000,4.000000,-5.000000,-31.000000,-24.000000
1298370.013852,18.000000,-20.000000,5.000000,6.000000,2.000000,2.000000,5.000000,20.000000
1298370.013885,48.000000,33.000000,15.000000,2.000000,2.000000,6.000000,10.000000,6.000000
1298370.038257,-46.000000,-37.000000,-17.000000,-8.000000,-12.000000,-17.000000,-34.000000,-33.000000
1298370.038288,57.000000,19.000000,-8.000000,-6.000000,4.000000,13.000000,23.000000,33.000000
1298370.038605,40.000000,37.000000,15.000000,22.000000,9.000000,9.000000,8.000000,8.000000
1298370.038646,-31.000000,29.000000,13.000000,-3.000000,0.000000,-6.000000,6.000000,18.000000
1298370.058451,-17.000000,0.000000,-9.000000,-22.000000,-8.000000,-2.000000,-6.000000,-24.000000
1298370.058470,-111.000000,-25.000000,-13.000000,-9.000000,-14.000000,-17.000000,-45.000000,-57.000000
1298370.073795,41.000000,6.000000,2.000000,11.000000,2.000000,10.000000,25.000000,40.000000
1298370.073814,50.000000,-5.000000,18.000000,6.000000,2.000000,0.000000,15.000000,35.000000
1298370.096979,1.000000,22.000000,-5.000000,12.000000,3.000000,2.000000,8.000000,2.000000
1298370.097016,56.000000,1.000000,-7.000000,-3.000000,-1.000000,-2.000000,3.000000,4.000000
1298370.097560,-82.000000,-75.000000,-17.000000,1.000000,-8.000000,-7.000000,-9.000000,-22.000000
1298370.097598,-29.000000,9.000000,-11.000000,-14.000000,7.000000,5.000000,12.000000,16.000000
1298370.111302,-26.000000,-2.000000,1.000000,-10.000000,-13.000000,1.000000,-4.000000,-6.000000
1298370.111342,-74.000000,-120.000000,3.000000,-5.000000,-1.000000,1.000000,6.000000,-9.000000
1298370.118839,5.000000,12.000000,-55.000000,-9.000000,-7.000000,-21.000000,-47.000000,-53.000000
1298370.118869,18.000000,15.000000,12.000000,7.000000,4.000000,12.000000,23.000000,30.000000
1298370.120945,98.000000,34.000000,34.000000,13.000000,11.000000,5.000000,10.000000,-5.000000
1298370.121088,-61.000000,-37.000000,-21.000000,-11.000000,-3.000000,5.000000,6.000000,17.000000
1298370.121215,14.000000,15.000000,26.000000,3.000000,11.000000,11.000000,-2.000000,0.000000
1298370.121234,-63.000000,-2.000000,-19.000000,25.000000,9.000000,15.000000,15.000000,17.000000
1298370.122291,127.000000,32.000000,5.000000,-26.000000,-11.000000,-28.000000,-37.000000,14.000000
1298370.122324,-128.000000,-36.000000,-26.000000,-4.000000,-9.000000,-7.000000,-21.000000,-81.000000
1298370.141631,74.000000,9.000000,43.000000,32.000000,10.000000,18.000000,22.000000,7.000000
1298370.141651,25.000000,16.000000,2.000000,13.000000,10.000000,10.000000,34.000000,43.000000
1298370.156227,-26.000000,-66.000000,-15.000000,-3.000000,-8.000000,-24.000000,-24.000000,-13.000000
1298370.156321,71.000000,-34.000000,-6.000000,0.000000,1.000000,3.000000,-18.000000,-36.000000
1298370.157035,-60.000000,127.000000,11.000000,10.000000,4.000000,10.000000,15.000000,25.000000
1298370.157071,41.000000,5.000000,-21.000000,2.000000,-1.000000,-15.000000,0.000000,17.000000
1298370.171405,55.000000,7.000000,15.000000,-13.000000,6.000000,11.000000,16.000000,29.000000
1298370.171443,0.000000,-22.000000,-24.000000,3.000000,0.000000,-1.000000,2.000000,-9.000000
1298370.178769,-94.000000,-41.000000,25.000000,31.000000,0.000000,3.000000,4.000000,8.000000
1298370.178789,40.000000,-4.000000,4.000000,30.000000,11.000000,-7.000000,-18.000000,-11.000000
1298370.208897,-95.000000,-18.000000,-36.000000,-94.000000,-33.000000,-5.000000,-5.000000,-29.000000
1298370.208918,-23.000000,6.000000,14.000000,12.000000,-4.000000,-2.000000,-2.000000,6.000000
