# participant_id: P10
# gesture: medium
# trial_number: 1
# stream_name: Myo_EMG
# stream_type: emg
# timestamp: 20260420_161335
# samples: 5522
# duration_sec: 30.405
# nominal_sample_rate: 200.0
# effective_sample_rate: 181.58
#
timestamp,emg_1,emg_2,emg_3,emg_4,emg_5,emg_6,emg_7,emg_8
1306307.396726,8.000000,3.000000,27.000000,48.000000,9.000000,-8.000000,-23.000000,9.000000
1306307.396738,-74.000000,-13.000000,-39.000000,-95.000000,-40.000000,-6.000000,-19.000000,-77.000000
1306307.412387,89.000000,26.000000,50.000000,127.000000,37.000000,25.000000,52.000000,89.000000
1306307.412399,-9.000000,-1.000000,-25.000000,3.000000,5.000000,-10.000000,-21.000000,-26.000000
1306307.412815,-25.000000,-12.000000,-16.000000,-58.000000,-44.000000,-4.000000,-4.000000,-10.000000
1306307.412842,4.000000,7.000000,7.000000,12.000000,22.000000,4.000000,-2.000000,-9.000000
1306307.413803,-6.000000,-20.000000,6.000000,53.000000,-1.000000,-9.000000,-2.000000,-11.000000
1306307.413812,-6.000000,-4.000000,-17.000000,-61.000000,-7.000000,-15.000000,-20.000000,3.000000
1306307.414578,7.000000,8.000000,7.000000,-67.000000,-47.000000,-5.000000,4.000000,2.000000
1306307.414586,7.000000,-10.000000,1.000000,35.000000,24.000000,2.000000,-1.000000,1.000000
1306307.434068,-37.000000,-8.000000,-31.000000,-39.000000,-1.000000,-16.000000,-41.000000,-32.000000
1306307.434088,-1.000000,12.000000,-3.000000,-45.000000,-9.000000,9.000000,33.000000,-4.000000
1306307.435114,53.000000,11.000000,47.000000,127.000000,74.000000,19.000000,32.000000,69.000000
1306307.435135,-15.000000,-21.000000,-42.000000,-62.000000,-25.000000,-13.000000,-13.000000,-11.000000
1306307.441359,-21.000000,-2.000000,-36.000000,-59.000000,-12.000000,-12.000000,-22.000000,-28.000000
1306307.441377,-16.000000,-10.000000,-3.000000,0.000000,-10.000000,12.000000,-9.000000,-22.000000
1306307.449733,18.000000,-8.000000,17.000000,-22.000000,12.000000,6.000000,27.000000,6.000000
1306307.449742,-1.000000,-10.000000,21.000000,33.000000,13.000000,2.000000,1.000000,13.000000
1306307.478929,5.000000,9.000000,-16.000000,0.000000,3.000000,-6.000000,-22.000000,-9.000000
1306307.478958,-18.000000,-1.000000,14.000000,-18.000000,-21.000000,-16.000000,-18.000000,-25.000000
1306307.509003,44.000000,7.000000,-5.000000,-13.000000,-1.000000,25.000000,56.000000,27.000000
1306307.509013,-1.000000,-12.000000,-16.000000,52.000000,26.000000,-8.000000,-6.000000,40.000000
1306307.516412,-16.000000,-22.000000,-53.000000,-86.000000,-95.000000,-33.000000,-40.000000,-38.000000
1306307.516423,29.000000,9.000000,18.000000,-9.000000,-24.000000,5.000000,6.000000,5.000000
1306307.531821,-14.000000,-6.000000,3.000000,-8.000000,-10.000000,-8.000000,2.000000,4.000000
1306307.531830,-30.000000,-17.000000,-9.000000,34.000000,13.000000,-8.000000,-35.000000,-33.000000
1306307.532436,22.000000,6.000000,-9.000000,-36.000000,-4.000000,3.000000,30.000000,47.000000
1306307.532445,-24.000000,-11.000000,6.000000,-63.000000,-68.000000,-4.000000,-12.000000,-14.000000
1306307.533705,-13.000000,-10.000000,-12.000000,-38.000000,-56.000000,-20.000000,-11.000000,-16.000000
1306307.533714,9.000000,-9.000000,5.000000,19.000000,-2.000000,7.000000,5.000000,5.000000
1306307.535175,-1.000000,6.000000,3.000000,21.000000,10.000000,-6.000000,12.000000,12.000000
1306307.535183,-11.000000,2.000000,10.000000,23.000000,4.000000,5.000000,-9.000000,-12.000000
1306307.554123,-9.000000,-10.000000,-35.000000,-87.000000,-2.000000,-13.000000,-22.000000,-4.000000
1306307.554152,7.000000,-1.000000,10.000000,62.000000,15.000000,20.000000,30.000000,-8.000000
1306307.555202,18.000000,0.000000,-11.000000,55.000000,20.000000,1.000000,8.000000,21.000000
1306307.555210,-13.000000,-1.000000,26.000000,-16.000000,19.000000,-16.000000,-22.000000,0.000000
1306307.569069,-16.000000,1.000000,-57.000000,-94.000000,-74.000000,1.000000,13.000000,-13.000000
1306307.569098,16.000000,7.000000,36.000000,78.000000,21.000000,8.000000,-6.000000,7.000000
1306307.570210,-6.000000,8.000000,23.000000,11.000000,22.000000,-7.000000,-8.000000,-16.000000
1306307.570264,-41.000000,-17.000000,-39.000000,-128.000000,-38.000000,-18.000000,-19.000000,-27.000000
1306307.591496,52.000000,14.000000,83.000000,127.000000,127.000000,50.000000,33.000000,41.000000
1306307.591506,3.000000,-3.000000,-25.000000,-103.000000,-11.000000,-10.000000,-7.000000,6.000000
1306307.628894,-9.000000,1.000000,-3.000000,-62.000000,-23.000000,-12.000000,-4.000000,-9.000000
1306307.628905,-24.000000,-3.000000,-12.000000,-55.000000,8.000000,-13.000000,-10.000000,-17.000000
1306307.636537,7.000000,4.000000,-24.000000,7.000000,-28.000000,7.000000,-1.000000,7.000000
1306307.636547,0.000000,-18.000000,30.000000,85.000000,61.000000,13.000000,15.000000,-3.000000
1306307.674100,2.000000,6.000000,-37.000000,-14.000000,-8.000000,-16.000000,-4.000000,21.000000
1306307.674117,-17.000000,-4.000000,9.000000,-20.000000,-22.000000,-6.000000,2.000000,-23.000000
1306307.681532,8.000000,3.000000,6.000000,66.000000,10.000000,-1.000000,3.000000,9.000000
1306307.681544,5.000000,1.000000,-7.000000,22.000000,-9.000000,-10.000000,-17.000000,-6.000000
1306307.689303,-1.000000,-9.000000,-8.000000,-16.000000,10.000000,-5.000000,-2.000000,-4.000000
1306307.689316,-13.000000,-17.000000,-15.000000,-80.000000,-72.000000,-12.000000,-10.000000,3.000000
1306307.704101,10.000000,4.000000,32.000000,119.000000,38.000000,15.000000,20.000000,-7.000000
1306307.704131,0.000000,-8.000000,-25.000000,-86.000000,-8.000000,-8.000000,1.000000,26.000000
1306307.741517,-8.000000,-2.000000,-42.000000,70.000000,-12.000000,11.000000,7.000000,-7.000000
1306307.741527,12.000000,0.000000,27.000000,-63.000000,-24.000000,-8.000000,16.000000,7.000000
1306307.748957,-1.000000,-3.000000,1.000000,44.000000,58.000000,8.000000,6.000000,14.000000
1306307.748968,-3.000000,-13.000000,-10.000000,-86.000000,-53.000000,-23.000000,-34.000000,-24.000000
1306307.763752,3.000000,-20.000000,-13.000000,-80.000000,-16.000000,-8.000000,-1.000000,39.000000
1306307.763764,-12.000000,-5.000000,4.000000,-85.000000,-19.000000,-22.000000,-45.000000,-22.000000
1306307.771887,85.000000,-8.000000,-1.000000,38.000000,32.000000,8.000000,54.000000,36.000000
1306307.771895,-3.000000,-17.000000,-13.000000,5.000000,4.000000,2.000000,-21.000000,14.000000
1306307.773261,-13.000000,9.000000,-17.000000,3.000000,-6.000000,-7.000000,1.000000,-30.000000
1306307.773269,-17.000000,11.000000,4.000000,1.000000,26.000000,2.000000,-4.000000,-11.000000
1306307.787667,6.000000,0.000000,-19.000000,-127.000000,-26.000000,-13.000000,-20.000000,13.000000
1306307.787682,8.000000,19.000000,80.000000,127.000000,127.000000,48.000000,21.000000,20.000000
1306307.794052,11.000000,0.000000,-10.000000,-24.000000,3.000000,-3.000000,17.000000,14.000000
1306307.794062,-3.000000,-1.000000,-6.000000,-64.000000,-35.000000,-13.000000,-16.000000,-21.000000
1306307.808802,-13.000000,-4.000000,-22.000000,-1.000000,-8.000000,-3.000000,4.000000,-6.000000
1306307.808824,-1.000000,0.000000,3.000000,-3.000000,-6.000000,-3.000000,-15.000000,-2.000000
1306307.831767,2.000000,5.000000,-38.000000,-51.000000,5.000000,-1.000000,10.000000,6.000000
1306307.831796,-1.000000,-3.000000,5.000000,-42.000000,-66.000000,-23.000000,-1.000000,-9.000000
1306307.854133,2.000000,1.000000,20.000000,119.000000,38.000000,14.000000,10.000000,30.000000
1306307.854148,-6.000000,8.000000,-3.000000,-23.000000,12.000000,-7.000000,-16.000000,-15.000000
1306307.869165,-12.000000,-3.000000,-20.000000,-35.000000,-23.000000,-10.000000,-42.000000,-24.000000
1306307.869177,-6.000000,-4.000000,14.000000,52.000000,4.000000,8.000000,64.000000,16.000000
1306307.870026,56.000000,20.000000,-7.000000,-55.000000,-27.000000,-5.000000,27.000000,42.000000
1306307.870034,-5.000000,1.000000,8.000000,84.000000,19.000000,-4.000000,-8.000000,-16.000000
1306307.870616,-29.000000,-8.000000,-18.000000,-56.000000,-8.000000,-3.000000,-18.000000,-18.000000
1306307.870624,-9.000000,-11.000000,-9.000000,-61.000000,-15.000000,4.000000,-14.000000,3.000000
1306307.872313,-26.000000,2.000000,-60.000000,-57.000000,-19.000000,-11.000000,10.000000,-6.000000
1306307.872330,12.000000,9.000000,40.000000,28.000000,-13.000000,5.000000,-5.000000,4.000000
1306307.876622,-10.000000,2.000000,-30.000000,-33.000000,-13.000000,-3.000000,-1.000000,-10.000000
1306307.876632,10.000000,-2.000000,26.000000,97.000000,35.000000,13.000000,18.000000,18.000000
1306307.891366,-2.000000,2.000000,-9.000000,-48.000000,-22.000000,-6.000000,0.000000,1.000000
1306307.891383,-32.000000,16.000000,-12.000000,-33.000000,-6.000000,-9.000000,-21.000000,-20.000000
1306307.892745,33.000000,17.000000,12.000000,64.000000,-2.000000,8.000000,10.000000,10.000000
1306307.892752,4.000000,-7.000000,-13.000000,-61.000000,-9.000000,-4.000000,11.000000,-10.000000
1306307.906345,-15.000000,-1.000000,12.000000,45.000000,1.000000,-8.000000,-20.000000,6.000000
1306307.906373,-13.000000,-11.000000,-3.000000,9.000000,1.000000,-4.000000,-16.000000,-5.000000
1306307.914264,-2.000000,19.000000,-9.000000,-47.000000,-30.000000,-8.000000,-11.000000,-16.000000
1306307.914275,49.000000,27.000000,17.000000,18.000000,26.000000,7.000000,29.000000,49.000000
1306307.928920,-17.000000,-3.000000,0.000000,-9.000000,-20.000000,-6.000000,-3.000000,-22.000000
1306307.928931,-4.000000,-2.000000,-23.000000,-27.000000,-29.000000,-15.000000,-17.000000,4.000000
1306307.951445,-3.000000,21.000000,-1.000000,-68.000000,-22.000000,1.000000,-3.000000,-5.000000
1306307.951454,20.000000,2.000000,18.000000,82.000000,38.000000,10.000000,11.000000,26.000000
1306307.966682,-4.000000,-11.000000,10.000000,-50.000000,4.000000,-16.000000,-12.000000,-8.000000
1306307.966693,-27.000000,7.000000,-23.000000,-50.000000,-35.000000,5.000000,-22.000000,-15.000000
1306307.988881,28.000000,1.000000,9.000000,123.000000,58.000000,28.000000,20.000000,12.000000
1306307.988894,26.000000,-3.000000,-3.000000,-15.000000,-8.000000,-7.000000,34.000000,37.000000
1306307.989348,-3.000000,5.000000,1.000000,-41.000000,-7.000000,-3.000000,-13.000000,8.000000
1306307.989356,-36.000000,-10.000000,-30.000000,-15.000000,14.000000,3.000000,-16.000000,-36.000000
1306307.990606,4.000000,5.000000,-6.000000,-37.000000,-13.000000,14.000000,26.000000,9.000000
1306307.990615,40.000000,6.000000,32.000000,100.000000,50.000000,2.000000,1.000000,39.000000
1306307.991169,-21.000000,-6.000000,-15.000000,-55.000000,-23.000000,-5.000000,-13.000000,-24.000000
1306307.991177,-3.000000,12.000000,18.000000,50.000000,40.000000,7.000000,-3.000000,-12.000000
1306307.996292,2.000000,-7.000000,-1.000000,-36.000000,-9.000000,-11.000000,-4.000000,-8.000000
1306307.996301,-40.000000,-8.000000,-22.000000,-83.000000,-31.000000,2.000000,14.000000,-11.000000
1306308.003922,44.000000,24.000000,57.000000,127.000000,49.000000,12.000000,13.000000,37.000000
1306308.003951,2.000000,-3.000000,-28.000000,-22.000000,-16.000000,-16.000000,-9.000000,-1.000000
1306308.012091,-11.000000,-6.000000,-24.000000,-51.000000,-23.000000,-6.000000,-12.000000,-8.000000
1306308.012100,-10.000000,11.000000,18.000000,-68.000000,-21.000000,3.000000,18.000000,-18.000000
1306308.026540,-18.000000,-5.000000,9.000000,90.000000,38.000000,-4.000000,-19.000000,-3.000000
1306308.026564,17.000000,-14.000000,-8.000000,-55.000000,-30.000000,2.000000,0.000000,-6.000000
1306308.041538,7.000000,10.000000,7.000000,7.000000,32.000000,9.000000,7.000000,33.000000
1306308.041556,5.000000,1.000000,28.000000,112.000000,50.000000,0.000000,-4.000000,-10.000000
1306308.042097,-35.000000,-15.000000,-20.000000,-72.000000,-27.000000,-3.000000,-17.000000,-12.000000
1306308.042106,6.000000,11.000000,-13.000000,-40.000000,-14.000000,4.000000,10.000000,-4.000000
1306308.064030,3.000000,-10.000000,11.000000,6.000000,11.000000,-4.000000,3.000000,7.000000
1306308.064040,-22.000000,-3.000000,-14.000000,-25.000000,-15.000000,-13.000000,-14.000000,-14.000000
1306308.071749,-15.000000,0.000000,10.000000,33.000000,-26.000000,2.000000,-13.000000,-25.000000
1306308.071767,7.000000,2.000000,-13.000000,-15.000000,0.000000,4.000000,10.000000,22.000000
1306308.108968,-6.000000,-7.000000,8.000000,-17.000000,1.000000,-15.000000,-11.000000,-12.000000
1306308.108977,-28.000000,-7.000000,-30.000000,-64.000000,-64.000000,-15.000000,-1.000000,-37.000000
1306308.124195,27.000000,13.000000,-3.000000,71.000000,39.000000,7.000000,-5.000000,14.000000
1306308.124212,14.000000,-4.000000,28.000000,-1.000000,-32.000000,-9.000000,4.000000,22.000000
1306308.125281,-10.000000,-20.000000,17.000000,14.000000,5.000000,9.000000,13.000000,-4.000000
1306308.125291,22.000000,21.000000,-10.000000,-42.000000,-13.000000,-2.000000,14.000000,35.000000
1306308.125834,-8.000000,-11.000000,0.000000,-14.000000,2.000000,-2.000000,-9.000000,-3.000000
1306308.125842,-20.000000,-6.000000,15.000000,86.000000,60.000000,18.000000,6.000000,-25.000000
1306308.127101,-5.000000,-3.000000,-13.000000,-28.000000,-5.000000,-2.000000,9.000000,13.000000
1306308.127116,2.000000,-14.000000,-47.000000,-53.000000,2.000000,-3.000000,-19.000000,-11.000000
1306308.128149,27.000000,14.000000,48.000000,53.000000,27.000000,9.000000,12.000000,29.000000
1306308.128164,-32.000000,2.000000,4.000000,64.000000,12.000000,-5.000000,6.000000,-20.000000
1306308.131795,-5.000000,-18.000000,-56.000000,-59.000000,-36.000000,-10.000000,-7.000000,-16.000000
1306308.131827,7.000000,0.000000,3.000000,-52.000000,-6.000000,-12.000000,-9.000000,7.000000
1306308.146666,2.000000,4.000000,-4.000000,37.000000,12.000000,3.000000,-7.000000,-20.000000
1306308.146709,-2.000000,9.000000,12.000000,39.000000,22.000000,12.000000,26.000000,32.000000
1306308.168870,-5.000000,2.000000,19.000000,-44.000000,-16.000000,-7.000000,-3.000000,-19.000000
1306308.168908,0.000000,-5.000000,7.000000,8.000000,-23.000000,-15.000000,-7.000000,24.000000
1306308.169266,6.000000,12.000000,-19.000000,-2.000000,-10.000000,7.000000,8.000000,9.000000
1306308.169275,9.000000,-1.000000,32.000000,23.000000,25.000000,4.000000,14.000000,17.000000
1306308.191747,-3.000000,2.000000,-26.000000,-15.000000,-1.000000,-2.000000,-2.000000,-10.000000
1306308.191757,0.000000,-3.000000,-10.000000,-11.000000,23.000000,4.000000,-16.000000,-6.000000
1306308.207350,26.000000,23.000000,37.000000,127.000000,24.000000,14.000000,8.000000,27.000000
1306308.207360,-9.000000,10.000000,-13.000000,-43.000000,-13.000000,-14.000000,-3.000000,-10.000000
1306308.243956,-20.000000,-14.000000,-20.000000,-40.000000,-23.000000,-5.000000,-12.000000,-18.000000
1306308.243966,4.000000,3.000000,12.000000,8.000000,6.000000,6.000000,14.000000,22.000000
1306308.244416,-8.000000,-6.000000,-20.000000,-20.000000,10.000000,-2.000000,16.000000,-11.000000
1306308.244427,11.000000,5.000000,-2.000000,35.000000,5.000000,-9.000000,-21.000000,-1.000000
1306308.246429,-26.000000,-7.000000,-7.000000,-8.000000,3.000000,-5.000000,-43.000000,-27.000000
1306308.246458,3.000000,-7.000000,21.000000,5.000000,-20.000000,20.000000,47.000000,21.000000
1306308.246888,33.000000,0.000000,21.000000,112.000000,36.000000,3.000000,29.000000,63.000000
1306308.247005,-9.000000,13.000000,-32.000000,-40.000000,3.000000,-13.000000,-31.000000,-30.000000
1306308.281413,-15.000000,4.000000,-13.000000,-43.000000,-21.000000,-17.000000,-21.000000,-18.000000
1306308.281424,-5.000000,1.000000,-36.000000,-42.000000,-27.000000,5.000000,-23.000000,-14.000000
1306308.288991,24.000000,4.000000,13.000000,-8.000000,13.000000,17.000000,59.000000,49.000000
1306308.289020,4.000000,-10.000000,23.000000,127.000000,50.000000,9.000000,-8.000000,4.000000
1306308.289448,-32.000000,7.000000,-5.000000,-88.000000,3.000000,7.000000,-1.000000,-16.000000
1306308.289459,39.000000,3.000000,11.000000,127.000000,51.000000,23.000000,29.000000,33.000000
1306308.290855,-4.000000,2.000000,-4.000000,-35.000000,-7.000000,-6.000000,-5.000000,-2.000000
1306308.290863,-16.000000,-12.000000,-4.000000,-30.000000,-4.000000,-8.000000,-24.000000,-17.000000
1306308.304269,-4.000000,3.000000,-11.000000,-44.000000,-12.000000,1.000000,4.000000,-21.000000
1306308.304278,-3.000000,10.000000,14.000000,15.000000,9.000000,8.000000,3.000000,14.000000
1306308.341716,-21.000000,-8.000000,14.000000,64.000000,48.000000,-1.000000,-16.000000,-13.000000
1306308.341727,46.000000,-2.000000,-33.000000,-128.000000,-30.000000,-5.000000,-4.000000,8.000000
1306308.349006,10.000000,8.000000,57.000000,127.000000,62.000000,17.000000,-11.000000,-4.000000
1306308.349045,-10.000000,-8.000000,-10.000000,-45.000000,-38.000000,-21.000000,4.000000,-6.000000
1306308.364113,-33.000000,0.000000,-23.000000,-67.000000,-4.000000,7.000000,39.000000,-20.000000
1306308.364132,22.000000,4.000000,12.000000,-2.000000,-8.000000,0.000000,-18.000000,56.000000
1306308.364519,5.000000,-9.000000,-2.000000,41.000000,18.000000,-4.000000,-30.000000,-17.000000
1306308.364532,-11.000000,-4.000000,-27.000000,-47.000000,-20.000000,-7.000000,8.000000,-17.000000
1306308.365693,-37.000000,11.000000,4.000000,-59.000000,-7.000000,-2.000000,-3.000000,-19.000000
1306308.365701,42.000000,6.000000,18.000000,101.000000,17.000000,8.000000,9.000000,18.000000
1306308.366155,9.000000,-10.000000,0.000000,-12.000000,3.000000,-3.000000,-9.000000,-14.000000
1306308.366164,-7.000000,-2.000000,6.000000,-19.000000,-9.000000,-1.000000,6.000000,-4.000000
1306308.366865,-12.000000,-3.000000,-21.000000,-45.000000,4.000000,1.000000,1.000000,4.000000
1306308.366878,-6.000000,9.000000,21.000000,107.000000,19.000000,3.000000,-9.000000,0.000000
1306308.386651,-4.000000,-5.000000,-4.000000,-4.000000,-6.000000,8.000000,10.000000,3.000000
1306308.386662,-8.000000,9.000000,-4.000000,-13.000000,20.000000,-6.000000,9.000000,-6.000000
1306308.387123,-1.000000,11.000000,-9.000000,-2.000000,-25.000000,-5.000000,-13.000000,-15.000000
1306308.387134,4.000000,-20.000000,31.000000,90.000000,36.000000,7.000000,2.000000,22.000000
1306308.401800,-18.000000,2.000000,-37.000000,-105.000000,-24.000000,-10.000000,-17.000000,-24.000000
1306308.401837,15.000000,20.000000,20.000000,127.000000,1.000000,10.000000,27.000000,0.000000
1306308.402213,12.000000,-18.000000,3.000000,-53.000000,-12.000000,-9.000000,-6.000000,16.000000
1306308.402220,-28.000000,-12.000000,13.000000,-56.000000,0.000000,4.000000,-6.000000,-16.000000
1306308.424161,6.000000,-17.000000,-27.000000,-83.000000,-35.000000,-3.000000,4.000000,-3.000000
1306308.424197,4.000000,-8.000000,24.000000,119.000000,51.000000,16.000000,5.000000,2.000000
1306308.431693,-18.000000,-4.000000,-26.000000,-20.000000,-8.000000,-13.000000,-33.000000,-26.000000
1306308.431704,-6.000000,-7.000000,-30.000000,-59.000000,6.000000,13.000000,26.000000,21.000000
1306308.461327,15.000000,8.000000,35.000000,118.000000,29.000000,7.000000,15.000000,-4.000000
1306308.461371,-2.000000,2.000000,-2.000000,-26.000000,-2.000000,-6.000000,-27.000000,17.000000
1306308.461742,-7.000000,12.000000,-38.000000,-92.000000,-2.000000,7.000000,-23.000000,-18.000000
1306308.461750,5.000000,-13.000000,49.000000,127.000000,24.000000,7.000000,28.000000,5.000000
1306308.463118,4.000000,-7.000000,9.000000,-8.000000,26.000000,0.000000,5.000000,14.000000
1306308.463132,-20.000000,6.000000,-24.000000,-92.000000,-24.000000,-12.000000,-18.000000,-26.000000
1306308.464091,8.000000,-2.000000,9.000000,108.000000,43.000000,18.000000,13.000000,-2.000000
1306308.464105,-9.000000,-7.000000,-24.000000,-25.000000,-21.000000,-9.000000,-6.000000,-4.000000
1306308.484183,15.000000,-13.000000,34.000000,-13.000000,0.000000,-6.000000,-3.000000,0.000000
1306308.484195,-43.000000,9.000000,-52.000000,-36.000000,-22.000000,0.000000,-10.000000,-25.000000
1306308.484813,74.000000,0.000000,8.000000,-28.000000,27.000000,10.000000,22.000000,43.000000
1306308.484821,-11.000000,-11.000000,14.000000,127.000000,26.000000,10.000000,-3.000000,3.000000
1306308.506343,-8.000000,6.000000,-5.000000,-36.000000,-9.000000,-6.000000,-9.000000,-20.000000
1306308.506385,15.000000,-2.000000,-7.000000,-21.000000,-3.000000,-7.000000,32.000000,-6.000000
1306308.506745,0.000000,-7.000000,5.000000,-13.000000,4.000000,3.000000,-12.000000,31.000000
1306308.506753,-2.000000,-4.000000,-4.000000,-28.000000,-2.000000,-1.000000,-14.000000,-13.000000
1306308.513842,-21.000000,3.000000,2.000000,14.000000,-3.000000,-9.000000,-26.000000,-27.000000
1306308.513879,3.000000,4.000000,-10.000000,-6.000000,-28.000000,-5.000000,11.000000,-8.000000
1306308.521471,5.000000,-8.000000,1.000000,-96.000000,-9.000000,1.000000,22.000000,18.000000
1306308.521500,15.000000,22.000000,65.000000,127.000000,89.000000,24.000000,-1.000000,7.000000
1306308.544078,-10.000000,13.000000,-18.000000,-21.000000,-11.000000,2.000000,-6.000000,-13.000000
1306308.544089,9.000000,-8.000000,0.000000,-72.000000,7.000000,-1.000000,5.000000,-18.000000
1306308.551558,51.000000,6.000000,-1.000000,67.000000,10.000000,13.000000,22.000000,50.000000
1306308.551567,1.000000,4.000000,13.000000,-11.000000,4.000000,-5.000000,-11.000000,-1.000000
1306308.566453,-17.000000,-7.000000,-4.000000,-36.000000,-23.000000,-2.000000,-4.000000,-13.000000
1306308.566464,-4.000000,-3.000000,-9.000000,4.000000,-9.000000,-11.000000,-7.000000,-23.000000
1306308.581634,-15.000000,-21.000000,2.000000,35.000000,22.000000,2.000000,4.000000,11.000000
1306308.581646,2.000000,7.000000,-4.000000,-55.000000,-9.000000,-6.000000,-18.000000,-8.000000
1306308.604449,20.000000,-5.000000,16.000000,103.000000,28.000000,17.000000,33.000000,29.000000
1306308.604462,4.000000,4.000000,-4.000000,-38.000000,3.000000,-5.000000,2.000000,3.000000
1306308.604898,-5.000000,1.000000,8.000000,-62.000000,-16.000000,-9.000000,-12.000000,-5.000000
1306308.604907,-13.000000,-9.000000,9.000000,127.000000,-6.000000,-1.000000,-6.000000,-8.000000
1306308.606407,-6.000000,-5.000000,45.000000,57.000000,1.000000,-3.000000,-22.000000,-24.000000
1306308.606417,-7.000000,3.000000,-67.000000,-63.000000,-21.000000,-11.000000,14.000000,7.000000
1306308.606991,11.000000,-3.000000,0.000000,-57.000000,-18.000000,-2.000000,11.000000,22.000000
1306308.606999,-12.000000,6.000000,6.000000,43.000000,26.000000,-3.000000,-23.000000,-22.000000
1306308.619181,-6.000000,-5.000000,-4.000000,-30.000000,-6.000000,3.000000,-10.000000,0.000000
1306308.619192,-8.000000,-4.000000,-22.000000,63.000000,9.000000,3.000000,19.000000,0.000000
1306308.626661,-19.000000,-29.000000,4.000000,-43.000000,-21.000000,-14.000000,-17.000000,-15.000000
1306308.626682,10.000000,6.000000,-11.000000,-10.000000,-22.000000,7.000000,2.000000,-2.000000
1306308.634092,18.000000,12.000000,3.000000,38.000000,12.000000,8.000000,27.000000,27.000000
1306308.634110,6.000000,-6.000000,5.000000,6.000000,10.000000,-6.000000,-9.000000,4.000000
1306308.641579,-13.000000,-10.000000,-14.000000,-17.000000,-2.000000,-1.000000,-2.000000,-6.000000
1306308.641597,13.000000,7.000000,11.000000,-5.000000,-10.000000,8.000000,4.000000,0.000000
1306308.679203,-14.000000,1.000000,-9.000000,-16.000000,12.000000,-7.000000,-16.000000,-8.000000
1306308.679249,-18.000000,-12.000000,-6.000000,21.000000,-4.000000,-3.000000,16.000000,-14.000000
1306308.686661,4.000000,0.000000,15.000000,-84.000000,-17.000000,1.000000,-18.000000,7.000000
1306308.686673,2.000000,9.000000,16.000000,127.000000,48.000000,8.000000,-1.000000,-7.000000
1306308.701947,19.000000,0.000000,-13.000000,-38.000000,-20.000000,-12.000000,11.000000,16.000000
1306308.701957,-15.000000,-8.000000,-9.000000,-64.000000,-44.000000,3.000000,3.000000,-11.000000
1306308.702529,27.000000,-15.000000,-1.000000,35.000000,14.000000,0.000000,1.000000,15.000000
1306308.702538,-15.000000,8.000000,-17.000000,-25.000000,6.000000,-9.000000,-13.000000,-17.000000
1306308.703767,4.000000,-7.000000,-23.000000,-67.000000,-27.000000,6.000000,7.000000,2.000000
1306308.703790,-12.000000,0.000000,20.000000,120.000000,13.000000,-4.000000,-23.000000,-18.000000
1306308.704803,-13.000000,-12.000000,-2.000000,-24.000000,-1.000000,4.000000,4.000000,-5.000000
1306308.704831,8.000000,3.000000,-15.000000,-91.000000,-41.000000,-9.000000,6.000000,8.000000
1306308.717198,10.000000,-13.000000,20.000000,125.000000,31.000000,5.000000,25.000000,16.000000
1306308.717207,-21.000000,-11.000000,10.000000,-40.000000,5.000000,8.000000,3.000000,15.000000
1306308.724007,2.000000,-1.000000,-6.000000,-30.000000,-7.000000,-2.000000,-4.000000,-15.000000
1306308.724020,2.000000,2.000000,4.000000,-4.000000,-1.000000,2.000000,10.000000,-4.000000
1306308.739127,8.000000,2.000000,19.000000,1.000000,1.000000,0.000000,-24.000000,-3.000000
1306308.739142,-9.000000,-1.000000,-29.000000,-10.000000,-18.000000,-7.000000,-22.000000,-21.000000
1306308.746203,0.000000,-9.000000,23.000000,44.000000,4.000000,4.000000,25.000000,16.000000
1306308.746212,7.000000,2.000000,28.000000,34.000000,13.000000,-1.000000,9.000000,6.000000
1306308.761708,-23.000000,-1.000000,-41.000000,-113.000000,-31.000000,-10.000000,-3.000000,-11.000000
1306308.761718,28.000000,9.000000,-1.000000,92.000000,-12.000000,-5.000000,-19.000000,-19.000000
1306308.783941,3.000000,-7.000000,29.000000,2.000000,-5.000000,1.000000,6.000000,-2.000000
1306308.783951,-9.000000,-4.000000,-37.000000,-67.000000,-28.000000,-4.000000,9.000000,28.000000
1306308.821429,-17.000000,-8.000000,-4.000000,0.000000,-8.000000,-9.000000,-25.000000,-35.000000
1306308.821440,20.000000,17.000000,34.000000,7.000000,-1.000000,-3.000000,10.000000,6.000000
1306308.821755,5.000000,-8.000000,-15.000000,-28.000000,-23.000000,1.000000,2.000000,7.000000
1306308.821763,-19.000000,-10.000000,-18.000000,-32.000000,-10.000000,-4.000000,-8.000000,-7.000000
1306308.823106,-11.000000,5.000000,6.000000,-35.000000,-1.000000,-5.000000,-14.000000,-18.000000
1306308.823114,-8.000000,-2.000000,10.000000,43.000000,3.000000,5.000000,-4.000000,-5.000000
1306308.823649,4.000000,-7.000000,5.000000,13.000000,-21.000000,0.000000,19.000000,5.000000
1306308.823657,3.000000,-9.000000,-7.000000,-21.000000,12.000000,1.000000,19.000000,6.000000
1306308.825253,-2.000000,5.000000,0.000000,10.000000,-8.000000,-12.000000,-36.000000,-16.000000
1306308.825308,-13.000000,0.000000,-12.000000,-40.000000,-13.000000,-5.000000,6.000000,-7.000000
1306308.828757,13.000000,2.000000,0.000000,-21.000000,7.000000,-3.000000,3.000000,-4.000000
1306308.828780,7.000000,4.000000,1.000000,48.000000,36.000000,15.000000,-5.000000,0.000000
1306308.836981,-14.000000,1.000000,-20.000000,-46.000000,-62.000000,-12.000000,-2.000000,13.000000
1306308.836990,15.000000,-6.000000,7.000000,-31.000000,12.000000,-12.000000,-7.000000,-8.000000
1306308.844076,-21.000000,0.000000,5.000000,-30.000000,-19.000000,1.000000,-10.000000,-18.000000
1306308.844092,11.000000,22.000000,-2.000000,5.000000,27.000000,3.000000,7.000000,15.000000
1306308.859230,-7.000000,0.000000,-11.000000,-69.000000,-27.000000,-1.000000,13.000000,-16.000000
1306308.859241,13.000000,5.000000,14.000000,75.000000,27.000000,-6.000000,-17.000000,22.000000
1306308.874006,-30.000000,6.000000,-7.000000,39.000000,2.000000,-3.000000,-8.000000,-24.000000
1306308.874024,32.000000,-4.000000,42.000000,-17.000000,-6.000000,6.000000,22.000000,23.000000
1306308.875115,-4.000000,-10.000000,-36.000000,19.000000,-16.000000,-8.000000,7.000000,-3.000000
1306308.875124,-1.000000,1.000000,4.000000,-43.000000,-1.000000,3.000000,-19.000000,-2.000000
1306308.904214,-10.000000,-11.000000,-4.000000,-24.000000,6.000000,-5.000000,-6.000000,-16.000000
1306308.904225,-2.000000,-10.000000,0.000000,37.000000,-13.000000,1.000000,6.000000,19.000000
1306308.918910,-1.000000,2.000000,6.000000,21.000000,30.000000,11.000000,7.000000,-10.000000
1306308.918920,7.000000,4.000000,-15.000000,-48.000000,-24.000000,-16.000000,-18.000000,-16.000000
1306308.941715,-5.000000,1.000000,0.000000,32.000000,-16.000000,4.000000,25.000000,2.000000
1306308.941726,18.000000,-8.000000,-9.000000,-37.000000,-12.000000,-16.000000,2.000000,2.000000
1306308.964150,-18.000000,-8.000000,-3.000000,-4.000000,-2.000000,4.000000,-5.000000,12.000000
1306308.964170,9.000000,-13.000000,6.000000,81.000000,35.000000,12.000000,-22.000000,-18.000000
1306308.979085,0.000000,-3.000000,-13.000000,-74.000000,-12.000000,-4.000000,34.000000,14.000000
1306308.979100,4.000000,6.000000,-13.000000,40.000000,-9.000000,9.000000,4.000000,7.000000
1306308.979904,18.000000,-12.000000,7.000000,-6.000000,3.000000,4.000000,-6.000000,-2.000000
1306308.979913,-14.000000,1.000000,-20.000000,-73.000000,-27.000000,-2.000000,21.000000,4.000000
1306308.980680,-5.000000,4.000000,51.000000,70.000000,14.000000,2.000000,-16.000000,-10.000000
1306308.980689,-6.000000,13.000000,-2.000000,-1.000000,-1.000000,0.000000,-7.000000,-1.000000
1306308.981330,-19.000000,0.000000,-13.000000,-21.000000,-1.000000,-11.000000,-19.000000,-22.000000
1306308.981343,18.000000,1.000000,-14.000000,-115.000000,-49.000000,-2.000000,33.000000,23.000000
1306308.982149,-2.000000,-12.000000,-28.000000,-88.000000,-20.000000,-7.000000,-24.000000,1.000000
1306308.982163,28.000000,1.000000,47.000000,127.000000,93.000000,24.000000,21.000000,42.000000
1306308.994062,-14.000000,-3.000000,0.000000,-44.000000,-10.000000,-4.000000,7.000000,-20.000000
1306308.994073,-23.000000,-15.000000,-3.000000,3.000000,-1.000000,-7.000000,-13.000000,-11.000000
1306309.016497,20.000000,21.000000,-1.000000,-36.000000,-1.000000,8.000000,19.000000,30.000000
1306309.016508,50.000000,-10.000000,21.000000,54.000000,10.000000,7.000000,-8.000000,-1.000000
1306309.023840,-24.000000,-5.000000,-29.000000,-38.000000,-19.000000,-15.000000,-9.000000,-19.000000
1306309.023849,19.000000,-8.000000,-6.000000,-99.000000,-63.000000,-14.000000,-20.000000,-4.000000
1306309.061501,-18.000000,-13.000000,1.000000,51.000000,40.000000,12.000000,17.000000,6.000000
1306309.061514,-19.000000,-4.000000,-3.000000,1.000000,-8.000000,-12.000000,-10.000000,-14.000000
1306309.061787,-2.000000,13.000000,9.000000,-48.000000,-34.000000,-9.000000,-3.000000,-4.000000
1306309.061795,-9.000000,4.000000,28.000000,40.000000,20.000000,-2.000000,10.000000,-1.000000
1306309.063387,-6.000000,1.000000,-7.000000,15.000000,0.000000,4.000000,-5.000000,13.000000
1306309.063404,-10.000000,-7.000000,14.000000,-20.000000,-10.000000,-9.000000,-2.000000,-14.000000
1306309.063819,-30.000000,-10.000000,-41.000000,-55.000000,2.000000,-11.000000,-35.000000,-37.000000
1306309.063863,39.000000,22.000000,18.000000,42.000000,-36.000000,3.000000,26.000000,21.000000
1306309.065357,38.000000,-18.000000,23.000000,25.000000,62.000000,10.000000,43.000000,55.000000
1306309.065374,-47.000000,-1.000000,-16.000000,-25.000000,-8.000000,-7.000000,-14.000000,-32.000000
1306309.099091,18.000000,-1.000000,-31.000000,-80.000000,-13.000000,-4.000000,-13.000000,-11.000000
1306309.099120,-15.000000,-2.000000,-14.000000,-59.000000,-11.000000,-15.000000,-22.000000,-6.000000
1306309.106493,-21.000000,-5.000000,16.000000,112.000000,6.000000,2.000000,-6.000000,-28.000000
1306309.106515,6.000000,-17.000000,-4.000000,-74.000000,-37.000000,-5.000000,22.000000,10.000000
1306309.114812,-6.000000,-15.000000,-14.000000,32.000000,-6.000000,-4.000000,-11.000000,7.000000
1306309.114831,-1.000000,-6.000000,20.000000,-2.000000,-3.000000,-5.000000,-12.000000,-15.000000
1306309.115266,-17.000000,-4.000000,-31.000000,-12.000000,-63.000000,-22.000000,-8.000000,-14.000000
1306309.115285,-9.000000,6.000000,-4.000000,-34.000000,3.000000,10.000000,12.000000,-7.000000
1306309.116643,8.000000,1.000000,-14.000000,19.000000,-1.000000,-1.000000,-26.000000,8.000000
1306309.116672,2.000000,13.000000,33.000000,58.000000,-5.000000,-7.000000,-5.000000,-13.000000
1306309.117653,8.000000,-1.000000,-29.000000,4.000000,40.000000,13.000000,23.000000,32.000000
1306309.117689,7.000000,2.000000,1.000000,9.000000,-16.000000,-9.000000,-1.000000,8.000000
1306309.166636,-8.000000,-7.000000,-17.000000,-58.000000,-5.000000,-6.000000,0.000000,-15.000000
1306309.166655,-2.000000,23.000000,-17.000000,0.000000,-24.000000,-1.000000,-3.000000,-7.000000
1306309.174228,-15.000000,-26.000000,15.000000,-15.000000,-4.000000,-4.000000,-20.000000,-21.000000
1306309.174249,-6.000000,-1.000000,-16.000000,-43.000000,-10.000000,-11.000000,15.000000,12.000000
1306309.175173,2.000000,4.000000,-3.000000,-7.000000,-7.000000,0.000000,-35.000000,-9.000000
1306309.175203,-18.000000,-13.000000,-6.000000,-30.000000,-12.000000,-8.000000,27.000000,-21.000000
1306309.175904,16.000000,-3.000000,-5.000000,-31.000000,-10.000000,-7.000000,16.000000,35.000000
1306309.175914,0.000000,-1.000000,4.000000,-22.000000,1.000000,0.000000,-21.000000,-7.000000
1306309.177508,-1.000000,-17.000000,-8.000000,42.000000,-36.000000,-7.000000,7.000000,-13.000000
1306309.177547,27.000000,3.000000,15.000000,-54.000000,-15.000000,2.000000,24.000000,36.000000
1306309.196932,-6.000000,-7.000000,-29.000000,1.000000,10.000000,-2.000000,10.000000,14.000000
1306309.196971,-25.000000,-13.000000,24.000000,-38.000000,-12.000000,-13.000000,-17.000000,-30.000000
1306309.197483,-21.000000,2.000000,-20.000000,-55.000000,13.000000,0.000000,-12.000000,-16.000000
1306309.197514,1.000000,3.000000,14.000000,48.000000,12.000000,3.000000,-28.000000,-23.000000
1306309.219819,27.000000,7.000000,2.000000,1.000000,-7.000000,6.000000,15.000000,31.000000
1306309.219835,-8.000000,5.000000,28.000000,125.000000,34.000000,5.000000,-10.000000,-8.000000
1306309.220628,4.000000,10.000000,11.000000,22.000000,19.000000,7.000000,25.000000,17.000000
1306309.220636,-13.000000,-3.000000,-14.000000,-31.000000,-11.000000,-5.000000,-6.000000,-12.000000
1306309.234006,2.000000,-8.000000,13.000000,-34.000000,-6.000000,-6.000000,-14.000000,-7.000000
1306309.234016,8.000000,-10.000000,-2.000000,22.000000,17.000000,-3.000000,-12.000000,-8.000000
1306309.234575,-36.000000,-18.000000,-42.000000,-100.000000,-31.000000,2.000000,-12.000000,-30.000000
1306309.234583,41.000000,13.000000,28.000000,127.000000,6.000000,13.000000,28.000000,33.000000
1306309.271604,-1.000000,-8.000000,-9.000000,-76.000000,7.000000,-10.000000,6.000000,6.000000
1306309.271629,-12.000000,3.000000,-17.000000,-55.000000,6.000000,-6.000000,-22.000000,-14.000000
1306309.279024,1.000000,6.000000,13.000000,-65.000000,-32.000000,-2.000000,7.000000,5.000000
1306309.279040,-1.000000,-3.000000,4.000000,38.000000,6.000000,0.000000,-21.000000,-8.000000
1306309.294789,-1.000000,17.000000,-29.000000,-26.000000,0.000000,-5.000000,-5.000000,3.000000
1306309.294799,3.000000,2.000000,-5.000000,-18.000000,-3.000000,-2.000000,7.000000,-2.000000
1306309.295128,-5.000000,-1.000000,24.000000,105.000000,3.000000,2.000000,-5.000000,-4.000000
1306309.295156,-4.000000,5.000000,-14.000000,-49.000000,0.000000,-12.000000,-53.000000,-34.000000
1306309.296741,3.000000,-2.000000,-3.000000,-52.000000,-23.000000,16.000000,59.000000,31.000000
1306309.296757,24.000000,-1.000000,23.000000,127.000000,68.000000,2.000000,17.000000,35.000000
1306309.298169,-11.000000,9.000000,2.000000,-31.000000,2.000000,3.000000,-26.000000,-25.000000
1306309.298196,-28.000000,-4.000000,-10.000000,-43.000000,-31.000000,-11.000000,-16.000000,-41.000000
1306309.316314,12.000000,-5.000000,-12.000000,14.000000,-4.000000,-1.000000,16.000000,14.000000
1306309.316325,-3.000000,-17.000000,0.000000,-17.000000,-2.000000,-3.000000,0.000000,3.000000
1306309.317250,-30.000000,0.000000,-2.000000,-16.000000,10.000000,-3.000000,-27.000000,-25.000000
1306309.317261,17.000000,5.000000,2.000000,46.000000,13.000000,9.000000,17.000000,13.000000
1306309.339774,-8.000000,-11.000000,1.000000,104.000000,17.000000,2.000000,-3.000000,-6.000000
1306309.339793,-2.000000,0.000000,6.000000,-26.000000,-25.000000,-3.000000,-4.000000,-1.000000
1306309.340232,-3.000000,0.000000,6.000000,-41.000000,-9.000000,3.000000,-27.000000,-13.000000
1306309.340241,-3.000000,-20.000000,-1.000000,26.000000,-10.000000,-16.000000,3.000000,-9.000000
1306309.376493,12.000000,9.000000,-31.000000,2.000000,9.000000,4.000000,44.000000,47.000000
1306309.376503,-5.000000,-6.000000,-28.000000,-82.000000,-48.000000,-17.000000,-31.000000,-10.000000
1306309.391857,7.000000,3.000000,20.000000,-59.000000,-44.000000,-6.000000,10.000000,-6.000000
1306309.391888,6.000000,-1.000000,26.000000,62.000000,25.000000,2.000000,-11.000000,-19.000000
1306309.414270,-9.000000,-12.000000,-35.000000,-49.000000,2.000000,0.000000,-3.000000,-7.000000
1306309.414344,9.000000,8.000000,10.000000,70.000000,-4.000000,5.000000,1.000000,-3.000000
1306309.436690,15.000000,9.000000,3.000000,-66.000000,-24.000000,3.000000,30.000000,23.000000
1306309.436701,-12.000000,-11.000000,-14.000000,-27.000000,-32.000000,-10.000000,-24.000000,-10.000000
1306309.437462,-2.000000,-8.000000,-1.000000,-25.000000,-21.000000,-8.000000,1.000000,-7.000000
1306309.437471,12.000000,-4.000000,2.000000,11.000000,28.000000,4.000000,5.000000,-5.000000
1306309.438311,12.000000,6.000000,-24.000000,-9.000000,2.000000,2.000000,31.000000,46.000000
1306309.438398,-23.000000,-19.000000,15.000000,-35.000000,-12.000000,-14.000000,-25.000000,-24.000000
1306309.439611,25.000000,-12.000000,-3.000000,65.000000,25.000000,10.000000,14.000000,31.000000
1306309.439620,-13.000000,2.000000,-12.000000,-113.000000,-23.000000,-17.000000,-23.000000,-15.000000
1306309.452085,5.000000,0.000000,-21.000000,47.000000,33.000000,-1.000000,-11.000000,14.000000
1306309.452095,-16.000000,20.000000,25.000000,46.000000,7.000000,3.000000,3.000000,-2.000000
1306309.459199,1.000000,-3.000000,-17.000000,-107.000000,-18.000000,-13.000000,-38.000000,-10.000000
1306309.459209,-6.000000,3.000000,12.000000,127.000000,41.000000,12.000000,26.000000,-7.000000
1306309.474041,15.000000,6.000000,25.000000,16.000000,-8.000000,-2.000000,9.000000,33.000000
1306309.474071,-10.000000,1.000000,-29.000000,-32.000000,-22.000000,-17.000000,-25.000000,-28.000000
1306309.496980,-14.000000,6.000000,-2.000000,-30.000000,3.000000,2.000000,1.000000,-3.000000
1306309.497003,-11.000000,-15.000000,24.000000,18.000000,44.000000,10.000000,2.000000,9.000000
1306309.519080,10.000000,16.000000,12.000000,12.000000,2.000000,7.000000,13.000000,-6.000000
1306309.519090,20.000000,-14.000000,-32.000000,-4.000000,24.000000,-4.000000,-3.000000,10.000000
1306309.534445,-29.000000,7.000000,0.000000,-48.000000,-11.000000,-2.000000,-13.000000,-33.000000
1306309.534455,-2.000000,-10.000000,8.000000,10.000000,13.000000,-2.000000,18.000000,-6.000000
1306309.571813,12.000000,-16.000000,12.000000,-1.000000,16.000000,2.000000,6.000000,34.000000
1306309.571934,-23.000000,-4.000000,-20.000000,-3.000000,-17.000000,-7.000000,-6.000000,-8.000000
1306309.572241,-13.000000,5.000000,-21.000000,46.000000,11.000000,0.000000,-31.000000,-24.000000
1306309.572264,0.000000,5.000000,21.000000,-21.000000,-6.000000,0.000000,30.000000,1.000000
1306309.573171,11.000000,-5.000000,1.000000,-21.000000,-16.000000,-4.000000,8.000000,25.000000
1306309.573180,12.000000,-1.000000,1.000000,30.000000,26.000000,-1.000000,-15.000000,-4.000000
1306309.573796,-25.000000,-32.000000,-15.000000,-49.000000,-43.000000,-13.000000,-8.000000,-14.000000
1306309.573804,-8.000000,-3.000000,-6.000000,-20.000000,-13.000000,0.000000,0.000000,-7.000000
1306309.579419,-30.000000,-7.000000,-29.000000,-83.000000,-9.000000,-2.000000,-25.000000,-30.000000
1306309.579454,11.000000,14.000000,9.000000,43.000000,24.000000,10.000000,20.000000,-7.000000
1306309.587313,-1.000000,1.000000,9.000000,-9.000000,8.000000,-3.000000,1.000000,10.000000
1306309.587330,-16.000000,-22.000000,1.000000,-3.000000,2.000000,2.000000,-15.000000,-18.000000
1306309.594133,-5.000000,-6.000000,19.000000,-1.000000,31.000000,6.000000,9.000000,3.000000
1306309.594157,13.000000,6.000000,6.000000,118.000000,28.000000,8.000000,6.000000,7.000000
1306309.631573,-15.000000,-12.000000,-20.000000,-53.000000,-23.000000,-14.000000,-6.000000,-21.000000
1306309.631584,0.000000,9.000000,7.000000,32.000000,-6.000000,-3.000000,-20.000000,-3.000000
1306309.646741,-5.000000,2.000000,-7.000000,-16.000000,5.000000,3.000000,-1.000000,-6.000000
1306309.646771,9.000000,1.000000,10.000000,-6.000000,10.000000,4.000000,5.000000,2.000000
1306309.654395,-18.000000,4.000000,16.000000,121.000000,14.000000,0.000000,-12.000000,-4.000000
1306309.654424,19.000000,1.000000,-19.000000,-38.000000,-11.000000,-5.000000,5.000000,6.000000
1306309.654947,1.000000,-3.000000,1.000000,-10.000000,-4.000000,-2.000000,-22.000000,2.000000
1306309.654973,-27.000000,4.000000,-30.000000,-77.000000,-9.000000,4.000000,8.000000,-17.000000
1306309.656331,10.000000,11.000000,58.000000,107.000000,26.000000,8.000000,14.000000,17.000000
1306309.656339,10.000000,-8.000000,24.000000,84.000000,11.000000,0.000000,7.000000,-9.000000
1306309.657187,-5.000000,-7.000000,-17.000000,-24.000000,-10.000000,-8.000000,-9.000000,7.000000
1306309.657212,-18.000000,-5.000000,-20.000000,-58.000000,-49.000000,-13.000000,-16.000000,-20.000000
1306309.669693,-4.000000,-6.000000,-15.000000,20.000000,5.000000,8.000000,3.000000,4.000000
1306309.669701,4.000000,-4.000000,19.000000,2.000000,6.000000,1.000000,-5.000000,-6.000000
1306309.676644,-32.000000,-7.000000,-16.000000,-1.000000,-7.000000,-11.000000,-9.000000,-24.000000
1306309.676681,37.000000,22.000000,25.000000,-3.000000,-30.000000,-1.000000,18.000000,30.000000
1306309.692213,16.000000,-2.000000,10.000000,-9.000000,15.000000,6.000000,30.000000,5.000000
1306309.692222,-7.000000,-15.000000,-15.000000,-24.000000,-14.000000,-14.000000,-1.000000,6.000000
1306309.706416,-9.000000,-11.000000,-17.000000,-38.000000,-11.000000,-11.000000,-40.000000,-17.000000
1306309.706425,41.000000,2.000000,-3.000000,-26.000000,-13.000000,5.000000,1.000000,19.000000
1306309.736856,6.000000,13.000000,60.000000,127.000000,54.000000,8.000000,21.000000,14.000000
1306309.736928,-14.000000,3.000000,-45.000000,-50.000000,-14.000000,-7.000000,-13.000000,-28.000000
1306309.751645,-20.000000,-7.000000,-2.000000,-52.000000,-20.000000,-15.000000,-10.000000,3.000000
1306309.751663,-17.000000,-6.000000,11.000000,41.000000,-31.000000,-18.000000,-16.000000,-21.000000
1306309.789149,22.000000,4.000000,-17.000000,-77.000000,-30.000000,6.000000,7.000000,17.000000
1306309.789173,-1.000000,5.000000,15.000000,-19.000000,-17.000000,5.000000,-8.000000,-18.000000
1306309.789512,-12.000000,-14.000000,10.000000,49.000000,9.000000,-1.000000,17.000000,7.000000
1306309.789528,-5.000000,0.000000,-33.000000,-45.000000,-11.000000,-9.000000,-18.000000,-4.000000
1306309.790672,19.000000,-3.000000,8.000000,-52.000000,-17.000000,-7.000000,8.000000,5.000000
1306309.790681,-4.000000,2.000000,-16.000000,11.000000,-4.000000,-5.000000,-14.000000,-2.000000
1306309.791286,-5.000000,-11.000000,20.000000,127.000000,37.000000,12.000000,-4.000000,-8.000000
1306309.791294,-24.000000,1.000000,-12.000000,-8.000000,8.000000,1.000000,-5.000000,-8.000000
1306309.796445,15.000000,5.000000,11.000000,63.000000,33.000000,5.000000,4.000000,-3.000000
1306309.796455,0.000000,-8.000000,-20.000000,-55.000000,-17.000000,-6.000000,-3.000000,-5.000000
1306309.812477,-7.000000,-8.000000,-2.000000,-19.000000,1.000000,-5.000000,-12.000000,-16.000000
1306309.812487,-9.000000,-7.000000,-27.000000,-77.000000,-32.000000,0.000000,1.000000,3.000000
1306309.826670,3.000000,9.000000,42.000000,65.000000,-16.000000,20.000000,6.000000,1.000000
1306309.826681,8.000000,1.000000,2.000000,-7.000000,17.000000,-7.000000,-18.000000,17.000000
1306309.849430,-9.000000,6.000000,-13.000000,-28.000000,4.000000,-10.000000,-8.000000,-21.000000
1306309.849443,37.000000,5.000000,-23.000000,-110.000000,-35.000000,2.000000,21.000000,14.000000
1306309.856627,4.000000,0.000000,47.000000,127.000000,72.000000,17.000000,5.000000,11.000000
1306309.856652,-19.000000,-1.000000,-26.000000,-57.000000,-19.000000,-15.000000,-38.000000,-29.000000
1306309.894117,-21.000000,-22.000000,-27.000000,-50.000000,-6.000000,3.000000,18.000000,-3.000000
1306309.894202,-12.000000,-12.000000,-32.000000,-12.000000,-24.000000,-7.000000,-19.000000,-8.000000
1306309.894413,13.000000,-3.000000,31.000000,25.000000,18.000000,2.000000,7.000000,9.000000
1306309.894421,-1.000000,5.000000,-18.000000,-32.000000,-29.000000,-9.000000,1.000000,-6.000000
1306309.895710,3.000000,24.000000,19.000000,53.000000,63.000000,24.000000,14.000000,22.000000
1306309.895720,12.000000,5.000000,29.000000,59.000000,34.000000,-1.000000,-12.000000,11.000000
1306309.896320,21.000000,4.000000,-2.000000,-2.000000,-9.000000,1.000000,12.000000,7.000000
1306309.896339,6.000000,17.000000,-8.000000,40.000000,-9.000000,-10.000000,-4.000000,12.000000
1306309.897719,-45.000000,-7.000000,11.000000,-41.000000,-21.000000,-8.000000,-16.000000,-22.000000
1306309.897727,-8.000000,6.000000,-1.000000,-26.000000,-6.000000,-4.000000,-6.000000,-22.000000
1306309.901318,-7.000000,3.000000,5.000000,30.000000,17.000000,-5.000000,-11.000000,5.000000
1306309.901345,11.000000,4.000000,0.000000,-65.000000,-21.000000,11.000000,0.000000,-12.000000
1306309.931700,14.000000,-7.000000,24.000000,61.000000,38.000000,9.000000,10.000000,29.000000
1306309.931783,-21.000000,0.000000,-9.000000,2.000000,-23.000000,-18.000000,-4.000000,-18.000000
1306309.932018,-5.000000,2.000000,-16.000000,-23.000000,-1.000000,-1.000000,-7.000000,-5.000000
1306309.932026,-9.000000,6.000000,14.000000,18.000000,-11.000000,2.000000,-13.000000,-21.000000
1306309.933465,3.000000,10.000000,28.000000,18.000000,11.000000,-6.000000,16.000000,13.000000
1306309.933474,10.000000,5.000000,-32.000000,-24.000000,-9.000000,-1.000000,-12.000000,3.000000
1306309.946376,-12.000000,7.000000,20.000000,-58.000000,-17.000000,4.000000,-11.000000,-26.000000
1306309.946386,11.000000,9.000000,10.000000,126.000000,36.000000,10.000000,25.000000,15.000000
1306309.969189,13.000000,-10.000000,-2.000000,-57.000000,-30.000000,-4.000000,-9.000000,19.000000
1306309.969213,-10.000000,-3.000000,-38.000000,66.000000,38.000000,7.000000,-8.000000,-9.000000
1306309.984420,-19.000000,14.000000,32.000000,3.000000,-15.000000,-8.000000,-1.000000,-21.000000
1306309.984460,28.000000,-1.000000,-12.000000,-43.000000,-34.000000,-6.000000,-19.000000,-7.000000
1306310.006670,-2.000000,-4.000000,5.000000,-36.000000,-10.000000,2.000000,8.000000,14.000000
1306310.006683,-18.000000,2.000000,8.000000,28.000000,1.000000,-7.000000,-18.000000,-17.000000
1306310.007065,4.000000,0.000000,-9.000000,-6.000000,3.000000,16.000000,29.000000,1.000000
1306310.007074,3.000000,4.000000,20.000000,-27.000000,6.000000,-5.000000,-25.000000,6.000000
1306310.008096,5.000000,6.000000,-4.000000,-35.000000,-35.000000,1.000000,7.000000,-3.000000
1306310.008104,16.000000,-15.000000,-1.000000,65.000000,31.000000,3.000000,13.000000,22.000000
1306310.008776,-16.000000,-4.000000,-4.000000,-36.000000,-39.000000,-18.000000,-28.000000,-24.000000
1306310.008784,-20.000000,-10.000000,-12.000000,-52.000000,-21.000000,-7.000000,-1.000000,-18.000000
1306310.011108,-4.000000,-3.000000,-12.000000,20.000000,14.000000,7.000000,-4.000000,-5.000000
1306310.011119,1.000000,-6.000000,10.000000,-25.000000,-26.000000,-7.000000,9.000000,8.000000
1306310.021514,24.000000,-4.000000,-11.000000,-6.000000,7.000000,10.000000,-2.000000,15.000000
1306310.021524,-38.000000,-23.000000,-25.000000,-31.000000,-13.000000,-9.000000,-2.000000,-31.000000
1306310.029573,19.000000,11.000000,0.000000,32.000000,-4.000000,2.000000,-4.000000,31.000000
1306310.029606,1.000000,7.000000,6.000000,-23.000000,-10.000000,1.000000,-8.000000,0.000000
1306310.036569,-5.000000,-5.000000,18.000000,93.000000,33.000000,6.000000,3.000000,-18.000000
1306310.036579,-6.000000,-6.000000,-3.000000,11.000000,1.000000,6.000000,8.000000,8.000000
1306310.052202,12.000000,8.000000,8.000000,14.000000,3.000000,-6.000000,19.000000,19.000000
1306310.052211,-10.000000,-3.000000,-29.000000,-42.000000,-8.000000,-2.000000,-24.000000,-34.000000
1306310.066536,-8.000000,3.000000,-9.000000,-43.000000,-5.000000,-4.000000,-5.000000,9.000000
1306310.066547,-7.000000,2.000000,-10.000000,-51.000000,-35.000000,-11.000000,5.000000,-7.000000
1306310.088979,22.000000,18.000000,56.000000,127.000000,51.000000,23.000000,23.000000,42.000000
1306310.088989,-4.000000,-11.000000,-24.000000,-64.000000,-22.000000,-12.000000,-14.000000,-13.000000
1306310.104290,-19.000000,6.000000,-48.000000,-40.000000,-7.000000,-6.000000,-9.000000,-19.000000
1306310.104319,10.000000,9.000000,-10.000000,-79.000000,-12.000000,-3.000000,-4.000000,5.000000
1306310.126630,4.000000,17.000000,55.000000,127.000000,30.000000,6.000000,-17.000000,-10.000000
1306310.126650,-21.000000,5.000000,-27.000000,-38.000000,1.000000,4.000000,17.000000,-7.000000
1306310.133829,24.000000,19.000000,6.000000,79.000000,25.000000,4.000000,-1.000000,24.000000
1306310.133861,0.000000,6.000000,8.000000,-27.000000,-6.000000,-13.000000,-7.000000,-3.000000
1306310.134921,-17.000000,-8.000000,-21.000000,-15.000000,10.000000,-6.000000,-11.000000,-21.000000
1306310.134930,-6.000000,0.000000,-3.000000,-56.000000,-24.000000,0.000000,0.000000,-9.000000
1306310.135647,12.000000,4.000000,12.000000,95.000000,26.000000,7.000000,1.000000,10.000000
1306310.135657,-8.000000,-5.000000,-23.000000,-37.000000,-11.000000,-11.000000,3.000000,-12.000000
1306310.137073,1.000000,2.000000,4.000000,-42.000000,-4.000000,2.000000,-1.000000,2.000000
1306310.137081,8.000000,2.000000,14.000000,127.000000,35.000000,17.000000,-2.000000,18.000000
1306310.149154,-4.000000,7.000000,-4.000000,-57.000000,-15.000000,-8.000000,5.000000,-8.000000
1306310.149165,-40.000000,6.000000,-5.000000,-48.000000,-3.000000,-14.000000,-45.000000,-48.000000
1306310.150209,45.000000,19.000000,43.000000,-19.000000,-40.000000,15.000000,53.000000,41.000000
1306310.150217,40.000000,-20.000000,-4.000000,102.000000,36.000000,1.000000,40.000000,65.000000
1306310.171815,-12.000000,-2.000000,-27.000000,-48.000000,-10.000000,-14.000000,-26.000000,-19.000000
1306310.171844,-9.000000,14.000000,-10.000000,-66.000000,-30.000000,-13.000000,-5.000000,-27.000000
1306310.209472,-4.000000,-2.000000,11.000000,72.000000,6.000000,-3.000000,-9.000000,11.000000
1306310.209489,-5.000000,1.000000,-2.000000,-7.000000,-6.000000,3.000000,0.000000,-12.000000
1306310.224481,-1.000000,-5.000000,-1.000000,-30.000000,-18.000000,0.000000,10.000000,-6.000000
1306310.224510,9.000000,-5.000000,-20.000000,-22.000000,-6.000000,-1.000000,7.000000,18.000000
1306310.246526,8.000000,10.000000,24.000000,74.000000,42.000000,14.000000,-1.000000,3.000000
1306310.246537,-4.000000,-2.000000,-12.000000,-27.000000,-8.000000,-4.000000,1.000000,-4.000000
1306310.269199,-3.000000,11.000000,-8.000000,-32.000000,-8.000000,0.000000,-26.000000,-16.000000
1306310.269222,4.000000,-2.000000,6.000000,-29.000000,-25.000000,-6.000000,1.000000,1.000000
1306310.270164,-4.000000,-1.000000,11.000000,-9.000000,-5.000000,-7.000000,1.000000,8.000000
1306310.270183,-5.000000,-14.000000,-28.000000,-41.000000,-20.000000,-4.000000,-19.000000,-21.000000
1306310.271577,-1.000000,-2.000000,27.000000,40.000000,-3.000000,-1.000000,-13.000000,-16.000000
1306310.271644,-9.000000,-3.000000,-19.000000,-59.000000,-17.000000,0.000000,-5.000000,-14.000000
1306310.273074,2.000000,-7.000000,2.000000,-24.000000,-16.000000,2.000000,0.000000,7.000000
1306310.273088,-15.000000,2.000000,-2.000000,-7.000000,-7.000000,-5.000000,-6.000000,-8.000000
1306310.284321,-14.000000,-39.000000,32.000000,127.000000,38.000000,11.000000,10.000000,13.000000
1306310.284338,-2.000000,-5.000000,-23.000000,-60.000000,-4.000000,-4.000000,-18.000000,-8.000000
1306310.291904,2.000000,5.000000,17.000000,-49.000000,2.000000,-2.000000,-1.000000,-3.000000
1306310.291922,7.000000,-2.000000,-9.000000,61.000000,26.000000,8.000000,21.000000,19.000000
1306310.306940,-2.000000,4.000000,-9.000000,10.000000,25.000000,-1.000000,-6.000000,10.000000
1306310.306958,-16.000000,5.000000,13.000000,-20.000000,-24.000000,-1.000000,-15.000000,-17.000000
1306310.329051,-5.000000,-12.000000,-4.000000,26.000000,22.000000,3.000000,4.000000,-4.000000
1306310.329065,19.000000,5.000000,-9.000000,3.000000,11.000000,-6.000000,-17.000000,2.000000
1306310.344018,-10.000000,-4.000000,8.000000,-63.000000,-23.000000,-6.000000,-9.000000,4.000000
1306310.344029,9.000000,-4.000000,23.000000,61.000000,49.000000,13.000000,21.000000,12.000000
1306310.366568,6.000000,0.000000,12.000000,127.000000,4.000000,2.000000,-11.000000,-3.000000
1306310.366584,-13.000000,9.000000,-32.000000,-72.000000,-17.000000,-1.000000,-5.000000,-18.000000
1306310.366871,9.000000,-3.000000,9.000000,12.000000,5.000000,0.000000,21.000000,15.000000
1306310.366898,10.000000,-6.000000,-10.000000,-65.000000,-6.000000,-3.000000,-17.000000,0.000000
1306310.368281,-16.000000,7.000000,2.000000,60.000000,-4.000000,6.000000,-7.000000,-14.000000
1306310.368320,15.000000,-5.000000,7.000000,16.000000,24.000000,5.000000,3.000000,11.000000
1306310.368761,-11.000000,0.000000,1.000000,-14.000000,-6.000000,-14.000000,-5.000000,-8.000000
1306310.368773,-25.000000,-10.000000,-25.000000,-49.000000,-28.000000,-7.000000,-10.000000,3.000000
1306310.370172,17.000000,4.000000,7.000000,16.000000,6.000000,16.000000,12.000000,8.000000
1306310.370181,14.000000,-5.000000,47.000000,92.000000,37.000000,-2.000000,-1.000000,5.000000
1306310.381694,0.000000,-5.000000,-9.000000,-60.000000,-27.000000,-15.000000,-12.000000,-8.000000
1306310.381704,-10.000000,-11.000000,-27.000000,-51.000000,-10.000000,6.000000,0.000000,3.000000
1306310.404290,-1.000000,-8.000000,-18.000000,6.000000,-7.000000,-5.000000,22.000000,-3.000000
1306310.404395,-4.000000,7.000000,66.000000,-16.000000,-3.000000,4.000000,-11.000000,0.000000
1306310.404596,-17.000000,-26.000000,-52.000000,27.000000,9.000000,0.000000,-9.000000,-9.000000
1306310.404606,-6.000000,-12.000000,-4.000000,-15.000000,-4.000000,-4.000000,-12.000000,-10.000000
1306310.411807,8.000000,6.000000,-12.000000,35.000000,16.000000,6.000000,16.000000,-5.000000
1306310.411818,1.000000,-6.000000,-37.000000,-66.000000,-42.000000,-20.000000,9.000000,16.000000
1306310.419262,0.000000,-1.000000,6.000000,-9.000000,-20.000000,-7.000000,-37.000000,-14.000000
1306310.419298,-10.000000,-16.000000,27.000000,43.000000,16.000000,-2.000000,19.000000,-15.000000
1306310.448961,0.000000,-7.000000,-11.000000,-25.000000,9.000000,2.000000,13.000000,4.000000
1306310.448978,7.000000,13.000000,20.000000,12.000000,38.000000,12.000000,-5.000000,20.000000
1306310.464041,-13.000000,-5.000000,6.000000,-43.000000,-3.000000,-3.000000,-17.000000,-16.000000
1306310.464051,-19.000000,-4.000000,-21.000000,12.000000,-21.000000,-13.000000,-12.000000,-28.000000
1306310.487831,34.000000,-7.000000,-16.000000,-1.000000,7.000000,7.000000,7.000000,29.000000
1306310.487881,-22.000000,-5.000000,13.000000,-18.000000,-4.000000,-12.000000,-6.000000,-20.000000
1306310.488065,-14.000000,-2.000000,8.000000,-4.000000,2.000000,6.000000,8.000000,-10.000000
1306310.488082,-7.000000,-7.000000,1.000000,52.000000,25.000000,15.000000,14.000000,31.000000
1306310.488989,41.000000,2.000000,-9.000000,-55.000000,-13.000000,-7.000000,-5.000000,2.000000
1306310.489016,-24.000000,-15.000000,6.000000,19.000000,14.000000,-4.000000,-6.000000,-16.000000
1306310.489633,5.000000,5.000000,27.000000,93.000000,35.000000,12.000000,12.000000,5.000000
1306310.489641,-4.000000,-11.000000,-38.000000,-50.000000,-7.000000,-6.000000,-10.000000,-13.000000
1306310.501530,24.000000,-5.000000,28.000000,26.000000,49.000000,16.000000,4.000000,30.000000
1306310.501555,-10.000000,8.000000,-16.000000,-41.000000,-14.000000,-7.000000,-13.000000,-16.000000
1306310.509677,1.000000,-3.000000,0.000000,-25.000000,10.000000,-6.000000,-11.000000,-14.000000
1306310.509685,-48.000000,0.000000,-14.000000,-28.000000,-38.000000,-6.000000,6.000000,-25.000000
1306310.524092,68.000000,14.000000,46.000000,127.000000,71.000000,29.000000,45.000000,55.000000
1306310.524108,-3.000000,-5.000000,-4.000000,-29.000000,10.000000,-6.000000,-21.000000,-3.000000
1306310.546433,-2.000000,8.000000,-30.000000,-59.000000,-15.000000,4.000000,4.000000,-1.000000
1306310.546444,2.000000,7.000000,3.000000,5.000000,-7.000000,-11.000000,-8.000000,-8.000000
1306310.561789,-3.000000,-2.000000,7.000000,-14.000000,-4.000000,-2.000000,-4.000000,-6.000000
1306310.561799,-6.000000,-4.000000,14.000000,43.000000,8.000000,-2.000000,0.000000,-2.000000
1306310.576515,-19.000000,-9.000000,-20.000000,-57.000000,-31.000000,-10.000000,-7.000000,-17.000000
1306310.576526,1.000000,0.000000,2.000000,48.000000,-13.000000,7.000000,2.000000,5.000000
1306310.584053,16.000000,-7.000000,11.000000,22.000000,1.000000,-2.000000,27.000000,3.000000
1306310.584070,7.000000,-10.000000,-7.000000,-34.000000,-5.000000,-10.000000,-7.000000,19.000000
1306310.607110,-19.000000,-6.000000,13.000000,-43.000000,-14.000000,-3.000000,-31.000000,-28.000000
1306310.607121,-20.000000,1.000000,-12.000000,81.000000,9.000000,9.000000,20.000000,-7.000000
1306310.607562,14.000000,6.000000,-2.000000,32.000000,6.000000,-5.000000,23.000000,19.000000
1306310.607571,6.000000,-6.000000,9.000000,-37.000000,-6.000000,-2.000000,-11.000000,-3.000000
1306310.608852,0.000000,-3.000000,0.000000,-25.000000,-21.000000,-5.000000,7.000000,-4.000000
1306310.608862,-22.000000,-23.000000,-8.000000,-12.000000,4.000000,-4.000000,-38.000000,-30.000000
1306310.609450,16.000000,10.000000,2.000000,4.000000,6.000000,4.000000,11.000000,8.000000
1306310.609460,-12.000000,2.000000,-23.000000,-18.000000,-33.000000,-16.000000,-3.000000,8.000000
1306310.621871,2.000000,-10.000000,6.000000,37.000000,10.000000,-2.000000,-3.000000,1.000000
1306310.621887,-13.000000,-9.000000,-14.000000,0.000000,-3.000000,-6.000000,-10.000000,-12.000000
1306310.629832,-6.000000,7.000000,0.000000,-14.000000,-6.000000,-5.000000,0.000000,-12.000000
1306310.629843,-29.000000,14.000000,19.000000,29.000000,-5.000000,2.000000,-14.000000,-12.000000
1306310.643958,23.000000,16.000000,-7.000000,-46.000000,-2.000000,2.000000,14.000000,16.000000
1306310.643969,5.000000,13.000000,5.000000,53.000000,16.000000,1.000000,-22.000000,-5.000000
1306310.666732,-18.000000,1.000000,-13.000000,-60.000000,-28.000000,-12.000000,10.000000,-7.000000
1306310.666743,2.000000,-2.000000,6.000000,44.000000,22.000000,5.000000,-12.000000,-9.000000
1306310.681452,5.000000,0.000000,-3.000000,22.000000,-3.000000,-3.000000,12.000000,16.000000
1306310.681462,-30.000000,-12.000000,-20.000000,-51.000000,-25.000000,-16.000000,-10.000000,-20.000000
1306310.704229,13.000000,-3.000000,4.000000,-23.000000,3.000000,3.000000,-17.000000,0.000000
1306310.704239,20.000000,8.000000,-6.000000,-20.000000,13.000000,7.000000,25.000000,26.000000
1306310.726525,6.000000,10.000000,4.000000,2.000000,-10.000000,-4.000000,5.000000,-2.000000
1306310.726572,-16.000000,3.000000,6.000000,2.000000,15.000000,-3.000000,-12.000000,-2.000000
1306310.727450,-10.000000,-24.000000,-37.000000,-89.000000,-9.000000,-2.000000,-4.000000,-18.000000
1306310.727509,2.000000,-3.000000,31.000000,45.000000,30.000000,9.000000,-4.000000,0.000000
1306310.728096,1.000000,4.000000,-8.000000,55.000000,-13.000000,-2.000000,-3.000000,-2.000000
1306310.728106,-5.000000,-2.000000,-12.000000,-5.000000,6.000000,-7.000000,-9.000000,-3.000000
1306310.729842,-15.000000,-7.000000,9.000000,-35.000000,-22.000000,4.000000,8.000000,-28.000000
1306310.729860,40.000000,-2.000000,14.000000,50.000000,21.000000,5.000000,13.000000,44.000000
1306310.730489,-6.000000,-5.000000,-10.000000,-27.000000,-6.000000,-7.000000,-11.000000,-10.000000
1306310.730497,-10.000000,7.000000,-5.000000,-17.000000,7.000000,5.000000,0.000000,-6.000000
1306310.733937,-6.000000,-2.000000,2.000000,-1.000000,0.000000,2.000000,-24.000000,-22.000000
1306310.733960,9.000000,-3.000000,0.000000,-8.000000,1.000000,-2.000000,8.000000,9.000000
1306310.741455,-4.000000,-3.000000,-3.000000,11.000000,0.000000,-12.000000,-7.000000,-6.000000
1306310.741466,-14.000000,0.000000,-6.000000,3.000000,4.000000,7.000000,10.000000,3.000000
1306310.764391,2.000000,3.000000,-2.000000,-30.000000,-11.000000,-3.000000,13.000000,14.000000
1306310.764402,15.000000,6.000000,18.000000,109.000000,31.000000,10.000000,-10.000000,-5.000000
1306310.765013,-1.000000,0.000000,-10.000000,-15.000000,-5.000000,2.000000,2.000000,4.000000
1306310.765022,-20.000000,0.000000,-15.000000,-45.000000,-9.000000,-8.000000,-6.000000,-7.000000
1306310.779034,-21.000000,1.000000,1.000000,23.000000,-22.000000,-3.000000,-13.000000,-16.000000
1306310.779071,23.000000,-6.000000,13.000000,38.000000,45.000000,14.000000,19.000000,21.000000
1306310.801623,-2.000000,-5.000000,-8.000000,-25.000000,-12.000000,5.000000,12.000000,-1.000000
1306310.801634,-11.000000,-3.000000,4.000000,14.000000,13.000000,-6.000000,-34.000000,-14.000000
1306310.802519,-13.000000,-7.000000,-3.000000,-24.000000,-21.000000,-8.000000,25.000000,10.000000
1306310.802527,20.000000,2.000000,20.000000,120.000000,30.000000,8.000000,4.000000,15.000000
1306310.803253,-23.000000,1.000000,-18.000000,-27.000000,-17.000000,-10.000000,-22.000000,-17.000000
1306310.803261,0.000000,3.000000,-9.000000,-80.000000,-20.000000,2.000000,34.000000,-11.000000
1306310.824021,31.000000,17.000000,28.000000,127.000000,62.000000,20.000000,21.000000,54.000000
1306310.824037,-7.000000,-4.000000,-10.000000,-22.000000,-6.000000,0.000000,-21.000000,-10.000000
1306310.839125,-16.000000,1.000000,-8.000000,-20.000000,-3.000000,-1.000000,-19.000000,-19.000000
1306310.839154,-9.000000,1.000000,-4.000000,-21.000000,-12.000000,-6.000000,-11.000000,-19.000000
1306310.861964,0.000000,-8.000000,9.000000,22.000000,5.000000,5.000000,28.000000,10.000000
1306310.861982,8.000000,3.000000,-5.000000,22.000000,3.000000,3.000000,-5.000000,13.000000
1306310.884392,3.000000,3.000000,3.000000,22.000000,9.000000,-2.000000,-8.000000,-3.000000
1306310.884411,-5.000000,16.000000,19.000000,-5.000000,32.000000,2.000000,2.000000,-2.000000
1306310.885126,8.000000,8.000000,-10.000000,7.000000,-24.000000,7.000000,10.000000,5.000000
1306310.885140,8.000000,-6.000000,0.000000,-9.000000,11.000000,-6.000000,-6.000000,4.000000
1306310.885752,-3.000000,0.000000,-7.000000,-38.000000,11.000000,-4.000000,0.000000,-17.000000
1306310.885766,-19.000000,7.000000,-5.000000,10.000000,13.000000,6.000000,0.000000,-5.000000
1306310.886983,5.000000,-11.000000,21.000000,67.000000,23.000000,3.000000,-3.000000,-4.000000
1306310.886993,-2.000000,-7.000000,5.000000,-33.000000,-6.000000,-7.000000,12.000000,3.000000
1306310.887801,-3.000000,1.000000,-40.000000,-83.000000,-17.000000,-8.000000,-13.000000,-22.000000
1306310.887811,4.000000,6.000000,17.000000,68.000000,24.000000,13.000000,26.000000,13.000000
1306310.899336,16.000000,-16.000000,12.000000,15.000000,-4.000000,4.000000,6.000000,23.000000
1306310.899351,-12.000000,-11.000000,-27.000000,-39.000000,-8.000000,-15.000000,-40.000000,-26.000000
1306310.906685,-18.000000,0.000000,-10.000000,-59.000000,-25.000000,7.000000,19.000000,-9.000000
1306310.906695,20.000000,0.000000,35.000000,127.000000,49.000000,12.000000,25.000000,34.000000
1306310.928885,-2.000000,3.000000,-13.000000,-44.000000,-3.000000,-11.000000,-24.000000,-26.000000
1306310.928914,-3.000000,-1.000000,-11.000000,-25.000000,-2.000000,-1.000000,3.000000,-13.000000
1306310.944214,-5.000000,-2.000000,16.000000,-35.000000,2.000000,-6.000000,-27.000000,-20.000000
1306310.944229,-1.000000,-14.000000,-1.000000,25.000000,-11.000000,1.000000,14.000000,16.000000
1306310.966428,-15.000000,2.000000,-15.000000,-14.000000,-2.000000,-1.000000,-3.000000,2.000000
1306310.966438,40.000000,0.000000,-1.000000,-30.000000,-2.000000,-2.000000,23.000000,0.000000
1306310.966816,18.000000,5.000000,20.000000,63.000000,34.000000,16.000000,35.000000,29.000000
1306310.966824,-1.000000,-8.000000,-7.000000,-12.000000,-17.000000,-9.000000,-12.000000,10.000000
1306310.968241,-15.000000,24.000000,12.000000,0.000000,24.000000,4.000000,-21.000000,-17.000000
1306310.968254,-33.000000,5.000000,-39.000000,-128.000000,-62.000000,-25.000000,-11.000000,-34.000000
1306310.968885,15.000000,3.000000,19.000000,56.000000,-37.000000,-6.000000,-1.000000,6.000000
1306310.968912,3.000000,-10.000000,-7.000000,-36.000000,-2.000000,-7.000000,7.000000,9.000000
1306310.973815,-9.000000,9.000000,-22.000000,-63.000000,-9.000000,-1.000000,-7.000000,-20.000000
1306310.973824,-7.000000,-2.000000,-10.000000,-40.000000,-13.000000,-8.000000,-2.000000,0.000000
1306310.981734,-2.000000,4.000000,22.000000,21.000000,1.000000,3.000000,-6.000000,-7.000000
1306310.981745,-8.000000,2.000000,0.000000,15.000000,13.000000,-2.000000,-11.000000,-14.000000
1306311.004381,-17.000000,17.000000,-13.000000,-31.000000,-26.000000,-13.000000,-33.000000,-24.000000
1306311.004414,5.000000,0.000000,-9.000000,-8.000000,-18.000000,-6.000000,26.000000,21.000000
1306311.004916,13.000000,-15.000000,17.000000,127.000000,87.000000,35.000000,23.000000,34.000000
1306311.004925,5.000000,7.000000,-14.000000,12.000000,11.000000,-2.000000,-13.000000,-13.000000
1306311.018945,-24.000000,16.000000,-18.000000,-56.000000,-23.000000,-15.000000,-2.000000,-16.000000
1306311.018955,-6.000000,13.000000,11.000000,-6.000000,-15.000000,-13.000000,-9.000000,-12.000000
1306311.041527,19.000000,10.000000,5.000000,108.000000,61.000000,18.000000,-3.000000,16.000000
1306311.041539,-10.000000,-8.000000,-3.000000,-41.000000,-18.000000,-3.000000,4.000000,-11.000000
1306311.056474,-8.000000,3.000000,10.000000,-11.000000,-7.000000,-7.000000,-17.000000,-1.000000
1306311.056484,-6.000000,-5.000000,-20.000000,-27.000000,-5.000000,0.000000,4.000000,-6.000000
1306311.063835,-22.000000,-10.000000,-13.000000,-15.000000,-8.000000,-5.000000,0.000000,-7.000000
1306311.063845,2.000000,-9.000000,-5.000000,-6.000000,25.000000,12.000000,3.000000,-1.000000
1306311.079445,7.000000,7.000000,-18.000000,-9.000000,-9.000000,-2.000000,0.000000,1.000000
1306311.079457,-3.000000,1.000000,6.000000,-2.000000,-7.000000,-5.000000,3.000000,-1.000000
1306311.080051,-13.000000,-4.000000,-10.000000,-8.000000,-27.000000,-5.000000,0.000000,-10.000000
1306311.080061,1.000000,8.000000,16.000000,-6.000000,4.000000,5.000000,2.000000,0.000000
1306311.081309,-7.000000,-3.000000,-29.000000,-57.000000,-18.000000,-11.000000,-18.000000,-7.000000
1306311.081319,12.000000,2.000000,25.000000,87.000000,21.000000,16.000000,26.000000,17.000000
1306311.082203,3.000000,8.000000,15.000000,-6.000000,-5.000000,-1.000000,-1.000000,2.000000
1306311.082214,-14.000000,-5.000000,-27.000000,-81.000000,-10.000000,-6.000000,-1.000000,5.000000
1306311.101335,-12.000000,-11.000000,-6.000000,60.000000,-1.000000,1.000000,-15.000000,-15.000000
1306311.101370,13.000000,4.000000,17.000000,0.000000,11.000000,-3.000000,-8.000000,-1.000000
1306311.102212,-13.000000,-8.000000,-7.000000,19.000000,8.000000,2.000000,10.000000,5.000000
1306311.102247,-2.000000,-2.000000,-8.000000,-4.000000,-5.000000,-4.000000,5.000000,-7.000000
1306311.117199,11.000000,-3.000000,-20.000000,-32.000000,-11.000000,-9.000000,-3.000000,-5.000000
1306311.117208,2.000000,3.000000,5.000000,-24.000000,-16.000000,-5.000000,-14.000000,5.000000
1306311.124092,-7.000000,-5.000000,-7.000000,31.000000,25.000000,13.000000,-5.000000,-12.000000
1306311.124107,2.000000,4.000000,2.000000,2.000000,0.000000,-3.000000,20.000000,14.000000
1306311.139269,-17.000000,-7.000000,-18.000000,-53.000000,-11.000000,-4.000000,-9.000000,-12.000000
1306311.139293,8.000000,-6.000000,17.000000,30.000000,-21.000000,3.000000,18.000000,1.000000
1306311.161580,8.000000,1.000000,2.000000,48.000000,21.000000,1.000000,-6.000000,-5.000000
1306311.161598,17.000000,-3.000000,-10.000000,-54.000000,-16.000000,-5.000000,11.000000,36.000000
1306311.198939,1.000000,-13.000000,-11.000000,-32.000000,-19.000000,-13.000000,-10.000000,3.000000
1306311.198959,-21.000000,-6.000000,3.000000,-7.000000,8.000000,1.000000,-3.000000,-19.000000
1306311.199274,6.000000,-1.000000,-26.000000,-98.000000,-40.000000,-1.000000,4.000000,2.000000
1306311.199283,17.000000,6.000000,43.000000,127.000000,87.000000,34.000000,13.000000,23.000000
1306311.200761,-21.000000,2.000000,-10.000000,-86.000000,-34.000000,-21.000000,-6.000000,-27.000000
1306311.200779,-5.000000,-5.000000,-25.000000,-75.000000,-20.000000,-2.000000,-10.000000,-14.000000
1306311.201231,6.000000,-9.000000,-17.000000,48.000000,31.000000,9.000000,-1.000000,17.000000
1306311.201240,10.000000,12.000000,34.000000,1.000000,-7.000000,-6.000000,-5.000000,9.000000
1306311.202778,-4.000000,-1.000000,-21.000000,29.000000,1.000000,7.000000,4.000000,9.000000
1306311.202787,2.000000,0.000000,28.000000,23.000000,12.000000,-4.000000,8.000000,11.000000
1306311.222120,10.000000,7.000000,18.000000,8.000000,6.000000,13.000000,20.000000,12.000000
1306311.222136,14.000000,3.000000,-9.000000,-6.000000,25.000000,6.000000,-6.000000,17.000000
1306311.222855,-13.000000,-5.000000,-27.000000,-55.000000,-14.000000,-7.000000,-14.000000,-16.000000
1306311.222864,-8.000000,-2.000000,-5.000000,22.000000,-5.000000,1.000000,29.000000,-12.000000
1306311.237243,19.000000,1.000000,24.000000,97.000000,38.000000,7.000000,1.000000,7.000000
1306311.237259,6.000000,-4.000000,-23.000000,-24.000000,-8.000000,-1.000000,-12.000000,18.000000
1306311.243947,-15.000000,-4.000000,1.000000,6.000000,18.000000,-4.000000,-10.000000,-12.000000
1306311.243964,-19.000000,-8.000000,-16.000000,-50.000000,-31.000000,-15.000000,-24.000000,-25.000000
1306311.259203,15.000000,5.000000,21.000000,66.000000,4.000000,16.000000,15.000000,10.000000
1306311.259214,-12.000000,-6.000000,-15.000000,-4.000000,-21.000000,-7.000000,5.000000,-2.000000
1306311.281590,9.000000,0.000000,3.000000,-55.000000,-19.000000,-22.000000,-21.000000,7.000000
1306311.281600,-28.000000,3.000000,-6.000000,-3.000000,-12.000000,-1.000000,-11.000000,-38.000000
1306311.296430,52.000000,7.000000,17.000000,44.000000,39.000000,16.000000,36.000000,46.000000
1306311.296448,11.000000,-10.000000,-14.000000,32.000000,5.000000,-5.000000,-1.000000,14.000000
1306311.296954,-16.000000,-4.000000,-23.000000,-31.000000,-11.000000,-1.000000,-16.000000,-19.000000
1306311.296965,4.000000,2.000000,3.000000,3.000000,-2.000000,5.000000,9.000000,19.000000
1306311.298474,-5.000000,2.000000,19.000000,16.000000,39.000000,-2.000000,-14.000000,-3.000000
1306311.298502,7.000000,2.000000,-22.000000,-7.000000,-13.000000,0.000000,19.000000,1.000000
1306311.318888,16.000000,-4.000000,-7.000000,-11.000000,-3.000000,2.000000,14.000000,19.000000
1306311.318898,-7.000000,-17.000000,2.000000,-4.000000,8.000000,-5.000000,-13.000000,-7.000000
1306311.320008,-21.000000,-10.000000,7.000000,51.000000,15.000000,4.000000,-7.000000,-19.000000
1306311.320016,27.000000,4.000000,0.000000,-48.000000,-6.000000,1.000000,18.000000,15.000000
1306311.320936,11.000000,-17.000000,-1.000000,-79.000000,-46.000000,-2.000000,9.000000,30.000000
1306311.320946,-3.000000,-10.000000,66.000000,127.000000,80.000000,17.000000,0.000000,-4.000000
1306311.333919,-12.000000,7.000000,-54.000000,-128.000000,-51.000000,-18.000000,-8.000000,-18.000000
1306311.333938,-17.000000,4.000000,54.000000,59.000000,1.000000,0.000000,2.000000,-5.000000
1306311.341498,17.000000,-1.000000,12.000000,61.000000,32.000000,14.000000,22.000000,30.000000
1306311.341507,-17.000000,4.000000,-36.000000,-20.000000,-18.000000,-5.000000,0.000000,-19.000000
1306311.357219,8.000000,2.000000,5.000000,-19.000000,1.000000,-8.000000,-19.000000,10.000000
1306311.357229,-16.000000,-7.000000,-8.000000,-13.000000,-17.000000,1.000000,-3.000000,-7.000000
1306311.364168,29.000000,-3.000000,-4.000000,-4.000000,-23.000000,-6.000000,24.000000,28.000000
1306311.364184,2.000000,-3.000000,15.000000,33.000000,38.000000,9.000000,-16.000000,-19.000000
1306311.394016,-4.000000,-6.000000,4.000000,33.000000,-9.000000,3.000000,10.000000,-6.000000
1306311.394030,-2.000000,4.000000,13.000000,4.000000,20.000000,13.000000,27.000000,27.000000
1306311.401699,-8.000000,-20.000000,-31.000000,-45.000000,-43.000000,-9.000000,-12.000000,-5.000000
1306311.401709,-15.000000,-7.000000,-13.000000,-52.000000,-7.000000,-7.000000,-21.000000,-19.000000
1306311.439090,13.000000,5.000000,0.000000,44.000000,8.000000,-1.000000,10.000000,7.000000
1306311.439101,-14.000000,-19.000000,-15.000000,-22.000000,-16.000000,-14.000000,5.000000,-10.000000
1306311.439700,7.000000,2.000000,9.000000,26.000000,6.000000,-2.000000,-16.000000,-5.000000
1306311.439708,-3.000000,-1.000000,30.000000,-27.000000,-2.000000,-6.000000,7.000000,-1.000000
1306311.440753,-10.000000,0.000000,-28.000000,-8.000000,-5.000000,-6.000000,-10.000000,-10.000000
1306311.440766,0.000000,-4.000000,31.000000,110.000000,32.000000,17.000000,9.000000,-6.000000
1306311.441587,20.000000,-4.000000,-13.000000,2.000000,-12.000000,-5.000000,14.000000,37.000000
1306311.441609,-7.000000,3.000000,9.000000,-17.000000,-3.000000,-10.000000,-19.000000,-20.000000
1306311.442911,-6.000000,-5.000000,-12.000000,16.000000,-1.000000,-8.000000,12.000000,-11.000000
1306311.442925,-11.000000,-6.000000,9.000000,1.000000,3.000000,-4.000000,-2.000000,4.000000
1306311.454213,-1.000000,3.000000,-20.000000,-27.000000,-32.000000,-7.000000,17.000000,6.000000
1306311.454223,17.000000,-2.000000,-10.000000,-40.000000,-9.000000,4.000000,-19.000000,-1.000000
1306311.461867,-1.000000,7.000000,13.000000,37.000000,33.000000,12.000000,-4.000000,-6.000000
1306311.461882,-4.000000,-1.000000,8.000000,34.000000,-2.000000,-2.000000,-3.000000,-2.000000
1306311.499054,-3.000000,-9.000000,7.000000,-9.000000,-9.000000,-10.000000,-8.000000,-8.000000
1306311.499065,-12.000000,-9.000000,-25.000000,-36.000000,-16.000000,-1.000000,3.000000,-2.000000
1306311.513947,-14.000000,6.000000,5.000000,-6.000000,-2.000000,1.000000,10.000000,-8.000000
1306311.513979,12.000000,-6.000000,4.000000,-55.000000,-10.000000,-8.000000,-2.000000,1.000000
1306311.536664,7.000000,-6.000000,0.000000,64.000000,8.000000,1.000000,2.000000,5.000000
1306311.536693,3.000000,-2.000000,11.000000,70.000000,36.000000,7.000000,7.000000,18.000000
1306311.559106,-8.000000,-9.000000,-27.000000,-35.000000,-12.000000,-1.000000,-10.000000,-2.000000
1306311.559120,-19.000000,-4.000000,24.000000,-20.000000,-36.000000,-6.000000,-13.000000,-17.000000
1306311.560075,3.000000,-2.000000,-8.000000,-14.000000,0.000000,-3.000000,13.000000,2.000000
1306311.560085,-2.000000,4.000000,12.000000,7.000000,6.000000,2.000000,-21.000000,-16.000000
1306311.560893,5.000000,-3.000000,-17.000000,-58.000000,-7.000000,-7.000000,12.000000,0.000000
1306311.560918,-3.000000,4.000000,21.000000,68.000000,2.000000,5.000000,-5.000000,9.000000
1306311.562353,9.000000,-2.000000,17.000000,27.000000,8.000000,0.000000,5.000000,11.000000
1306311.562365,-10.000000,3.000000,-13.000000,15.000000,0.000000,-9.000000,-9.000000,4.000000
1306311.562990,-17.000000,3.000000,-6.000000,-56.000000,-31.000000,-9.000000,-3.000000,-10.000000
1306311.563035,-14.000000,-5.000000,-5.000000,3.000000,-16.000000,-6.000000,-14.000000,-14.000000
1306311.574169,3.000000,-1.000000,-6.000000,-23.000000,-5.000000,-12.000000,-18.000000,-2.000000
1306311.574189,-7.000000,-4.000000,-11.000000,-51.000000,-7.000000,-3.000000,-10.000000,-9.000000
1306311.596546,7.000000,6.000000,16.000000,29.000000,29.000000,-3.000000,7.000000,-1.000000
1306311.596575,29.000000,1.000000,8.000000,-3.000000,2.000000,8.000000,27.000000,33.000000
1306311.597714,-9.000000,-3.000000,-4.000000,1.000000,-15.000000,-7.000000,-15.000000,-5.000000
1306311.597722,-9.000000,1.000000,-11.000000,-36.000000,-5.000000,-13.000000,31.000000,-23.000000
1306311.604373,-2.000000,-7.000000,-10.000000,-41.000000,-34.000000,-12.000000,-26.000000,-23.000000
1306311.604384,16.000000,-1.000000,35.000000,117.000000,56.000000,15.000000,-5.000000,38.000000
1306311.618905,-3.000000,0.000000,-13.000000,-50.000000,-9.000000,-4.000000,-3.000000,-8.000000
1306311.618915,9.000000,6.000000,-6.000000,9.000000,-18.000000,0.000000,6.000000,18.000000
1306311.634203,4.000000,12.000000,-6.000000,5.000000,-7.000000,-3.000000,-3.000000,4.000000
1306311.634214,-11.000000,10.000000,5.000000,-50.000000,-3.000000,-1.000000,-4.000000,-12.000000
1306311.671464,-10.000000,10.000000,15.000000,22.000000,-26.000000,-7.000000,-6.000000,-7.000000
1306311.671493,-2.000000,-1.000000,-12.000000,-18.000000,0.000000,3.000000,0.000000,-3.000000
1306311.678999,0.000000,-1.000000,-6.000000,-50.000000,-10.000000,-2.000000,1.000000,-3.000000
1306311.679008,6.000000,7.000000,18.000000,113.000000,40.000000,4.000000,-4.000000,3.000000
1306311.694457,-11.000000,11.000000,0.000000,6.000000,-10.000000,1.000000,2.000000,-8.000000
1306311.694472,-6.000000,-9.000000,-16.000000,-76.000000,-28.000000,-9.000000,10.000000,-9.000000
1306311.695300,22.000000,6.000000,17.000000,28.000000,27.000000,10.000000,13.000000,33.000000
1306311.695309,-3.000000,-15.000000,-34.000000,2.000000,-18.000000,2.000000,11.000000,5.000000
1306311.696564,-9.000000,10.000000,10.000000,23.000000,-6.000000,-3.000000,4.000000,-10.000000
1306311.696580,-13.000000,6.000000,-2.000000,-28.000000,15.000000,4.000000,-20.000000,-17.000000
1306311.697147,39.000000,6.000000,20.000000,0.000000,-2.000000,13.000000,24.000000,35.000000
1306311.697155,-4.000000,-9.000000,4.000000,-22.000000,-14.000000,-10.000000,-18.000000,-15.000000
1306311.697777,-5.000000,-6.000000,-11.000000,5.000000,9.000000,0.000000,3.000000,-5.000000
1306311.697805,-8.000000,7.000000,-23.000000,-55.000000,-13.000000,-11.000000,5.000000,0.000000
1306311.701463,-18.000000,-1.000000,15.000000,-16.000000,-36.000000,0.000000,-17.000000,-18.000000
1306311.701471,12.000000,-1.000000,-3.000000,-14.000000,-6.000000,-2.000000,1.000000,4.000000
1306311.724201,-8.000000,-1.000000,-14.000000,-39.000000,-20.000000,-13.000000,11.000000,8.000000
1306311.724212,11.000000,-5.000000,9.000000,4.000000,2.000000,-1.000000,-5.000000,2.000000
1306311.731737,-5.000000,-11.000000,2.000000,71.000000,28.000000,19.000000,12.000000,7.000000
1306311.731748,-12.000000,1.000000,-15.000000,-51.000000,-17.000000,-8.000000,-1.000000,-6.000000
1306311.776421,-1.000000,4.000000,6.000000,43.000000,-13.000000,-4.000000,-19.000000,-8.000000
1306311.776433,-11.000000,-3.000000,28.000000,-8.000000,13.000000,3.000000,1.000000,-12.000000
1306311.776754,1.000000,1.000000,-22.000000,-45.000000,-21.000000,-8.000000,4.000000,12.000000
1306311.776762,-2.000000,-1.000000,-7.000000,-24.000000,-28.000000,0.000000,-9.000000,-10.000000
1306311.778333,-6.000000,1.000000,-22.000000,1.000000,11.000000,-5.000000,0.000000,-2.000000
1306311.778343,1.000000,3.000000,-21.000000,-39.000000,-11.000000,-7.000000,7.000000,10.000000
1306311.778763,-20.000000,0.000000,1.000000,-4.000000,-9.000000,-3.000000,-11.000000,-11.000000
1306311.778790,5.000000,1.000000,15.000000,27.000000,27.000000,4.000000,12.000000,-4.000000
1306311.780241,-10.000000,-1.000000,-8.000000,23.000000,-10.000000,-7.000000,-26.000000,-8.000000
1306311.780267,-27.000000,7.000000,1.000000,-10.000000,3.000000,-2.000000,10.000000,-14.000000
1306311.791672,30.000000,2.000000,10.000000,43.000000,18.000000,3.000000,-4.000000,25.000000
1306311.791682,0.000000,-6.000000,0.000000,10.000000,-1.000000,-9.000000,-7.000000,1.000000
1306311.792702,-8.000000,5.000000,-1.000000,-1.000000,-18.000000,-5.000000,-5.000000,-9.000000
1306311.792710,-17.000000,0.000000,5.000000,-2.000000,-15.000000,-5.000000,-11.000000,-19.000000
1306311.814043,10.000000,-13.000000,-3.000000,24.000000,20.000000,12.000000,18.000000,-7.000000
1306311.814067,-5.000000,0.000000,-11.000000,-87.000000,-20.000000,-7.000000,-16.000000,17.000000
1306311.815153,21.000000,8.000000,15.000000,127.000000,65.000000,16.000000,1.000000,7.000000
1306311.815161,-10.000000,1.000000,-18.000000,-71.000000,-26.000000,-8.000000,-16.000000,-14.000000
1306311.821386,-2.000000,7.000000,38.000000,-60.000000,-19.000000,12.000000,13.000000,10.000000
1306311.821395,21.000000,-2.000000,7.000000,74.000000,31.000000,15.000000,22.000000,17.000000
1306311.851721,-8.000000,2.000000,-34.000000,-21.000000,7.000000,-7.000000,-15.000000,-6.000000
1306311.851751,-11.000000,-9.000000,-11.000000,-51.000000,-20.000000,-10.000000,1.000000,-10.000000
1306311.874183,-14.000000,-15.000000,-12.000000,-34.000000,-17.000000,-5.000000,-12.000000,-9.000000
1306311.874194,-11.000000,-4.000000,-8.000000,-13.000000,-13.000000,-1.000000,1.000000,-15.000000
1306311.889717,-3.000000,-1.000000,-18.000000,6.000000,2.000000,-3.000000,-2.000000,-5.000000
1306311.889728,6.000000,-16.000000,-3.000000,4.000000,7.000000,2.000000,-5.000000,6.000000
1306311.890113,-5.000000,3.000000,2.000000,13.000000,-3.000000,-2.000000,-1.000000,-18.000000
1306311.890123,-3.000000,2.000000,-9.000000,-2.000000,3.000000,-4.000000,11.000000,2.000000
1306311.891332,15.000000,-1.000000,10.000000,18.000000,9.000000,-3.000000,-5.000000,13.000000
1306311.891342,21.000000,9.000000,18.000000,-13.000000,-6.000000,1.000000,0.000000,7.000000
1306311.891936,4.000000,-11.000000,-4.000000,26.000000,15.000000,6.000000,5.000000,5.000000
1306311.891946,0.000000,0.000000,23.000000,-3.000000,-4.000000,-1.000000,5.000000,-4.000000
1306311.896656,-20.000000,7.000000,-48.000000,-56.000000,-7.000000,-19.000000,-8.000000,7.000000
1306311.896667,8.000000,8.000000,24.000000,42.000000,-16.000000,16.000000,17.000000,-5.000000
1306311.911434,-7.000000,-8.000000,5.000000,-15.000000,12.000000,-7.000000,-26.000000,-6.000000
1306311.911444,-5.000000,-6.000000,-45.000000,-70.000000,-14.000000,-11.000000,-1.000000,-11.000000
1306311.912748,5.000000,11.000000,20.000000,69.000000,14.000000,9.000000,7.000000,18.000000
1306311.912777,15.000000,-8.000000,3.000000,18.000000,-12.000000,1.000000,35.000000,23.000000
1306311.934122,-10.000000,-8.000000,-18.000000,-32.000000,-8.000000,-10.000000,-36.000000,-11.000000
1306311.934134,-4.000000,15.000000,-2.000000,-17.000000,25.000000,-4.000000,-29.000000,-13.000000
1306311.935226,-14.000000,11.000000,-24.000000,-60.000000,-16.000000,0.000000,23.000000,16.000000
1306311.935234,48.000000,12.000000,40.000000,3.000000,-1.000000,12.000000,14.000000,16.000000
1306311.949154,1.000000,-18.000000,26.000000,83.000000,19.000000,-8.000000,-8.000000,1.000000
1306311.949172,-15.000000,-9.000000,-28.000000,-45.000000,-19.000000,-6.000000,0.000000,-4.000000
1306311.956454,-3.000000,-6.000000,-18.000000,-73.000000,-42.000000,-11.000000,-15.000000,-17.000000
1306311.956472,-11.000000,30.000000,-8.000000,46.000000,12.000000,1.000000,4.000000,1.000000
1306311.971695,5.000000,-18.000000,-3.000000,-11.000000,-4.000000,-3.000000,2.000000,5.000000
1306311.971706,-13.000000,-7.000000,-1.000000,-14.000000,6.000000,-1.000000,-25.000000,-9.000000
1306312.001333,7.000000,-4.000000,-7.000000,-47.000000,-28.000000,-5.000000,34.000000,-8.000000
1306312.001343,26.000000,-11.000000,21.000000,99.000000,24.000000,2.000000,23.000000,59.000000
1306312.008738,-6.000000,12.000000,-13.000000,-43.000000,-20.000000,-8.000000,-35.000000,-17.000000
1306312.008747,-20.000000,7.000000,-9.000000,44.000000,31.000000,9.000000,-7.000000,-22.000000
1306312.009803,-5.000000,0.000000,-12.000000,-28.000000,-25.000000,-6.000000,-4.000000,-10.000000
1306312.009810,4.000000,7.000000,-7.000000,5.000000,16.000000,-2.000000,18.000000,20.000000
1306312.010641,-1.000000,0.000000,-3.000000,-39.000000,-31.000000,-7.000000,-15.000000,-13.000000
1306312.010651,-10.000000,6.000000,-6.000000,9.000000,-23.000000,-6.000000,-4.000000,-12.000000
1306312.016696,-5.000000,-11.000000,3.000000,11.000000,23.000000,-6.000000,-14.000000,-14.000000
1306312.016707,-1.000000,1.000000,-15.000000,-37.000000,-13.000000,0.000000,13.000000,5.000000
1306312.031498,2.000000,4.000000,-12.000000,-38.000000,-7.000000,0.000000,5.000000,14.000000
1306312.031508,1.000000,15.000000,-1.000000,-20.000000,6.000000,3.000000,-9.000000,-8.000000
1306312.032788,-7.000000,-15.000000,-5.000000,-11.000000,-1.000000,-3.000000,4.000000,-10.000000
1306312.032798,-8.000000,9.000000,2.000000,17.000000,9.000000,-8.000000,-16.000000,-8.000000
1306312.054067,-27.000000,2.000000,-26.000000,-47.000000,-25.000000,-1.000000,49.000000,-24.000000
1306312.054088,65.000000,10.000000,16.000000,81.000000,-16.000000,7.000000,12.000000,40.000000
1306312.055180,-4.000000,-27.000000,9.000000,-6.000000,11.000000,-1.000000,-27.000000,23.000000
1306312.055208,-10.000000,6.000000,3.000000,-31.000000,0.000000,-3.000000,-12.000000,-32.000000
1306312.069093,-12.000000,7.000000,-8.000000,-20.000000,2.000000,2.000000,-11.000000,-4.000000
1306312.069107,-10.000000,4.000000,-5.000000,-17.000000,-10.000000,-3.000000,-9.000000,-15.000000
1306312.077187,2.000000,-13.000000,-4.000000,-14.000000,0.000000,-1.000000,4.000000,-2.000000
1306312.077200,3.000000,6.000000,7.000000,105.000000,47.000000,9.000000,20.000000,6.000000
1306312.091397,7.000000,0.000000,21.000000,-52.000000,-4.000000,-8.000000,-5.000000,5.000000
1306312.091408,-1.000000,12.000000,8.000000,-11.000000,23.000000,0.000000,-16.000000,-13.000000
1306312.129030,3.000000,-7.000000,7.000000,127.000000,10.000000,15.000000,14.000000,10.000000
1306312.129092,-2.000000,-1.000000,-4.000000,-29.000000,-1.000000,-3.000000,2.000000,9.000000
1306312.159300,1.000000,2.000000,-5.000000,-78.000000,-19.000000,-7.000000,-10.000000,-12.000000
1306312.159312,-15.000000,6.000000,4.000000,43.000000,32.000000,8.000000,-29.000000,-17.000000
1306312.174086,13.000000,7.000000,-7.000000,-33.000000,-26.000000,-4.000000,41.000000,-11.000000
1306312.174097,2.000000,-6.000000,30.000000,41.000000,32.000000,-9.000000,5.000000,31.000000
1306312.196534,8.000000,-11.000000,-7.000000,-24.000000,-12.000000,-6.000000,-29.000000,-10.000000
1306312.196544,-24.000000,25.000000,-11.000000,-23.000000,-15.000000,0.000000,-4.000000,-4.000000
1306312.204159,-7.000000,2.000000,-5.000000,-35.000000,-20.000000,-3.000000,-1.000000,-11.000000
1306312.204169,-3.000000,-5.000000,-8.000000,10.000000,15.000000,-1.000000,-2.000000,-10.000000
1306312.226678,-6.000000,-8.000000,-17.000000,-18.000000,-7.000000,-6.000000,1.000000,-4.000000
1306312.226693,-2.000000,-1.000000,-4.000000,-9.000000,-10.000000,-7.000000,-24.000000,-21.000000
1306312.241418,-3.000000,-7.000000,8.000000,6.000000,0.000000,2.000000,2.000000,4.000000
1306312.241435,16.000000,14.000000,1.000000,6.000000,6.000000,6.000000,60.000000,26.000000
1306312.256634,-1.000000,3.000000,22.000000,1.000000,1.000000,3.000000,7.000000,0.000000
1306312.256644,-13.000000,-21.000000,12.000000,22.000000,-6.000000,-5.000000,-2.000000,7.000000
1306312.271810,1.000000,-1.000000,-23.000000,-23.000000,29.000000,-5.000000,-12.000000,-5.000000
1306312.271838,-26.000000,-24.000000,-20.000000,-58.000000,-37.000000,0.000000,-10.000000,-30.000000
1306312.273261,-25.000000,-16.000000,6.000000,39.000000,8.000000,4.000000,-3.000000,-8.000000
1306312.273275,-15.000000,-9.000000,-39.000000,-32.000000,-17.000000,-13.000000,-22.000000,-14.000000
1306312.273797,3.000000,-12.000000,-19.000000,-68.000000,-38.000000,-19.000000,-1.000000,-22.000000
1306312.273837,7.000000,-21.000000,48.000000,99.000000,33.000000,6.000000,5.000000,25.000000
1306312.275219,-8.000000,5.000000,-9.000000,0.000000,3.000000,-3.000000,-12.000000,-8.000000
1306312.275228,-18.000000,-10.000000,-8.000000,-41.000000,-13.000000,-8.000000,-12.000000,-27.000000
1306312.287308,-25.000000,15.000000,-32.000000,-128.000000,-45.000000,-19.000000,-29.000000,-38.000000
1306312.287319,11.000000,14.000000,31.000000,127.000000,-27.000000,0.000000,-7.000000,7.000000
1306312.294081,4.000000,-14.000000,-33.000000,-128.000000,-13.000000,-2.000000,7.000000,18.000000
1306312.294090,7.000000,21.000000,59.000000,-8.000000,-54.000000,-7.000000,-6.000000,-5.000000
1306312.324200,-17.000000,5.000000,-18.000000,-9.000000,24.000000,-5.000000,-9.000000,-12.000000
1306312.324221,0.000000,-6.000000,-39.000000,-22.000000,1.000000,4.000000,6.000000,-14.000000
1306312.331468,17.000000,1.000000,1.000000,-81.000000,-4.000000,-7.000000,-1.000000,13.000000
1306312.331479,-8.000000,3.000000,35.000000,105.000000,-15.000000,5.000000,7.000000,11.000000
1306312.353886,3.000000,-2.000000,-4.000000,-23.000000,-7.000000,-6.000000,-5.000000,-16.000000
1306312.353895,-9.000000,5.000000,-17.000000,-16.000000,-17.000000,-1.000000,-3.000000,2.000000
1306312.368902,7.000000,-2.000000,12.000000,-1.000000,-3.000000,-3.000000,7.000000,10.000000
1306312.368913,-4.000000,-1.000000,-3.000000,-2.000000,-2.000000,-3.000000,-7.000000,-11.000000
1306312.370323,16.000000,2.000000,-4.000000,-10.000000,5.000000,13.000000,22.000000,24.000000
1306312.370373,-4.000000,4.000000,10.000000,-1.000000,-2.000000,-5.000000,-10.000000,-12.000000
1306312.371026,3.000000,17.000000,19.000000,50.000000,-4.000000,-7.000000,-13.000000,-9.000000
1306312.371045,6.000000,-9.000000,-11.000000,25.000000,14.000000,2.000000,7.000000,20.000000
1306312.372478,-11.000000,4.000000,-9.000000,-66.000000,-55.000000,-8.000000,-17.000000,-13.000000
1306312.372488,-11.000000,-8.000000,-11.000000,-42.000000,-27.000000,-12.000000,-9.000000,-19.000000
1306312.391684,17.000000,-5.000000,57.000000,127.000000,74.000000,19.000000,31.000000,18.000000
1306312.391718,-7.000000,9.000000,-41.000000,-45.000000,-51.000000,-15.000000,-9.000000,-4.000000
1306312.392645,-2.000000,4.000000,5.000000,-34.000000,-11.000000,-1.000000,1.000000,13.000000
1306312.392653,4.000000,6.000000,21.000000,23.000000,20.000000,11.000000,3.000000,0.000000
1306312.393848,-23.000000,-6.000000,-9.000000,-34.000000,-6.000000,-10.000000,-12.000000,-19.000000
1306312.393888,17.000000,-2.000000,-31.000000,-42.000000,-5.000000,-1.000000,-2.000000,-2.000000
1306312.407398,7.000000,-14.000000,20.000000,53.000000,11.000000,-2.000000,-11.000000,-2.000000
1306312.407415,-16.000000,-6.000000,-4.000000,1.000000,-3.000000,-7.000000,6.000000,-12.000000
1306312.428987,-6.000000,-1.000000,-8.000000,-5.000000,-27.000000,-8.000000,8.000000,-9.000000
1306312.429005,20.000000,6.000000,-5.000000,-4.000000,0.000000,-1.000000,9.000000,45.000000
1306312.451473,-3.000000,3.000000,1.000000,-1.000000,4.000000,-7.000000,-16.000000,-16.000000
1306312.451484,-17.000000,-8.000000,-13.000000,-48.000000,-12.000000,-7.000000,-6.000000,-23.000000
1306312.466672,-21.000000,-9.000000,-14.000000,-41.000000,-22.000000,-8.000000,-14.000000,-21.000000
1306312.466684,14.000000,-7.000000,23.000000,59.000000,42.000000,1.000000,16.000000,4.000000
1306312.489599,16.000000,6.000000,19.000000,127.000000,51.000000,25.000000,11.000000,20.000000
1306312.489615,-12.000000,5.000000,13.000000,-22.000000,-5.000000,-17.000000,-6.000000,7.000000
1306312.490387,-17.000000,1.000000,-50.000000,-125.000000,-48.000000,-10.000000,-10.000000,-34.000000
1306312.490425,5.000000,8.000000,7.000000,69.000000,54.000000,9.000000,14.000000,20.000000
1306312.491505,-9.000000,-1.000000,6.000000,-40.000000,-35.000000,-6.000000,-11.000000,-13.000000
1306312.491543,-22.000000,19.000000,11.000000,5.000000,-8.000000,-4.000000,-18.000000,-11.000000
1306312.492815,-6.000000,-2.000000,-10.000000,-65.000000,1.000000,-10.000000,-28.000000,-33.000000
1306312.492977,-4.000000,-1.000000,-2.000000,84.000000,-1.000000,13.000000,46.000000,16.000000
1306312.504244,-41.000000,-6.000000,12.000000,-38.000000,-3.000000,-5.000000,-14.000000,-28.000000
1306312.504268,25.000000,-4.000000,-11.000000,-16.000000,23.000000,6.000000,1.000000,12.000000
1306312.505478,-4.000000,-15.000000,-12.000000,-41.000000,-23.000000,-6.000000,-4.000000,2.000000
1306312.505493,4.000000,2.000000,19.000000,20.000000,11.000000,7.000000,-10.000000,-1.000000
1306312.512475,-23.000000,-17.000000,9.000000,16.000000,-14.000000,5.000000,0.000000,-22.000000
1306312.512494,6.000000,-2.000000,-28.000000,-17.000000,-12.000000,-5.000000,-7.000000,1.000000
1306312.527445,-1.000000,22.000000,-12.000000,-67.000000,-48.000000,-19.000000,1.000000,9.000000
1306312.527458,5.000000,29.000000,24.000000,99.000000,44.000000,20.000000,6.000000,3.000000
1306312.549493,-5.000000,7.000000,-23.000000,-10.000000,-16.000000,-7.000000,-9.000000,-8.000000
1306312.549537,-25.000000,-1.000000,2.000000,36.000000,6.000000,-10.000000,-31.000000,-28.000000
1306312.571521,9.000000,-7.000000,-5.000000,-94.000000,-13.000000,4.000000,15.000000,-23.000000
1306312.571552,15.000000,-18.000000,27.000000,109.000000,32.000000,14.000000,17.000000,29.000000
1306312.586674,-18.000000,-1.000000,-11.000000,-5.000000,0.000000,-11.000000,5.000000,9.000000
1306312.586685,-6.000000,-2.000000,-13.000000,-43.000000,-30.000000,-15.000000,-10.000000,-2.000000
1306312.608869,-15.000000,8.000000,-34.000000,-48.000000,-25.000000,-6.000000,-14.000000,-14.000000
1306312.608879,16.000000,3.000000,14.000000,-9.000000,-10.000000,6.000000,-1.000000,-4.000000
1306312.609270,28.000000,-7.000000,31.000000,102.000000,25.000000,3.000000,10.000000,25.000000
1306312.609279,-2.000000,2.000000,9.000000,103.000000,41.000000,3.000000,10.000000,-13.000000
1306312.611085,-13.000000,-5.000000,-23.000000,-26.000000,-10.000000,-5.000000,-5.000000,-12.000000
1306312.611118,-7.000000,-6.000000,11.000000,-14.000000,-5.000000,-1.000000,-9.000000,2.000000
1306312.616679,8.000000,-1.000000,-14.000000,-21.000000,17.000000,-3.000000,-1.000000,5.000000
1306312.616692,-13.000000,-5.000000,-45.000000,-107.000000,-59.000000,-16.000000,-9.000000,-17.000000
1306312.624659,1.000000,1.000000,34.000000,127.000000,51.000000,12.000000,4.000000,-2.000000
1306312.624670,35.000000,-4.000000,20.000000,28.000000,22.000000,-1.000000,17.000000,25.000000
1306312.625142,-30.000000,-3.000000,-47.000000,-45.000000,-18.000000,-11.000000,-13.000000,-21.000000
1306312.625155,-9.000000,0.000000,-5.000000,-41.000000,-18.000000,-7.000000,-19.000000,-25.000000
1306312.626984,0.000000,-2.000000,9.000000,-43.000000,-13.000000,3.000000,30.000000,12.000000
1306312.626997,-2.000000,-9.000000,-3.000000,45.000000,44.000000,4.000000,-11.000000,1.000000
1306312.646325,4.000000,4.000000,16.000000,-18.000000,-41.000000,11.000000,26.000000,11.000000
1306312.646339,1.000000,-3.000000,8.000000,1.000000,-1.000000,-6.000000,-22.000000,-1.000000
1306312.647563,-13.000000,-10.000000,-50.000000,-20.000000,-13.000000,-8.000000,-12.000000,-10.000000
1306312.647571,-7.000000,-5.000000,13.000000,5.000000,-1.000000,-2.000000,-5.000000,-8.000000
1306312.661525,-5.000000,0.000000,-6.000000,-13.000000,-13.000000,-5.000000,12.000000,-2.000000
1306312.661561,-10.000000,6.000000,-15.000000,-47.000000,-30.000000,-6.000000,9.000000,1.000000
1306312.684271,-16.000000,0.000000,7.000000,70.000000,-3.000000,12.000000,2.000000,-20.000000
1306312.684282,27.000000,1.000000,-23.000000,-27.000000,4.000000,-3.000000,-3.000000,9.000000
1306312.707538,-2.000000,1.000000,20.000000,6.000000,-1.000000,-3.000000,-2.000000,22.000000
1306312.707548,-4.000000,1.000000,1.000000,10.000000,-12.000000,-2.000000,4.000000,-13.000000
1306312.728976,10.000000,-4.000000,12.000000,14.000000,19.000000,2.000000,0.000000,9.000000
1306312.728987,-18.000000,-4.000000,-18.000000,-53.000000,-9.000000,-10.000000,-20.000000,-17.000000
1306312.744202,-11.000000,-3.000000,-21.000000,-73.000000,2.000000,14.000000,7.000000,-6.000000
1306312.744222,30.000000,0.000000,44.000000,127.000000,40.000000,14.000000,7.000000,18.000000
1306312.781569,-5.000000,-14.000000,0.000000,-56.000000,-1.000000,-4.000000,6.000000,0.000000
1306312.781583,5.000000,1.000000,-19.000000,-77.000000,-17.000000,-3.000000,-10.000000,1.000000
1306312.796522,-19.000000,0.000000,27.000000,61.000000,25.000000,6.000000,-7.000000,-27.000000
1306312.796534,5.000000,-7.000000,-10.000000,7.000000,-5.000000,1.000000,13.000000,19.000000
1306312.826663,7.000000,3.000000,-7.000000,-7.000000,-6.000000,13.000000,10.000000,10.000000
1306312.826680,1.000000,4.000000,46.000000,127.000000,52.000000,7.000000,15.000000,5.000000
1306312.841619,17.000000,-4.000000,-14.000000,0.000000,12.000000,11.000000,22.000000,17.000000
1306312.841634,7.000000,-6.000000,21.000000,89.000000,46.000000,3.000000,-9.000000,-7.000000
1306312.842662,-4.000000,1.000000,-36.000000,-65.000000,7.000000,6.000000,2.000000,-9.000000
1306312.842672,-5.000000,22.000000,-22.000000,-12.000000,-41.000000,-2.000000,6.000000,8.000000
1306312.843228,-28.000000,3.000000,-21.000000,-61.000000,-6.000000,-7.000000,-1.000000,-6.000000
1306312.843236,25.000000,-3.000000,21.000000,95.000000,15.000000,3.000000,22.000000,24.000000
1306312.849677,-5.000000,16.000000,17.000000,17.000000,-5.000000,1.000000,-23.000000,-20.000000
1306312.849699,-3.000000,-13.000000,-2.000000,-2.000000,6.000000,3.000000,25.000000,2.000000
1306312.863934,-14.000000,-5.000000,-49.000000,-128.000000,-51.000000,-15.000000,-29.000000,-13.000000
1306312.863945,2.000000,11.000000,53.000000,127.000000,23.000000,13.000000,1.000000,0.000000
1306312.865311,-3.000000,-2.000000,-20.000000,-42.000000,-8.000000,-8.000000,-9.000000,-7.000000
1306312.865321,-18.000000,-11.000000,-69.000000,-83.000000,-4.000000,-1.000000,4.000000,-10.000000
1306312.886582,28.000000,5.000000,6.000000,-45.000000,-21.000000,-10.000000,-7.000000,-1.000000
1306312.886664,-3.000000,7.000000,24.000000,16.000000,7.000000,2.000000,11.000000,-1.000000
1306312.887653,-13.000000,4.000000,-6.000000,-28.000000,4.000000,-10.000000,-15.000000,10.000000
1306312.887662,16.000000,2.000000,2.000000,47.000000,4.000000,11.000000,28.000000,20.000000
1306312.901993,7.000000,16.000000,5.000000,24.000000,-7.000000,1.000000,-2.000000,-7.000000
1306312.902027,-3.000000,-3.000000,0.000000,-27.000000,-8.000000,-6.000000,-10.000000,-2.000000
1306312.924617,-13.000000,-11.000000,-14.000000,-18.000000,6.000000,-1.000000,-18.000000,-21.000000
1306312.924643,4.000000,-10.000000,-17.000000,-32.000000,-20.000000,0.000000,19.000000,19.000000
1306312.939269,-3.000000,-11.000000,36.000000,126.000000,35.000000,6.000000,-2.000000,-1.000000
1306312.939298,-6.000000,-2.000000,-29.000000,-34.000000,-6.000000,-5.000000,1.000000,-6.000000
1306312.953929,-5.000000,15.000000,-4.000000,-34.000000,-12.000000,-7.000000,-6.000000,-7.000000
1306312.953940,-2.000000,8.000000,5.000000,-5.000000,-7.000000,-1.000000,0.000000,-4.000000
1306312.961777,-13.000000,-10.000000,-30.000000,-64.000000,-29.000000,-7.000000,2.000000,-13.000000
1306312.961787,7.000000,10.000000,44.000000,80.000000,12.000000,5.000000,15.000000,2.000000
1306312.984412,13.000000,4.000000,-8.000000,-9.000000,-20.000000,5.000000,12.000000,23.000000
1306312.984421,-5.000000,1.000000,-26.000000,16.000000,-8.000000,-14.000000,-7.000000,-9.000000
1306312.984967,-7.000000,-1.000000,-11.000000,-46.000000,-14.000000,-2.000000,0.000000,6.000000
1306312.984994,-4.000000,-4.000000,-17.000000,-14.000000,-8.000000,-1.000000,-13.000000,-14.000000
1306312.986163,-2.000000,5.000000,19.000000,-30.000000,-1.000000,-6.000000,-14.000000,-8.000000
1306312.986190,-20.000000,-4.000000,-24.000000,-34.000000,-49.000000,-9.000000,5.000000,-16.000000
1306312.986797,-7.000000,-19.000000,12.000000,110.000000,74.000000,19.000000,11.000000,-3.000000
1306312.986823,12.000000,13.000000,-9.000000,-5.000000,-8.000000,-4.000000,-6.000000,2.000000
1306312.999557,-22.000000,0.000000,-15.000000,-23.000000,2.000000,-17.000000,-84.000000,-45.000000
1306312.999566,16.000000,-8.000000,-1.000000,-92.000000,-10.000000,9.000000,50.000000,34.000000
1306313.007156,20.000000,-5.000000,50.000000,127.000000,97.000000,28.000000,30.000000,44.000000
1306313.007184,3.000000,-5.000000,8.000000,7.000000,41.000000,4.000000,-14.000000,-11.000000
1306313.014443,-42.000000,4.000000,-40.000000,-57.000000,-12.000000,-8.000000,-23.000000,-35.000000
1306313.014454,16.000000,-2.000000,-8.000000,-46.000000,-17.000000,-2.000000,13.000000,14.000000
1306313.044837,6.000000,2.000000,7.000000,3.000000,-11.000000,-4.000000,0.000000,19.000000
1306313.044847,-8.000000,15.000000,-2.000000,-19.000000,-6.000000,1.000000,-2.000000,-11.000000
1306313.059433,2.000000,-2.000000,11.000000,43.000000,10.000000,-1.000000,1.000000,-10.000000
1306313.059463,-6.000000,-12.000000,-10.000000,-7.000000,6.000000,1.000000,5.000000,3.000000
1306313.081813,-14.000000,2.000000,-9.000000,-21.000000,-16.000000,0.000000,-10.000000,-10.000000
1306313.081822,0.000000,9.000000,-9.000000,-30.000000,-16.000000,0.000000,0.000000,-18.000000
1306313.082479,5.000000,-4.000000,-3.000000,33.000000,14.000000,-7.000000,-2.000000,21.000000
1306313.082487,2.000000,-10.000000,32.000000,59.000000,-9.000000,0.000000,6.000000,1.000000
1306313.083701,-2.000000,7.000000,-18.000000,-13.000000,2.000000,-1.000000,2.000000,-7.000000
1306313.083710,-3.000000,-2.000000,-14.000000,-71.000000,-16.000000,-16.000000,-7.000000,-2.000000
1306313.084761,1.000000,-5.000000,-24.000000,13.000000,-6.000000,4.000000,5.000000,5.000000
1306313.084788,-3.000000,10.000000,18.000000,15.000000,11.000000,-2.000000,-11.000000,-10.000000
1306313.089619,-10.000000,-10.000000,2.000000,-23.000000,-16.000000,-21.000000,-31.000000,-37.000000
1306313.089634,7.000000,3.000000,-7.000000,-86.000000,-27.000000,1.000000,26.000000,13.000000
1306313.104209,4.000000,2.000000,-3.000000,123.000000,71.000000,7.000000,26.000000,13.000000
1306313.104221,6.000000,-3.000000,9.000000,-26.000000,-1.000000,0.000000,-21.000000,13.000000
1306313.105355,-9.000000,2.000000,11.000000,-28.000000,-6.000000,-1.000000,-17.000000,-19.000000
1306313.105376,2.000000,12.000000,-21.000000,-62.000000,-5.000000,4.000000,10.000000,-2.000000
1306313.119120,25.000000,-5.000000,8.000000,75.000000,14.000000,-3.000000,-13.000000,-2.000000
1306313.119130,-24.000000,-12.000000,-8.000000,-61.000000,-13.000000,2.000000,-4.000000,-2.000000
1306313.127158,-5.000000,6.000000,34.000000,69.000000,29.000000,4.000000,-1.000000,-11.000000
1306313.127169,0.000000,10.000000,8.000000,-2.000000,8.000000,2.000000,-1.000000,12.000000
1306313.141708,16.000000,0.000000,3.000000,54.000000,3.000000,-4.000000,3.000000,2.000000
1306313.141720,-13.000000,-2.000000,-29.000000,-36.000000,-1.000000,-5.000000,-4.000000,-1.000000
1306313.164054,7.000000,5.000000,-7.000000,2.000000,12.000000,8.000000,-11.000000,-11.000000
1306313.164073,-14.000000,-23.000000,2.000000,11.000000,2.000000,-3.000000,2.000000,-5.000000
1306313.171599,-3.000000,-5.000000,5.000000,-40.000000,-5.000000,-6.000000,0.000000,-3.000000
1306313.171610,-2.000000,8.000000,-2.000000,9.000000,-4.000000,-3.000000,-1.000000,-12.000000
1306313.186556,-22.000000,-7.000000,-28.000000,-4.000000,-4.000000,-7.000000,-12.000000,-1.000000
1306313.186568,24.000000,3.000000,11.000000,23.000000,-11.000000,-3.000000,-10.000000,1.000000
1306313.201470,-4.000000,-5.000000,7.000000,9.000000,21.000000,0.000000,31.000000,10.000000
1306313.201481,-21.000000,-8.000000,-13.000000,-7.000000,-45.000000,-16.000000,-7.000000,-13.000000
1306313.202550,4.000000,-8.000000,-22.000000,-41.000000,0.000000,2.000000,-5.000000,-4.000000
1306313.202559,-12.000000,0.000000,9.000000,-41.000000,-10.000000,-3.000000,-15.000000,-3.000000
1306313.203351,-3.000000,3.000000,9.000000,27.000000,-5.000000,9.000000,5.000000,-15.000000
1306313.203360,24.000000,-16.000000,8.000000,13.000000,29.000000,10.000000,17.000000,32.000000
1306313.224295,-6.000000,-8.000000,-22.000000,-27.000000,1.000000,1.000000,3.000000,-6.000000
1306313.224323,-1.000000,3.000000,-21.000000,-68.000000,-24.000000,-5.000000,-16.000000,-19.000000
1306313.225086,13.000000,-4.000000,48.000000,127.000000,35.000000,15.000000,13.000000,22.000000
1306313.225107,-4.000000,-13.000000,-3.000000,-29.000000,1.000000,-11.000000,-7.000000,-8.000000
1306313.226730,-10.000000,-10.000000,-5.000000,-39.000000,-4.000000,-5.000000,-3.000000,-12.000000
1306313.226747,-20.000000,-2.000000,-56.000000,-108.000000,-41.000000,-15.000000,-26.000000,-20.000000
1306313.253927,25.000000,9.000000,43.000000,127.000000,26.000000,23.000000,22.000000,12.000000
1306313.253938,-2.000000,-4.000000,11.000000,-3.000000,4.000000,-8.000000,18.000000,16.000000
1306313.276696,-3.000000,4.000000,-8.000000,-40.000000,-9.000000,1.000000,-21.000000,-5.000000
1306313.276708,-7.000000,-7.000000,-13.000000,-48.000000,-52.000000,-15.000000,-11.000000,-11.000000
1306313.284251,-3.000000,-8.000000,-2.000000,1.000000,12.000000,-6.000000,-2.000000,-7.000000
1306313.284262,-23.000000,12.000000,1.000000,-41.000000,-5.000000,3.000000,-38.000000,-26.000000
1306313.306709,29.000000,9.000000,32.000000,127.000000,23.000000,13.000000,32.000000,7.000000
1306313.306719,15.000000,-17.000000,-9.000000,-51.000000,12.000000,0.000000,36.000000,30.000000
1306313.321377,12.000000,-5.000000,19.000000,63.000000,20.000000,2.000000,-16.000000,20.000000
1306313.321388,-20.000000,6.000000,-17.000000,-22.000000,-5.000000,-5.000000,-21.000000,-29.000000
1306313.322604,-18.000000,-3.000000,-6.000000,-34.000000,-9.000000,-4.000000,-7.000000,-15.000000
1306313.322630,7.000000,-7.000000,-13.000000,-14.000000,2.000000,-10.000000,0.000000,-2.000000
1306313.323224,-4.000000,9.000000,11.000000,-3.000000,-2.000000,5.000000,-3.000000,-5.000000
1306313.323247,4.000000,-19.000000,18.000000,41.000000,27.000000,6.000000,3.000000,3.000000
1306313.324447,14.000000,8.000000,32.000000,30.000000,5.000000,1.000000,-10.000000,5.000000
1306313.324456,-7.000000,-6.000000,-17.000000,-29.000000,-1.000000,1.000000,15.000000,8.000000
1306313.336432,-4.000000,-1.000000,-4.000000,-31.000000,-8.000000,-8.000000,-16.000000,-7.000000
1306313.336442,-14.000000,5.000000,-2.000000,-18.000000,-6.000000,1.000000,-39.000000,-22.000000
1306313.337094,10.000000,-4.000000,-14.000000,-16.000000,-31.000000,-9.000000,51.000000,2.000000
1306313.337102,-5.000000,-4.000000,-11.000000,7.000000,5.000000,1.000000,-1.000000,31.000000
1306313.345607,0.000000,-1.000000,-4.000000,-5.000000,-5.000000,-2.000000,-22.000000,-13.000000
1306313.345639,-19.000000,-5.000000,-9.000000,-28.000000,3.000000,1.000000,-23.000000,-26.000000
1306313.359226,16.000000,8.000000,17.000000,127.000000,48.000000,27.000000,46.000000,8.000000
1306313.359246,12.000000,-3.000000,3.000000,-28.000000,-10.000000,-9.000000,-10.000000,7.000000
1306313.389025,-4.000000,6.000000,2.000000,29.000000,4.000000,0.000000,-9.000000,2.000000
1306313.389035,0.000000,-5.000000,-8.000000,-74.000000,-25.000000,-7.000000,-1.000000,-10.000000
1306313.396631,-13.000000,-9.000000,-4.000000,25.000000,9.000000,1.000000,-6.000000,-9.000000
1306313.396655,-2.000000,-4.000000,4.000000,62.000000,36.000000,6.000000,1.000000,-4.000000
1306313.441472,2.000000,-4.000000,0.000000,-102.000000,-26.000000,-12.000000,-5.000000,-2.000000
1306313.441482,18.000000,16.000000,-1.000000,76.000000,-6.000000,12.000000,24.000000,18.000000
1306313.456434,-6.000000,-10.000000,16.000000,55.000000,27.000000,3.000000,17.000000,9.000000
1306313.456444,-18.000000,-12.000000,-9.000000,-52.000000,-10.000000,-12.000000,-16.000000,-11.000000
1306313.464391,2.000000,-2.000000,-11.000000,-42.000000,-5.000000,-7.000000,-4.000000,-8.000000
1306313.464400,-21.000000,7.000000,-12.000000,-20.000000,-11.000000,12.000000,7.000000,-13.000000
1306313.465370,29.000000,3.000000,29.000000,5.000000,9.000000,3.000000,10.000000,11.000000
1306313.465382,16.000000,-10.000000,-15.000000,5.000000,-6.000000,-14.000000,2.000000,17.000000
1306313.466323,1.000000,-2.000000,1.000000,15.000000,7.000000,-1.000000,12.000000,14.000000
1306313.466332,-9.000000,5.000000,-20.000000,-5.000000,5.000000,-7.000000,-11.000000,-20.000000
1306313.467096,5.000000,-7.000000,13.000000,24.000000,18.000000,2.000000,18.000000,4.000000
1306313.467103,-9.000000,14.000000,-20.000000,-79.000000,-16.000000,-8.000000,4.000000,7.000000
1306313.509242,4.000000,1.000000,-18.000000,-29.000000,-32.000000,-4.000000,2.000000,17.000000
1306313.509252,9.000000,-5.000000,-3.000000,-22.000000,1.000000,-5.000000,-15.000000,0.000000
1306313.524468,-11.000000,0.000000,0.000000,-22.000000,3.000000,-6.000000,-8.000000,-12.000000
1306313.524483,-17.000000,2.000000,-12.000000,-27.000000,-4.000000,4.000000,6.000000,-17.000000
1306313.531547,-1.000000,4.000000,-5.000000,40.000000,-4.000000,-5.000000,1.000000,-6.000000
1306313.531586,18.000000,3.000000,-29.000000,-90.000000,-14.000000,-4.000000,20.000000,43.000000
1306313.539271,0.000000,-15.000000,53.000000,127.000000,41.000000,12.000000,-5.000000,-9.000000
1306313.539281,-10.000000,-5.000000,-20.000000,-44.000000,-17.000000,-7.000000,-3.000000,-7.000000
1306313.540128,-3.000000,-6.000000,-21.000000,-36.000000,-5.000000,-3.000000,-11.000000,-16.000000
1306313.540144,-7.000000,-12.000000,-15.000000,-66.000000,-30.000000,-13.000000,-3.000000,-13.000000
1306313.541485,19.000000,-10.000000,-1.000000,-27.000000,-27.000000,-1.000000,43.000000,46.000000
1306313.541500,-2.000000,-10.000000,20.000000,54.000000,60.000000,16.000000,-23.000000,1.000000
1306313.554640,-10.000000,10.000000,-1.000000,-18.000000,-3.000000,-1.000000,-8.000000,-23.000000
1306313.554650,-8.000000,-12.000000,-8.000000,-21.000000,-14.000000,-3.000000,-10.000000,-1.000000
1306313.561610,-2.000000,-12.000000,-8.000000,-41.000000,-19.000000,-8.000000,17.000000,3.000000
1306313.561622,19.000000,9.000000,2.000000,-13.000000,-12.000000,7.000000,-11.000000,10.000000
1306313.577018,-1.000000,1.000000,15.000000,12.000000,16.000000,6.000000,-17.000000,-3.000000
1306313.577062,-8.000000,-5.000000,-13.000000,4.000000,0.000000,-2.000000,11.000000,-3.000000
1306313.577427,5.000000,-7.000000,-6.000000,-22.000000,-11.000000,-2.000000,-2.000000,-10.000000
1306313.577536,-1.000000,-8.000000,-4.000000,-31.000000,-19.000000,-7.000000,-1.000000,12.000000
1306313.598818,3.000000,-9.000000,6.000000,53.000000,4.000000,-3.000000,-5.000000,1.000000
1306313.598829,-19.000000,-14.000000,-10.000000,-39.000000,-16.000000,-8.000000,-12.000000,-15.000000
1306313.599754,7.000000,5.000000,-9.000000,-36.000000,-2.000000,-1.000000,20.000000,8.000000
1306313.599766,-12.000000,-4.000000,-13.000000,-2.000000,6.000000,-2.000000,-11.000000,-4.000000
1306313.621637,1.000000,2.000000,28.000000,-16.000000,13.000000,-5.000000,-21.000000,-12.000000
1306313.621647,3.000000,15.000000,18.000000,109.000000,8.000000,12.000000,17.000000,10.000000
1306313.636758,12.000000,-9.000000,-18.000000,6.000000,13.000000,6.000000,12.000000,24.000000
1306313.636769,-16.000000,-2.000000,11.000000,-33.000000,-12.000000,-10.000000,-10.000000,-11.000000
1306313.659778,-3.000000,-6.000000,-4.000000,-28.000000,-17.000000,0.000000,-9.000000,-16.000000
1306313.659788,-4.000000,3.000000,-6.000000,-35.000000,-9.000000,0.000000,-3.000000,-10.000000
1306313.660352,-6.000000,-4.000000,-8.000000,34.000000,-7.000000,-1.000000,7.000000,0.000000
1306313.660361,-7.000000,-5.000000,9.000000,40.000000,24.000000,3.000000,-10.000000,-6.000000
1306313.661329,6.000000,8.000000,-9.000000,-8.000000,-7.000000,4.000000,-18.000000,2.000000
1306313.661337,4.000000,-10.000000,8.000000,18.000000,22.000000,2.000000,8.000000,10.000000
1306313.662133,-1.000000,-5.000000,-13.000000,-23.000000,3.000000,-6.000000,-6.000000,-5.000000
1306313.662141,-2.000000,6.000000,19.000000,24.000000,-13.000000,10.000000,-6.000000,-14.000000
1306313.674544,1.000000,-1.000000,-6.000000,-5.000000,-10.000000,-7.000000,16.000000,-4.000000
1306313.674573,-3.000000,1.000000,-6.000000,-52.000000,-8.000000,-4.000000,8.000000,15.000000
1306313.681357,10.000000,12.000000,9.000000,38.000000,4.000000,4.000000,8.000000,12.000000
1306313.681385,-15.000000,6.000000,0.000000,0.000000,5.000000,0.000000,-10.000000,-10.000000
1306313.696631,3.000000,-2.000000,-17.000000,-57.000000,-7.000000,-12.000000,-12.000000,-10.000000
1306313.696643,-11.000000,5.000000,-12.000000,30.000000,-2.000000,3.000000,2.000000,-13.000000
1306313.697333,20.000000,3.000000,28.000000,38.000000,19.000000,14.000000,2.000000,15.000000
1306313.697342,-2.000000,-6.000000,-12.000000,-36.000000,-9.000000,-2.000000,-3.000000,-7.000000
1306313.719309,-5.000000,2.000000,-13.000000,1.000000,7.000000,-11.000000,-6.000000,-8.000000
1306313.719338,-5.000000,7.000000,-25.000000,-21.000000,-30.000000,-2.000000,0.000000,2.000000
1306313.719709,20.000000,1.000000,57.000000,127.000000,100.000000,25.000000,7.000000,11.000000
1306313.719731,-8.000000,-4.000000,3.000000,-52.000000,-16.000000,-9.000000,10.000000,-1.000000
1306313.741459,-8.000000,7.000000,-31.000000,-81.000000,-31.000000,-4.000000,-13.000000,-5.000000
1306313.741477,10.000000,1.000000,1.000000,43.000000,7.000000,5.000000,-1.000000,1.000000
1306313.756704,-13.000000,-12.000000,-16.000000,-8.000000,9.000000,-3.000000,-10.000000,-14.000000
1306313.756715,-18.000000,-14.000000,2.000000,6.000000,-25.000000,-13.000000,10.000000,-11.000000
1306313.778911,9.000000,-1.000000,23.000000,2.000000,15.000000,7.000000,-4.000000,-4.000000
1306313.778929,-1.000000,-10.000000,-30.000000,-51.000000,-11.000000,7.000000,29.000000,11.000000
1306313.779408,4.000000,-6.000000,1.000000,37.000000,26.000000,-4.000000,1.000000,17.000000
1306313.779417,-18.000000,9.000000,-4.000000,86.000000,9.000000,-4.000000,-21.000000,-22.000000
1306313.780705,18.000000,7.000000,1.000000,-72.000000,-22.000000,-3.000000,13.000000,0.000000
1306313.780714,2.000000,-9.000000,4.000000,47.000000,9.000000,3.000000,2.000000,20.000000
1306313.781456,-13.000000,-5.000000,28.000000,18.000000,34.000000,0.000000,-14.000000,-14.000000
1306313.781464,-14.000000,1.000000,-33.000000,-40.000000,-14.000000,6.000000,7.000000,-22.000000
1306313.794580,1.000000,-11.000000,-3.000000,-31.000000,-10.000000,-2.000000,6.000000,8.000000
1306313.794588,5.000000,0.000000,12.000000,48.000000,15.000000,-5.000000,-15.000000,4.000000
1306313.801610,-2.000000,9.000000,-8.000000,-49.000000,-6.000000,-6.000000,-25.000000,-11.000000
1306313.801621,-7.000000,7.000000,34.000000,48.000000,14.000000,4.000000,2.000000,-8.000000
1306313.817020,10.000000,-4.000000,15.000000,78.000000,17.000000,5.000000,23.000000,28.000000
1306313.817037,-5.000000,-4.000000,9.000000,8.000000,15.000000,1.000000,0.000000,2.000000
1306313.818077,-20.000000,2.000000,-26.000000,-66.000000,-41.000000,-15.000000,-17.000000,-23.000000
1306313.818098,9.000000,-4.000000,-2.000000,-4.000000,14.000000,0.000000,4.000000,6.000000
1306313.831690,-2.000000,-3.000000,-14.000000,-7.000000,-7.000000,-10.000000,-1.000000,-15.000000
1306313.831714,-1.000000,0.000000,-6.000000,-23.000000,-4.000000,-4.000000,-7.000000,7.000000
1306313.839025,-5.000000,1.000000,13.000000,50.000000,14.000000,2.000000,-9.000000,-12.000000
1306313.839042,-2.000000,7.000000,-7.000000,-73.000000,-20.000000,-5.000000,-7.000000,-16.000000
1306313.861946,9.000000,6.000000,23.000000,127.000000,60.000000,11.000000,2.000000,9.000000
1306313.861973,3.000000,2.000000,1.000000,-31.000000,-1.000000,-1.000000,-1.000000,5.000000
1306313.869075,-1.000000,-1.000000,-5.000000,18.000000,13.000000,3.000000,5.000000,-2.000000
1306313.869099,-7.000000,7.000000,-7.000000,-24.000000,8.000000,2.000000,-2.000000,-9.000000
1306313.884200,-3.000000,1.000000,-15.000000,-37.000000,-29.000000,-15.000000,0.000000,-3.000000
1306313.884210,7.000000,0.000000,13.000000,-4.000000,-2.000000,-6.000000,13.000000,7.000000
1306313.891783,-4.000000,7.000000,7.000000,-1.000000,5.000000,-6.000000,-14.000000,-11.000000
1306313.891793,7.000000,-2.000000,11.000000,-33.000000,-6.000000,-1.000000,0.000000,5.000000
1306313.914055,9.000000,-21.000000,9.000000,104.000000,54.000000,3.000000,7.000000,-1.000000
1306313.914127,-15.000000,11.000000,-43.000000,-45.000000,-13.000000,-11.000000,-11.000000,6.000000
1306313.914274,-3.000000,-3.000000,8.000000,-30.000000,-13.000000,0.000000,6.000000,-12.000000
1306313.914281,1.000000,-1.000000,-3.000000,16.000000,12.000000,7.000000,-10.000000,-9.000000
1306313.915947,3.000000,11.000000,12.000000,99.000000,26.000000,6.000000,9.000000,12.000000
1306313.915956,-10.000000,7.000000,5.000000,-24.000000,-20.000000,-6.000000,0.000000,8.000000
1306313.936691,2.000000,2.000000,-10.000000,-18.000000,-5.000000,-1.000000,-3.000000,-6.000000
1306313.936702,-4.000000,-3.000000,-10.000000,-58.000000,1.000000,-4.000000,-9.000000,-8.000000
1306313.937558,-6.000000,2.000000,2.000000,44.000000,11.000000,1.000000,-3.000000,-4.000000
1306313.937566,-1.000000,-1.000000,4.000000,24.000000,6.000000,3.000000,-3.000000,-2.000000
1306313.938281,7.000000,-12.000000,7.000000,-29.000000,-9.000000,-2.000000,10.000000,6.000000
1306313.938289,5.000000,-3.000000,-7.000000,-15.000000,2.000000,-14.000000,5.000000,-9.000000
1306313.951613,-6.000000,-3.000000,-2.000000,-43.000000,-14.000000,5.000000,4.000000,-3.000000
1306313.951623,-6.000000,0.000000,47.000000,93.000000,33.000000,2.000000,-2.000000,8.000000
1306313.959228,-5.000000,-11.000000,-29.000000,-9.000000,-1.000000,-2.000000,9.000000,-1.000000
1306313.959284,0.000000,9.000000,-7.000000,-25.000000,-26.000000,-4.000000,-9.000000,-7.000000
1306313.989225,-37.000000,-16.000000,7.000000,-9.000000,-11.000000,-10.000000,-19.000000,-28.000000
1306313.989236,17.000000,-3.000000,-11.000000,-75.000000,-15.000000,-1.000000,1.000000,-11.000000
1306313.996619,6.000000,-4.000000,-13.000000,97.000000,26.000000,8.000000,27.000000,16.000000
1306313.996629,-1.000000,5.000000,-1.000000,-31.000000,-12.000000,1.000000,1.000000,9.000000
1306314.018851,-12.000000,-9.000000,-3.000000,22.000000,1.000000,-1.000000,-8.000000,-16.000000
1306314.018862,-4.000000,3.000000,-11.000000,-43.000000,-8.000000,2.000000,-12.000000,-12.000000
1306314.034236,7.000000,-5.000000,-5.000000,-23.000000,-1.000000,0.000000,16.000000,17.000000
1306314.034247,2.000000,-8.000000,12.000000,-15.000000,-23.000000,-3.000000,-23.000000,-6.000000
1306314.056487,14.000000,2.000000,-40.000000,3.000000,7.000000,1.000000,9.000000,20.000000
1306314.056516,-19.000000,-3.000000,12.000000,-29.000000,-8.000000,4.000000,5.000000,-10.000000
1306314.071338,-9.000000,-2.000000,18.000000,-13.000000,-12.000000,-6.000000,-5.000000,-6.000000
1306314.071352,2.000000,-4.000000,5.000000,13.000000,-12.000000,-4.000000,2.000000,0.000000
1306314.072467,-2.000000,16.000000,-11.000000,-7.000000,4.000000,0.000000,-2.000000,1.000000
1306314.072475,13.000000,4.000000,-12.000000,-34.000000,-8.000000,1.000000,12.000000,10.000000
1306314.073142,-9.000000,-11.000000,-3.000000,9.000000,-24.000000,1.000000,-6.000000,-11.000000
1306314.073150,3.000000,-3.000000,11.000000,45.000000,4.000000,0.000000,-3.000000,3.000000
1306314.073747,-1.000000,11.000000,4.000000,14.000000,-5.000000,2.000000,-5.000000,3.000000
1306314.073754,-13.000000,-2.000000,-13.000000,-25.000000,6.000000,-12.000000,-15.000000,-21.000000
1306314.074342,-3.000000,-3.000000,-19.000000,-76.000000,-17.000000,-5.000000,20.000000,7.000000
1306314.074350,5.000000,3.000000,7.000000,70.000000,37.000000,11.000000,4.000000,7.000000
1306314.075465,-14.000000,9.000000,10.000000,33.000000,2.000000,2.000000,-18.000000,-19.000000
1306314.075474,21.000000,-1.000000,-36.000000,-78.000000,-22.000000,-8.000000,17.000000,10.000000
1306314.094252,10.000000,1.000000,49.000000,87.000000,12.000000,5.000000,1.000000,12.000000
1306314.094262,-6.000000,-4.000000,-2.000000,-8.000000,10.000000,-1.000000,-6.000000,0.000000
1306314.131711,-9.000000,-10.000000,-13.000000,-23.000000,-7.000000,0.000000,-6.000000,-9.000000
1306314.131722,5.000000,3.000000,-2.000000,8.000000,4.000000,2.000000,28.000000,14.000000
1306314.146426,11.000000,3.000000,4.000000,-22.000000,-9.000000,-1.000000,-16.000000,-9.000000
1306314.146436,-11.000000,-8.000000,-6.000000,-37.000000,-19.000000,2.000000,-5.000000,-3.000000
1306314.154456,-9.000000,-2.000000,2.000000,45.000000,17.000000,13.000000,2.000000,-15.000000
1306314.154465,18.000000,-3.000000,5.000000,6.000000,-3.000000,1.000000,2.000000,16.000000
1306314.154963,5.000000,-10.000000,-8.000000,-2.000000,11.000000,-6.000000,2.000000,3.000000
1306314.154971,-11.000000,-1.000000,-13.000000,-48.000000,-29.000000,-1.000000,-3.000000,-7.000000
1306314.156306,1.000000,-3.000000,-3.000000,77.000000,33.000000,6.000000,0.000000,0.000000
1306314.156358,3.000000,6.000000,24.000000,41.000000,14.000000,-8.000000,-23.000000,0.000000
1306314.169199,-30.000000,-16.000000,-33.000000,-36.000000,-11.000000,-5.000000,-13.000000,-17.000000
1306314.169213,7.000000,7.000000,26.000000,1.000000,-9.000000,-6.000000,-4.000000,-8.000000
1306314.170318,21.000000,8.000000,-1.000000,8.000000,5.000000,-4.000000,23.000000,19.000000
1306314.170327,7.000000,-3.000000,-18.000000,-32.000000,-31.000000,-13.000000,6.000000,11.000000
1306314.176681,-5.000000,0.000000,1.000000,6.000000,3.000000,6.000000,-6.000000,0.000000
1306314.176693,2.000000,6.000000,-2.000000,-14.000000,1.000000,-12.000000,-18.000000,-1.000000
1306314.192243,-15.000000,-1.000000,2.000000,-19.000000,-25.000000,-4.000000,-7.000000,-20.000000
1306314.192295,-3.000000,-2.000000,6.000000,62.000000,-7.000000,-5.000000,12.000000,0.000000
1306314.214020,7.000000,-2.000000,3.000000,-14.000000,0.000000,5.000000,14.000000,19.000000
1306314.214030,8.000000,7.000000,-3.000000,9.000000,23.000000,-1.000000,3.000000,1.000000
