# participant_id: P10
# gesture: medium
# trial_number: 2
# stream_name: Myo_EMG
# stream_type: emg
# timestamp: 20260420_161834
# samples: 5510
# duration_sec: 30.180
# nominal_sample_rate: 200.0
# effective_sample_rate: 182.54
#
timestamp,emg_1,emg_2,emg_3,emg_4,emg_5,emg_6,emg_7,emg_8
1306606.459334,0.000000,1.000000,-27.000000,-45.000000,-30.000000,-1.000000,0.000000,-1.000000
1306606.459351,-26.000000,-32.000000,-66.000000,-65.000000,-54.000000,-3.000000,6.000000,-16.000000
1306606.466831,-12.000000,11.000000,13.000000,92.000000,5.000000,6.000000,5.000000,2.000000
1306606.466841,-2.000000,16.000000,61.000000,-21.000000,28.000000,5.000000,-29.000000,-26.000000
1306606.482125,-4.000000,5.000000,-56.000000,-74.000000,-114.000000,-39.000000,-9.000000,-18.000000
1306606.482137,37.000000,-67.000000,34.000000,127.000000,31.000000,10.000000,86.000000,85.000000
1306606.497072,1.000000,-9.000000,-21.000000,-30.000000,7.000000,-13.000000,-27.000000,14.000000
1306606.497083,-40.000000,-12.000000,-37.000000,-49.000000,-35.000000,-6.000000,-25.000000,-51.000000
1306606.511769,26.000000,36.000000,73.000000,-36.000000,50.000000,28.000000,9.000000,6.000000
1306606.511798,21.000000,13.000000,70.000000,127.000000,127.000000,21.000000,25.000000,18.000000
1306606.519409,-20.000000,-14.000000,-26.000000,-60.000000,-40.000000,-16.000000,-11.000000,-19.000000
1306606.519419,-10.000000,4.000000,-35.000000,-35.000000,13.000000,-1.000000,-11.000000,-10.000000
1306606.542404,1.000000,-3.000000,24.000000,36.000000,-28.000000,-26.000000,5.000000,-2.000000
1306606.542432,-3.000000,-5.000000,-21.000000,18.000000,-1.000000,-2.000000,-5.000000,-2.000000
1306606.542939,-16.000000,-1.000000,-17.000000,-59.000000,-29.000000,-7.000000,45.000000,-6.000000
1306606.542946,2.000000,-5.000000,43.000000,56.000000,42.000000,3.000000,-2.000000,-4.000000
1306606.543535,21.000000,9.000000,96.000000,2.000000,38.000000,30.000000,14.000000,14.000000
1306606.543543,-52.000000,-18.000000,-54.000000,-57.000000,21.000000,-7.000000,-26.000000,-48.000000
1306606.556960,49.000000,29.000000,44.000000,87.000000,18.000000,28.000000,55.000000,61.000000
1306606.556978,-12.000000,-1.000000,-7.000000,11.000000,0.000000,-28.000000,-10.000000,3.000000
1306606.557409,-26.000000,-16.000000,-49.000000,-128.000000,-26.000000,-9.000000,-25.000000,-36.000000
1306606.557458,-21.000000,-18.000000,-30.000000,108.000000,-1.000000,3.000000,2.000000,-25.000000
1306606.558105,27.000000,17.000000,49.000000,-7.000000,-9.000000,19.000000,10.000000,35.000000
1306606.558113,20.000000,-10.000000,-15.000000,2.000000,35.000000,-13.000000,1.000000,13.000000
1306606.580025,2.000000,15.000000,64.000000,-18.000000,-9.000000,-5.000000,-12.000000,-14.000000
1306606.580034,-5.000000,-11.000000,-25.000000,1.000000,-20.000000,14.000000,19.000000,8.000000
1306606.580568,6.000000,12.000000,65.000000,-30.000000,14.000000,8.000000,4.000000,10.000000
1306606.580576,15.000000,10.000000,-9.000000,69.000000,28.000000,25.000000,2.000000,11.000000
1306606.594639,-30.000000,-6.000000,5.000000,-5.000000,35.000000,-12.000000,-65.000000,-41.000000
1306606.594695,-4.000000,2.000000,42.000000,-21.000000,-56.000000,-23.000000,59.000000,21.000000
1306606.595211,54.000000,-4.000000,-75.000000,1.000000,12.000000,16.000000,32.000000,75.000000
1306606.595218,-14.000000,-9.000000,56.000000,47.000000,19.000000,-1.000000,-29.000000,-16.000000
1306606.616916,-6.000000,-23.000000,-7.000000,-25.000000,14.000000,8.000000,-1.000000,-1.000000
1306606.616926,-4.000000,4.000000,-9.000000,-50.000000,-7.000000,-5.000000,-9.000000,-8.000000
1306606.617580,-17.000000,-1.000000,2.000000,127.000000,35.000000,3.000000,-7.000000,-16.000000
1306606.617589,39.000000,18.000000,35.000000,40.000000,77.000000,19.000000,19.000000,27.000000
1306606.639442,-4.000000,-29.000000,-24.000000,-31.000000,-48.000000,-21.000000,-11.000000,-8.000000
1306606.639452,-15.000000,4.000000,-14.000000,-48.000000,-29.000000,-15.000000,-15.000000,-13.000000
1306606.654802,-3.000000,-11.000000,-4.000000,-22.000000,-55.000000,-6.000000,-7.000000,-1.000000
1306606.654814,-10.000000,-9.000000,4.000000,76.000000,31.000000,26.000000,17.000000,6.000000
1306606.714427,-2.000000,-3.000000,0.000000,4.000000,6.000000,-10.000000,-4.000000,2.000000
1306606.714438,-4.000000,-13.000000,1.000000,-24.000000,-45.000000,-21.000000,-13.000000,-10.000000
1306606.721941,-9.000000,-1.000000,-7.000000,-103.000000,-1.000000,-6.000000,-7.000000,-11.000000
1306606.721953,-4.000000,-2.000000,-22.000000,-10.000000,-20.000000,-14.000000,-16.000000,-11.000000
1306606.722921,-7.000000,3.000000,11.000000,21.000000,9.000000,3.000000,-1.000000,-1.000000
1306606.722930,-14.000000,-9.000000,-12.000000,-37.000000,13.000000,-6.000000,-10.000000,-15.000000
1306606.723587,64.000000,27.000000,23.000000,127.000000,16.000000,28.000000,32.000000,47.000000
1306606.723597,12.000000,18.000000,38.000000,33.000000,62.000000,11.000000,7.000000,9.000000
1306606.725494,-11.000000,-4.000000,-3.000000,6.000000,4.000000,-10.000000,3.000000,-22.000000
1306606.725506,-57.000000,-27.000000,-8.000000,-5.000000,-11.000000,-16.000000,-59.000000,-61.000000
1306606.737065,2.000000,2.000000,-10.000000,-69.000000,-7.000000,-1.000000,-7.000000,-5.000000
1306606.737086,-11.000000,-7.000000,19.000000,-5.000000,-37.000000,-15.000000,-12.000000,-8.000000
1306606.737931,-6.000000,0.000000,-11.000000,-36.000000,5.000000,-1.000000,-9.000000,-22.000000
1306606.737943,-12.000000,-10.000000,-46.000000,-8.000000,-35.000000,5.000000,3.000000,4.000000
1306606.759377,27.000000,14.000000,121.000000,125.000000,66.000000,20.000000,20.000000,23.000000
1306606.759395,4.000000,-22.000000,-31.000000,-19.000000,-5.000000,6.000000,4.000000,6.000000
1306606.774484,11.000000,0.000000,-17.000000,-121.000000,-35.000000,5.000000,14.000000,-2.000000
1306606.774496,21.000000,31.000000,38.000000,127.000000,31.000000,9.000000,-5.000000,27.000000
1306606.796972,-2.000000,-3.000000,27.000000,-81.000000,-10.000000,7.000000,4.000000,-8.000000
1306606.796983,-14.000000,5.000000,-48.000000,-59.000000,0.000000,-4.000000,-16.000000,-24.000000
1306606.819778,48.000000,39.000000,31.000000,68.000000,6.000000,18.000000,26.000000,49.000000
1306606.819809,-9.000000,-2.000000,-27.000000,89.000000,49.000000,0.000000,4.000000,-16.000000
1306606.821201,-21.000000,-3.000000,-40.000000,-15.000000,-18.000000,-6.000000,-12.000000,-2.000000
1306606.821294,24.000000,22.000000,-21.000000,-95.000000,-11.000000,-5.000000,7.000000,5.000000
1306606.821510,-10.000000,4.000000,22.000000,61.000000,6.000000,-6.000000,0.000000,-16.000000
1306606.821536,-9.000000,-56.000000,2.000000,-27.000000,-126.000000,-57.000000,-42.000000,-2.000000
1306606.822377,0.000000,2.000000,-22.000000,53.000000,8.000000,1.000000,-12.000000,-20.000000
1306606.822385,-10.000000,-11.000000,4.000000,-37.000000,-20.000000,6.000000,7.000000,-7.000000
1306606.823431,4.000000,-15.000000,-14.000000,-31.000000,5.000000,2.000000,2.000000,-7.000000
1306606.823440,6.000000,8.000000,-19.000000,-24.000000,16.000000,1.000000,6.000000,37.000000
1306606.826886,-14.000000,-5.000000,37.000000,60.000000,11.000000,-6.000000,-13.000000,-19.000000
1306606.826914,-10.000000,-2.000000,-33.000000,-128.000000,-27.000000,-4.000000,-6.000000,-10.000000
1306606.857093,15.000000,12.000000,43.000000,38.000000,40.000000,24.000000,2.000000,-1.000000
1306606.857105,0.000000,-15.000000,19.000000,89.000000,-5.000000,-6.000000,0.000000,4.000000
1306606.857968,-10.000000,-8.000000,-16.000000,-68.000000,-15.000000,-3.000000,-4.000000,-9.000000
1306606.857976,-5.000000,3.000000,9.000000,5.000000,15.000000,-2.000000,-15.000000,-6.000000
1306606.858679,-23.000000,-22.000000,-62.000000,-83.000000,-71.000000,-32.000000,-12.000000,-24.000000
1306606.858810,34.000000,33.000000,89.000000,127.000000,52.000000,41.000000,51.000000,52.000000
1306606.872117,-3.000000,-12.000000,-22.000000,-35.000000,-14.000000,-12.000000,-4.000000,4.000000
1306606.872127,-13.000000,-8.000000,9.000000,-26.000000,-17.000000,-7.000000,0.000000,-19.000000
1306606.879500,7.000000,20.000000,-10.000000,44.000000,36.000000,6.000000,-27.000000,2.000000
1306606.879550,-2.000000,-14.000000,-37.000000,-128.000000,-72.000000,-26.000000,9.000000,3.000000
1306606.909621,-11.000000,2.000000,7.000000,18.000000,-8.000000,10.000000,15.000000,5.000000
1306606.909644,9.000000,-2.000000,50.000000,59.000000,24.000000,7.000000,8.000000,10.000000
1306606.917108,-7.000000,6.000000,-29.000000,-47.000000,-28.000000,-13.000000,-4.000000,10.000000
1306606.917121,3.000000,-3.000000,2.000000,-38.000000,14.000000,4.000000,-9.000000,-4.000000
1306606.917973,2.000000,2.000000,17.000000,-33.000000,-27.000000,-2.000000,2.000000,1.000000
1306606.917982,1.000000,3.000000,-3.000000,57.000000,24.000000,-7.000000,-20.000000,-11.000000
1306606.918730,-15.000000,-6.000000,8.000000,-77.000000,-39.000000,-12.000000,-6.000000,-23.000000
1306606.918738,8.000000,-33.000000,-54.000000,5.000000,4.000000,0.000000,6.000000,18.000000
1306606.932545,-13.000000,-5.000000,41.000000,-1.000000,-14.000000,-9.000000,-15.000000,-19.000000
1306606.932559,-9.000000,4.000000,-34.000000,-6.000000,-26.000000,-4.000000,-12.000000,-14.000000
1306606.939297,-16.000000,-14.000000,-13.000000,-5.000000,-4.000000,-6.000000,2.000000,-18.000000
1306606.939330,13.000000,16.000000,47.000000,19.000000,-4.000000,2.000000,-1.000000,8.000000
1306606.954498,9.000000,4.000000,56.000000,36.000000,22.000000,8.000000,-5.000000,9.000000
1306606.954508,-9.000000,-16.000000,-116.000000,-97.000000,-70.000000,-21.000000,9.000000,-14.000000
1306606.976925,-12.000000,11.000000,64.000000,110.000000,43.000000,7.000000,-16.000000,12.000000
1306606.976936,0.000000,-5.000000,-35.000000,-41.000000,9.000000,11.000000,-6.000000,-17.000000
1306606.977912,-12.000000,-7.000000,7.000000,-14.000000,-7.000000,-12.000000,-6.000000,-7.000000
1306606.977951,-14.000000,-33.000000,-54.000000,-33.000000,-30.000000,-22.000000,-30.000000,-21.000000
1306606.978640,-24.000000,-9.000000,15.000000,52.000000,1.000000,-6.000000,-5.000000,-16.000000
1306606.978648,8.000000,20.000000,64.000000,17.000000,-13.000000,3.000000,23.000000,5.000000
1306607.006918,15.000000,15.000000,-1.000000,33.000000,24.000000,-3.000000,8.000000,23.000000
1306607.006928,-34.000000,-20.000000,-77.000000,-21.000000,21.000000,-14.000000,-58.000000,-43.000000
1306607.014692,4.000000,13.000000,23.000000,14.000000,3.000000,19.000000,41.000000,43.000000
1306607.014722,22.000000,15.000000,53.000000,56.000000,16.000000,15.000000,26.000000,37.000000
1306607.052077,-19.000000,-23.000000,-11.000000,-44.000000,-35.000000,-26.000000,-28.000000,-25.000000
1306607.052088,-3.000000,12.000000,-8.000000,46.000000,-35.000000,-8.000000,-14.000000,-18.000000
1306607.052756,-20.000000,-12.000000,15.000000,3.000000,17.000000,-6.000000,-11.000000,-17.000000
1306607.052764,12.000000,7.000000,53.000000,90.000000,3.000000,-7.000000,-3.000000,9.000000
1306607.053684,-1.000000,-6.000000,-79.000000,31.000000,6.000000,4.000000,1.000000,-12.000000
1306607.053698,-2.000000,-3.000000,4.000000,-84.000000,-6.000000,3.000000,3.000000,8.000000
1306607.054562,-16.000000,-10.000000,-34.000000,41.000000,6.000000,-11.000000,-41.000000,-37.000000
1306607.054571,25.000000,32.000000,89.000000,72.000000,-5.000000,26.000000,57.000000,33.000000
1306607.055995,18.000000,-28.000000,-37.000000,-7.000000,18.000000,-4.000000,7.000000,34.000000
1306607.056006,-14.000000,-26.000000,-75.000000,-84.000000,-97.000000,-43.000000,-23.000000,-11.000000
1306607.059577,12.000000,15.000000,57.000000,-24.000000,1.000000,4.000000,4.000000,1.000000
1306607.059590,-20.000000,-9.000000,59.000000,34.000000,3.000000,-6.000000,-22.000000,-23.000000
1306607.074360,5.000000,-17.000000,-27.000000,1.000000,-18.000000,-11.000000,8.000000,18.000000
1306607.074376,13.000000,-9.000000,-14.000000,-31.000000,-3.000000,5.000000,6.000000,21.000000
1306607.097145,-4.000000,19.000000,34.000000,93.000000,61.000000,12.000000,-6.000000,-15.000000
1306607.097160,6.000000,8.000000,-30.000000,-31.000000,6.000000,1.000000,-2.000000,4.000000
1306607.098022,4.000000,-30.000000,-40.000000,-54.000000,-68.000000,-14.000000,9.000000,16.000000
1306607.098032,-6.000000,-9.000000,19.000000,78.000000,40.000000,11.000000,0.000000,-1.000000
1306607.098825,-15.000000,6.000000,-2.000000,3.000000,36.000000,12.000000,-11.000000,-13.000000
1306607.098835,13.000000,-3.000000,31.000000,-70.000000,-33.000000,-8.000000,5.000000,5.000000
1306607.112029,-4.000000,2.000000,-16.000000,10.000000,16.000000,9.000000,8.000000,1.000000
1306607.112040,7.000000,20.000000,47.000000,63.000000,33.000000,6.000000,-7.000000,9.000000
1306607.119236,0.000000,-9.000000,-12.000000,17.000000,-23.000000,-11.000000,0.000000,2.000000
1306607.119246,-5.000000,-1.000000,-15.000000,3.000000,-4.000000,-4.000000,-18.000000,-21.000000
1306607.142127,5.000000,-5.000000,13.000000,-17.000000,-6.000000,0.000000,7.000000,12.000000
1306607.142138,-33.000000,4.000000,-46.000000,-73.000000,-24.000000,-17.000000,-16.000000,-38.000000
1306607.149647,79.000000,25.000000,52.000000,121.000000,41.000000,40.000000,52.000000,81.000000
1306607.149658,-6.000000,-8.000000,16.000000,38.000000,0.000000,-9.000000,-8.000000,13.000000
1306607.171984,-16.000000,-1.000000,15.000000,-26.000000,-13.000000,-12.000000,-16.000000,-25.000000
1306607.172002,-5.000000,4.000000,-34.000000,-19.000000,9.000000,0.000000,-7.000000,-11.000000
1306607.209334,-21.000000,-7.000000,1.000000,3.000000,-10.000000,-7.000000,-6.000000,-12.000000
1306607.209344,24.000000,2.000000,7.000000,46.000000,-6.000000,-2.000000,2.000000,8.000000
1306607.210409,2.000000,3.000000,22.000000,-17.000000,16.000000,8.000000,1.000000,0.000000
1306607.210428,-4.000000,-17.000000,17.000000,-40.000000,-24.000000,-18.000000,-5.000000,-7.000000
1306607.211129,-10.000000,-3.000000,-25.000000,13.000000,1.000000,3.000000,0.000000,-11.000000
1306607.211147,-17.000000,-8.000000,-23.000000,-35.000000,-3.000000,-7.000000,-37.000000,-15.000000
1306607.212490,10.000000,-12.000000,-17.000000,-57.000000,-48.000000,-12.000000,22.000000,10.000000
1306607.212508,4.000000,8.000000,57.000000,127.000000,49.000000,20.000000,-10.000000,4.000000
1306607.213171,4.000000,11.000000,-11.000000,12.000000,12.000000,-6.000000,-4.000000,-3.000000
1306607.213180,-4.000000,-10.000000,-9.000000,-51.000000,-27.000000,-12.000000,-5.000000,10.000000
1306607.216809,-31.000000,-17.000000,29.000000,-118.000000,-48.000000,-26.000000,-21.000000,-38.000000
1306607.216825,12.000000,-38.000000,-100.000000,-101.000000,-41.000000,1.000000,3.000000,-4.000000
1306607.254532,-3.000000,3.000000,2.000000,127.000000,35.000000,8.000000,7.000000,13.000000
1306607.254543,-3.000000,4.000000,12.000000,18.000000,2.000000,9.000000,2.000000,5.000000
1306607.269490,-9.000000,0.000000,0.000000,-50.000000,11.000000,12.000000,6.000000,-7.000000
1306607.269502,-21.000000,-8.000000,0.000000,-44.000000,-22.000000,-8.000000,-25.000000,-19.000000
1306607.277569,20.000000,17.000000,-14.000000,81.000000,-3.000000,13.000000,16.000000,12.000000
1306607.277581,-5.000000,-24.000000,7.000000,31.000000,7.000000,-8.000000,1.000000,14.000000
1306607.278097,-7.000000,-7.000000,-12.000000,-27.000000,5.000000,-7.000000,-14.000000,-17.000000
1306607.278110,-22.000000,-9.000000,-43.000000,-28.000000,-20.000000,-19.000000,-27.000000,-39.000000
1306607.279236,74.000000,29.000000,37.000000,-39.000000,-5.000000,13.000000,38.000000,60.000000
1306607.279245,-14.000000,6.000000,0.000000,46.000000,-4.000000,-4.000000,13.000000,-9.000000
1306607.280236,13.000000,-2.000000,15.000000,-1.000000,6.000000,5.000000,-19.000000,14.000000
1306607.280246,4.000000,13.000000,11.000000,13.000000,6.000000,2.000000,-10.000000,-3.000000
1306607.292733,-21.000000,-43.000000,-46.000000,-47.000000,-15.000000,-12.000000,-12.000000,-18.000000
1306607.292744,-4.000000,12.000000,16.000000,15.000000,10.000000,0.000000,-4.000000,-16.000000
1306607.300146,-9.000000,-8.000000,-17.000000,-2.000000,-71.000000,-30.000000,-12.000000,-11.000000
1306607.300157,4.000000,0.000000,3.000000,-32.000000,3.000000,14.000000,21.000000,0.000000
1306607.314567,27.000000,7.000000,29.000000,60.000000,65.000000,16.000000,5.000000,26.000000
1306607.314636,6.000000,-7.000000,-61.000000,19.000000,-14.000000,-2.000000,2.000000,7.000000
1306607.329745,-13.000000,-4.000000,58.000000,-105.000000,-5.000000,0.000000,-11.000000,-25.000000
1306607.329773,-5.000000,4.000000,-9.000000,20.000000,-14.000000,-3.000000,-10.000000,-6.000000
1306607.330559,9.000000,2.000000,-38.000000,-13.000000,-1.000000,-4.000000,-5.000000,-17.000000
1306607.330586,-16.000000,-13.000000,-8.000000,8.000000,13.000000,2.000000,-2.000000,4.000000
1306607.374438,3.000000,-10.000000,-58.000000,-27.000000,-5.000000,-6.000000,10.000000,12.000000
1306607.374448,2.000000,9.000000,33.000000,76.000000,33.000000,10.000000,-1.000000,6.000000
1306607.381814,1.000000,6.000000,-5.000000,3.000000,-21.000000,-4.000000,-11.000000,-10.000000
1306607.381823,-14.000000,-10.000000,21.000000,-1.000000,6.000000,-4.000000,-9.000000,-16.000000
1306607.397232,-9.000000,-22.000000,-19.000000,-41.000000,-49.000000,-7.000000,3.000000,-2.000000
1306607.397242,-7.000000,9.000000,-21.000000,-12.000000,-5.000000,5.000000,16.000000,-4.000000
1306607.412118,11.000000,-5.000000,0.000000,-22.000000,10.000000,-1.000000,-20.000000,0.000000
1306607.412131,2.000000,-26.000000,-6.000000,5.000000,16.000000,-3.000000,-5.000000,4.000000
1306607.413015,-3.000000,5.000000,19.000000,39.000000,14.000000,14.000000,4.000000,-6.000000
1306607.413043,-12.000000,7.000000,16.000000,9.000000,-28.000000,5.000000,-3.000000,-12.000000
1306607.413631,5.000000,6.000000,55.000000,20.000000,22.000000,6.000000,-4.000000,-10.000000
1306607.413660,-3.000000,-1.000000,-50.000000,-27.000000,5.000000,-7.000000,-10.000000,10.000000
1306607.415178,-4.000000,1.000000,-20.000000,-65.000000,-39.000000,-18.000000,-8.000000,-5.000000
1306607.415194,4.000000,7.000000,17.000000,5.000000,-18.000000,2.000000,2.000000,1.000000
1306607.415953,-12.000000,9.000000,8.000000,110.000000,59.000000,13.000000,5.000000,-15.000000
1306607.415971,10.000000,1.000000,-27.000000,-71.000000,-19.000000,-10.000000,9.000000,21.000000
1306607.427024,1.000000,-1.000000,3.000000,-2.000000,-14.000000,-11.000000,-13.000000,-1.000000
1306607.427037,-5.000000,-4.000000,-27.000000,20.000000,-16.000000,15.000000,2.000000,-9.000000
1306607.427707,-11.000000,-6.000000,6.000000,12.000000,3.000000,-1.000000,-7.000000,-10.000000
1306607.427718,13.000000,3.000000,-6.000000,-46.000000,-3.000000,-3.000000,17.000000,12.000000
1306607.450362,18.000000,-4.000000,-12.000000,-48.000000,-54.000000,1.000000,5.000000,28.000000
1306607.450375,-5.000000,-15.000000,46.000000,32.000000,23.000000,10.000000,0.000000,-5.000000
1306607.450784,-19.000000,-11.000000,-29.000000,-12.000000,-6.000000,-5.000000,-4.000000,-19.000000
1306607.450793,10.000000,3.000000,-4.000000,-31.000000,-2.000000,3.000000,-9.000000,6.000000
1306607.479610,-1.000000,2.000000,-11.000000,30.000000,-16.000000,-11.000000,-6.000000,-2.000000
1306607.479621,-6.000000,-9.000000,-21.000000,-89.000000,-23.000000,-10.000000,0.000000,3.000000
1306607.487362,3.000000,9.000000,60.000000,69.000000,59.000000,17.000000,7.000000,5.000000
1306607.487373,-12.000000,-18.000000,-56.000000,-20.000000,-6.000000,-8.000000,-6.000000,-8.000000
1306607.509554,3.000000,5.000000,-6.000000,-8.000000,21.000000,0.000000,-5.000000,-1.000000
1306607.509573,-2.000000,12.000000,43.000000,55.000000,31.000000,10.000000,-1.000000,-3.000000
1306607.531856,9.000000,1.000000,-11.000000,1.000000,4.000000,0.000000,4.000000,7.000000
1306607.531872,-13.000000,-6.000000,58.000000,-28.000000,-32.000000,-8.000000,0.000000,-4.000000
1306607.532792,20.000000,15.000000,-55.000000,46.000000,41.000000,-1.000000,-6.000000,6.000000
1306607.532803,-43.000000,-46.000000,-122.000000,-108.000000,-35.000000,-16.000000,-20.000000,-40.000000
1306607.533501,19.000000,9.000000,127.000000,23.000000,10.000000,7.000000,9.000000,19.000000
1306607.533515,-10.000000,8.000000,17.000000,-18.000000,-39.000000,-6.000000,18.000000,-7.000000
1306607.534855,-14.000000,-17.000000,-93.000000,-105.000000,-22.000000,-10.000000,-18.000000,6.000000
1306607.534865,24.000000,27.000000,103.000000,110.000000,56.000000,15.000000,19.000000,8.000000
1306607.535657,-21.000000,-24.000000,-115.000000,-40.000000,-33.000000,-13.000000,-18.000000,-19.000000
1306607.535666,-38.000000,-15.000000,0.000000,-66.000000,-18.000000,-11.000000,-13.000000,-25.000000
1306607.547352,47.000000,36.000000,14.000000,62.000000,5.000000,17.000000,33.000000,41.000000
1306607.547396,7.000000,-4.000000,4.000000,-9.000000,9.000000,1.000000,3.000000,0.000000
1306607.548075,-11.000000,-8.000000,-89.000000,-23.000000,-1.000000,-4.000000,-9.000000,-8.000000
1306607.548102,-11.000000,-1.000000,47.000000,-11.000000,-9.000000,-5.000000,-12.000000,-13.000000
1306607.569825,4.000000,6.000000,13.000000,5.000000,-1.000000,3.000000,-17.000000,-5.000000
1306607.569835,-7.000000,-1.000000,40.000000,-24.000000,-23.000000,-21.000000,-2.000000,1.000000
1306607.570820,-22.000000,-14.000000,17.000000,15.000000,-69.000000,-7.000000,-8.000000,-8.000000
1306607.570829,10.000000,12.000000,-3.000000,52.000000,48.000000,14.000000,0.000000,-4.000000
1306607.614597,1.000000,-12.000000,-65.000000,-117.000000,-44.000000,-15.000000,4.000000,2.000000
1306607.614608,-2.000000,-4.000000,-29.000000,-5.000000,-21.000000,5.000000,14.000000,15.000000
1306607.629359,-32.000000,-23.000000,33.000000,-20.000000,-27.000000,-18.000000,-12.000000,-33.000000
1306607.629370,39.000000,16.000000,-28.000000,-18.000000,-2.000000,16.000000,25.000000,31.000000
1306607.630374,12.000000,-2.000000,25.000000,39.000000,31.000000,5.000000,-14.000000,-4.000000
1306607.630392,-26.000000,-15.000000,18.000000,4.000000,-17.000000,-8.000000,-8.000000,-21.000000
1306607.630993,4.000000,4.000000,-24.000000,-26.000000,-11.000000,-4.000000,2.000000,5.000000
1306607.631010,-18.000000,-3.000000,22.000000,-1.000000,-5.000000,-8.000000,3.000000,-10.000000
1306607.632257,-1.000000,-1.000000,127.000000,-31.000000,2.000000,0.000000,-15.000000,-11.000000
1306607.632272,0.000000,-8.000000,-128.000000,-27.000000,-46.000000,4.000000,-1.000000,-2.000000
1306607.633185,-6.000000,3.000000,-23.000000,43.000000,20.000000,-10.000000,7.000000,1.000000
1306607.633194,-7.000000,-4.000000,-19.000000,-15.000000,3.000000,2.000000,2.000000,0.000000
1306607.652236,7.000000,-2.000000,78.000000,9.000000,2.000000,2.000000,3.000000,9.000000
1306607.652266,-24.000000,6.000000,-14.000000,-22.000000,13.000000,14.000000,-16.000000,-29.000000
1306607.653283,38.000000,14.000000,66.000000,98.000000,17.000000,11.000000,22.000000,33.000000
1306607.653310,5.000000,-13.000000,-52.000000,-35.000000,-4.000000,-10.000000,-3.000000,-1.000000
1306607.667595,-11.000000,-1.000000,-37.000000,-52.000000,-11.000000,-4.000000,-14.000000,-9.000000
1306607.667605,-13.000000,1.000000,13.000000,-35.000000,-16.000000,-6.000000,-10.000000,-14.000000
1306607.689247,-7.000000,-3.000000,-42.000000,-10.000000,5.000000,2.000000,14.000000,-4.000000
1306607.689261,3.000000,5.000000,25.000000,10.000000,11.000000,-3.000000,-20.000000,5.000000
1306607.690388,-2.000000,-5.000000,1.000000,-8.000000,-21.000000,3.000000,6.000000,7.000000
1306607.690397,1.000000,13.000000,53.000000,48.000000,66.000000,25.000000,10.000000,4.000000
1306607.691282,13.000000,-10.000000,-20.000000,-5.000000,-11.000000,-6.000000,8.000000,7.000000
1306607.691297,-1.000000,-2.000000,-26.000000,-80.000000,-42.000000,-12.000000,1.000000,0.000000
1306607.712301,7.000000,10.000000,-16.000000,80.000000,29.000000,15.000000,-2.000000,0.000000
1306607.712314,-14.000000,-1.000000,49.000000,-33.000000,-14.000000,-11.000000,-25.000000,-20.000000
1306607.727050,-22.000000,-11.000000,-122.000000,-2.000000,7.000000,-2.000000,3.000000,-12.000000
1306607.727066,25.000000,10.000000,8.000000,-51.000000,-5.000000,5.000000,29.000000,28.000000
1306607.749579,13.000000,-2.000000,59.000000,108.000000,40.000000,3.000000,0.000000,14.000000
1306607.749590,-5.000000,12.000000,5.000000,-37.000000,-10.000000,-7.000000,-14.000000,-17.000000
1306607.764449,-12.000000,9.000000,1.000000,-16.000000,2.000000,5.000000,10.000000,-9.000000
1306607.764495,-9.000000,-5.000000,-21.000000,16.000000,-12.000000,-6.000000,-14.000000,-12.000000
1306607.765513,-3.000000,-5.000000,27.000000,-18.000000,12.000000,13.000000,2.000000,19.000000
1306607.765523,-6.000000,-2.000000,-13.000000,-29.000000,-1.000000,-17.000000,0.000000,0.000000
1306607.766082,2.000000,3.000000,-43.000000,127.000000,29.000000,12.000000,1.000000,-1.000000
1306607.766105,-4.000000,-12.000000,17.000000,-30.000000,-21.000000,-7.000000,10.000000,3.000000
1306607.771822,-1.000000,0.000000,5.000000,-25.000000,-10.000000,-1.000000,-6.000000,6.000000
1306607.771833,0.000000,3.000000,81.000000,-3.000000,4.000000,0.000000,-9.000000,-3.000000
1306607.779441,-20.000000,-8.000000,-31.000000,-31.000000,-9.000000,-8.000000,-9.000000,-13.000000
1306607.779452,-8.000000,-17.000000,-51.000000,23.000000,3.000000,-4.000000,-16.000000,-14.000000
1306607.809441,0.000000,11.000000,65.000000,44.000000,3.000000,3.000000,13.000000,6.000000
1306607.809452,23.000000,4.000000,-11.000000,4.000000,2.000000,5.000000,5.000000,-2.000000
1306607.816943,9.000000,4.000000,18.000000,-25.000000,-1.000000,-4.000000,-4.000000,15.000000
1306607.816954,-10.000000,-13.000000,-26.000000,3.000000,-30.000000,-7.000000,-1.000000,-4.000000
1306607.831639,-4.000000,1.000000,-21.000000,3.000000,40.000000,10.000000,-1.000000,-3.000000
1306607.831649,3.000000,-6.000000,8.000000,-5.000000,-16.000000,-4.000000,-4.000000,-2.000000
1306607.832265,-17.000000,-3.000000,1.000000,2.000000,0.000000,0.000000,-8.000000,-11.000000
1306607.832286,2.000000,1.000000,34.000000,-63.000000,-21.000000,-13.000000,-6.000000,-11.000000
1306607.833636,34.000000,24.000000,37.000000,36.000000,25.000000,19.000000,9.000000,32.000000
1306607.833652,-15.000000,-27.000000,-128.000000,-17.000000,9.000000,-5.000000,5.000000,-13.000000
1306607.834390,-5.000000,5.000000,34.000000,49.000000,21.000000,7.000000,3.000000,-9.000000
1306607.834399,6.000000,-6.000000,-22.000000,-49.000000,-22.000000,-9.000000,-5.000000,16.000000
1306607.847646,9.000000,9.000000,10.000000,3.000000,25.000000,7.000000,-4.000000,2.000000
1306607.847656,-20.000000,-3.000000,-15.000000,18.000000,0.000000,-1.000000,-11.000000,-16.000000
1306607.854443,3.000000,2.000000,-18.000000,-59.000000,1.000000,0.000000,-5.000000,-8.000000
1306607.854453,11.000000,12.000000,29.000000,127.000000,54.000000,20.000000,4.000000,12.000000
1306607.869306,-7.000000,-7.000000,12.000000,-15.000000,-12.000000,-10.000000,1.000000,1.000000
1306607.869319,-1.000000,-3.000000,-14.000000,-57.000000,-22.000000,-6.000000,-1.000000,-3.000000
1306607.870223,0.000000,4.000000,-39.000000,-51.000000,9.000000,-4.000000,-9.000000,-4.000000
1306607.870243,-12.000000,-15.000000,50.000000,127.000000,34.000000,6.000000,-1.000000,-1.000000
1306607.885159,-7.000000,5.000000,5.000000,-18.000000,3.000000,5.000000,6.000000,2.000000
1306607.885168,14.000000,0.000000,9.000000,-37.000000,-13.000000,1.000000,0.000000,5.000000
1306607.892141,-10.000000,16.000000,22.000000,57.000000,49.000000,12.000000,0.000000,0.000000
1306607.892151,-1.000000,-1.000000,-9.000000,-18.000000,-38.000000,-16.000000,-2.000000,-7.000000
1306607.907025,26.000000,3.000000,5.000000,-8.000000,6.000000,11.000000,3.000000,17.000000
1306607.907036,-1.000000,-7.000000,-11.000000,47.000000,-35.000000,-18.000000,1.000000,-4.000000
1306607.929481,-5.000000,7.000000,20.000000,-5.000000,-4.000000,-5.000000,3.000000,-5.000000
1306607.929497,-4.000000,2.000000,-26.000000,-18.000000,1.000000,4.000000,-12.000000,-3.000000
1306607.944824,-4.000000,-2.000000,104.000000,-11.000000,-6.000000,-1.000000,-11.000000,-1.000000
1306607.944837,-4.000000,-7.000000,-33.000000,-6.000000,11.000000,-1.000000,-5.000000,-5.000000
1306607.966921,-6.000000,-7.000000,-29.000000,-25.000000,-27.000000,4.000000,-5.000000,-6.000000
1306607.966931,3.000000,9.000000,61.000000,103.000000,68.000000,12.000000,17.000000,2.000000
1306607.989410,-9.000000,-7.000000,-28.000000,-29.000000,-9.000000,-8.000000,0.000000,0.000000
1306607.989421,-5.000000,-10.000000,-29.000000,-33.000000,-19.000000,-9.000000,-9.000000,-10.000000
1306608.004333,7.000000,6.000000,-1.000000,-9.000000,24.000000,6.000000,5.000000,4.000000
1306608.004344,-2.000000,4.000000,22.000000,57.000000,0.000000,2.000000,14.000000,-4.000000
1306608.019799,-5.000000,-2.000000,11.000000,17.000000,-21.000000,-13.000000,-25.000000,-9.000000
1306608.019807,1.000000,-6.000000,0.000000,-38.000000,-16.000000,-15.000000,-3.000000,-4.000000
1306608.020316,-42.000000,-18.000000,-60.000000,-40.000000,-26.000000,-15.000000,-1.000000,-10.000000
1306608.020326,51.000000,24.000000,103.000000,54.000000,42.000000,34.000000,52.000000,45.000000
1306608.022482,-19.000000,3.000000,-4.000000,30.000000,15.000000,-3.000000,-10.000000,-16.000000
1306608.022526,-1.000000,-5.000000,-21.000000,0.000000,-21.000000,-9.000000,4.000000,-4.000000
1306608.034637,2.000000,4.000000,8.000000,-19.000000,-15.000000,-6.000000,5.000000,1.000000
1306608.034647,3.000000,2.000000,-22.000000,-32.000000,-15.000000,-6.000000,5.000000,7.000000
1306608.042615,-20.000000,-8.000000,-1.000000,2.000000,14.000000,-1.000000,-10.000000,-10.000000
1306608.042633,20.000000,3.000000,-11.000000,-46.000000,5.000000,6.000000,-7.000000,1.000000
1306608.049173,8.000000,4.000000,56.000000,4.000000,-19.000000,-4.000000,22.000000,4.000000
1306608.049182,-5.000000,-20.000000,-10.000000,1.000000,-31.000000,-21.000000,-20.000000,9.000000
1306608.086963,18.000000,-5.000000,-6.000000,-74.000000,-34.000000,7.000000,9.000000,16.000000
1306608.086973,-9.000000,0.000000,-2.000000,-1.000000,34.000000,2.000000,-3.000000,-10.000000
1306608.102068,-4.000000,3.000000,13.000000,-37.000000,-11.000000,-8.000000,-3.000000,-9.000000
1306608.102086,-9.000000,3.000000,1.000000,-24.000000,-18.000000,-5.000000,-5.000000,-8.000000
1306608.109820,-8.000000,0.000000,20.000000,-16.000000,-14.000000,-7.000000,-10.000000,-11.000000
1306608.109837,6.000000,6.000000,-12.000000,27.000000,17.000000,-2.000000,9.000000,5.000000
1306608.110499,-3.000000,-8.000000,-53.000000,27.000000,-8.000000,-2.000000,0.000000,0.000000
1306608.110549,-6.000000,-2.000000,26.000000,-7.000000,-2.000000,-1.000000,2.000000,-12.000000
1306608.124597,4.000000,3.000000,2.000000,0.000000,-24.000000,-6.000000,-19.000000,6.000000
1306608.124608,2.000000,-5.000000,-18.000000,1.000000,6.000000,-4.000000,-5.000000,-5.000000
1306608.125236,4.000000,7.000000,62.000000,6.000000,-8.000000,3.000000,-1.000000,-1.000000
1306608.125243,11.000000,-10.000000,-78.000000,-60.000000,-28.000000,-5.000000,-7.000000,1.000000
1306608.126228,-24.000000,-10.000000,21.000000,54.000000,16.000000,3.000000,2.000000,-9.000000
1306608.126235,0.000000,5.000000,26.000000,15.000000,22.000000,-4.000000,-8.000000,-18.000000
1306608.139589,9.000000,1.000000,-20.000000,-69.000000,-30.000000,-4.000000,5.000000,17.000000
1306608.139605,-6.000000,-20.000000,-7.000000,25.000000,4.000000,-5.000000,-4.000000,12.000000
1306608.147600,-9.000000,-10.000000,-63.000000,4.000000,-14.000000,-11.000000,-18.000000,-19.000000
1306608.147609,-3.000000,-3.000000,21.000000,-38.000000,-13.000000,0.000000,-3.000000,-7.000000
1306608.161663,-14.000000,-1.000000,24.000000,37.000000,-10.000000,-7.000000,-8.000000,-13.000000
1306608.161673,16.000000,14.000000,-73.000000,18.000000,14.000000,4.000000,6.000000,10.000000
1306608.163111,1.000000,-4.000000,-18.000000,-10.000000,-20.000000,-5.000000,5.000000,3.000000
1306608.163127,-3.000000,-10.000000,12.000000,-88.000000,-27.000000,-4.000000,-9.000000,-6.000000
1306608.169524,2.000000,12.000000,24.000000,127.000000,81.000000,17.000000,9.000000,4.000000
1306608.169534,6.000000,1.000000,-8.000000,-53.000000,-4.000000,-6.000000,2.000000,3.000000
1306608.191900,-12.000000,-2.000000,-21.000000,28.000000,-28.000000,-8.000000,-17.000000,-4.000000
1306608.191910,3.000000,-5.000000,-15.000000,-16.000000,4.000000,-2.000000,-5.000000,-2.000000
1306608.206917,-11.000000,-19.000000,-31.000000,37.000000,5.000000,-8.000000,6.000000,-1.000000
1306608.206983,-4.000000,3.000000,11.000000,-29.000000,-36.000000,-8.000000,3.000000,-19.000000
1306608.208231,-5.000000,10.000000,-1.000000,25.000000,3.000000,11.000000,-10.000000,12.000000
1306608.208241,10.000000,2.000000,2.000000,1.000000,2.000000,4.000000,24.000000,-1.000000
1306608.214706,5.000000,4.000000,9.000000,-17.000000,-23.000000,-6.000000,0.000000,26.000000
1306608.214719,10.000000,10.000000,25.000000,22.000000,18.000000,0.000000,-7.000000,0.000000
1306608.222827,-12.000000,-9.000000,-42.000000,13.000000,-14.000000,-3.000000,-6.000000,-14.000000
1306608.222844,3.000000,4.000000,-1.000000,-4.000000,17.000000,2.000000,1.000000,-1.000000
1306608.244540,-2.000000,-5.000000,-23.000000,-42.000000,-14.000000,-7.000000,-10.000000,-12.000000
1306608.244564,-13.000000,-7.000000,-4.000000,8.000000,-14.000000,-7.000000,2.000000,3.000000
1306608.245675,-6.000000,-4.000000,19.000000,-33.000000,-7.000000,0.000000,-3.000000,-6.000000
1306608.245684,-1.000000,11.000000,2.000000,41.000000,-3.000000,1.000000,6.000000,0.000000
1306608.259571,11.000000,-3.000000,-10.000000,-1.000000,-34.000000,-20.000000,-9.000000,5.000000
1306608.259583,-10.000000,-11.000000,-9.000000,-24.000000,-3.000000,-8.000000,-18.000000,-8.000000
1306608.260631,-9.000000,4.000000,-14.000000,-12.000000,-3.000000,0.000000,-13.000000,-14.000000
1306608.260639,14.000000,18.000000,73.000000,127.000000,78.000000,26.000000,40.000000,13.000000
1306608.281941,3.000000,-21.000000,-46.000000,-107.000000,-48.000000,-16.000000,-11.000000,12.000000
1306608.281952,-5.000000,10.000000,-37.000000,111.000000,21.000000,3.000000,-13.000000,-8.000000
1306608.312107,1.000000,-5.000000,36.000000,-37.000000,2.000000,-8.000000,-5.000000,-6.000000
1306608.312118,-7.000000,-9.000000,-21.000000,4.000000,-23.000000,-5.000000,-5.000000,-7.000000
1306608.319574,-5.000000,-8.000000,-14.000000,-29.000000,-29.000000,-18.000000,-8.000000,-6.000000
1306608.319588,-10.000000,2.000000,8.000000,-53.000000,2.000000,-5.000000,-12.000000,-9.000000
1306608.334340,20.000000,3.000000,33.000000,103.000000,9.000000,7.000000,3.000000,-5.000000
1306608.334362,-12.000000,-15.000000,8.000000,14.000000,13.000000,0.000000,17.000000,13.000000
1306608.341831,0.000000,-7.000000,-32.000000,-49.000000,-10.000000,-4.000000,2.000000,1.000000
1306608.341840,-4.000000,7.000000,-18.000000,-12.000000,-6.000000,1.000000,-7.000000,-6.000000
1306608.372546,-10.000000,-19.000000,22.000000,-4.000000,2.000000,-3.000000,-9.000000,-9.000000
1306608.372591,-7.000000,3.000000,8.000000,-9.000000,-5.000000,1.000000,-1.000000,-19.000000
1306608.372928,-6.000000,-1.000000,-3.000000,-7.000000,10.000000,-1.000000,-9.000000,21.000000
1306608.372950,2.000000,-11.000000,13.000000,7.000000,-76.000000,-16.000000,1.000000,-1.000000
1306608.374321,11.000000,-16.000000,-43.000000,-18.000000,6.000000,4.000000,1.000000,6.000000
1306608.374343,-12.000000,-9.000000,1.000000,-12.000000,-25.000000,-18.000000,-6.000000,-11.000000
1306608.379162,-9.000000,-1.000000,16.000000,-4.000000,-21.000000,-6.000000,-9.000000,-12.000000
1306608.379172,-14.000000,-6.000000,-4.000000,16.000000,-1.000000,-7.000000,-10.000000,-21.000000
1306608.381240,-6.000000,-5.000000,43.000000,-22.000000,18.000000,6.000000,0.000000,0.000000
1306608.381250,-3.000000,-22.000000,-45.000000,-27.000000,-8.000000,-11.000000,-15.000000,-11.000000
1306608.401906,0.000000,1.000000,-16.000000,-46.000000,-22.000000,-3.000000,9.000000,2.000000
1306608.401916,20.000000,15.000000,28.000000,58.000000,29.000000,7.000000,11.000000,23.000000
1306608.417296,-8.000000,-15.000000,0.000000,-53.000000,-24.000000,-9.000000,-11.000000,-13.000000
1306608.417354,-13.000000,-12.000000,-23.000000,-28.000000,1.000000,-4.000000,-1.000000,-6.000000
1306608.424320,-4.000000,21.000000,106.000000,127.000000,24.000000,12.000000,-11.000000,-4.000000
1306608.424330,31.000000,12.000000,27.000000,-2.000000,18.000000,8.000000,24.000000,28.000000
1306608.446868,-24.000000,-42.000000,-73.000000,-96.000000,-62.000000,-19.000000,0.000000,-8.000000
1306608.446878,-5.000000,14.000000,42.000000,29.000000,23.000000,7.000000,-8.000000,-13.000000
1306608.462051,1.000000,-1.000000,-20.000000,-25.000000,5.000000,2.000000,-2.000000,-2.000000
1306608.462080,-20.000000,-7.000000,7.000000,9.000000,-1.000000,0.000000,-11.000000,-15.000000
1306608.499643,4.000000,-2.000000,-12.000000,-19.000000,-5.000000,-2.000000,4.000000,-1.000000
1306608.499653,1.000000,3.000000,-11.000000,-15.000000,-10.000000,0.000000,-3.000000,0.000000
1306608.536904,-6.000000,-12.000000,18.000000,28.000000,7.000000,-7.000000,7.000000,-1.000000
1306608.536916,-1.000000,-6.000000,-10.000000,-29.000000,-7.000000,-2.000000,-25.000000,-11.000000
1306608.581913,9.000000,4.000000,-16.000000,-10.000000,22.000000,9.000000,30.000000,21.000000
1306608.581924,-11.000000,-10.000000,8.000000,-26.000000,-35.000000,-13.000000,-11.000000,-11.000000
1306608.597099,1.000000,-5.000000,-12.000000,-16.000000,-5.000000,-1.000000,7.000000,-5.000000
1306608.597110,-4.000000,3.000000,-48.000000,-43.000000,12.000000,5.000000,-10.000000,4.000000
1306608.598077,14.000000,16.000000,19.000000,7.000000,9.000000,5.000000,4.000000,16.000000
1306608.598090,-3.000000,-8.000000,-29.000000,14.000000,-10.000000,-5.000000,-6.000000,-5.000000
1306608.599235,16.000000,0.000000,24.000000,15.000000,3.000000,9.000000,31.000000,18.000000
1306608.599243,3.000000,-14.000000,-17.000000,-37.000000,1.000000,2.000000,10.000000,5.000000
1306608.605311,-13.000000,-22.000000,47.000000,-9.000000,-23.000000,-11.000000,-7.000000,-11.000000
1306608.605321,-18.000000,-8.000000,-23.000000,38.000000,22.000000,6.000000,8.000000,-4.000000
1306608.611679,2.000000,-5.000000,1.000000,-16.000000,3.000000,-5.000000,-20.000000,2.000000
1306608.611730,-1.000000,-6.000000,-89.000000,-56.000000,-25.000000,-14.000000,-32.000000,-12.000000
1306608.642132,8.000000,2.000000,94.000000,78.000000,-5.000000,3.000000,22.000000,-1.000000
1306608.642143,1.000000,14.000000,-128.000000,6.000000,5.000000,5.000000,8.000000,1.000000
1306608.657085,-2.000000,-10.000000,50.000000,-19.000000,-7.000000,-2.000000,2.000000,2.000000
1306608.657103,2.000000,0.000000,-29.000000,8.000000,2.000000,-8.000000,0.000000,0.000000
1306608.679399,-17.000000,-3.000000,-13.000000,-27.000000,-14.000000,-9.000000,-24.000000,-22.000000
1306608.679428,22.000000,6.000000,-34.000000,-30.000000,-9.000000,1.000000,6.000000,16.000000
1306608.687098,17.000000,7.000000,15.000000,-15.000000,-40.000000,-4.000000,7.000000,11.000000
1306608.687109,-4.000000,6.000000,41.000000,47.000000,0.000000,6.000000,2.000000,-7.000000
1306608.701981,-3.000000,3.000000,69.000000,10.000000,8.000000,2.000000,-2.000000,-6.000000
1306608.702004,-7.000000,-15.000000,-128.000000,-45.000000,-16.000000,-4.000000,-15.000000,-8.000000
1306608.716804,-1.000000,-7.000000,-4.000000,-44.000000,11.000000,2.000000,-7.000000,-3.000000
1306608.716814,11.000000,28.000000,115.000000,104.000000,37.000000,15.000000,8.000000,8.000000
1306608.717907,17.000000,1.000000,-23.000000,-33.000000,-10.000000,-2.000000,4.000000,15.000000
1306608.717919,-3.000000,-9.000000,-25.000000,-68.000000,-18.000000,-7.000000,0.000000,-9.000000
1306608.718503,11.000000,12.000000,77.000000,38.000000,5.000000,4.000000,23.000000,26.000000
1306608.718515,0.000000,-10.000000,10.000000,-29.000000,-24.000000,-5.000000,-10.000000,-16.000000
1306608.720121,-8.000000,-6.000000,-22.000000,-50.000000,-23.000000,-9.000000,-12.000000,-7.000000
1306608.720129,-10.000000,-3.000000,-11.000000,-49.000000,3.000000,-1.000000,14.000000,-10.000000
1306608.739897,-1.000000,2.000000,48.000000,62.000000,13.000000,-2.000000,-4.000000,3.000000
1306608.739913,5.000000,1.000000,-128.000000,-12.000000,-1.000000,4.000000,-14.000000,3.000000
1306608.740562,-22.000000,-19.000000,42.000000,-29.000000,-9.000000,-11.000000,-12.000000,-19.000000
1306608.740572,22.000000,-7.000000,28.000000,-30.000000,-38.000000,-16.000000,4.000000,8.000000
1306608.762063,-3.000000,5.000000,19.000000,-31.000000,-9.000000,6.000000,19.000000,2.000000
1306608.762083,12.000000,10.000000,13.000000,19.000000,-10.000000,-1.000000,-1.000000,15.000000
1306608.777126,-5.000000,-7.000000,11.000000,40.000000,23.000000,4.000000,5.000000,-2.000000
1306608.777137,-19.000000,-15.000000,-15.000000,-56.000000,5.000000,-3.000000,-21.000000,-15.000000
1306608.814542,-12.000000,0.000000,-9.000000,7.000000,-24.000000,-12.000000,2.000000,-27.000000
1306608.814552,10.000000,15.000000,127.000000,6.000000,-3.000000,4.000000,17.000000,30.000000
1306608.822217,-5.000000,-24.000000,-128.000000,-36.000000,-25.000000,-18.000000,-17.000000,-14.000000
1306608.822230,-10.000000,-7.000000,-4.000000,-60.000000,-38.000000,-8.000000,-13.000000,-16.000000
1306608.837613,15.000000,17.000000,12.000000,44.000000,20.000000,4.000000,9.000000,8.000000
1306608.837637,-9.000000,1.000000,40.000000,10.000000,21.000000,-3.000000,2.000000,-7.000000
1306608.838019,11.000000,7.000000,32.000000,69.000000,33.000000,10.000000,6.000000,13.000000
1306608.838069,3.000000,3.000000,-18.000000,-30.000000,1.000000,0.000000,21.000000,7.000000
1306608.839467,-10.000000,-8.000000,-102.000000,-32.000000,-27.000000,-8.000000,8.000000,-10.000000
1306608.839508,-5.000000,-1.000000,-31.000000,-59.000000,-1.000000,-2.000000,10.000000,-2.000000
1306608.840064,-1.000000,-5.000000,87.000000,15.000000,9.000000,-5.000000,-9.000000,-10.000000
1306608.840072,-18.000000,-23.000000,-34.000000,-45.000000,-14.000000,-11.000000,11.000000,-5.000000
1306608.859271,23.000000,22.000000,32.000000,63.000000,14.000000,7.000000,3.000000,11.000000
1306608.859285,-1.000000,6.000000,89.000000,53.000000,34.000000,7.000000,6.000000,12.000000
1306608.859848,19.000000,5.000000,-35.000000,90.000000,31.000000,14.000000,5.000000,34.000000
1306608.859870,-9.000000,-2.000000,12.000000,-41.000000,-14.000000,-7.000000,-7.000000,-15.000000
1306608.874636,-4.000000,-6.000000,-71.000000,-60.000000,-15.000000,1.000000,15.000000,-2.000000
1306608.874647,-14.000000,-6.000000,6.000000,1.000000,-14.000000,-7.000000,-15.000000,-15.000000
1306608.882356,-6.000000,-12.000000,39.000000,-27.000000,-12.000000,8.000000,7.000000,-1.000000
1306608.882494,-5.000000,3.000000,15.000000,74.000000,8.000000,-7.000000,-13.000000,-6.000000
1306608.896755,12.000000,5.000000,-9.000000,-35.000000,-16.000000,-6.000000,-14.000000,4.000000
1306608.896765,12.000000,8.000000,4.000000,9.000000,-23.000000,-4.000000,25.000000,19.000000
1306608.919520,7.000000,12.000000,104.000000,-64.000000,4.000000,3.000000,2.000000,4.000000
1306608.919530,3.000000,3.000000,9.000000,117.000000,38.000000,12.000000,-9.000000,-7.000000
1306608.941873,24.000000,-3.000000,-55.000000,-50.000000,-31.000000,-5.000000,20.000000,12.000000
1306608.941941,-6.000000,-5.000000,9.000000,-35.000000,-13.000000,-1.000000,1.000000,1.000000
1306608.942314,-3.000000,2.000000,-11.000000,27.000000,21.000000,7.000000,-10.000000,-4.000000
1306608.942325,-16.000000,-14.000000,-3.000000,-36.000000,-34.000000,-13.000000,2.000000,-17.000000
1306608.944120,2.000000,8.000000,105.000000,51.000000,17.000000,2.000000,-5.000000,-3.000000
1306608.944128,10.000000,1.000000,-26.000000,-48.000000,-15.000000,3.000000,-3.000000,23.000000
1306608.944856,2.000000,4.000000,-12.000000,50.000000,15.000000,0.000000,-2.000000,-5.000000
1306608.944865,-20.000000,-22.000000,-34.000000,-28.000000,-19.000000,-5.000000,-9.000000,-14.000000
1306608.957109,0.000000,1.000000,-18.000000,95.000000,37.000000,7.000000,-8.000000,-6.000000
1306608.957120,-8.000000,-13.000000,-57.000000,-26.000000,-20.000000,-8.000000,0.000000,5.000000
1306608.979491,16.000000,3.000000,35.000000,-62.000000,-12.000000,0.000000,-1.000000,13.000000
1306608.979502,9.000000,1.000000,-12.000000,11.000000,24.000000,9.000000,9.000000,5.000000
1306608.979862,-7.000000,-1.000000,12.000000,52.000000,23.000000,2.000000,-6.000000,-5.000000
1306608.979876,2.000000,10.000000,-82.000000,1.000000,7.000000,5.000000,-6.000000,0.000000
1306608.986933,-7.000000,-9.000000,7.000000,-33.000000,-5.000000,-11.000000,-11.000000,-15.000000
1306608.986943,-10.000000,2.000000,6.000000,13.000000,12.000000,4.000000,17.000000,14.000000
1306608.994330,-6.000000,-6.000000,43.000000,-11.000000,6.000000,-2.000000,-10.000000,-12.000000
1306608.994352,1.000000,4.000000,-106.000000,-9.000000,-15.000000,-7.000000,16.000000,-5.000000
1306609.009539,4.000000,-3.000000,-11.000000,-77.000000,-16.000000,1.000000,-24.000000,3.000000
1306609.009552,6.000000,10.000000,50.000000,127.000000,35.000000,6.000000,7.000000,2.000000
1306609.017118,-8.000000,1.000000,27.000000,4.000000,4.000000,2.000000,0.000000,-1.000000
1306609.017130,11.000000,-1.000000,45.000000,-52.000000,-17.000000,-2.000000,-8.000000,-1.000000
1306609.054556,-6.000000,-7.000000,-23.000000,61.000000,18.000000,3.000000,6.000000,-4.000000
1306609.054576,-6.000000,3.000000,1.000000,-21.000000,-1.000000,2.000000,5.000000,1.000000
1306609.077068,-7.000000,3.000000,-6.000000,-17.000000,4.000000,2.000000,-6.000000,-4.000000
1306609.077078,-1.000000,-12.000000,-29.000000,47.000000,6.000000,-2.000000,-13.000000,-12.000000
1306609.099554,1.000000,19.000000,18.000000,-11.000000,-1.000000,4.000000,0.000000,-10.000000
1306609.099566,-2.000000,0.000000,54.000000,1.000000,-4.000000,-6.000000,-5.000000,6.000000
1306609.114549,-4.000000,-24.000000,50.000000,-29.000000,-3.000000,-8.000000,1.000000,2.000000
1306609.114562,-16.000000,-9.000000,-9.000000,17.000000,-4.000000,-2.000000,-13.000000,-18.000000
1306609.137046,-1.000000,11.000000,2.000000,10.000000,-4.000000,0.000000,-1.000000,-5.000000
1306609.137079,4.000000,-2.000000,-11.000000,-53.000000,3.000000,3.000000,4.000000,17.000000
1306609.137409,-10.000000,-6.000000,63.000000,16.000000,3.000000,-5.000000,-4.000000,-6.000000
1306609.137433,-3.000000,-3.000000,-101.000000,37.000000,5.000000,-7.000000,0.000000,-6.000000
1306609.138120,0.000000,1.000000,35.000000,-27.000000,4.000000,7.000000,27.000000,14.000000
1306609.138136,17.000000,3.000000,-4.000000,-50.000000,-20.000000,0.000000,2.000000,18.000000
1306609.138550,-12.000000,-8.000000,11.000000,-11.000000,12.000000,-5.000000,-11.000000,-16.000000
1306609.138576,1.000000,13.000000,13.000000,47.000000,22.000000,12.000000,12.000000,11.000000
1306609.139178,-3.000000,4.000000,-8.000000,-23.000000,13.000000,-2.000000,-3.000000,-7.000000
1306609.139187,-9.000000,-7.000000,-2.000000,-20.000000,-42.000000,-6.000000,-15.000000,-17.000000
1306609.139972,-13.000000,-16.000000,-119.000000,-13.000000,-19.000000,-6.000000,7.000000,-15.000000
1306609.140048,17.000000,-9.000000,30.000000,12.000000,5.000000,3.000000,-17.000000,9.000000
1306609.152095,7.000000,2.000000,18.000000,-50.000000,-5.000000,-3.000000,15.000000,10.000000
1306609.152133,-7.000000,2.000000,-7.000000,17.000000,7.000000,1.000000,-7.000000,-3.000000
1306609.159292,-9.000000,-6.000000,7.000000,-56.000000,-29.000000,-8.000000,-13.000000,-13.000000
1306609.159302,-10.000000,-8.000000,6.000000,2.000000,17.000000,8.000000,6.000000,-4.000000
1306609.166766,-2.000000,1.000000,-8.000000,-13.000000,27.000000,5.000000,3.000000,-7.000000
1306609.166774,-11.000000,-20.000000,-75.000000,-44.000000,-35.000000,-11.000000,-11.000000,4.000000
1306609.174732,-9.000000,-1.000000,45.000000,-27.000000,-8.000000,-10.000000,-8.000000,-1.000000
1306609.174776,5.000000,10.000000,-95.000000,22.000000,-12.000000,-2.000000,5.000000,9.000000
1306609.182791,7.000000,-2.000000,-1.000000,28.000000,39.000000,8.000000,5.000000,6.000000
1306609.182809,-8.000000,-3.000000,34.000000,47.000000,8.000000,3.000000,-7.000000,-12.000000
1306609.196977,-3.000000,4.000000,30.000000,0.000000,-5.000000,-2.000000,-1.000000,-8.000000
1306609.196991,3.000000,-4.000000,2.000000,-39.000000,-7.000000,1.000000,3.000000,7.000000
1306609.212227,2.000000,-4.000000,18.000000,-22.000000,4.000000,-1.000000,0.000000,0.000000
1306609.212265,-4.000000,-3.000000,-128.000000,-18.000000,1.000000,-6.000000,-17.000000,-13.000000
1306609.212861,13.000000,8.000000,127.000000,23.000000,-11.000000,1.000000,20.000000,15.000000
1306609.212872,-9.000000,-15.000000,-117.000000,-35.000000,21.000000,-4.000000,-18.000000,-12.000000
1306609.234542,-15.000000,-1.000000,75.000000,55.000000,-11.000000,-12.000000,-14.000000,-10.000000
1306609.234558,13.000000,-1.000000,-65.000000,-19.000000,-21.000000,5.000000,12.000000,19.000000
1306609.257487,0.000000,-5.000000,-9.000000,10.000000,9.000000,1.000000,-6.000000,-4.000000
1306609.257538,6.000000,-3.000000,3.000000,-12.000000,8.000000,-5.000000,-4.000000,-3.000000
1306609.279792,-17.000000,-12.000000,77.000000,-15.000000,-46.000000,-13.000000,-3.000000,-2.000000
1306609.279841,3.000000,17.000000,-105.000000,44.000000,24.000000,8.000000,-4.000000,0.000000
1306609.294701,-25.000000,-30.000000,44.000000,-33.000000,-31.000000,-13.000000,-12.000000,-25.000000
1306609.294834,-16.000000,-3.000000,10.000000,-19.000000,-16.000000,2.000000,-5.000000,-1.000000
1306609.295419,8.000000,6.000000,20.000000,-60.000000,-20.000000,-7.000000,9.000000,6.000000
1306609.295427,4.000000,11.000000,-24.000000,-16.000000,16.000000,-2.000000,-8.000000,4.000000
1306609.296040,5.000000,4.000000,-61.000000,64.000000,0.000000,1.000000,-5.000000,-2.000000
1306609.296048,-28.000000,-17.000000,78.000000,-21.000000,-14.000000,-10.000000,-4.000000,-20.000000
1306609.297906,42.000000,28.000000,14.000000,49.000000,42.000000,21.000000,15.000000,33.000000
1306609.297982,-10.000000,-19.000000,-26.000000,-40.000000,4.000000,-3.000000,12.000000,-8.000000
1306609.298557,-10.000000,1.000000,46.000000,-33.000000,-14.000000,1.000000,-21.000000,-11.000000
1306609.298629,2.000000,-4.000000,-2.000000,-67.000000,-14.000000,-1.000000,1.000000,3.000000
1306609.317936,8.000000,12.000000,1.000000,44.000000,-7.000000,2.000000,16.000000,-2.000000
1306609.317974,-4.000000,-4.000000,-48.000000,-17.000000,6.000000,3.000000,-18.000000,0.000000
1306609.318427,6.000000,7.000000,-80.000000,-39.000000,-17.000000,-9.000000,3.000000,2.000000
1306609.318436,-15.000000,-6.000000,-25.000000,51.000000,-23.000000,2.000000,-5.000000,-9.000000
1306609.332783,10.000000,9.000000,85.000000,52.000000,28.000000,6.000000,9.000000,-1.000000
1306609.332832,-6.000000,-18.000000,-21.000000,-54.000000,-18.000000,-3.000000,-5.000000,7.000000
1306609.333293,-3.000000,0.000000,-15.000000,-40.000000,-15.000000,1.000000,-2.000000,-10.000000
1306609.333346,-13.000000,-7.000000,-5.000000,101.000000,11.000000,-3.000000,7.000000,-7.000000
1306609.369660,7.000000,7.000000,-10.000000,-54.000000,60.000000,9.000000,1.000000,4.000000
1306609.369740,-7.000000,-8.000000,-3.000000,28.000000,-9.000000,-10.000000,-17.000000,0.000000
1306609.376910,13.000000,8.000000,-107.000000,-51.000000,-21.000000,2.000000,13.000000,-4.000000
1306609.376924,-5.000000,-1.000000,-56.000000,48.000000,57.000000,0.000000,-11.000000,-6.000000
1306609.399649,1.000000,2.000000,115.000000,1.000000,-11.000000,-1.000000,0.000000,-1.000000
1306609.399697,-5.000000,-8.000000,-28.000000,-97.000000,-33.000000,-9.000000,2.000000,-12.000000
1306609.406934,7.000000,11.000000,38.000000,88.000000,23.000000,1.000000,4.000000,16.000000
1306609.406964,20.000000,-4.000000,-15.000000,-3.000000,-5.000000,-1.000000,-3.000000,9.000000
1306609.415069,-1.000000,6.000000,2.000000,70.000000,19.000000,8.000000,4.000000,0.000000
1306609.415131,-9.000000,-4.000000,44.000000,-53.000000,-24.000000,-9.000000,-5.000000,-11.000000
1306609.415583,-21.000000,-9.000000,-61.000000,22.000000,0.000000,-7.000000,-30.000000,-24.000000
1306609.415598,12.000000,-5.000000,74.000000,-17.000000,-3.000000,6.000000,27.000000,3.000000
1306609.417105,4.000000,12.000000,127.000000,69.000000,25.000000,10.000000,10.000000,25.000000
1306609.417141,-9.000000,-9.000000,-106.000000,-17.000000,5.000000,3.000000,-6.000000,-5.000000
1306609.417898,5.000000,6.000000,20.000000,9.000000,-7.000000,-8.000000,12.000000,6.000000
1306609.417921,-7.000000,-12.000000,15.000000,-58.000000,-10.000000,-8.000000,-12.000000,-11.000000
1306609.430246,-5.000000,8.000000,33.000000,96.000000,39.000000,8.000000,-6.000000,0.000000
1306609.430256,6.000000,-2.000000,-115.000000,-69.000000,-44.000000,-9.000000,7.000000,-5.000000
1306609.437409,-14.000000,-22.000000,-30.000000,-12.000000,-18.000000,-16.000000,-23.000000,-12.000000
1306609.437436,-33.000000,-16.000000,-5.000000,-33.000000,-37.000000,-1.000000,7.000000,-16.000000
1306609.452748,44.000000,28.000000,17.000000,12.000000,14.000000,11.000000,12.000000,25.000000
1306609.452783,4.000000,2.000000,36.000000,9.000000,10.000000,0.000000,-1.000000,15.000000
1306609.453170,-4.000000,-11.000000,-20.000000,-38.000000,-25.000000,-1.000000,17.000000,6.000000
1306609.453180,-12.000000,-11.000000,31.000000,52.000000,12.000000,-1.000000,-7.000000,-3.000000
1306609.482278,-7.000000,-6.000000,-43.000000,-7.000000,-10.000000,0.000000,-5.000000,-4.000000
1306609.482305,-3.000000,7.000000,41.000000,20.000000,11.000000,-3.000000,-16.000000,-13.000000
1306609.497648,-5.000000,-6.000000,19.000000,-12.000000,-10.000000,0.000000,-1.000000,1.000000
1306609.497708,3.000000,-1.000000,-39.000000,-79.000000,-23.000000,-5.000000,3.000000,-5.000000
1306609.535018,-12.000000,-6.000000,62.000000,32.000000,-23.000000,-3.000000,-3.000000,-4.000000
1306609.535033,-7.000000,-9.000000,-37.000000,-17.000000,-20.000000,-13.000000,-11.000000,-15.000000
1306609.535652,7.000000,6.000000,-8.000000,-12.000000,4.000000,-1.000000,3.000000,7.000000
1306609.535663,-9.000000,-19.000000,-51.000000,-57.000000,-30.000000,-11.000000,-2.000000,-5.000000
1306609.537029,-5.000000,-7.000000,-46.000000,-26.000000,-9.000000,-3.000000,-4.000000,-7.000000
1306609.537045,-2.000000,-2.000000,127.000000,63.000000,6.000000,2.000000,10.000000,-1.000000
1306609.537512,-22.000000,-5.000000,-62.000000,-42.000000,-20.000000,-1.000000,-23.000000,-11.000000
1306609.537524,48.000000,33.000000,127.000000,26.000000,50.000000,20.000000,15.000000,18.000000
1306609.550204,-4.000000,-8.000000,-7.000000,-35.000000,-22.000000,-2.000000,9.000000,-3.000000
1306609.550224,1.000000,10.000000,89.000000,15.000000,47.000000,8.000000,0.000000,-4.000000
1306609.556853,10.000000,-1.000000,-52.000000,6.000000,-15.000000,-8.000000,5.000000,7.000000
1306609.556868,8.000000,9.000000,-27.000000,-49.000000,-15.000000,2.000000,-1.000000,10.000000
1306609.571882,3.000000,1.000000,73.000000,-20.000000,-4.000000,-5.000000,-4.000000,-4.000000
1306609.571892,-15.000000,-9.000000,-14.000000,7.000000,-3.000000,-3.000000,-9.000000,-17.000000
1306609.579683,-3.000000,-6.000000,57.000000,-3.000000,-13.000000,3.000000,9.000000,3.000000
1306609.579704,56.000000,34.000000,-37.000000,127.000000,62.000000,21.000000,35.000000,59.000000
1306609.594547,-22.000000,-29.000000,-47.000000,-40.000000,-16.000000,-14.000000,-9.000000,-7.000000
1306609.594559,-1.000000,-5.000000,-81.000000,-69.000000,-23.000000,-8.000000,-16.000000,-14.000000
1306609.609705,-6.000000,3.000000,-54.000000,10.000000,-7.000000,2.000000,2.000000,-3.000000
1306609.609715,-7.000000,-5.000000,18.000000,1.000000,-4.000000,-6.000000,-3.000000,-6.000000
1306609.632234,-7.000000,-11.000000,63.000000,-10.000000,-20.000000,-10.000000,-9.000000,-6.000000
1306609.632264,-13.000000,-15.000000,-43.000000,-32.000000,-30.000000,-9.000000,1.000000,-7.000000
1306609.647076,7.000000,15.000000,96.000000,105.000000,26.000000,8.000000,4.000000,1.000000
1306609.647095,2.000000,-3.000000,-101.000000,-7.000000,23.000000,7.000000,4.000000,4.000000
1306609.648352,-10.000000,1.000000,-85.000000,5.000000,0.000000,0.000000,-10.000000,-4.000000
1306609.648366,-20.000000,0.000000,47.000000,-64.000000,-15.000000,-7.000000,-4.000000,-18.000000
1306609.648866,0.000000,-1.000000,16.000000,49.000000,-21.000000,4.000000,-3.000000,1.000000
1306609.648883,29.000000,6.000000,-49.000000,-3.000000,6.000000,-10.000000,6.000000,24.000000
1306609.650319,-3.000000,-20.000000,125.000000,52.000000,-8.000000,-4.000000,7.000000,10.000000
1306609.650331,-23.000000,-19.000000,-55.000000,-7.000000,-13.000000,-9.000000,-11.000000,-21.000000
1306609.654388,22.000000,15.000000,-5.000000,4.000000,-33.000000,-3.000000,13.000000,12.000000
1306609.654399,-12.000000,-3.000000,13.000000,-47.000000,1.000000,0.000000,-22.000000,-9.000000
1306609.670274,6.000000,10.000000,-111.000000,69.000000,-13.000000,-2.000000,-5.000000,-3.000000
1306609.670308,-33.000000,-9.000000,34.000000,-38.000000,18.000000,3.000000,2.000000,-5.000000
1306609.677243,29.000000,-8.000000,16.000000,-105.000000,-16.000000,2.000000,27.000000,21.000000
1306609.677287,6.000000,15.000000,-30.000000,127.000000,56.000000,10.000000,-4.000000,5.000000
1306609.707424,-1.000000,-4.000000,-42.000000,-27.000000,-7.000000,-16.000000,-30.000000,-11.000000
1306609.707444,3.000000,-7.000000,127.000000,-70.000000,-31.000000,-12.000000,6.000000,4.000000
1306609.714643,-4.000000,2.000000,-119.000000,21.000000,-9.000000,4.000000,12.000000,6.000000
1306609.714656,9.000000,2.000000,31.000000,-60.000000,-6.000000,1.000000,6.000000,15.000000
1306609.729641,-13.000000,-5.000000,43.000000,93.000000,46.000000,5.000000,-16.000000,-20.000000
1306609.729675,-15.000000,2.000000,-17.000000,52.000000,36.000000,6.000000,-6.000000,-23.000000
1306609.752284,7.000000,5.000000,-2.000000,-7.000000,-44.000000,-9.000000,3.000000,19.000000
1306609.752304,-10.000000,-7.000000,19.000000,58.000000,15.000000,-4.000000,-1.000000,-12.000000
1306609.774704,20.000000,-16.000000,15.000000,-28.000000,-7.000000,-2.000000,2.000000,13.000000
1306609.774722,-5.000000,11.000000,-57.000000,-16.000000,-10.000000,6.000000,-9.000000,-12.000000
1306609.789953,-9.000000,-11.000000,70.000000,4.000000,-4.000000,1.000000,6.000000,-5.000000
1306609.790023,-11.000000,-4.000000,-13.000000,-19.000000,-23.000000,-11.000000,-15.000000,-12.000000
1306609.791012,10.000000,5.000000,8.000000,-20.000000,-16.000000,-1.000000,6.000000,11.000000
1306609.791120,1.000000,8.000000,36.000000,8.000000,2.000000,2.000000,0.000000,2.000000
1306609.791364,-19.000000,-3.000000,46.000000,-46.000000,46.000000,6.000000,-30.000000,-27.000000
1306609.791381,-24.000000,-20.000000,-128.000000,70.000000,-80.000000,-6.000000,6.000000,-14.000000
1306609.791898,51.000000,-13.000000,26.000000,127.000000,109.000000,34.000000,49.000000,67.000000
1306609.791912,-1.000000,2.000000,38.000000,-5.000000,-12.000000,-7.000000,3.000000,-7.000000
1306609.793470,-13.000000,-13.000000,7.000000,0.000000,-1.000000,-3.000000,6.000000,-11.000000
1306609.793480,2.000000,0.000000,19.000000,-15.000000,-13.000000,-3.000000,-14.000000,-6.000000
1306609.804418,-6.000000,0.000000,8.000000,-70.000000,10.000000,4.000000,-4.000000,4.000000
1306609.804448,31.000000,26.000000,127.000000,127.000000,80.000000,28.000000,43.000000,37.000000
1306609.812784,2.000000,-6.000000,-57.000000,-43.000000,-20.000000,-13.000000,-12.000000,-6.000000
1306609.812802,-11.000000,-5.000000,-1.000000,-53.000000,-9.000000,-4.000000,-12.000000,-13.000000
1306609.827260,-21.000000,2.000000,10.000000,-10.000000,26.000000,-4.000000,-17.000000,-22.000000
1306609.827282,9.000000,0.000000,-13.000000,-6.000000,-51.000000,-1.000000,6.000000,-2.000000
1306609.849558,52.000000,10.000000,82.000000,53.000000,75.000000,24.000000,31.000000,51.000000
1306609.849579,-17.000000,-7.000000,-59.000000,-41.000000,-11.000000,-14.000000,-12.000000,-10.000000
1306609.857371,-12.000000,-6.000000,-85.000000,-33.000000,-5.000000,-1.000000,-12.000000,-20.000000
1306609.857416,4.000000,8.000000,11.000000,14.000000,-33.000000,-7.000000,-10.000000,-5.000000
1306609.879299,3.000000,4.000000,10.000000,35.000000,17.000000,8.000000,17.000000,11.000000
1306609.879309,8.000000,6.000000,116.000000,50.000000,0.000000,-8.000000,7.000000,12.000000
1306609.879740,0.000000,-3.000000,-120.000000,-3.000000,-5.000000,0.000000,-4.000000,-1.000000
1306609.879748,-7.000000,-8.000000,65.000000,21.000000,7.000000,0.000000,-13.000000,-11.000000
1306609.880993,-5.000000,-4.000000,57.000000,-32.000000,-16.000000,-9.000000,8.000000,-8.000000
1306609.881002,-3.000000,4.000000,8.000000,32.000000,-2.000000,8.000000,-12.000000,-5.000000
1306609.881653,10.000000,13.000000,-23.000000,65.000000,46.000000,7.000000,1.000000,-1.000000
1306609.881662,-2.000000,-6.000000,-20.000000,-72.000000,-6.000000,13.000000,-1.000000,6.000000
1306609.894506,13.000000,8.000000,35.000000,100.000000,53.000000,6.000000,2.000000,0.000000
1306609.894521,-28.000000,-9.000000,-84.000000,-78.000000,-46.000000,-17.000000,1.000000,-10.000000
1306609.895213,18.000000,-24.000000,96.000000,27.000000,44.000000,6.000000,7.000000,20.000000
1306609.895231,-11.000000,-13.000000,-21.000000,-46.000000,-33.000000,-16.000000,-26.000000,-27.000000
1306609.910126,-17.000000,1.000000,-33.000000,-24.000000,-22.000000,-24.000000,-24.000000,-31.000000
1306609.910154,4.000000,-8.000000,-12.000000,-49.000000,-17.000000,1.000000,32.000000,10.000000
1306609.924368,-8.000000,1.000000,-39.000000,-22.000000,2.000000,-5.000000,-17.000000,5.000000
1306609.924378,-2.000000,4.000000,13.000000,23.000000,-24.000000,-13.000000,-9.000000,-12.000000
1306609.925633,8.000000,5.000000,11.000000,-11.000000,4.000000,3.000000,4.000000,2.000000
1306609.925641,-2.000000,-3.000000,-30.000000,-23.000000,4.000000,-6.000000,-9.000000,-10.000000
1306609.947003,1.000000,-10.000000,101.000000,-73.000000,-36.000000,10.000000,14.000000,5.000000
1306609.947016,-9.000000,9.000000,-59.000000,45.000000,49.000000,11.000000,2.000000,6.000000
1306609.969727,-3.000000,-9.000000,52.000000,44.000000,0.000000,-2.000000,4.000000,8.000000
1306609.969747,3.000000,-3.000000,-100.000000,-37.000000,-1.000000,-2.000000,-4.000000,5.000000
1306609.984785,7.000000,9.000000,-8.000000,-6.000000,0.000000,-2.000000,-4.000000,-3.000000
1306609.984801,-18.000000,-5.000000,-21.000000,-6.000000,-3.000000,-8.000000,-14.000000,-22.000000
1306610.006937,0.000000,-7.000000,-11.000000,-45.000000,-17.000000,-7.000000,-11.000000,-8.000000
1306610.006948,-11.000000,-1.000000,-19.000000,10.000000,-13.000000,-2.000000,-1.000000,-3.000000
1306610.029849,12.000000,7.000000,-114.000000,11.000000,13.000000,12.000000,14.000000,13.000000
1306610.029863,-5.000000,-2.000000,-16.000000,-35.000000,1.000000,3.000000,-4.000000,-8.000000
1306610.030509,9.000000,-4.000000,-46.000000,-111.000000,-31.000000,-5.000000,-3.000000,4.000000
1306610.030521,-6.000000,14.000000,63.000000,127.000000,32.000000,9.000000,18.000000,-9.000000
1306610.031053,1.000000,7.000000,-32.000000,48.000000,20.000000,-5.000000,-22.000000,-7.000000
1306610.031062,-4.000000,-1.000000,-31.000000,-26.000000,-9.000000,1.000000,4.000000,3.000000
1306610.032389,-2.000000,-12.000000,4.000000,-35.000000,-28.000000,-11.000000,-2.000000,2.000000
1306610.032399,-9.000000,-12.000000,4.000000,13.000000,-6.000000,3.000000,2.000000,-6.000000
1306610.036931,4.000000,6.000000,-70.000000,-57.000000,-17.000000,-1.000000,12.000000,8.000000
1306610.036942,-20.000000,-3.000000,-5.000000,-69.000000,-31.000000,-12.000000,-18.000000,-14.000000
1306610.045035,-12.000000,12.000000,70.000000,17.000000,0.000000,-1.000000,-8.000000,-14.000000
1306610.045071,11.000000,-23.000000,-31.000000,-43.000000,-30.000000,-12.000000,7.000000,15.000000
1306610.067062,-19.000000,3.000000,-3.000000,-49.000000,13.000000,1.000000,-18.000000,-25.000000
1306610.067072,16.000000,6.000000,-26.000000,4.000000,1.000000,19.000000,25.000000,23.000000
1306610.089503,-3.000000,-12.000000,-33.000000,91.000000,32.000000,1.000000,2.000000,12.000000
1306610.089515,1.000000,-3.000000,25.000000,-6.000000,0.000000,-2.000000,-3.000000,-14.000000
1306610.104630,-5.000000,3.000000,-56.000000,-36.000000,-5.000000,-7.000000,-37.000000,-14.000000
1306610.104640,-5.000000,2.000000,-65.000000,-40.000000,10.000000,6.000000,26.000000,-3.000000
1306610.112492,-9.000000,-6.000000,51.000000,18.000000,-18.000000,-1.000000,-12.000000,-5.000000
1306610.112502,-3.000000,-1.000000,-14.000000,-9.000000,-13.000000,-6.000000,-9.000000,-3.000000
1306610.112984,10.000000,5.000000,-52.000000,8.000000,18.000000,6.000000,8.000000,6.000000
1306610.112992,3.000000,3.000000,20.000000,76.000000,89.000000,10.000000,-12.000000,-1.000000
1306610.114794,-15.000000,-11.000000,-11.000000,55.000000,-33.000000,-12.000000,-4.000000,-18.000000
1306610.114806,12.000000,3.000000,23.000000,-19.000000,-7.000000,-1.000000,13.000000,13.000000
1306610.126985,-4.000000,12.000000,115.000000,-12.000000,-10.000000,-4.000000,0.000000,-4.000000
1306610.126997,12.000000,-13.000000,-128.000000,-36.000000,-10.000000,-4.000000,-5.000000,5.000000
1306610.128327,-9.000000,2.000000,13.000000,-20.000000,10.000000,4.000000,-4.000000,-12.000000
1306610.128389,20.000000,18.000000,79.000000,116.000000,42.000000,15.000000,12.000000,11.000000
1306610.149346,-31.000000,-19.000000,-35.000000,-104.000000,-57.000000,-21.000000,-1.000000,-12.000000
1306610.149367,13.000000,22.000000,57.000000,127.000000,81.000000,27.000000,-8.000000,8.000000
1306610.150623,6.000000,16.000000,38.000000,-6.000000,9.000000,8.000000,15.000000,-3.000000
1306610.150632,-16.000000,-11.000000,-60.000000,-47.000000,-15.000000,-4.000000,-2.000000,3.000000
1306610.156828,35.000000,15.000000,4.000000,-11.000000,4.000000,4.000000,9.000000,19.000000
1306610.156839,9.000000,4.000000,-6.000000,16.000000,14.000000,2.000000,-10.000000,-2.000000
1306610.165249,-12.000000,-9.000000,-128.000000,24.000000,-21.000000,-13.000000,-4.000000,-15.000000
1306610.165260,-11.000000,-14.000000,16.000000,-60.000000,-6.000000,3.000000,-5.000000,-3.000000
1306610.201869,2.000000,-5.000000,18.000000,27.000000,26.000000,-8.000000,-6.000000,6.000000
1306610.201898,12.000000,12.000000,0.000000,98.000000,-10.000000,-5.000000,4.000000,3.000000
1306610.209995,-17.000000,-14.000000,31.000000,-29.000000,3.000000,5.000000,7.000000,0.000000
1306610.210005,-2.000000,2.000000,-29.000000,-1.000000,24.000000,-6.000000,2.000000,2.000000
1306610.210535,6.000000,9.000000,20.000000,44.000000,-11.000000,-3.000000,-6.000000,-2.000000
1306610.210546,-2.000000,9.000000,23.000000,-10.000000,-8.000000,-6.000000,-11.000000,-6.000000
1306610.212468,-7.000000,-17.000000,-20.000000,-2.000000,-31.000000,1.000000,5.000000,4.000000
1306610.212480,-4.000000,-11.000000,-3.000000,4.000000,-4.000000,-2.000000,-3.000000,0.000000
1306610.224568,-22.000000,-6.000000,-12.000000,-50.000000,-3.000000,-2.000000,-6.000000,-12.000000
1306610.224675,-2.000000,-8.000000,2.000000,16.000000,-10.000000,0.000000,5.000000,-4.000000
1306610.225746,-19.000000,-5.000000,-14.000000,3.000000,-11.000000,-5.000000,-11.000000,-11.000000
1306610.225759,38.000000,5.000000,-30.000000,-115.000000,-57.000000,6.000000,16.000000,22.000000
1306610.247123,18.000000,3.000000,127.000000,53.000000,27.000000,-2.000000,4.000000,9.000000
1306610.247139,-14.000000,-12.000000,-128.000000,-128.000000,-32.000000,-19.000000,-1.000000,-1.000000
1306610.248342,-2.000000,3.000000,-19.000000,101.000000,39.000000,24.000000,2.000000,-1.000000
1306610.248351,-9.000000,-14.000000,59.000000,-14.000000,-8.000000,-13.000000,-16.000000,-19.000000
1306610.261954,-4.000000,10.000000,35.000000,-20.000000,2.000000,2.000000,-1.000000,5.000000
1306610.261980,13.000000,7.000000,-8.000000,-22.000000,-30.000000,-7.000000,-1.000000,-1.000000
1306610.269475,-7.000000,1.000000,32.000000,13.000000,-1.000000,-8.000000,-1.000000,1.000000
1306610.269486,-11.000000,-1.000000,-23.000000,-6.000000,11.000000,-7.000000,-16.000000,-15.000000
1306610.276756,-2.000000,1.000000,51.000000,-62.000000,-30.000000,1.000000,6.000000,-7.000000
1306610.276768,0.000000,-15.000000,-12.000000,114.000000,30.000000,0.000000,-3.000000,0.000000
1306610.284439,-3.000000,-2.000000,-4.000000,-56.000000,-19.000000,-13.000000,1.000000,4.000000
1306610.284468,-2.000000,-6.000000,-32.000000,47.000000,13.000000,0.000000,-17.000000,-8.000000
1306610.307146,-12.000000,8.000000,20.000000,-1.000000,-16.000000,0.000000,8.000000,-11.000000
1306610.307158,8.000000,3.000000,64.000000,0.000000,-33.000000,-20.000000,-27.000000,-2.000000
1306610.322426,-8.000000,-15.000000,-25.000000,29.000000,44.000000,15.000000,30.000000,16.000000
1306610.322467,-15.000000,6.000000,4.000000,-47.000000,-28.000000,-6.000000,-7.000000,-10.000000
1306610.322936,-8.000000,-5.000000,33.000000,-79.000000,-59.000000,-20.000000,-11.000000,-11.000000
1306610.322950,9.000000,10.000000,-49.000000,48.000000,1.000000,10.000000,3.000000,15.000000
1306610.329242,6.000000,3.000000,86.000000,17.000000,26.000000,-3.000000,-10.000000,-13.000000
1306610.329278,-24.000000,-2.000000,-33.000000,-120.000000,4.000000,-9.000000,-16.000000,-23.000000
1306610.344603,27.000000,2.000000,68.000000,127.000000,16.000000,11.000000,21.000000,19.000000
1306610.344736,22.000000,9.000000,-85.000000,-1.000000,-6.000000,-9.000000,-12.000000,3.000000
1306610.382222,-17.000000,3.000000,4.000000,-27.000000,17.000000,4.000000,3.000000,-2.000000
1306610.382296,-13.000000,-14.000000,31.000000,-29.000000,-20.000000,-11.000000,-6.000000,-8.000000
1306610.389773,0.000000,-1.000000,-31.000000,-2.000000,8.000000,0.000000,-16.000000,-12.000000
1306610.389798,-18.000000,-4.000000,-22.000000,-29.000000,-13.000000,-3.000000,9.000000,-6.000000
1306610.426956,26.000000,5.000000,15.000000,-5.000000,-14.000000,-8.000000,0.000000,12.000000
1306610.426972,-14.000000,-11.000000,-24.000000,-22.000000,-25.000000,-24.000000,-21.000000,-20.000000
1306610.427278,21.000000,-3.000000,78.000000,2.000000,-11.000000,4.000000,11.000000,21.000000
1306610.427295,-6.000000,1.000000,-43.000000,51.000000,37.000000,5.000000,-5.000000,0.000000
1306610.428436,1.000000,-1.000000,-41.000000,-51.000000,-8.000000,-10.000000,-5.000000,-7.000000
1306610.428445,-7.000000,13.000000,127.000000,48.000000,9.000000,15.000000,20.000000,2.000000
1306610.429975,-26.000000,-8.000000,0.000000,-55.000000,-51.000000,-16.000000,1.000000,-15.000000
1306610.429983,31.000000,17.000000,-113.000000,11.000000,20.000000,16.000000,4.000000,24.000000
1306610.442617,-5.000000,-17.000000,-39.000000,24.000000,-13.000000,-7.000000,-11.000000,-11.000000
1306610.442645,-4.000000,1.000000,-8.000000,-33.000000,25.000000,9.000000,3.000000,-5.000000
1306610.464567,10.000000,6.000000,30.000000,103.000000,6.000000,8.000000,-1.000000,0.000000
1306610.464577,1.000000,-7.000000,-126.000000,-54.000000,2.000000,0.000000,2.000000,8.000000
1306610.465495,-8.000000,0.000000,94.000000,79.000000,27.000000,4.000000,-2.000000,-1.000000
1306610.465518,-7.000000,4.000000,-15.000000,-10.000000,-34.000000,0.000000,10.000000,-7.000000
1306610.466398,-1.000000,-2.000000,3.000000,-1.000000,21.000000,-2.000000,-2.000000,-3.000000
1306610.466417,28.000000,19.000000,36.000000,12.000000,2.000000,1.000000,4.000000,15.000000
1306610.480119,-26.000000,-38.000000,-54.000000,-41.000000,-16.000000,-4.000000,-8.000000,-6.000000
1306610.480130,-9.000000,2.000000,13.000000,-16.000000,2.000000,-5.000000,-11.000000,-19.000000
1306610.487128,12.000000,14.000000,-9.000000,5.000000,30.000000,5.000000,7.000000,10.000000
1306610.487139,-2.000000,-6.000000,28.000000,34.000000,-23.000000,-4.000000,-3.000000,0.000000
1306610.502699,-8.000000,-3.000000,14.000000,-43.000000,-8.000000,-7.000000,-12.000000,-5.000000
1306610.502733,2.000000,-22.000000,-99.000000,-69.000000,-43.000000,-8.000000,3.000000,0.000000
1306610.524397,-2.000000,0.000000,-14.000000,36.000000,16.000000,0.000000,8.000000,-4.000000
1306610.524408,-5.000000,5.000000,30.000000,3.000000,-41.000000,-16.000000,-12.000000,5.000000
1306610.547008,-9.000000,-16.000000,24.000000,-39.000000,-16.000000,-10.000000,-19.000000,-13.000000
1306610.547030,12.000000,2.000000,-16.000000,-48.000000,-30.000000,-7.000000,-4.000000,-4.000000
1306610.554534,-16.000000,-27.000000,-13.000000,-12.000000,-32.000000,-8.000000,0.000000,-5.000000
1306610.554582,11.000000,11.000000,5.000000,-7.000000,5.000000,-3.000000,-2.000000,3.000000
1306610.562348,0.000000,-18.000000,6.000000,-17.000000,3.000000,-6.000000,-4.000000,9.000000
1306610.562357,-20.000000,-4.000000,19.000000,-55.000000,-22.000000,-1.000000,-20.000000,-31.000000
1306610.562810,4.000000,2.000000,-33.000000,67.000000,29.000000,9.000000,16.000000,7.000000
1306610.562819,-1.000000,0.000000,-12.000000,-1.000000,16.000000,2.000000,9.000000,9.000000
1306610.564523,-3.000000,0.000000,41.000000,-9.000000,6.000000,-7.000000,-11.000000,-12.000000
1306610.564563,-33.000000,-13.000000,-71.000000,-99.000000,-25.000000,-12.000000,-15.000000,-18.000000
1306610.585062,30.000000,2.000000,-4.000000,4.000000,-17.000000,11.000000,15.000000,17.000000
1306610.585085,13.000000,14.000000,85.000000,87.000000,56.000000,11.000000,0.000000,-1.000000
1306610.586270,-20.000000,-19.000000,-34.000000,-29.000000,-18.000000,-12.000000,-9.000000,-11.000000
1306610.586278,0.000000,-6.000000,-41.000000,-128.000000,-33.000000,-7.000000,-1.000000,-7.000000
1306610.599444,45.000000,33.000000,-13.000000,127.000000,45.000000,24.000000,23.000000,33.000000
1306610.599479,-16.000000,-36.000000,19.000000,-24.000000,-14.000000,-17.000000,-15.000000,-15.000000
1306610.600776,-3.000000,10.000000,-37.000000,-47.000000,-14.000000,5.000000,11.000000,-2.000000
1306610.600808,-3.000000,1.000000,17.000000,-1.000000,-6.000000,-10.000000,-3.000000,-3.000000
1306610.606961,-13.000000,-10.000000,24.000000,-1.000000,-12.000000,-4.000000,-15.000000,-13.000000
1306610.606976,-6.000000,-3.000000,-71.000000,-11.000000,5.000000,7.000000,9.000000,22.000000
1306610.622432,43.000000,2.000000,-117.000000,-75.000000,1.000000,6.000000,14.000000,15.000000
1306610.622460,-4.000000,12.000000,29.000000,127.000000,35.000000,14.000000,21.000000,12.000000
1306610.644587,-14.000000,-1.000000,-29.000000,10.000000,17.000000,2.000000,-12.000000,-12.000000
1306610.644596,-4.000000,3.000000,40.000000,48.000000,-10.000000,-11.000000,-10.000000,-12.000000
1306610.667034,5.000000,1.000000,4.000000,-40.000000,-15.000000,5.000000,3.000000,4.000000
1306610.667052,3.000000,-10.000000,-24.000000,-108.000000,-39.000000,-8.000000,-10.000000,1.000000
1306610.682419,-2.000000,16.000000,20.000000,89.000000,62.000000,19.000000,-5.000000,-9.000000
1306610.682438,0.000000,-1.000000,16.000000,19.000000,8.000000,0.000000,3.000000,10.000000
1306610.683378,-19.000000,-16.000000,-7.000000,-25.000000,4.000000,-5.000000,-13.000000,-6.000000
1306610.683409,12.000000,1.000000,-34.000000,-48.000000,-33.000000,-3.000000,4.000000,9.000000
1306610.683906,1.000000,-6.000000,38.000000,-21.000000,9.000000,10.000000,10.000000,11.000000
1306610.683918,-5.000000,12.000000,21.000000,105.000000,51.000000,5.000000,-7.000000,-11.000000
1306610.685159,-1.000000,0.000000,-16.000000,-24.000000,-14.000000,-5.000000,-5.000000,-4.000000
1306610.685168,-9.000000,-4.000000,-50.000000,3.000000,-9.000000,-7.000000,-9.000000,-10.000000
1306610.704579,-6.000000,-9.000000,49.000000,-2.000000,-7.000000,-4.000000,2.000000,4.000000
1306610.704600,2.000000,2.000000,22.000000,-20.000000,-14.000000,-5.000000,0.000000,3.000000
1306610.705738,-3.000000,0.000000,34.000000,25.000000,13.000000,1.000000,-7.000000,-1.000000
1306610.705757,-5.000000,-6.000000,20.000000,-31.000000,-12.000000,-2.000000,-6.000000,-7.000000
1306610.719391,-2.000000,-3.000000,-60.000000,83.000000,3.000000,-2.000000,6.000000,3.000000
1306610.719450,-19.000000,-8.000000,-24.000000,-87.000000,-17.000000,-7.000000,-11.000000,-14.000000
1306610.720599,19.000000,20.000000,41.000000,90.000000,49.000000,13.000000,7.000000,12.000000
1306610.720608,11.000000,-3.000000,-9.000000,53.000000,23.000000,1.000000,18.000000,17.000000
1306610.741806,5.000000,19.000000,42.000000,-12.000000,13.000000,2.000000,-14.000000,-8.000000
1306610.741852,-22.000000,-35.000000,21.000000,-29.000000,-15.000000,-1.000000,14.000000,7.000000
1306610.743259,18.000000,11.000000,-24.000000,-76.000000,-29.000000,-7.000000,-7.000000,0.000000
1306610.743277,-10.000000,-3.000000,40.000000,58.000000,18.000000,0.000000,-16.000000,-15.000000
1306610.756890,-24.000000,-22.000000,-51.000000,-39.000000,-39.000000,-17.000000,-6.000000,-21.000000
1306610.756919,19.000000,-3.000000,-19.000000,-20.000000,-25.000000,-8.000000,7.000000,20.000000
1306610.772186,5.000000,5.000000,82.000000,-25.000000,-7.000000,1.000000,13.000000,0.000000
1306610.772197,-24.000000,-26.000000,-103.000000,-75.000000,-11.000000,-10.000000,-27.000000,-6.000000
1306610.779526,-5.000000,1.000000,42.000000,75.000000,-19.000000,-7.000000,18.000000,-2.000000
1306610.779537,16.000000,13.000000,-53.000000,61.000000,22.000000,-1.000000,-8.000000,5.000000
1306610.816871,-1.000000,-7.000000,-20.000000,-25.000000,-14.000000,-8.000000,15.000000,9.000000
1306610.816882,1.000000,10.000000,33.000000,-36.000000,-17.000000,-4.000000,-9.000000,-8.000000
1306610.817448,-19.000000,-14.000000,-12.000000,9.000000,44.000000,7.000000,-7.000000,-18.000000
1306610.817457,18.000000,19.000000,26.000000,28.000000,11.000000,8.000000,16.000000,9.000000
1306610.818504,-20.000000,4.000000,-28.000000,-26.000000,-3.000000,-12.000000,-6.000000,-3.000000
1306610.818512,-1.000000,-6.000000,5.000000,-13.000000,-12.000000,-6.000000,-10.000000,-7.000000
1306610.819090,-8.000000,-1.000000,-19.000000,22.000000,-8.000000,0.000000,-10.000000,-11.000000
1306610.819098,-5.000000,-10.000000,3.000000,-17.000000,-3.000000,1.000000,7.000000,0.000000
1306610.821126,18.000000,15.000000,-52.000000,25.000000,50.000000,2.000000,-9.000000,4.000000
1306610.821137,-11.000000,-3.000000,24.000000,48.000000,-39.000000,5.000000,3.000000,-5.000000
1306610.839503,10.000000,3.000000,18.000000,50.000000,23.000000,2.000000,9.000000,13.000000
1306610.839516,-7.000000,-6.000000,-48.000000,-44.000000,-10.000000,-6.000000,-18.000000,-11.000000
1306610.862489,-7.000000,-4.000000,30.000000,-42.000000,-7.000000,-2.000000,1.000000,-9.000000
1306610.862499,-9.000000,10.000000,78.000000,13.000000,0.000000,6.000000,-3.000000,-10.000000
1306610.863051,29.000000,23.000000,36.000000,85.000000,49.000000,17.000000,36.000000,32.000000
1306610.863059,5.000000,-18.000000,-59.000000,-32.000000,-16.000000,-20.000000,-26.000000,-4.000000
1306610.869530,-10.000000,-4.000000,57.000000,8.000000,-7.000000,-5.000000,-12.000000,-12.000000
1306610.869540,-7.000000,0.000000,-60.000000,21.000000,-4.000000,7.000000,3.000000,3.000000
1306610.876890,-4.000000,-12.000000,-16.000000,-57.000000,0.000000,-5.000000,-1.000000,-9.000000
1306610.876900,2.000000,15.000000,53.000000,100.000000,44.000000,16.000000,7.000000,1.000000
1306610.899383,0.000000,8.000000,5.000000,-22.000000,-4.000000,0.000000,-1.000000,0.000000
1306610.899392,11.000000,3.000000,63.000000,-63.000000,-3.000000,3.000000,0.000000,7.000000
1306610.907176,-5.000000,3.000000,15.000000,100.000000,50.000000,3.000000,-1.000000,-6.000000
1306610.907188,6.000000,17.000000,-31.000000,25.000000,32.000000,14.000000,7.000000,8.000000
1306610.922395,-31.000000,-35.000000,-35.000000,-45.000000,-28.000000,-16.000000,-5.000000,-9.000000
1306610.922466,0.000000,-16.000000,-30.000000,-101.000000,-39.000000,-16.000000,-16.000000,-11.000000
1306610.923046,1.000000,5.000000,13.000000,-22.000000,-19.000000,-5.000000,-2.000000,-9.000000
1306610.923055,9.000000,13.000000,44.000000,63.000000,27.000000,8.000000,-1.000000,16.000000
1306610.925259,3.000000,16.000000,76.000000,52.000000,14.000000,2.000000,11.000000,1.000000
1306610.925269,-9.000000,-13.000000,-86.000000,-19.000000,-30.000000,-9.000000,-26.000000,-10.000000
1306610.936812,20.000000,9.000000,-99.000000,-30.000000,6.000000,2.000000,7.000000,22.000000
1306610.936831,-4.000000,-9.000000,16.000000,10.000000,-4.000000,0.000000,0.000000,4.000000
1306610.938018,-8.000000,7.000000,12.000000,-17.000000,-1.000000,-7.000000,-14.000000,-15.000000
1306610.938026,-7.000000,3.000000,7.000000,1.000000,-2.000000,8.000000,4.000000,-1.000000
1306610.952128,4.000000,0.000000,-17.000000,37.000000,14.000000,1.000000,9.000000,17.000000
1306610.952139,-2.000000,-6.000000,-21.000000,13.000000,57.000000,13.000000,-1.000000,-4.000000
1306610.960165,13.000000,6.000000,34.000000,20.000000,29.000000,3.000000,0.000000,9.000000
1306610.960175,2.000000,5.000000,3.000000,-24.000000,-33.000000,-12.000000,-4.000000,-3.000000
1306610.967179,-6.000000,-4.000000,-2.000000,-19.000000,-10.000000,-1.000000,-3.000000,-1.000000
1306610.967191,-7.000000,-17.000000,59.000000,32.000000,27.000000,6.000000,2.000000,2.000000
1306610.989357,3.000000,19.000000,-81.000000,1.000000,13.000000,3.000000,-3.000000,0.000000
1306610.989368,-10.000000,-15.000000,-3.000000,3.000000,0.000000,-1.000000,-3.000000,3.000000
1306610.997215,-8.000000,-3.000000,-1.000000,-34.000000,-17.000000,-5.000000,-8.000000,-13.000000
1306610.997228,21.000000,-2.000000,-17.000000,2.000000,-13.000000,-5.000000,0.000000,3.000000
1306611.026782,-22.000000,-13.000000,-17.000000,0.000000,-1.000000,4.000000,14.000000,0.000000
1306611.026793,3.000000,-4.000000,15.000000,-20.000000,15.000000,-2.000000,-7.000000,15.000000
1306611.034466,-13.000000,-2.000000,20.000000,0.000000,-28.000000,-7.000000,-9.000000,-10.000000
1306611.034485,8.000000,3.000000,-3.000000,6.000000,-3.000000,0.000000,7.000000,8.000000
1306611.057067,-9.000000,-15.000000,-82.000000,-37.000000,-11.000000,-7.000000,-8.000000,-20.000000
1306611.057097,-28.000000,-13.000000,13.000000,-55.000000,-4.000000,-1.000000,-9.000000,-14.000000
1306611.071948,18.000000,13.000000,3.000000,127.000000,56.000000,9.000000,17.000000,21.000000
1306611.071971,-11.000000,10.000000,-85.000000,-44.000000,-13.000000,-10.000000,-13.000000,-5.000000
1306611.094753,7.000000,-25.000000,6.000000,-43.000000,-13.000000,-6.000000,6.000000,7.000000
1306611.094762,-22.000000,13.000000,101.000000,33.000000,-6.000000,-4.000000,-28.000000,-25.000000
1306611.095451,3.000000,-6.000000,-98.000000,32.000000,7.000000,14.000000,10.000000,12.000000
1306611.095459,12.000000,-1.000000,52.000000,-2.000000,-16.000000,-5.000000,-2.000000,-2.000000
1306611.096959,-3.000000,-4.000000,-16.000000,-40.000000,-33.000000,-8.000000,3.000000,-3.000000
1306611.096970,-11.000000,-8.000000,-26.000000,-48.000000,-10.000000,4.000000,2.000000,6.000000
1306611.097588,5.000000,-1.000000,-32.000000,-45.000000,0.000000,-7.000000,-7.000000,-14.000000
1306611.097596,-12.000000,5.000000,80.000000,118.000000,2.000000,9.000000,4.000000,14.000000
1306611.109801,-4.000000,-11.000000,28.000000,46.000000,26.000000,5.000000,16.000000,14.000000
1306611.109812,-26.000000,-18.000000,-25.000000,-77.000000,-35.000000,-16.000000,-18.000000,-24.000000
1306611.117344,24.000000,5.000000,-98.000000,28.000000,-31.000000,2.000000,22.000000,15.000000
1306611.117357,7.000000,3.000000,3.000000,57.000000,18.000000,1.000000,-11.000000,-3.000000
1306611.139392,-7.000000,-8.000000,-27.000000,-9.000000,2.000000,-6.000000,-11.000000,-1.000000
1306611.139402,-30.000000,-11.000000,-11.000000,-76.000000,-35.000000,-15.000000,-21.000000,-27.000000
1306611.154432,4.000000,9.000000,-32.000000,6.000000,-42.000000,10.000000,15.000000,8.000000
1306611.154442,3.000000,3.000000,34.000000,93.000000,24.000000,-4.000000,12.000000,14.000000
1306611.162342,-14.000000,-19.000000,-5.000000,-31.000000,-34.000000,-22.000000,-17.000000,-17.000000
1306611.162355,5.000000,6.000000,-5.000000,-53.000000,-16.000000,-3.000000,-1.000000,-3.000000
1306611.162891,-16.000000,-10.000000,11.000000,31.000000,-30.000000,-2.000000,-7.000000,-4.000000
1306611.162936,25.000000,-11.000000,17.000000,-7.000000,-1.000000,-11.000000,-6.000000,16.000000
1306611.164362,-15.000000,-5.000000,9.000000,24.000000,-11.000000,2.000000,-2.000000,-17.000000
1306611.164371,13.000000,9.000000,22.000000,35.000000,16.000000,9.000000,14.000000,3.000000
1306611.176846,0.000000,-8.000000,-66.000000,-61.000000,-4.000000,-1.000000,9.000000,16.000000
1306611.176856,-8.000000,-3.000000,17.000000,-27.000000,-35.000000,-1.000000,-7.000000,-5.000000
1306611.178126,-12.000000,-25.000000,-119.000000,-31.000000,13.000000,0.000000,-4.000000,-2.000000
1306611.178144,-12.000000,1.000000,9.000000,-63.000000,-14.000000,-4.000000,-12.000000,-12.000000
1306611.192154,4.000000,-5.000000,-15.000000,-39.000000,-20.000000,-1.000000,2.000000,-3.000000
1306611.192165,21.000000,18.000000,25.000000,42.000000,26.000000,4.000000,-2.000000,11.000000
1306611.200317,-8.000000,1.000000,-1.000000,-10.000000,30.000000,7.000000,20.000000,0.000000
1306611.200327,-4.000000,-8.000000,10.000000,-23.000000,-5.000000,-2.000000,-13.000000,-10.000000
1306611.214662,-2.000000,4.000000,-28.000000,-6.000000,-6.000000,-7.000000,-11.000000,-7.000000
1306611.214673,-15.000000,-2.000000,-21.000000,-12.000000,-2.000000,0.000000,-1.000000,-11.000000
1306611.236945,25.000000,5.000000,78.000000,30.000000,-8.000000,7.000000,33.000000,31.000000
1306611.236955,-5.000000,-25.000000,-95.000000,-44.000000,10.000000,1.000000,-22.000000,-8.000000
1306611.259366,-7.000000,3.000000,-12.000000,-33.000000,-34.000000,-12.000000,-11.000000,-18.000000
1306611.259395,-9.000000,6.000000,-78.000000,30.000000,-2.000000,9.000000,0.000000,5.000000
1306611.274902,16.000000,18.000000,84.000000,19.000000,51.000000,10.000000,7.000000,8.000000
1306611.274912,-27.000000,-18.000000,-30.000000,20.000000,-19.000000,-8.000000,-6.000000,-12.000000
1306611.275435,39.000000,15.000000,34.000000,18.000000,11.000000,9.000000,4.000000,19.000000
1306611.275444,-10.000000,-16.000000,-3.000000,-30.000000,0.000000,-6.000000,-19.000000,-5.000000
1306611.276744,-15.000000,-12.000000,-70.000000,-26.000000,-10.000000,-5.000000,14.000000,-13.000000
1306611.276763,-1.000000,3.000000,26.000000,8.000000,38.000000,10.000000,3.000000,4.000000
1306611.277597,-10.000000,-16.000000,3.000000,-32.000000,-24.000000,-11.000000,-6.000000,-3.000000
1306611.277615,14.000000,20.000000,23.000000,22.000000,25.000000,14.000000,11.000000,15.000000
1306611.297742,1.000000,12.000000,-22.000000,96.000000,22.000000,11.000000,5.000000,-2.000000
1306611.297787,1.000000,-9.000000,46.000000,-44.000000,-17.000000,-17.000000,-4.000000,2.000000
1306611.298034,6.000000,16.000000,127.000000,72.000000,56.000000,16.000000,-1.000000,9.000000
1306611.298040,-6.000000,-13.000000,-128.000000,-15.000000,-19.000000,-12.000000,-15.000000,-11.000000
1306611.299908,10.000000,3.000000,28.000000,-54.000000,-25.000000,-4.000000,9.000000,1.000000
1306611.299963,-6.000000,-7.000000,68.000000,-20.000000,-16.000000,-12.000000,7.000000,-4.000000
1306611.312040,-11.000000,-7.000000,-100.000000,2.000000,8.000000,1.000000,-2.000000,7.000000
1306611.312051,-11.000000,6.000000,-7.000000,-21.000000,1.000000,-1.000000,-7.000000,-9.000000
1306611.319984,2.000000,-11.000000,-11.000000,-8.000000,-42.000000,-11.000000,-3.000000,2.000000
1306611.320012,-9.000000,1.000000,-44.000000,-8.000000,-6.000000,-4.000000,-1.000000,-10.000000
1306611.334448,-4.000000,-4.000000,-20.000000,-35.000000,-14.000000,1.000000,-2.000000,11.000000
1306611.334458,-15.000000,-19.000000,-1.000000,-21.000000,-41.000000,-10.000000,-13.000000,-11.000000
1306611.356992,3.000000,7.000000,51.000000,26.000000,3.000000,1.000000,4.000000,-2.000000
1306611.357002,-20.000000,-40.000000,-50.000000,-81.000000,-27.000000,-3.000000,-6.000000,-3.000000
1306611.372134,-8.000000,1.000000,-7.000000,-40.000000,9.000000,-9.000000,-5.000000,-16.000000
1306611.372144,42.000000,16.000000,-42.000000,-27.000000,2.000000,-1.000000,7.000000,26.000000
1306611.394419,-8.000000,-16.000000,-34.000000,30.000000,-21.000000,-19.000000,-16.000000,-11.000000
1306611.394430,-20.000000,-3.000000,-10.000000,-21.000000,7.000000,3.000000,-3.000000,-9.000000
1306611.394747,-1.000000,1.000000,36.000000,-16.000000,-29.000000,-14.000000,-6.000000,1.000000
1306611.394756,-7.000000,-9.000000,105.000000,-22.000000,-6.000000,-5.000000,-15.000000,-16.000000
1306611.396070,3.000000,19.000000,-128.000000,-5.000000,-10.000000,5.000000,21.000000,14.000000
1306611.396086,9.000000,13.000000,103.000000,19.000000,7.000000,6.000000,20.000000,8.000000
1306611.396972,-13.000000,-25.000000,-54.000000,-50.000000,-23.000000,-13.000000,-28.000000,-10.000000
1306611.397013,-6.000000,0.000000,-18.000000,-69.000000,-22.000000,-13.000000,-14.000000,-25.000000
1306611.416966,-9.000000,8.000000,-10.000000,4.000000,3.000000,8.000000,7.000000,1.000000
1306611.416984,23.000000,-5.000000,9.000000,10.000000,36.000000,15.000000,19.000000,22.000000
1306611.417512,-4.000000,-1.000000,-10.000000,44.000000,22.000000,1.000000,-1.000000,-1.000000
1306611.417524,0.000000,15.000000,38.000000,-3.000000,-15.000000,-1.000000,-4.000000,-5.000000
1306611.418783,-13.000000,-16.000000,-5.000000,-60.000000,-36.000000,-14.000000,5.000000,-19.000000
1306611.418792,8.000000,-4.000000,-67.000000,55.000000,24.000000,10.000000,-13.000000,19.000000
1306611.432082,5.000000,6.000000,103.000000,50.000000,10.000000,0.000000,2.000000,2.000000
1306611.432103,-18.000000,-21.000000,-128.000000,-55.000000,-40.000000,-16.000000,-6.000000,-15.000000
1306611.440232,6.000000,0.000000,41.000000,41.000000,12.000000,11.000000,9.000000,9.000000
1306611.440269,6.000000,12.000000,16.000000,-8.000000,20.000000,5.000000,-5.000000,-6.000000
1306611.454803,-9.000000,-7.000000,-4.000000,-17.000000,-18.000000,-6.000000,7.000000,-1.000000
1306611.454833,-10.000000,-10.000000,-14.000000,1.000000,9.000000,-3.000000,-5.000000,-3.000000
1306611.469406,5.000000,8.000000,-5.000000,-19.000000,-6.000000,3.000000,-4.000000,7.000000
1306611.469435,16.000000,-3.000000,16.000000,0.000000,5.000000,-1.000000,3.000000,15.000000
1306611.477240,-7.000000,20.000000,1.000000,-7.000000,-1.000000,-7.000000,-9.000000,-14.000000
1306611.477252,-7.000000,-5.000000,-59.000000,-8.000000,3.000000,0.000000,-6.000000,-7.000000
1306611.499915,-1.000000,5.000000,43.000000,-59.000000,-34.000000,-10.000000,-5.000000,-11.000000
1306611.499928,12.000000,5.000000,-20.000000,15.000000,17.000000,11.000000,22.000000,21.000000
1306611.514250,-14.000000,-6.000000,52.000000,45.000000,-29.000000,-16.000000,-3.000000,-7.000000
1306611.514261,34.000000,16.000000,43.000000,-9.000000,19.000000,9.000000,-7.000000,25.000000
1306611.515472,-6.000000,-4.000000,-41.000000,-23.000000,-33.000000,-8.000000,-6.000000,-5.000000
1306611.515481,2.000000,-6.000000,-1.000000,-38.000000,-6.000000,2.000000,6.000000,4.000000
1306611.516460,1.000000,12.000000,127.000000,2.000000,2.000000,-2.000000,1.000000,-8.000000
1306611.516470,24.000000,19.000000,-128.000000,121.000000,53.000000,20.000000,19.000000,23.000000
1306611.537217,-15.000000,-8.000000,36.000000,-16.000000,-8.000000,-12.000000,-19.000000,-15.000000
1306611.537227,-11.000000,-12.000000,-35.000000,-73.000000,-5.000000,-5.000000,0.000000,-6.000000
1306611.537837,18.000000,12.000000,11.000000,7.000000,-4.000000,8.000000,12.000000,14.000000
1306611.537846,0.000000,5.000000,98.000000,115.000000,39.000000,12.000000,-3.000000,-5.000000
1306611.544441,-19.000000,-36.000000,-49.000000,-44.000000,-13.000000,-13.000000,-4.000000,-6.000000
1306611.544451,19.000000,39.000000,-42.000000,-19.000000,-22.000000,12.000000,33.000000,21.000000
1306611.551852,1.000000,-5.000000,29.000000,28.000000,18.000000,0.000000,-18.000000,2.000000
1306611.551907,-1.000000,3.000000,-7.000000,14.000000,5.000000,-3.000000,1.000000,-14.000000
1306611.589486,-7.000000,-47.000000,-26.000000,-45.000000,-19.000000,-11.000000,-13.000000,1.000000
1306611.589497,3.000000,11.000000,2.000000,-5.000000,4.000000,0.000000,1.000000,-2.000000
1306611.596753,-14.000000,-9.000000,-50.000000,-35.000000,-13.000000,-9.000000,1.000000,-7.000000
1306611.596770,-1.000000,6.000000,127.000000,37.000000,-17.000000,6.000000,5.000000,1.000000
1306611.619786,8.000000,3.000000,-71.000000,37.000000,38.000000,3.000000,-5.000000,-1.000000
1306611.619803,-7.000000,-8.000000,-32.000000,-30.000000,-20.000000,-8.000000,1.000000,2.000000
1306611.634395,-8.000000,-6.000000,-2.000000,-80.000000,-29.000000,-11.000000,-4.000000,-6.000000
1306611.634406,-3.000000,9.000000,50.000000,21.000000,7.000000,-4.000000,-9.000000,-9.000000
1306611.657120,-20.000000,3.000000,5.000000,89.000000,30.000000,12.000000,6.000000,-6.000000
1306611.657131,45.000000,-13.000000,-25.000000,-21.000000,8.000000,5.000000,14.000000,24.000000
1306611.672039,5.000000,32.000000,66.000000,63.000000,14.000000,1.000000,-18.000000,-12.000000
1306611.672060,-9.000000,-6.000000,-55.000000,-51.000000,-28.000000,-7.000000,0.000000,-2.000000
1306611.686900,-5.000000,6.000000,5.000000,47.000000,37.000000,-6.000000,-29.000000,-19.000000
1306611.686911,4.000000,-3.000000,2.000000,-52.000000,-34.000000,-5.000000,-4.000000,1.000000
1306611.702213,4.000000,1.000000,22.000000,-50.000000,-17.000000,-6.000000,2.000000,-4.000000
1306611.702234,-5.000000,4.000000,101.000000,60.000000,-9.000000,-1.000000,-10.000000,-13.000000
1306611.717243,-13.000000,1.000000,-79.000000,3.000000,-8.000000,1.000000,6.000000,18.000000
1306611.717274,13.000000,6.000000,24.000000,1.000000,0.000000,-5.000000,-3.000000,0.000000
1306611.717600,7.000000,2.000000,-8.000000,37.000000,2.000000,0.000000,0.000000,-4.000000
1306611.717619,-15.000000,-9.000000,11.000000,-80.000000,-20.000000,-6.000000,-7.000000,-9.000000
1306611.717903,19.000000,12.000000,-15.000000,11.000000,35.000000,14.000000,10.000000,17.000000
1306611.717911,-11.000000,3.000000,-3.000000,-22.000000,-8.000000,1.000000,3.000000,-9.000000
1306611.719521,-9.000000,-8.000000,-19.000000,3.000000,17.000000,-1.000000,-26.000000,-6.000000
1306611.719533,4.000000,12.000000,80.000000,30.000000,38.000000,8.000000,12.000000,-4.000000
1306611.720236,7.000000,11.000000,-125.000000,45.000000,31.000000,13.000000,3.000000,10.000000
1306611.720286,-25.000000,-23.000000,14.000000,-23.000000,-30.000000,-11.000000,-4.000000,-19.000000
1306611.731958,-1.000000,-10.000000,26.000000,-24.000000,-32.000000,-6.000000,-8.000000,4.000000
1306611.731971,26.000000,2.000000,-6.000000,29.000000,3.000000,11.000000,17.000000,24.000000
1306611.732665,-8.000000,-8.000000,3.000000,22.000000,2.000000,-8.000000,-12.000000,-9.000000
1306611.732676,-10.000000,-1.000000,10.000000,-24.000000,9.000000,2.000000,-10.000000,-14.000000
1306611.755292,-14.000000,-12.000000,-57.000000,-43.000000,-18.000000,-1.000000,-2.000000,-9.000000
1306611.755325,17.000000,11.000000,-2.000000,43.000000,20.000000,3.000000,6.000000,5.000000
1306611.755894,2.000000,8.000000,-41.000000,19.000000,17.000000,6.000000,15.000000,-2.000000
1306611.755926,-7.000000,-6.000000,-21.000000,-13.000000,-8.000000,-8.000000,-12.000000,-4.000000
1306611.770272,-11.000000,-2.000000,79.000000,16.000000,19.000000,3.000000,-14.000000,-7.000000
1306611.770317,-8.000000,0.000000,-79.000000,-19.000000,0.000000,6.000000,2.000000,-13.000000
1306611.770989,23.000000,7.000000,65.000000,76.000000,34.000000,5.000000,7.000000,19.000000
1306611.771015,-10.000000,-5.000000,-6.000000,-24.000000,-33.000000,-17.000000,-13.000000,-15.000000
1306611.785054,14.000000,5.000000,20.000000,-59.000000,-16.000000,-8.000000,0.000000,1.000000
1306611.785066,-6.000000,4.000000,-94.000000,-18.000000,-20.000000,3.000000,11.000000,9.000000
1306611.792137,10.000000,14.000000,64.000000,46.000000,31.000000,13.000000,2.000000,9.000000
1306611.792167,-8.000000,3.000000,-25.000000,-48.000000,-6.000000,-7.000000,0.000000,-11.000000
1306611.829460,-7.000000,9.000000,46.000000,33.000000,26.000000,11.000000,-1.000000,2.000000
1306611.829484,14.000000,1.000000,14.000000,22.000000,15.000000,-1.000000,-7.000000,0.000000
1306611.852145,-21.000000,-4.000000,-90.000000,-15.000000,-5.000000,-6.000000,-9.000000,-17.000000
1306611.852156,18.000000,3.000000,50.000000,-23.000000,-19.000000,4.000000,17.000000,21.000000
1306611.874324,-4.000000,-2.000000,8.000000,-19.000000,-19.000000,-3.000000,-10.000000,-11.000000
1306611.874334,-15.000000,1.000000,-22.000000,-29.000000,2.000000,-5.000000,-8.000000,-5.000000
1306611.889253,19.000000,15.000000,17.000000,102.000000,12.000000,16.000000,37.000000,26.000000
1306611.889282,-4.000000,-6.000000,18.000000,-17.000000,-21.000000,-14.000000,-14.000000,-7.000000
1306611.890451,-16.000000,5.000000,57.000000,45.000000,35.000000,8.000000,-18.000000,-23.000000
1306611.890459,9.000000,-4.000000,0.000000,-40.000000,-29.000000,4.000000,18.000000,20.000000
1306611.891033,0.000000,-1.000000,-24.000000,-55.000000,-23.000000,-5.000000,5.000000,3.000000
1306611.891041,-10.000000,-13.000000,-14.000000,-65.000000,14.000000,0.000000,-12.000000,-9.000000
1306611.891917,-10.000000,-31.000000,-19.000000,-55.000000,16.000000,-2.000000,14.000000,2.000000
1306611.891925,-9.000000,12.000000,31.000000,56.000000,9.000000,3.000000,-7.000000,-5.000000
1306611.904978,5.000000,4.000000,-81.000000,-27.000000,14.000000,6.000000,-3.000000,6.000000
1306611.904988,2.000000,7.000000,49.000000,-12.000000,-10.000000,-3.000000,4.000000,-4.000000
1306611.912338,-9.000000,-14.000000,-10.000000,33.000000,-33.000000,-7.000000,23.000000,0.000000
1306611.912378,1.000000,13.000000,42.000000,93.000000,39.000000,18.000000,-4.000000,2.000000
1306611.913098,16.000000,-5.000000,-18.000000,-50.000000,-30.000000,-17.000000,-20.000000,-2.000000
1306611.913138,-14.000000,-8.000000,11.000000,39.000000,1.000000,-4.000000,2.000000,-5.000000
1306611.927500,-5.000000,-6.000000,-19.000000,-14.000000,0.000000,-2.000000,1.000000,-16.000000
1306611.927509,-22.000000,-3.000000,-1.000000,-53.000000,-14.000000,-1.000000,7.000000,-5.000000
1306611.934432,-10.000000,-56.000000,-26.000000,27.000000,7.000000,-2.000000,-13.000000,-1.000000
1306611.934441,3.000000,0.000000,-57.000000,-36.000000,-20.000000,-4.000000,8.000000,3.000000
1306611.956853,-11.000000,1.000000,48.000000,-2.000000,-28.000000,-20.000000,-4.000000,-9.000000
1306611.956863,5.000000,9.000000,48.000000,2.000000,1.000000,8.000000,0.000000,-2.000000
1306611.972105,-10.000000,4.000000,-32.000000,-30.000000,2.000000,0.000000,-10.000000,-5.000000
1306611.972117,0.000000,14.000000,-24.000000,107.000000,29.000000,7.000000,8.000000,1.000000
1306611.987147,20.000000,8.000000,57.000000,8.000000,17.000000,8.000000,5.000000,12.000000
1306611.987158,-9.000000,-12.000000,-32.000000,-37.000000,30.000000,1.000000,-4.000000,-3.000000
1306611.994584,-5.000000,-14.000000,-32.000000,-71.000000,-52.000000,-11.000000,0.000000,4.000000
1306611.994595,-10.000000,2.000000,-116.000000,-6.000000,11.000000,1.000000,-6.000000,-11.000000
1306612.009853,1.000000,-9.000000,93.000000,-24.000000,-17.000000,-12.000000,-11.000000,-4.000000
1306612.009866,-9.000000,-12.000000,-42.000000,-21.000000,-2.000000,-13.000000,-1.000000,-18.000000
1306612.010462,-17.000000,-3.000000,-26.000000,-47.000000,4.000000,6.000000,-1.000000,12.000000
1306612.010477,34.000000,25.000000,-16.000000,-23.000000,0.000000,5.000000,-2.000000,6.000000
1306612.011654,-14.000000,-29.000000,-30.000000,66.000000,36.000000,3.000000,3.000000,2.000000
1306612.011663,-2.000000,5.000000,-13.000000,-55.000000,-16.000000,1.000000,5.000000,-3.000000
1306612.012636,19.000000,16.000000,7.000000,69.000000,19.000000,6.000000,12.000000,20.000000
1306612.012644,-4.000000,-2.000000,-10.000000,-104.000000,-44.000000,-10.000000,-15.000000,-9.000000
1306612.024324,-2.000000,9.000000,67.000000,99.000000,48.000000,16.000000,8.000000,-15.000000
1306612.024337,-1.000000,4.000000,-28.000000,-23.000000,20.000000,4.000000,1.000000,6.000000
1306612.046885,2.000000,-13.000000,5.000000,-17.000000,-34.000000,-9.000000,5.000000,12.000000
1306612.046899,-13.000000,-17.000000,-24.000000,-77.000000,-8.000000,-1.000000,8.000000,-11.000000
1306612.048565,3.000000,8.000000,57.000000,19.000000,8.000000,-2.000000,-21.000000,-2.000000
1306612.048574,4.000000,1.000000,-13.000000,-18.000000,-10.000000,-11.000000,-9.000000,-9.000000
1306612.054331,-7.000000,1.000000,-41.000000,1.000000,4.000000,-2.000000,2.000000,1.000000
1306612.054342,7.000000,-9.000000,-8.000000,-42.000000,-17.000000,-7.000000,11.000000,9.000000
1306612.069319,-13.000000,6.000000,15.000000,3.000000,-20.000000,-7.000000,-9.000000,-22.000000
1306612.069329,0.000000,16.000000,-14.000000,10.000000,-8.000000,-1.000000,-11.000000,-4.000000
1306612.091995,25.000000,-4.000000,120.000000,46.000000,22.000000,12.000000,28.000000,31.000000
1306612.092007,-5.000000,-4.000000,-91.000000,7.000000,-6.000000,-3.000000,-5.000000,-7.000000
1306612.129585,-11.000000,3.000000,4.000000,-21.000000,0.000000,-2.000000,-8.000000,-13.000000
1306612.129597,18.000000,11.000000,32.000000,23.000000,37.000000,20.000000,26.000000,19.000000
1306612.129938,-2.000000,-5.000000,-59.000000,13.000000,-30.000000,-16.000000,-13.000000,-9.000000
1306612.129949,-7.000000,5.000000,23.000000,-38.000000,-5.000000,-4.000000,-11.000000,1.000000
1306612.130982,-5.000000,-12.000000,-16.000000,3.000000,-12.000000,-4.000000,0.000000,-9.000000
1306612.130990,15.000000,20.000000,31.000000,106.000000,56.000000,16.000000,5.000000,1.000000
1306612.131602,-2.000000,7.000000,88.000000,-28.000000,-31.000000,-7.000000,-6.000000,1.000000
1306612.131610,-6.000000,-23.000000,-63.000000,6.000000,-21.000000,-7.000000,-7.000000,-7.000000
1306612.133378,-4.000000,-16.000000,-58.000000,-55.000000,-17.000000,-11.000000,1.000000,1.000000
1306612.133388,-2.000000,3.000000,41.000000,-34.000000,-13.000000,-5.000000,-1.000000,-9.000000
1306612.145037,21.000000,-13.000000,-14.000000,-67.000000,-10.000000,0.000000,-3.000000,4.000000
1306612.145055,9.000000,6.000000,7.000000,73.000000,38.000000,7.000000,-2.000000,2.000000
1306612.152126,11.000000,13.000000,45.000000,-43.000000,-12.000000,-6.000000,2.000000,12.000000
1306612.152144,-15.000000,-9.000000,-108.000000,-7.000000,-30.000000,-14.000000,-8.000000,-15.000000
1306612.167449,-15.000000,-8.000000,35.000000,-79.000000,-69.000000,-18.000000,-10.000000,-10.000000
1306612.167477,25.000000,22.000000,-25.000000,13.000000,37.000000,5.000000,7.000000,20.000000
1306612.189950,-11.000000,-13.000000,-3.000000,28.000000,-22.000000,6.000000,37.000000,0.000000
1306612.189976,-1.000000,8.000000,21.000000,-9.000000,-9.000000,-7.000000,-25.000000,-3.000000
1306612.211850,-4.000000,-4.000000,-6.000000,-54.000000,-15.000000,-16.000000,-20.000000,-8.000000
1306612.211867,-29.000000,-13.000000,-3.000000,-39.000000,-38.000000,-14.000000,-13.000000,-19.000000
1306612.219366,50.000000,6.000000,-44.000000,-22.000000,-4.000000,4.000000,3.000000,21.000000
1306612.219376,-5.000000,-2.000000,66.000000,13.000000,4.000000,6.000000,16.000000,-9.000000
1306612.227529,-8.000000,1.000000,-37.000000,31.000000,25.000000,-7.000000,-15.000000,-2.000000
1306612.227539,-3.000000,2.000000,10.000000,-15.000000,-27.000000,-9.000000,2.000000,-1.000000
1306612.228035,-4.000000,-10.000000,25.000000,11.000000,2.000000,7.000000,1.000000,-2.000000
1306612.228042,4.000000,-5.000000,-21.000000,-30.000000,11.000000,-3.000000,-7.000000,1.000000
1306612.229552,-11.000000,-22.000000,-8.000000,-32.000000,-36.000000,-18.000000,-9.000000,-12.000000
1306612.229561,-7.000000,-8.000000,-24.000000,-4.000000,-39.000000,-8.000000,5.000000,5.000000
1306612.249637,3.000000,2.000000,27.000000,-4.000000,-1.000000,-6.000000,-1.000000,-7.000000
1306612.249647,-7.000000,1.000000,-47.000000,31.000000,10.000000,-2.000000,-5.000000,-6.000000
1306612.272217,5.000000,8.000000,82.000000,-37.000000,-7.000000,2.000000,-4.000000,-7.000000
1306612.272229,-17.000000,-11.000000,-89.000000,3.000000,-2.000000,-9.000000,22.000000,2.000000
1306612.287077,-5.000000,-9.000000,-25.000000,-18.000000,-41.000000,-17.000000,-19.000000,-6.000000
1306612.287092,20.000000,0.000000,-44.000000,1.000000,0.000000,-1.000000,1.000000,11.000000
1306612.324459,-18.000000,10.000000,36.000000,-3.000000,8.000000,1.000000,-16.000000,-16.000000
1306612.324468,17.000000,7.000000,55.000000,97.000000,44.000000,24.000000,31.000000,21.000000
1306612.332065,6.000000,-4.000000,-30.000000,-35.000000,-13.000000,0.000000,5.000000,7.000000
1306612.332095,-9.000000,8.000000,-1.000000,-36.000000,4.000000,-6.000000,-14.000000,-10.000000
1306612.346685,-23.000000,-13.000000,-91.000000,71.000000,-13.000000,-17.000000,-13.000000,-14.000000
1306612.346698,20.000000,-10.000000,17.000000,-57.000000,-16.000000,0.000000,6.000000,6.000000
1306612.347242,-3.000000,-4.000000,18.000000,-23.000000,-10.000000,-2.000000,-1.000000,3.000000
1306612.347250,-2.000000,8.000000,49.000000,50.000000,6.000000,2.000000,0.000000,-6.000000
1306612.348639,4.000000,13.000000,-11.000000,-7.000000,-20.000000,-7.000000,8.000000,-3.000000
1306612.348648,-2.000000,-7.000000,-42.000000,47.000000,44.000000,13.000000,3.000000,7.000000
1306612.369770,6.000000,-9.000000,-41.000000,-20.000000,-9.000000,-11.000000,-4.000000,5.000000
1306612.369799,-8.000000,-4.000000,1.000000,-23.000000,-11.000000,-7.000000,-11.000000,-10.000000
1306612.370584,-8.000000,5.000000,39.000000,20.000000,2.000000,-5.000000,-1.000000,-5.000000
1306612.370592,-2.000000,-1.000000,-4.000000,31.000000,14.000000,7.000000,14.000000,4.000000
1306612.371362,22.000000,1.000000,-72.000000,-59.000000,-20.000000,-3.000000,2.000000,10.000000
1306612.371370,9.000000,4.000000,37.000000,0.000000,21.000000,4.000000,-10.000000,7.000000
1306612.384568,-11.000000,-4.000000,-10.000000,38.000000,43.000000,10.000000,8.000000,-1.000000
1306612.384589,-6.000000,-2.000000,2.000000,-49.000000,-22.000000,-12.000000,-5.000000,-3.000000
1306612.407123,-3.000000,16.000000,11.000000,-2.000000,-14.000000,-3.000000,12.000000,-5.000000
1306612.407134,-5.000000,-10.000000,7.000000,-62.000000,-38.000000,-21.000000,-22.000000,-6.000000
1306612.422098,1.000000,-3.000000,-9.000000,-8.000000,-8.000000,-6.000000,2.000000,-2.000000
1306612.422108,-1.000000,5.000000,-37.000000,-3.000000,-13.000000,3.000000,11.000000,15.000000
1306612.429481,-6.000000,-7.000000,84.000000,-16.000000,-3.000000,-4.000000,-13.000000,-7.000000
1306612.429501,-25.000000,-16.000000,-70.000000,-48.000000,-26.000000,-10.000000,-8.000000,-12.000000
1306612.452015,29.000000,12.000000,8.000000,67.000000,37.000000,12.000000,3.000000,7.000000
1306612.452027,10.000000,-2.000000,21.000000,68.000000,-3.000000,2.000000,5.000000,9.000000
1306612.459627,15.000000,13.000000,-6.000000,-18.000000,-2.000000,-5.000000,14.000000,14.000000
1306612.459637,-11.000000,-11.000000,2.000000,-65.000000,-32.000000,-6.000000,-10.000000,-9.000000
1306612.467647,-4.000000,8.000000,18.000000,54.000000,28.000000,7.000000,3.000000,-4.000000
1306612.467665,-1.000000,0.000000,-34.000000,3.000000,1.000000,-4.000000,-1.000000,8.000000
1306612.468244,-7.000000,-5.000000,-24.000000,-8.000000,-26.000000,-4.000000,-2.000000,-8.000000
1306612.468263,7.000000,1.000000,-48.000000,5.000000,-7.000000,-7.000000,-8.000000,3.000000
1306612.469678,-10.000000,-9.000000,-16.000000,-67.000000,-21.000000,-9.000000,1.000000,-8.000000
1306612.469708,-10.000000,1.000000,4.000000,88.000000,42.000000,0.000000,-9.000000,-10.000000
1306612.482170,10.000000,1.000000,-9.000000,-27.000000,-7.000000,-4.000000,3.000000,4.000000
1306612.482277,-4.000000,7.000000,16.000000,73.000000,41.000000,30.000000,0.000000,10.000000
1306612.483149,22.000000,8.000000,17.000000,14.000000,20.000000,-1.000000,15.000000,11.000000
1306612.483158,-7.000000,-6.000000,43.000000,-15.000000,0.000000,1.000000,-1.000000,-4.000000
1306612.504670,-2.000000,1.000000,20.000000,-104.000000,-29.000000,-7.000000,-9.000000,-10.000000
1306612.504681,-7.000000,0.000000,-128.000000,52.000000,7.000000,-1.000000,4.000000,-5.000000
1306612.505620,-16.000000,-12.000000,50.000000,-7.000000,-19.000000,-16.000000,-38.000000,-21.000000
1306612.505628,20.000000,12.000000,41.000000,-10.000000,-6.000000,4.000000,27.000000,9.000000
1306612.511957,9.000000,13.000000,-6.000000,21.000000,-1.000000,-5.000000,2.000000,10.000000
1306612.511968,-14.000000,-9.000000,34.000000,-45.000000,-13.000000,0.000000,-5.000000,0.000000
1306612.549513,-11.000000,1.000000,-44.000000,94.000000,65.000000,6.000000,-8.000000,-18.000000
1306612.549523,16.000000,7.000000,2.000000,-62.000000,-31.000000,-5.000000,4.000000,10.000000
1306612.564707,2.000000,11.000000,76.000000,85.000000,47.000000,8.000000,0.000000,-5.000000
1306612.564730,-18.000000,-13.000000,-83.000000,-24.000000,-18.000000,-9.000000,8.000000,-8.000000
1306612.579798,2.000000,6.000000,-62.000000,-6.000000,5.000000,-7.000000,-16.000000,-2.000000
1306612.579826,6.000000,-1.000000,31.000000,-84.000000,-17.000000,-2.000000,-3.000000,-1.000000
1306612.586753,3.000000,-6.000000,-6.000000,-33.000000,-19.000000,-14.000000,-1.000000,0.000000
1306612.586767,-8.000000,12.000000,44.000000,42.000000,4.000000,-2.000000,-4.000000,-14.000000
1306612.588083,-2.000000,6.000000,18.000000,2.000000,3.000000,0.000000,-4.000000,-4.000000
1306612.588102,-15.000000,-8.000000,-33.000000,-90.000000,-83.000000,-21.000000,3.000000,-8.000000
1306612.588677,24.000000,36.000000,2.000000,127.000000,95.000000,28.000000,10.000000,21.000000
1306612.588689,-17.000000,-34.000000,-36.000000,-3.000000,0.000000,-5.000000,-15.000000,-6.000000
1306612.590102,2.000000,-4.000000,16.000000,-87.000000,-52.000000,-7.000000,-2.000000,-11.000000
1306612.590128,3.000000,-27.000000,13.000000,69.000000,23.000000,10.000000,12.000000,19.000000
1306612.602109,-3.000000,-12.000000,1.000000,-26.000000,-21.000000,-9.000000,2.000000,-7.000000
1306612.602120,6.000000,1.000000,-40.000000,12.000000,27.000000,0.000000,-9.000000,0.000000
1306612.603134,-6.000000,2.000000,58.000000,-1.000000,-19.000000,2.000000,3.000000,-6.000000
1306612.603142,0.000000,8.000000,-29.000000,22.000000,38.000000,2.000000,-1.000000,-1.000000
1306612.647046,-4.000000,-8.000000,75.000000,-52.000000,-22.000000,0.000000,1.000000,2.000000
1306612.647056,0.000000,-5.000000,-102.000000,-17.000000,-7.000000,-4.000000,5.000000,6.000000
1306612.661871,0.000000,-6.000000,70.000000,25.000000,-8.000000,0.000000,3.000000,1.000000
1306612.661894,0.000000,-10.000000,-24.000000,0.000000,-17.000000,-9.000000,-32.000000,-6.000000
1306612.684360,15.000000,8.000000,-17.000000,-19.000000,-1.000000,-7.000000,4.000000,-1.000000
1306612.684388,6.000000,7.000000,65.000000,68.000000,13.000000,3.000000,-6.000000,-1.000000
1306612.685369,-19.000000,-18.000000,-51.000000,-44.000000,-12.000000,-3.000000,2.000000,-3.000000
1306612.685377,-20.000000,1.000000,-23.000000,-54.000000,6.000000,7.000000,0.000000,-5.000000
1306612.685966,3.000000,4.000000,51.000000,11.000000,-11.000000,-2.000000,-6.000000,-5.000000
1306612.685975,-11.000000,-2.000000,-47.000000,51.000000,46.000000,9.000000,-3.000000,-13.000000
1306612.687669,-15.000000,4.000000,-2.000000,46.000000,15.000000,-4.000000,-7.000000,-10.000000
1306612.687680,1.000000,4.000000,5.000000,4.000000,17.000000,8.000000,-3.000000,0.000000
1306612.699475,-16.000000,-13.000000,29.000000,-28.000000,-22.000000,1.000000,24.000000,5.000000
1306612.699486,3.000000,9.000000,15.000000,40.000000,-1.000000,1.000000,3.000000,6.000000
1306612.706900,-17.000000,-9.000000,-58.000000,-50.000000,-23.000000,-14.000000,-14.000000,-20.000000
1306612.706911,-17.000000,-7.000000,-1.000000,4.000000,2.000000,-9.000000,-12.000000,-10.000000
1306612.721933,34.000000,10.000000,36.000000,-9.000000,-22.000000,-4.000000,7.000000,15.000000
1306612.721950,-9.000000,-12.000000,-36.000000,-44.000000,8.000000,1.000000,-2.000000,-9.000000
1306612.744338,-9.000000,-4.000000,-9.000000,-1.000000,-5.000000,5.000000,19.000000,-9.000000
1306612.744348,-7.000000,-5.000000,-4.000000,-33.000000,-15.000000,-7.000000,-28.000000,-4.000000
1306612.744921,-2.000000,-8.000000,28.000000,1.000000,22.000000,-5.000000,-13.000000,-2.000000
1306612.744929,10.000000,-9.000000,9.000000,46.000000,-17.000000,4.000000,13.000000,2.000000
1306612.746290,-19.000000,-10.000000,-23.000000,-11.000000,5.000000,0.000000,-6.000000,-7.000000
1306612.746298,1.000000,12.000000,12.000000,-17.000000,-7.000000,-6.000000,-12.000000,-10.000000
1306612.759439,-3.000000,-13.000000,-51.000000,-47.000000,-1.000000,-2.000000,10.000000,10.000000
1306612.759450,-13.000000,3.000000,42.000000,17.000000,-14.000000,3.000000,-6.000000,-11.000000
1306612.782005,14.000000,9.000000,11.000000,31.000000,-16.000000,4.000000,4.000000,-5.000000
1306612.782020,12.000000,2.000000,-8.000000,-4.000000,-10.000000,-7.000000,-14.000000,10.000000
1306612.804821,13.000000,16.000000,-86.000000,60.000000,27.000000,14.000000,3.000000,0.000000
1306612.804922,3.000000,-16.000000,20.000000,-67.000000,-15.000000,-6.000000,16.000000,13.000000
1306612.805696,-15.000000,-3.000000,9.000000,44.000000,13.000000,-4.000000,18.000000,3.000000
1306612.805710,9.000000,9.000000,27.000000,-48.000000,-10.000000,-3.000000,-9.000000,-6.000000
1306612.806306,8.000000,4.000000,-12.000000,115.000000,3.000000,11.000000,2.000000,13.000000
1306612.806322,-10.000000,0.000000,23.000000,-20.000000,-1.000000,-6.000000,-12.000000,-23.000000
1306612.807887,-18.000000,-3.000000,90.000000,33.000000,-9.000000,5.000000,3.000000,-7.000000
1306612.807895,-3.000000,-1.000000,-128.000000,0.000000,15.000000,3.000000,5.000000,6.000000
1306612.811817,1.000000,5.000000,77.000000,-13.000000,0.000000,-4.000000,-9.000000,-5.000000
1306612.811839,-10.000000,-9.000000,43.000000,-26.000000,-18.000000,-6.000000,-13.000000,-19.000000
1306612.826866,-2.000000,-8.000000,-22.000000,13.000000,-37.000000,-12.000000,1.000000,3.000000
1306612.826875,1.000000,7.000000,-16.000000,-15.000000,12.000000,0.000000,-10.000000,-3.000000
1306612.842751,-7.000000,-4.000000,-3.000000,-54.000000,-18.000000,-13.000000,-1.000000,-8.000000
1306612.842773,13.000000,7.000000,-3.000000,45.000000,27.000000,5.000000,14.000000,17.000000
1306612.843543,3.000000,-1.000000,-3.000000,56.000000,29.000000,5.000000,7.000000,2.000000
1306612.843562,-14.000000,-14.000000,-16.000000,-13.000000,-20.000000,-6.000000,-7.000000,-11.000000
1306612.864218,15.000000,0.000000,-21.000000,0.000000,30.000000,3.000000,-21.000000,8.000000
1306612.864233,-4.000000,4.000000,55.000000,-44.000000,-45.000000,-10.000000,13.000000,-14.000000
1306612.865648,22.000000,13.000000,-33.000000,66.000000,30.000000,14.000000,14.000000,38.000000
1306612.865667,-8.000000,-5.000000,48.000000,-25.000000,-1.000000,0.000000,-9.000000,-11.000000
1306612.879616,-19.000000,-18.000000,-94.000000,-36.000000,-7.000000,-4.000000,-7.000000,-22.000000
1306612.879630,-3.000000,-21.000000,13.000000,-30.000000,-21.000000,-1.000000,2.000000,10.000000
1306612.894395,7.000000,7.000000,-4.000000,24.000000,8.000000,3.000000,1.000000,5.000000
1306612.894427,-6.000000,5.000000,0.000000,-22.000000,0.000000,-1.000000,-12.000000,-13.000000
1306612.901801,-9.000000,-4.000000,26.000000,-36.000000,-13.000000,-8.000000,-8.000000,-18.000000
1306612.901811,19.000000,6.000000,-83.000000,61.000000,15.000000,8.000000,20.000000,17.000000
1306612.939387,-8.000000,-10.000000,31.000000,-40.000000,-36.000000,-13.000000,-3.000000,1.000000
1306612.939405,-34.000000,-6.000000,-5.000000,36.000000,26.000000,1.000000,-13.000000,-24.000000
1306612.961955,14.000000,17.000000,81.000000,57.000000,14.000000,15.000000,3.000000,15.000000
1306612.961965,19.000000,4.000000,-50.000000,-11.000000,3.000000,4.000000,25.000000,21.000000
1306612.984969,-10.000000,-1.000000,19.000000,-31.000000,-13.000000,-5.000000,-6.000000,-11.000000
1306612.984999,-18.000000,-1.000000,1.000000,-37.000000,-25.000000,-5.000000,-7.000000,-13.000000
1306612.999498,-11.000000,-2.000000,45.000000,9.000000,6.000000,-5.000000,-8.000000,-7.000000
1306612.999519,-9.000000,-7.000000,-37.000000,-9.000000,-23.000000,-7.000000,3.000000,-10.000000
1306613.022596,-13.000000,-4.000000,23.000000,-59.000000,-27.000000,-7.000000,1.000000,6.000000
1306613.022607,19.000000,5.000000,-16.000000,-7.000000,23.000000,4.000000,-3.000000,-3.000000
1306613.023098,-2.000000,4.000000,122.000000,127.000000,-19.000000,-12.000000,1.000000,7.000000
1306613.023108,-20.000000,-8.000000,-98.000000,-33.000000,-19.000000,-11.000000,-11.000000,-17.000000
1306613.023624,-2.000000,-6.000000,-122.000000,-40.000000,-1.000000,-1.000000,-5.000000,7.000000
1306613.023635,-9.000000,5.000000,-6.000000,-1.000000,0.000000,-1.000000,-5.000000,-16.000000
1306613.024294,3.000000,15.000000,52.000000,47.000000,59.000000,16.000000,7.000000,-5.000000
1306613.024304,-10.000000,-11.000000,-49.000000,-47.000000,-46.000000,-8.000000,6.000000,1.000000
1306613.024939,4.000000,-1.000000,5.000000,31.000000,27.000000,7.000000,-1.000000,5.000000
1306613.024949,-1.000000,9.000000,-15.000000,29.000000,10.000000,3.000000,8.000000,-5.000000
1306613.025795,13.000000,7.000000,4.000000,-58.000000,-5.000000,4.000000,4.000000,15.000000
1306613.025805,2.000000,1.000000,70.000000,61.000000,-16.000000,-2.000000,-2.000000,-1.000000
1306613.037042,16.000000,-5.000000,-16.000000,-23.000000,-31.000000,-19.000000,-10.000000,4.000000
1306613.037071,-8.000000,1.000000,-17.000000,-13.000000,9.000000,2.000000,-8.000000,-12.000000
1306613.044243,8.000000,14.000000,38.000000,44.000000,6.000000,6.000000,23.000000,5.000000
1306613.044251,4.000000,-4.000000,-44.000000,-16.000000,29.000000,5.000000,5.000000,18.000000
1306613.051923,-22.000000,-11.000000,30.000000,-53.000000,-21.000000,-9.000000,-12.000000,-15.000000
1306613.051940,18.000000,16.000000,27.000000,52.000000,15.000000,11.000000,7.000000,9.000000
1306613.081922,0.000000,-6.000000,-43.000000,19.000000,-14.000000,0.000000,2.000000,1.000000
1306613.081936,-7.000000,-13.000000,-11.000000,-23.000000,-4.000000,-10.000000,-12.000000,-4.000000
1306613.082399,-10.000000,-7.000000,5.000000,-67.000000,-22.000000,-4.000000,-7.000000,-7.000000
1306613.082408,1.000000,10.000000,-30.000000,20.000000,35.000000,13.000000,6.000000,-1.000000
1306613.083757,-3.000000,-4.000000,3.000000,56.000000,4.000000,-4.000000,10.000000,2.000000
1306613.083805,6.000000,4.000000,4.000000,20.000000,30.000000,6.000000,10.000000,14.000000
1306613.096735,27.000000,14.000000,15.000000,39.000000,13.000000,10.000000,6.000000,17.000000
1306613.096747,-6.000000,-3.000000,3.000000,-1.000000,0.000000,-7.000000,-9.000000,-17.000000
1306613.104621,6.000000,-3.000000,-38.000000,8.000000,17.000000,-3.000000,3.000000,-1.000000
1306613.104632,-6.000000,-3.000000,37.000000,-18.000000,2.000000,0.000000,0.000000,10.000000
1306613.119496,-21.000000,0.000000,10.000000,-36.000000,-15.000000,-6.000000,-14.000000,-16.000000
1306613.119506,1.000000,-14.000000,-33.000000,26.000000,10.000000,5.000000,13.000000,0.000000
1306613.141951,-7.000000,8.000000,4.000000,-28.000000,-21.000000,-10.000000,-16.000000,-6.000000
1306613.141983,12.000000,14.000000,27.000000,12.000000,-12.000000,2.000000,16.000000,19.000000
1306613.157146,-14.000000,-18.000000,-25.000000,-11.000000,13.000000,5.000000,13.000000,-5.000000
1306613.157158,12.000000,7.000000,23.000000,-32.000000,-7.000000,-6.000000,-14.000000,3.000000
1306613.179270,8.000000,16.000000,13.000000,42.000000,23.000000,4.000000,4.000000,2.000000
1306613.179281,-9.000000,-8.000000,-28.000000,-8.000000,-7.000000,-6.000000,-10.000000,-7.000000
1306613.179709,-2.000000,6.000000,27.000000,56.000000,9.000000,12.000000,8.000000,3.000000
1306613.179717,-5.000000,6.000000,21.000000,35.000000,26.000000,5.000000,4.000000,2.000000
1306613.181082,2.000000,-3.000000,-76.000000,-22.000000,0.000000,-6.000000,-7.000000,-7.000000
1306613.181095,-6.000000,-2.000000,21.000000,33.000000,17.000000,0.000000,7.000000,-2.000000
1306613.182150,-8.000000,7.000000,22.000000,-38.000000,-7.000000,3.000000,-1.000000,8.000000
1306613.182171,44.000000,14.000000,-7.000000,-9.000000,4.000000,-1.000000,12.000000,19.000000
1306613.202155,-2.000000,-2.000000,-1.000000,-21.000000,-19.000000,-3.000000,-10.000000,-12.000000
1306613.202167,-5.000000,-9.000000,27.000000,42.000000,4.000000,1.000000,10.000000,-3.000000
1306613.202629,-10.000000,-4.000000,11.000000,1.000000,0.000000,-8.000000,-9.000000,6.000000
1306613.202637,-2.000000,0.000000,0.000000,3.000000,-1.000000,1.000000,-4.000000,-2.000000
1306613.203754,-14.000000,-18.000000,-16.000000,-37.000000,-17.000000,-11.000000,-14.000000,-17.000000
1306613.203762,-28.000000,-15.000000,-29.000000,-102.000000,-45.000000,-11.000000,-7.000000,-19.000000
1306613.217313,26.000000,23.000000,34.000000,127.000000,51.000000,22.000000,16.000000,23.000000
1306613.217364,3.000000,-7.000000,-45.000000,27.000000,-15.000000,-15.000000,-2.000000,12.000000
1306613.239505,-15.000000,2.000000,-8.000000,62.000000,12.000000,1.000000,-9.000000,-12.000000
