# participant_id: P4
# gesture: hard
# trial_number: 1
# stream_name: Myo_EMG
# stream_type: emg
# timestamp: 20260420_134557
# samples: 5700
# duration_sec: 30.496
# nominal_sample_rate: 200.0
# effective_sample_rate: 186.88
#
timestamp,emg_1,emg_2,emg_3,emg_4,emg_5,emg_6,emg_7,emg_8
1297449.296691,49.000000,18.000000,0.000000,27.000000,-11.000000,-13.000000,-26.000000,-21.000000
1297449.296715,-48.000000,-128.000000,-9.000000,1.000000,23.000000,-10.000000,-9.000000,-8.000000
1297449.304593,32.000000,-19.000000,18.000000,56.000000,-20.000000,2.000000,13.000000,19.000000
1297449.304616,37.000000,49.000000,-9.000000,58.000000,-14.000000,2.000000,1.000000,4.000000
1297449.305409,-128.000000,-110.000000,-17.000000,-128.000000,-6.000000,-1.000000,-4.000000,-12.000000
1297449.305433,32.000000,74.000000,20.000000,65.000000,0.000000,12.000000,18.000000,20.000000
1297449.306458,103.000000,-27.000000,-12.000000,-80.000000,-28.000000,-15.000000,-7.000000,7.000000
1297449.306467,-90.000000,-128.000000,23.000000,-7.000000,-13.000000,-18.000000,-18.000000,-33.000000
1297449.307450,25.000000,-11.000000,6.000000,-19.000000,-5.000000,-3.000000,-10.000000,-3.000000
1297449.307467,25.000000,3.000000,-13.000000,-30.000000,1.000000,-27.000000,-39.000000,-12.000000
1297449.327408,-7.000000,-128.000000,8.000000,-6.000000,11.000000,10.000000,13.000000,9.000000
1297449.327425,44.000000,30.000000,2.000000,8.000000,0.000000,13.000000,24.000000,23.000000
1297449.334170,30.000000,-62.000000,-5.000000,77.000000,-21.000000,2.000000,1.000000,12.000000
1297449.334185,42.000000,20.000000,-11.000000,-33.000000,14.000000,-10.000000,-24.000000,-26.000000
1297449.335521,-104.000000,14.000000,6.000000,-51.000000,1.000000,5.000000,2.000000,-3.000000
1297449.335531,15.000000,50.000000,-11.000000,8.000000,7.000000,6.000000,8.000000,10.000000
1297449.341927,-9.000000,-66.000000,11.000000,81.000000,-3.000000,-4.000000,-1.000000,13.000000
1297449.341949,-13.000000,33.000000,-1.000000,3.000000,-25.000000,1.000000,-7.000000,-6.000000
1297449.349840,-61.000000,14.000000,10.000000,93.000000,6.000000,-6.000000,3.000000,5.000000
1297449.349853,-6.000000,76.000000,11.000000,-60.000000,5.000000,17.000000,18.000000,18.000000
1297449.371735,-22.000000,-128.000000,-31.000000,-67.000000,-15.000000,-13.000000,-17.000000,-13.000000
1297449.371754,-123.000000,-95.000000,58.000000,40.000000,-10.000000,0.000000,-12.000000,-17.000000
1297449.386869,52.000000,15.000000,-15.000000,25.000000,-7.000000,-3.000000,8.000000,16.000000
1297449.386888,12.000000,26.000000,16.000000,1.000000,8.000000,15.000000,38.000000,25.000000
1297449.409447,48.000000,-13.000000,-10.000000,-8.000000,-32.000000,-19.000000,-27.000000,-42.000000
1297449.409472,-42.000000,-124.000000,19.000000,9.000000,8.000000,-21.000000,-62.000000,-29.000000
1297449.424046,50.000000,76.000000,-1.000000,-9.000000,26.000000,24.000000,43.000000,60.000000
1297449.424058,-15.000000,38.000000,6.000000,0.000000,-13.000000,2.000000,-9.000000,-30.000000
1297449.454251,-9.000000,-39.000000,-9.000000,65.000000,13.000000,-3.000000,-5.000000,2.000000
1297449.454261,6.000000,37.000000,-2.000000,-108.000000,-3.000000,4.000000,16.000000,19.000000
1297449.455144,14.000000,-41.000000,6.000000,-47.000000,10.000000,5.000000,13.000000,11.000000
1297449.455163,2.000000,-7.000000,-7.000000,41.000000,-22.000000,3.000000,7.000000,0.000000
1297449.455840,-4.000000,52.000000,7.000000,-24.000000,1.000000,-10.000000,-14.000000,-6.000000
1297449.455857,0.000000,-21.000000,5.000000,23.000000,-4.000000,-3.000000,0.000000,-1.000000
1297449.457238,-8.000000,-45.000000,0.000000,-49.000000,-11.000000,-9.000000,-1.000000,-3.000000
1297449.457253,-21.000000,-1.000000,4.000000,24.000000,-6.000000,-5.000000,-27.000000,-25.000000
1297449.457927,5.000000,-24.000000,-8.000000,21.000000,12.000000,12.000000,17.000000,14.000000
1297449.457935,-63.000000,-89.000000,29.000000,-7.000000,-13.000000,-2.000000,0.000000,3.000000
1297449.461635,-18.000000,48.000000,-1.000000,-53.000000,3.000000,-4.000000,-11.000000,1.000000
1297449.461645,17.000000,103.000000,9.000000,59.000000,18.000000,26.000000,48.000000,40.000000
1297449.491825,12.000000,-29.000000,-6.000000,15.000000,-3.000000,-5.000000,-23.000000,-30.000000
1297449.491846,37.000000,17.000000,11.000000,18.000000,1.000000,-1.000000,-4.000000,1.000000
1297449.499188,-4.000000,-65.000000,-20.000000,-91.000000,-4.000000,-9.000000,-5.000000,-5.000000
1297449.499198,20.000000,32.000000,-20.000000,-5.000000,12.000000,2.000000,12.000000,21.000000
1297449.514057,13.000000,-25.000000,7.000000,33.000000,-12.000000,4.000000,7.000000,0.000000
1297449.514067,-67.000000,-111.000000,-1.000000,-12.000000,-5.000000,-4.000000,-9.000000,-11.000000
1297449.529413,9.000000,14.000000,-14.000000,-43.000000,-3.000000,-1.000000,-1.000000,3.000000
1297449.529433,28.000000,127.000000,11.000000,31.000000,12.000000,4.000000,6.000000,10.000000
1297449.537626,17.000000,30.000000,-5.000000,-48.000000,1.000000,-1.000000,6.000000,13.000000
1297449.537709,-12.000000,30.000000,4.000000,95.000000,0.000000,4.000000,-3.000000,-10.000000
1297449.538089,-27.000000,110.000000,28.000000,-37.000000,17.000000,7.000000,31.000000,30.000000
1297449.538108,-81.000000,44.000000,-8.000000,17.000000,-7.000000,4.000000,14.000000,-2.000000
1297449.539412,-25.000000,-8.000000,-3.000000,44.000000,-8.000000,-11.000000,-34.000000,-11.000000
1297449.539423,-52.000000,-116.000000,-10.000000,1.000000,1.000000,-6.000000,-2.000000,5.000000
1297449.544446,9.000000,-40.000000,-16.000000,-26.000000,10.000000,5.000000,3.000000,-15.000000
1297449.544458,5.000000,41.000000,2.000000,-15.000000,1.000000,7.000000,19.000000,16.000000
1297449.575492,38.000000,-103.000000,0.000000,-7.000000,-22.000000,-19.000000,-31.000000,-12.000000
1297449.575585,-32.000000,-24.000000,-2.000000,38.000000,12.000000,6.000000,18.000000,9.000000
1297449.575809,0.000000,62.000000,-2.000000,7.000000,2.000000,10.000000,19.000000,14.000000
1297449.575975,41.000000,14.000000,-6.000000,-4.000000,12.000000,4.000000,8.000000,16.000000
1297449.577067,-100.000000,-19.000000,11.000000,15.000000,-3.000000,6.000000,-1.000000,-4.000000
1297449.577089,-15.000000,-103.000000,-5.000000,-31.000000,2.000000,-2.000000,-3.000000,-9.000000
1297449.582568,19.000000,69.000000,1.000000,33.000000,-3.000000,-2.000000,1.000000,3.000000
1297449.582609,5.000000,-6.000000,20.000000,17.000000,-13.000000,0.000000,1.000000,5.000000
1297449.604393,7.000000,-23.000000,6.000000,36.000000,21.000000,-3.000000,-2.000000,-21.000000
1297449.604432,-54.000000,-90.000000,1.000000,-43.000000,-26.000000,-15.000000,-19.000000,-15.000000
1297449.611697,11.000000,46.000000,-8.000000,41.000000,2.000000,0.000000,0.000000,-6.000000
1297449.611729,24.000000,-35.000000,-1.000000,5.000000,11.000000,5.000000,17.000000,28.000000
1297449.627374,13.000000,0.000000,-16.000000,37.000000,4.000000,8.000000,-3.000000,6.000000
1297449.627395,-38.000000,-106.000000,16.000000,5.000000,-12.000000,-8.000000,6.000000,-32.000000
1297449.634575,-32.000000,-9.000000,-5.000000,-56.000000,-3.000000,-4.000000,-27.000000,-30.000000
1297449.634688,-7.000000,9.000000,13.000000,6.000000,-5.000000,-3.000000,-8.000000,3.000000
1297449.649067,-17.000000,-68.000000,-15.000000,-37.000000,-10.000000,-3.000000,20.000000,13.000000
1297449.649082,-24.000000,-14.000000,10.000000,60.000000,-9.000000,4.000000,-20.000000,-29.000000
1297449.649716,-3.000000,-75.000000,-14.000000,-33.000000,12.000000,-2.000000,-19.000000,8.000000
1297449.649736,70.000000,17.000000,6.000000,10.000000,-9.000000,18.000000,81.000000,36.000000
1297449.651143,11.000000,-12.000000,-10.000000,-18.000000,0.000000,-11.000000,-42.000000,-36.000000
1297449.651153,4.000000,-28.000000,4.000000,33.000000,11.000000,-4.000000,-5.000000,12.000000
1297449.664230,16.000000,25.000000,7.000000,53.000000,4.000000,5.000000,7.000000,5.000000
1297449.664244,29.000000,32.000000,8.000000,100.000000,4.000000,8.000000,5.000000,11.000000
1297449.687164,13.000000,17.000000,2.000000,-128.000000,7.000000,3.000000,15.000000,14.000000
1297449.687198,-11.000000,-46.000000,-11.000000,6.000000,7.000000,4.000000,-1.000000,-10.000000
1297449.687942,-31.000000,-28.000000,-4.000000,10.000000,8.000000,-1.000000,-13.000000,-8.000000
1297449.687984,56.000000,127.000000,5.000000,23.000000,-4.000000,3.000000,18.000000,21.000000
1297449.695437,-35.000000,4.000000,20.000000,87.000000,6.000000,12.000000,0.000000,-3.000000
1297449.695459,3.000000,45.000000,-39.000000,-23.000000,7.000000,-5.000000,-21.000000,-27.000000
1297449.702188,13.000000,-8.000000,15.000000,-1.000000,11.000000,-3.000000,4.000000,23.000000
1297449.702217,-22.000000,-6.000000,6.000000,18.000000,-4.000000,0.000000,6.000000,-18.000000
1297449.732431,-68.000000,-128.000000,-5.000000,47.000000,-15.000000,-7.000000,-5.000000,-9.000000
1297449.732452,-10.000000,-62.000000,-10.000000,-82.000000,-6.000000,-4.000000,-9.000000,-9.000000
1297449.739942,0.000000,21.000000,4.000000,68.000000,3.000000,-1.000000,0.000000,0.000000
1297449.739971,-74.000000,-76.000000,-6.000000,-107.000000,-11.000000,-3.000000,-8.000000,-14.000000
1297449.769922,46.000000,86.000000,15.000000,60.000000,4.000000,14.000000,15.000000,19.000000
1297449.770012,-48.000000,-5.000000,20.000000,5.000000,-10.000000,-7.000000,-18.000000,-32.000000
1297449.778086,-30.000000,111.000000,-9.000000,-56.000000,-2.000000,1.000000,7.000000,12.000000
1297449.778330,30.000000,93.000000,13.000000,14.000000,16.000000,4.000000,24.000000,16.000000
1297449.779679,-1.000000,21.000000,-28.000000,-67.000000,-21.000000,-8.000000,-31.000000,-30.000000
1297449.779708,-27.000000,9.000000,-7.000000,-33.000000,-1.000000,-7.000000,0.000000,12.000000
1297449.780373,-6.000000,49.000000,-1.000000,70.000000,-8.000000,6.000000,8.000000,10.000000
1297449.780661,-5.000000,43.000000,9.000000,-21.000000,-13.000000,-14.000000,-16.000000,-11.000000
1297449.781244,7.000000,10.000000,6.000000,-7.000000,7.000000,1.000000,1.000000,0.000000
1297449.781260,8.000000,13.000000,-8.000000,-15.000000,2.000000,-3.000000,1.000000,6.000000
1297449.784871,-4.000000,2.000000,1.000000,33.000000,-14.000000,-3.000000,-4.000000,1.000000
1297449.784901,-6.000000,-4.000000,-3.000000,-30.000000,-3.000000,-5.000000,-2.000000,-4.000000
1297449.807400,-4.000000,10.000000,-30.000000,-21.000000,-1.000000,0.000000,-12.000000,-16.000000
1297449.807473,6.000000,38.000000,16.000000,41.000000,7.000000,-3.000000,4.000000,9.000000
1297449.808271,23.000000,22.000000,-4.000000,45.000000,-4.000000,11.000000,20.000000,15.000000
1297449.808421,-20.000000,-26.000000,-3.000000,-94.000000,-5.000000,-12.000000,-49.000000,-51.000000
1297449.814907,-42.000000,-128.000000,26.000000,16.000000,-8.000000,-15.000000,-14.000000,-4.000000
1297449.814928,36.000000,56.000000,-30.000000,-7.000000,4.000000,7.000000,19.000000,19.000000
1297449.822340,-28.000000,-50.000000,-2.000000,28.000000,-17.000000,11.000000,32.000000,16.000000
1297449.822360,-10.000000,41.000000,-20.000000,-128.000000,7.000000,-26.000000,-65.000000,-55.000000
1297449.860129,14.000000,11.000000,-24.000000,-58.000000,1.000000,-1.000000,-8.000000,4.000000
1297449.860159,26.000000,-45.000000,-14.000000,27.000000,3.000000,5.000000,11.000000,13.000000
1297449.867732,-4.000000,12.000000,6.000000,32.000000,-7.000000,3.000000,32.000000,33.000000
1297449.867775,2.000000,28.000000,24.000000,46.000000,-23.000000,-13.000000,-29.000000,-30.000000
1297449.889929,-30.000000,108.000000,-7.000000,-51.000000,13.000000,6.000000,-5.000000,10.000000
1297449.889961,24.000000,8.000000,-14.000000,18.000000,7.000000,2.000000,13.000000,11.000000
1297449.897689,4.000000,-43.000000,6.000000,21.000000,-13.000000,-3.000000,-2.000000,-8.000000
1297449.897718,-16.000000,46.000000,5.000000,44.000000,-2.000000,-1.000000,-1.000000,-6.000000
1297449.906086,23.000000,-45.000000,-38.000000,-64.000000,-12.000000,0.000000,2.000000,8.000000
1297449.906192,-51.000000,9.000000,8.000000,31.000000,-11.000000,-9.000000,-7.000000,-10.000000
1297449.906871,7.000000,-128.000000,20.000000,15.000000,3.000000,-2.000000,-17.000000,-20.000000
1297449.906914,-18.000000,-124.000000,-6.000000,-5.000000,-11.000000,2.000000,12.000000,7.000000
1297449.908179,7.000000,-34.000000,-5.000000,-3.000000,-7.000000,0.000000,8.000000,7.000000
1297449.908201,16.000000,-25.000000,-13.000000,-20.000000,-14.000000,6.000000,16.000000,9.000000
1297449.927591,13.000000,-21.000000,-3.000000,-15.000000,-2.000000,0.000000,8.000000,15.000000
1297449.927640,-110.000000,-12.000000,25.000000,-34.000000,-25.000000,-16.000000,-28.000000,-35.000000
1297449.928613,-42.000000,-25.000000,-16.000000,-10.000000,-8.000000,-6.000000,-6.000000,4.000000
1297449.928646,27.000000,-3.000000,-3.000000,79.000000,1.000000,4.000000,15.000000,16.000000
1297449.935160,40.000000,40.000000,9.000000,-81.000000,-2.000000,4.000000,8.000000,14.000000
1297449.935190,8.000000,-27.000000,-7.000000,-22.000000,11.000000,5.000000,-3.000000,-7.000000
1297449.942701,-4.000000,127.000000,19.000000,-18.000000,7.000000,-3.000000,-8.000000,-5.000000
1297449.942732,3.000000,-31.000000,-22.000000,-1.000000,-12.000000,0.000000,6.000000,8.000000
1297449.972392,7.000000,-51.000000,5.000000,47.000000,-19.000000,2.000000,18.000000,17.000000
1297449.972433,-1.000000,-15.000000,-23.000000,0.000000,-11.000000,-16.000000,-28.000000,-27.000000
1297449.980563,-37.000000,-45.000000,-5.000000,-75.000000,-21.000000,-16.000000,-30.000000,-20.000000
1297449.980605,11.000000,16.000000,6.000000,24.000000,8.000000,9.000000,6.000000,2.000000
1297450.017422,-13.000000,-128.000000,-13.000000,14.000000,-4.000000,13.000000,30.000000,24.000000
1297450.017442,36.000000,26.000000,11.000000,62.000000,-10.000000,-11.000000,-29.000000,-22.000000
1297450.024962,-76.000000,-39.000000,-9.000000,-90.000000,-10.000000,-13.000000,-23.000000,-46.000000
1297450.024981,-28.000000,19.000000,7.000000,14.000000,8.000000,3.000000,10.000000,23.000000
1297450.026006,16.000000,-20.000000,-2.000000,13.000000,-3.000000,9.000000,-13.000000,-16.000000
1297450.026033,31.000000,-56.000000,10.000000,-16.000000,-5.000000,-11.000000,-14.000000,8.000000
1297450.047297,17.000000,-56.000000,-7.000000,83.000000,-1.000000,0.000000,17.000000,22.000000
1297450.047332,-63.000000,-99.000000,8.000000,-29.000000,-15.000000,-4.000000,-18.000000,-27.000000
1297450.049087,26.000000,-122.000000,26.000000,30.000000,-1.000000,3.000000,3.000000,10.000000
1297450.049294,17.000000,23.000000,17.000000,35.000000,-16.000000,2.000000,6.000000,7.000000
1297450.050382,7.000000,37.000000,-7.000000,-48.000000,9.000000,-5.000000,-16.000000,-18.000000
1297450.050414,39.000000,32.000000,6.000000,-34.000000,0.000000,1.000000,5.000000,10.000000
1297450.050816,-52.000000,-15.000000,23.000000,53.000000,-10.000000,8.000000,14.000000,6.000000
1297450.050843,39.000000,21.000000,-20.000000,-3.000000,-1.000000,-9.000000,-23.000000,13.000000
1297450.055174,-70.000000,34.000000,-1.000000,-10.000000,-16.000000,-10.000000,-12.000000,-28.000000
1297450.055221,-58.000000,-7.000000,21.000000,10.000000,-17.000000,-17.000000,-33.000000,-23.000000
1297450.062910,-60.000000,-27.000000,-18.000000,-2.000000,4.000000,9.000000,23.000000,17.000000
1297450.062950,49.000000,63.000000,1.000000,7.000000,3.000000,0.000000,3.000000,22.000000
1297450.077528,-17.000000,-23.000000,18.000000,16.000000,15.000000,15.000000,19.000000,22.000000
1297450.077577,-4.000000,19.000000,-5.000000,3.000000,-10.000000,-10.000000,-13.000000,-11.000000
1297450.084911,33.000000,-56.000000,-22.000000,-61.000000,21.000000,11.000000,12.000000,8.000000
1297450.084933,3.000000,-13.000000,-8.000000,23.000000,-22.000000,-8.000000,-1.000000,9.000000
1297450.100216,61.000000,78.000000,7.000000,-5.000000,8.000000,1.000000,-12.000000,-25.000000
1297450.100256,-8.000000,-16.000000,-24.000000,-8.000000,12.000000,-6.000000,-13.000000,-6.000000
1297450.114783,50.000000,124.000000,24.000000,20.000000,-12.000000,1.000000,8.000000,9.000000
1297450.114819,0.000000,127.000000,-8.000000,76.000000,17.000000,17.000000,10.000000,11.000000
1297450.137534,43.000000,44.000000,-9.000000,-23.000000,4.000000,2.000000,8.000000,2.000000
1297450.137570,4.000000,49.000000,-21.000000,-15.000000,-4.000000,-10.000000,-7.000000,8.000000
1297450.167513,-53.000000,39.000000,-13.000000,-60.000000,-4.000000,-10.000000,-26.000000,-20.000000
1297450.167553,47.000000,-19.000000,13.000000,-24.000000,-11.000000,-10.000000,-17.000000,-1.000000
1297450.182273,-16.000000,59.000000,19.000000,27.000000,-7.000000,7.000000,25.000000,16.000000
1297450.182311,7.000000,-26.000000,-12.000000,26.000000,6.000000,1.000000,-16.000000,-14.000000
1297450.189742,73.000000,-128.000000,-4.000000,-6.000000,-17.000000,1.000000,-6.000000,15.000000
1297450.189779,65.000000,22.000000,-5.000000,-29.000000,1.000000,2.000000,23.000000,14.000000
1297450.204959,-65.000000,49.000000,16.000000,83.000000,-8.000000,-13.000000,-40.000000,-38.000000
1297450.204979,68.000000,47.000000,-3.000000,-120.000000,12.000000,-4.000000,-11.000000,12.000000
1297450.212549,-21.000000,21.000000,-12.000000,6.000000,5.000000,14.000000,20.000000,6.000000
1297450.212614,-8.000000,-49.000000,-11.000000,33.000000,-27.000000,-1.000000,7.000000,5.000000
1297450.219753,-20.000000,-128.000000,-6.000000,-59.000000,10.000000,3.000000,6.000000,4.000000
1297450.219789,17.000000,45.000000,6.000000,39.000000,-11.000000,4.000000,12.000000,4.000000
1297450.250418,-27.000000,-106.000000,7.000000,21.000000,-18.000000,-11.000000,-12.000000,-7.000000
1297450.250585,-3.000000,3.000000,-13.000000,-13.000000,19.000000,7.000000,8.000000,14.000000
1297450.251020,18.000000,-92.000000,-3.000000,-28.000000,2.000000,-5.000000,-8.000000,-2.000000
1297450.251198,-78.000000,63.000000,1.000000,24.000000,-10.000000,11.000000,32.000000,16.000000
1297450.252108,17.000000,-24.000000,6.000000,20.000000,4.000000,9.000000,10.000000,6.000000
1297450.252143,26.000000,30.000000,5.000000,37.000000,-4.000000,13.000000,16.000000,11.000000
1297450.253507,30.000000,9.000000,-19.000000,122.000000,-9.000000,6.000000,25.000000,34.000000
1297450.253544,-106.000000,-128.000000,-31.000000,-128.000000,-1.000000,-13.000000,-41.000000,-78.000000
1297450.257131,2.000000,-8.000000,8.000000,56.000000,5.000000,-3.000000,3.000000,1.000000
1297450.257169,12.000000,93.000000,-16.000000,-42.000000,18.000000,-8.000000,-6.000000,0.000000
1297450.272565,-23.000000,63.000000,-19.000000,47.000000,-5.000000,15.000000,28.000000,18.000000
1297450.272783,76.000000,-88.000000,-6.000000,-128.000000,11.000000,5.000000,16.000000,8.000000
1297450.273835,-26.000000,25.000000,3.000000,94.000000,-4.000000,-6.000000,-32.000000,-23.000000
1297450.273869,2.000000,127.000000,7.000000,-17.000000,7.000000,1.000000,2.000000,8.000000
1297450.287266,-8.000000,1.000000,-9.000000,12.000000,-7.000000,2.000000,10.000000,9.000000
1297450.287312,41.000000,26.000000,3.000000,4.000000,7.000000,5.000000,12.000000,11.000000
1297450.294685,10.000000,-5.000000,28.000000,8.000000,4.000000,5.000000,8.000000,8.000000
1297450.294779,0.000000,-99.000000,-6.000000,-2.000000,-38.000000,-29.000000,-47.000000,-35.000000
1297450.302013,15.000000,127.000000,1.000000,5.000000,46.000000,13.000000,18.000000,16.000000
1297450.302031,-66.000000,-30.000000,0.000000,-61.000000,-10.000000,-1.000000,-3.000000,-19.000000
1297450.332236,45.000000,39.000000,9.000000,14.000000,4.000000,-1.000000,8.000000,8.000000
1297450.332271,-8.000000,6.000000,16.000000,47.000000,-5.000000,7.000000,16.000000,8.000000
1297450.339532,73.000000,89.000000,-11.000000,-84.000000,-5.000000,-9.000000,-21.000000,-15.000000
1297450.339552,12.000000,-128.000000,-11.000000,51.000000,13.000000,5.000000,7.000000,4.000000
1297450.362351,-44.000000,34.000000,22.000000,8.000000,-7.000000,6.000000,11.000000,3.000000
1297450.362398,-41.000000,-24.000000,-15.000000,-40.000000,-15.000000,-25.000000,-33.000000,-19.000000
1297450.363252,-28.000000,36.000000,30.000000,39.000000,-2.000000,2.000000,7.000000,8.000000
1297450.363288,-44.000000,-79.000000,-44.000000,-1.000000,-22.000000,-7.000000,-12.000000,-8.000000
1297450.364394,52.000000,-6.000000,4.000000,7.000000,3.000000,8.000000,7.000000,6.000000
1297450.364618,-44.000000,102.000000,-11.000000,3.000000,2.000000,2.000000,9.000000,1.000000
1297450.364938,-35.000000,-128.000000,15.000000,-37.000000,-12.000000,-9.000000,-24.000000,-20.000000
1297450.364972,33.000000,-84.000000,-5.000000,-28.000000,-21.000000,-13.000000,-25.000000,-14.000000
1297450.377073,64.000000,127.000000,19.000000,66.000000,23.000000,6.000000,21.000000,18.000000
1297450.377111,-26.000000,10.000000,3.000000,0.000000,-18.000000,-12.000000,-19.000000,-39.000000
1297450.407149,-18.000000,-37.000000,-7.000000,44.000000,1.000000,3.000000,-1.000000,-2.000000
1297450.407299,-19.000000,17.000000,-9.000000,-42.000000,4.000000,8.000000,11.000000,9.000000
1297450.408598,73.000000,-49.000000,0.000000,18.000000,-1.000000,-4.000000,1.000000,6.000000
1297450.408802,1.000000,1.000000,12.000000,20.000000,-5.000000,-2.000000,-4.000000,-15.000000
1297450.409301,-18.000000,1.000000,-18.000000,60.000000,-2.000000,-9.000000,-26.000000,-12.000000
1297450.409337,-22.000000,-57.000000,-5.000000,-45.000000,4.000000,4.000000,8.000000,4.000000
1297450.414590,-23.000000,6.000000,2.000000,-71.000000,10.000000,13.000000,24.000000,10.000000
1297450.414609,66.000000,75.000000,-6.000000,17.000000,-25.000000,-26.000000,-34.000000,-24.000000
1297450.444883,-9.000000,-49.000000,-12.000000,-52.000000,20.000000,6.000000,24.000000,34.000000
1297450.444904,-11.000000,-70.000000,-7.000000,99.000000,-6.000000,-1.000000,1.000000,-33.000000
1297450.460038,-35.000000,-97.000000,17.000000,-33.000000,3.000000,1.000000,-13.000000,-8.000000
1297450.460060,-7.000000,41.000000,-4.000000,-20.000000,0.000000,-6.000000,-8.000000,5.000000
1297450.467126,18.000000,3.000000,-4.000000,43.000000,-1.000000,7.000000,10.000000,3.000000
1297450.467148,-34.000000,1.000000,-21.000000,-11.000000,-5.000000,-7.000000,5.000000,-18.000000
1297450.482802,50.000000,32.000000,13.000000,7.000000,6.000000,-7.000000,-15.000000,-5.000000
1297450.482841,-29.000000,-32.000000,-5.000000,15.000000,0.000000,3.000000,12.000000,1.000000
1297450.483857,58.000000,-128.000000,-8.000000,34.000000,0.000000,8.000000,9.000000,0.000000
1297450.483896,-15.000000,21.000000,21.000000,-72.000000,-1.000000,-21.000000,-35.000000,-27.000000
1297450.485477,38.000000,115.000000,-19.000000,79.000000,16.000000,12.000000,17.000000,31.000000
1297450.485561,37.000000,-22.000000,-8.000000,-32.000000,1.000000,1.000000,9.000000,2.000000
1297450.485841,-9.000000,-60.000000,-13.000000,-4.000000,-10.000000,-7.000000,-3.000000,-11.000000
1297450.485872,1.000000,60.000000,6.000000,49.000000,19.000000,-2.000000,-1.000000,7.000000
1297450.497197,-6.000000,-94.000000,18.000000,-22.000000,-23.000000,-1.000000,2.000000,-1.000000
1297450.497234,59.000000,1.000000,17.000000,-1.000000,12.000000,-5.000000,-7.000000,4.000000
1297450.504684,-101.000000,-10.000000,0.000000,12.000000,-4.000000,4.000000,4.000000,-2.000000
1297450.504719,4.000000,-22.000000,7.000000,89.000000,-1.000000,-5.000000,-8.000000,-3.000000
1297450.520325,-42.000000,-17.000000,-39.000000,-96.000000,1.000000,7.000000,18.000000,16.000000
1297450.520359,-6.000000,61.000000,25.000000,19.000000,-10.000000,-14.000000,-17.000000,-5.000000
1297450.528146,20.000000,108.000000,-4.000000,-4.000000,12.000000,-1.000000,-22.000000,-6.000000
1297450.528165,-6.000000,38.000000,-1.000000,18.000000,8.000000,16.000000,32.000000,30.000000
1297450.535044,73.000000,19.000000,22.000000,-8.000000,2.000000,-3.000000,-20.000000,-19.000000
1297450.535082,-101.000000,-14.000000,18.000000,20.000000,-1.000000,0.000000,8.000000,9.000000
1297450.564787,52.000000,106.000000,0.000000,-8.000000,4.000000,6.000000,18.000000,15.000000
1297450.564809,26.000000,-12.000000,4.000000,-82.000000,6.000000,-3.000000,14.000000,10.000000
1297450.579679,-83.000000,-46.000000,-4.000000,43.000000,-3.000000,2.000000,-1.000000,-5.000000
1297450.579698,54.000000,-33.000000,-12.000000,-106.000000,12.000000,5.000000,11.000000,11.000000
1297450.587278,-7.000000,102.000000,4.000000,18.000000,6.000000,3.000000,2.000000,1.000000
1297450.587315,-35.000000,127.000000,-23.000000,-47.000000,18.000000,-3.000000,-4.000000,-13.000000
1297450.603060,7.000000,-6.000000,16.000000,48.000000,-10.000000,0.000000,0.000000,9.000000
1297450.603096,30.000000,24.000000,-8.000000,-17.000000,6.000000,7.000000,9.000000,5.000000
1297450.604062,-27.000000,-46.000000,8.000000,-33.000000,-6.000000,0.000000,5.000000,4.000000
1297450.604104,37.000000,16.000000,-20.000000,3.000000,8.000000,1.000000,-11.000000,-6.000000
1297450.604895,-92.000000,-19.000000,1.000000,6.000000,-22.000000,-22.000000,-40.000000,-27.000000
1297450.604999,66.000000,47.000000,5.000000,37.000000,14.000000,15.000000,41.000000,34.000000
1297450.605660,-5.000000,-38.000000,13.000000,38.000000,-9.000000,-24.000000,-40.000000,-27.000000
1297450.605678,-90.000000,-109.000000,4.000000,-62.000000,-13.000000,-2.000000,3.000000,-14.000000
1297450.617275,56.000000,-95.000000,-2.000000,-8.000000,-20.000000,-19.000000,-27.000000,-13.000000
1297450.617314,-77.000000,34.000000,12.000000,-3.000000,-1.000000,14.000000,38.000000,37.000000
1297450.632186,26.000000,-14.000000,-17.000000,31.000000,-20.000000,-21.000000,-33.000000,-50.000000
1297450.632257,13.000000,66.000000,-17.000000,-94.000000,25.000000,-4.000000,1.000000,11.000000
1297450.640414,17.000000,120.000000,4.000000,74.000000,16.000000,16.000000,30.000000,29.000000
1297450.640436,57.000000,14.000000,-62.000000,-10.000000,-16.000000,-3.000000,6.000000,4.000000
1297450.647186,-3.000000,-88.000000,-1.000000,35.000000,-5.000000,-2.000000,-4.000000,-6.000000
1297450.647219,-50.000000,-27.000000,-16.000000,-35.000000,8.000000,-3.000000,-4.000000,-12.000000
1297450.654628,67.000000,-48.000000,-1.000000,-22.000000,-17.000000,0.000000,1.000000,5.000000
1297450.654664,-23.000000,29.000000,-28.000000,21.000000,11.000000,3.000000,3.000000,0.000000
1297450.662296,-7.000000,17.000000,7.000000,33.000000,-6.000000,-5.000000,-15.000000,-5.000000
1297450.662333,-41.000000,-30.000000,15.000000,40.000000,-4.000000,4.000000,1.000000,-5.000000
1297450.692330,-19.000000,-17.000000,11.000000,-81.000000,-15.000000,-15.000000,-4.000000,-7.000000
1297450.692372,40.000000,43.000000,18.000000,-7.000000,7.000000,8.000000,15.000000,14.000000
1297450.722275,87.000000,14.000000,12.000000,23.000000,8.000000,6.000000,7.000000,18.000000
1297450.722313,-65.000000,-128.000000,0.000000,13.000000,-29.000000,-30.000000,-58.000000,-57.000000
1297450.730657,56.000000,127.000000,-16.000000,-42.000000,12.000000,6.000000,17.000000,32.000000
1297450.730931,-66.000000,-43.000000,16.000000,-6.000000,-8.000000,-22.000000,-44.000000,-62.000000
1297450.731724,95.000000,74.000000,5.000000,17.000000,22.000000,10.000000,13.000000,46.000000
1297450.731756,-128.000000,-116.000000,-5.000000,-18.000000,-16.000000,-2.000000,2.000000,-18.000000
1297450.732712,-13.000000,20.000000,-1.000000,7.000000,3.000000,2.000000,8.000000,5.000000
1297450.732733,26.000000,124.000000,-6.000000,58.000000,5.000000,3.000000,9.000000,9.000000
1297450.733387,25.000000,-77.000000,12.000000,6.000000,4.000000,-2.000000,-3.000000,0.000000
1297450.733405,8.000000,-9.000000,12.000000,-62.000000,-1.000000,-8.000000,-25.000000,-33.000000
1297450.737195,-33.000000,-35.000000,-13.000000,42.000000,-4.000000,6.000000,6.000000,-3.000000
1297450.737215,14.000000,12.000000,-2.000000,32.000000,7.000000,-2.000000,-13.000000,-5.000000
1297450.744764,93.000000,57.000000,5.000000,-37.000000,-1.000000,7.000000,18.000000,20.000000
1297450.744802,7.000000,-9.000000,1.000000,39.000000,-5.000000,-12.000000,-12.000000,-10.000000
1297450.760162,24.000000,5.000000,12.000000,-5.000000,4.000000,-2.000000,-3.000000,5.000000
1297450.760190,-85.000000,-50.000000,5.000000,-24.000000,-24.000000,-11.000000,-17.000000,-23.000000
1297450.766998,35.000000,127.000000,5.000000,7.000000,7.000000,12.000000,11.000000,15.000000
1297450.767016,-14.000000,-4.000000,10.000000,10.000000,-6.000000,1.000000,-6.000000,-22.000000
1297450.774804,61.000000,-23.000000,7.000000,30.000000,-3.000000,-8.000000,-4.000000,21.000000
1297450.774841,49.000000,-35.000000,-19.000000,-17.000000,-7.000000,7.000000,9.000000,-12.000000
1297450.797415,-61.000000,-29.000000,13.000000,-17.000000,-18.000000,-7.000000,-19.000000,-23.000000
1297450.797452,19.000000,112.000000,-23.000000,47.000000,26.000000,9.000000,-8.000000,4.000000
1297450.812383,7.000000,17.000000,11.000000,4.000000,-12.000000,15.000000,17.000000,18.000000
1297450.812425,-99.000000,-95.000000,19.000000,-21.000000,18.000000,3.000000,16.000000,14.000000
1297450.819546,58.000000,51.000000,-7.000000,-14.000000,5.000000,-4.000000,-13.000000,-16.000000
1297450.819564,105.000000,72.000000,15.000000,33.000000,-5.000000,-7.000000,-17.000000,34.000000
1297450.842177,42.000000,11.000000,35.000000,64.000000,-18.000000,-3.000000,14.000000,4.000000
1297450.842196,-54.000000,-128.000000,-7.000000,-78.000000,-1.000000,9.000000,19.000000,-9.000000
1297450.849656,-128.000000,-106.000000,-15.000000,3.000000,1.000000,-5.000000,-22.000000,-23.000000
1297450.849696,-26.000000,-102.000000,28.000000,42.000000,-6.000000,-11.000000,-5.000000,6.000000
1297450.850966,127.000000,22.000000,-11.000000,30.000000,7.000000,14.000000,25.000000,28.000000
1297450.850995,-54.000000,22.000000,29.000000,-17.000000,-7.000000,-3.000000,-17.000000,-13.000000
1297450.851672,-3.000000,-45.000000,0.000000,77.000000,-1.000000,6.000000,4.000000,8.000000
1297450.851696,100.000000,79.000000,2.000000,-93.000000,-1.000000,1.000000,15.000000,20.000000
1297450.857138,4.000000,-125.000000,-30.000000,5.000000,-23.000000,-27.000000,-26.000000,-24.000000
1297450.857174,12.000000,37.000000,16.000000,-43.000000,0.000000,0.000000,0.000000,-8.000000
1297450.880386,9.000000,-77.000000,-23.000000,6.000000,-8.000000,-10.000000,-36.000000,-47.000000
1297450.880415,-71.000000,9.000000,0.000000,-4.000000,-3.000000,-4.000000,3.000000,-3.000000
1297450.881297,-9.000000,59.000000,21.000000,6.000000,3.000000,0.000000,-10.000000,6.000000
1297450.881330,-102.000000,-32.000000,11.000000,-7.000000,-24.000000,0.000000,7.000000,-18.000000
1297450.887177,-64.000000,-128.000000,3.000000,29.000000,4.000000,6.000000,14.000000,14.000000
1297450.887199,23.000000,114.000000,-24.000000,11.000000,6.000000,-4.000000,-9.000000,-7.000000
1297450.909631,45.000000,71.000000,7.000000,-10.000000,-8.000000,-7.000000,-11.000000,2.000000
1297450.909672,29.000000,17.000000,6.000000,41.000000,14.000000,19.000000,17.000000,10.000000
1297450.917241,12.000000,14.000000,14.000000,-97.000000,11.000000,15.000000,42.000000,22.000000
1297450.917278,-12.000000,-37.000000,3.000000,75.000000,-28.000000,-27.000000,-56.000000,-41.000000
1297450.925678,-35.000000,5.000000,7.000000,-101.000000,-3.000000,-1.000000,-7.000000,4.000000
1297450.925917,19.000000,36.000000,21.000000,55.000000,3.000000,-1.000000,17.000000,18.000000
1297450.926400,44.000000,42.000000,19.000000,28.000000,-2.000000,9.000000,8.000000,3.000000
1297450.926418,14.000000,49.000000,6.000000,28.000000,1.000000,2.000000,8.000000,16.000000
1297450.932840,12.000000,-108.000000,-16.000000,-72.000000,-13.000000,-13.000000,-13.000000,-10.000000
1297450.932873,44.000000,127.000000,13.000000,21.000000,30.000000,-3.000000,-11.000000,-5.000000
1297450.962551,-33.000000,-45.000000,-28.000000,19.000000,-7.000000,6.000000,7.000000,3.000000
1297450.962573,12.000000,47.000000,16.000000,10.000000,1.000000,6.000000,7.000000,3.000000
1297450.970482,12.000000,8.000000,34.000000,12.000000,-12.000000,-1.000000,-15.000000,0.000000
1297450.970500,-49.000000,-65.000000,-29.000000,-8.000000,-10.000000,-4.000000,-15.000000,-43.000000
1297450.971107,66.000000,87.000000,11.000000,-17.000000,22.000000,2.000000,16.000000,32.000000
1297450.971135,51.000000,55.000000,10.000000,21.000000,9.000000,7.000000,13.000000,6.000000
1297451.000431,35.000000,-78.000000,-1.000000,-30.000000,-1.000000,-3.000000,1.000000,2.000000
1297451.000712,-17.000000,-70.000000,-2.000000,-12.000000,-4.000000,-8.000000,-16.000000,-5.000000
1297451.001230,9.000000,-11.000000,18.000000,-24.000000,-1.000000,4.000000,0.000000,5.000000
1297451.001383,32.000000,127.000000,13.000000,62.000000,9.000000,12.000000,25.000000,25.000000
1297451.002019,39.000000,-128.000000,-17.000000,11.000000,3.000000,-9.000000,-18.000000,-19.000000
1297451.002054,20.000000,-72.000000,-27.000000,-72.000000,-6.000000,-21.000000,-26.000000,-1.000000
1297451.007411,24.000000,41.000000,-11.000000,54.000000,-7.000000,6.000000,8.000000,6.000000
1297451.007439,-21.000000,57.000000,9.000000,28.000000,-16.000000,5.000000,19.000000,12.000000
1297451.037113,3.000000,127.000000,-9.000000,63.000000,25.000000,8.000000,7.000000,7.000000
1297451.037149,42.000000,3.000000,-25.000000,-88.000000,-18.000000,-23.000000,-39.000000,-28.000000
1297451.044645,-68.000000,-54.000000,9.000000,13.000000,-7.000000,-1.000000,4.000000,-7.000000
1297451.044683,-1.000000,127.000000,-1.000000,22.000000,7.000000,13.000000,22.000000,15.000000
1297451.067372,-4.000000,-118.000000,-29.000000,-69.000000,0.000000,-12.000000,-10.000000,-9.000000
1297451.067392,-56.000000,-128.000000,25.000000,3.000000,-8.000000,-10.000000,-25.000000,-13.000000
1297451.074768,6.000000,-39.000000,-12.000000,10.000000,2.000000,-5.000000,2.000000,3.000000
1297451.074858,29.000000,40.000000,-2.000000,24.000000,5.000000,7.000000,8.000000,11.000000
1297451.090770,-69.000000,41.000000,2.000000,-42.000000,-1.000000,-5.000000,-15.000000,-15.000000
1297451.090910,2.000000,-39.000000,-20.000000,0.000000,-6.000000,-6.000000,-4.000000,-2.000000
1297451.091209,14.000000,-16.000000,-4.000000,15.000000,7.000000,2.000000,10.000000,13.000000
1297451.091253,14.000000,44.000000,22.000000,58.000000,8.000000,4.000000,6.000000,-5.000000
1297451.092955,-26.000000,-22.000000,4.000000,-98.000000,-5.000000,-7.000000,-11.000000,-11.000000
1297451.092988,7.000000,-47.000000,7.000000,100.000000,0.000000,1.000000,-1.000000,0.000000
1297451.093255,31.000000,26.000000,29.000000,-21.000000,19.000000,15.000000,18.000000,12.000000
1297451.093278,-43.000000,127.000000,-1.000000,16.000000,-7.000000,-20.000000,-44.000000,-32.000000
1297451.097281,10.000000,47.000000,46.000000,63.000000,14.000000,2.000000,4.000000,5.000000
1297451.097319,55.000000,115.000000,12.000000,-57.000000,17.000000,8.000000,24.000000,21.000000
1297451.104556,-22.000000,-109.000000,-28.000000,-21.000000,-22.000000,-11.000000,-18.000000,-8.000000
1297451.104574,7.000000,-1.000000,0.000000,-3.000000,-9.000000,-9.000000,-23.000000,-20.000000
1297451.120331,33.000000,-10.000000,20.000000,-7.000000,11.000000,8.000000,15.000000,13.000000
1297451.120363,39.000000,3.000000,-31.000000,23.000000,-6.000000,4.000000,12.000000,10.000000
1297451.127441,-23.000000,14.000000,17.000000,-51.000000,-5.000000,-11.000000,-19.000000,-18.000000
1297451.127484,0.000000,-128.000000,24.000000,37.000000,6.000000,-5.000000,-16.000000,-4.000000
1297451.157502,30.000000,-128.000000,-53.000000,5.000000,-3.000000,0.000000,10.000000,3.000000
1297451.157523,100.000000,7.000000,8.000000,-4.000000,6.000000,6.000000,25.000000,24.000000
1297451.164645,-58.000000,-15.000000,21.000000,-10.000000,-16.000000,-22.000000,-29.000000,-16.000000
1297451.164685,-88.000000,-118.000000,-9.000000,35.000000,-20.000000,-20.000000,-28.000000,-34.000000
1297451.179969,89.000000,127.000000,-32.000000,-53.000000,22.000000,10.000000,17.000000,24.000000
1297451.179990,-30.000000,34.000000,7.000000,-12.000000,-10.000000,13.000000,22.000000,17.000000
1297451.195046,3.000000,8.000000,3.000000,54.000000,-1.000000,-8.000000,-8.000000,-13.000000
1297451.195082,-14.000000,-84.000000,-15.000000,-54.000000,12.000000,-2.000000,2.000000,2.000000
1297451.196310,39.000000,-11.000000,7.000000,39.000000,1.000000,4.000000,8.000000,-1.000000
1297451.196331,-14.000000,28.000000,1.000000,-20.000000,-12.000000,-3.000000,-10.000000,-6.000000
1297451.197333,53.000000,6.000000,5.000000,1.000000,-4.000000,-3.000000,-1.000000,10.000000
1297451.197471,12.000000,-128.000000,-41.000000,-8.000000,9.000000,-3.000000,0.000000,-2.000000
1297451.198249,-121.000000,4.000000,4.000000,27.000000,13.000000,12.000000,17.000000,4.000000
1297451.198265,59.000000,-31.000000,14.000000,13.000000,-29.000000,-31.000000,-61.000000,-33.000000
1297451.209887,-23.000000,-27.000000,9.000000,-21.000000,16.000000,-3.000000,4.000000,-8.000000
1297451.209909,28.000000,35.000000,9.000000,-1.000000,7.000000,13.000000,28.000000,22.000000
1297451.240135,50.000000,-11.000000,17.000000,9.000000,-34.000000,-17.000000,-32.000000,-32.000000
1297451.240230,10.000000,48.000000,-6.000000,36.000000,25.000000,2.000000,3.000000,13.000000
1297451.240555,-74.000000,-2.000000,0.000000,-39.000000,-7.000000,6.000000,5.000000,4.000000
1297451.240581,51.000000,-22.000000,23.000000,27.000000,1.000000,7.000000,19.000000,7.000000
1297451.241998,25.000000,-43.000000,-28.000000,7.000000,-9.000000,-25.000000,-41.000000,-20.000000
1297451.242030,78.000000,24.000000,-6.000000,-40.000000,13.000000,2.000000,2.000000,6.000000
1297451.247153,19.000000,89.000000,-6.000000,-47.000000,-18.000000,4.000000,11.000000,-3.000000
1297451.247174,-46.000000,-107.000000,-32.000000,-2.000000,-3.000000,-6.000000,0.000000,-11.000000
1297451.284806,56.000000,67.000000,13.000000,30.000000,-4.000000,-2.000000,1.000000,15.000000
1297451.284828,-117.000000,-128.000000,-5.000000,-4.000000,-20.000000,-7.000000,-13.000000,-27.000000
1297451.292233,-20.000000,102.000000,-5.000000,-10.000000,31.000000,12.000000,-7.000000,-1.000000
1297451.292264,-43.000000,91.000000,33.000000,0.000000,3.000000,3.000000,8.000000,14.000000
1297451.307189,-37.000000,-94.000000,-33.000000,64.000000,-11.000000,-3.000000,0.000000,-12.000000
1297451.307210,38.000000,-75.000000,9.000000,-49.000000,-10.000000,-2.000000,-1.000000,-10.000000
1297451.314554,-17.000000,85.000000,21.000000,0.000000,8.000000,0.000000,-13.000000,-4.000000
1297451.314575,27.000000,40.000000,-9.000000,12.000000,10.000000,14.000000,42.000000,42.000000
1297451.316197,-43.000000,52.000000,9.000000,5.000000,-12.000000,-3.000000,-6.000000,-38.000000
1297451.316235,65.000000,41.000000,17.000000,12.000000,-10.000000,-31.000000,-49.000000,-8.000000
1297451.316963,-14.000000,15.000000,-25.000000,-20.000000,-3.000000,15.000000,32.000000,22.000000
1297451.317222,-14.000000,21.000000,16.000000,13.000000,9.000000,0.000000,-5.000000,-13.000000
1297451.318049,-14.000000,44.000000,-14.000000,-6.000000,-2.000000,-9.000000,-15.000000,-13.000000
1297451.318080,-17.000000,-14.000000,10.000000,-10.000000,-1.000000,4.000000,16.000000,13.000000
1297451.330279,-52.000000,-29.000000,11.000000,84.000000,11.000000,10.000000,14.000000,2.000000
1297451.330317,30.000000,-88.000000,-8.000000,-105.000000,-10.000000,-7.000000,-17.000000,-7.000000
1297451.352178,65.000000,1.000000,1.000000,6.000000,10.000000,1.000000,-1.000000,13.000000
1297451.352213,4.000000,-11.000000,4.000000,-6.000000,-2.000000,2.000000,1.000000,1.000000
1297451.359567,30.000000,9.000000,4.000000,18.000000,-7.000000,2.000000,-5.000000,-20.000000
1297451.359606,29.000000,-9.000000,18.000000,-31.000000,5.000000,0.000000,8.000000,18.000000
1297451.374742,6.000000,-11.000000,-28.000000,21.000000,-10.000000,0.000000,15.000000,11.000000
1297451.374762,-5.000000,-26.000000,-1.000000,-21.000000,9.000000,-15.000000,-28.000000,-19.000000
1297451.397354,5.000000,4.000000,-4.000000,-31.000000,-6.000000,1.000000,-9.000000,-3.000000
1297451.397392,-50.000000,35.000000,32.000000,32.000000,-6.000000,13.000000,18.000000,5.000000
1297451.435591,-63.000000,-128.000000,-35.000000,-14.000000,3.000000,0.000000,4.000000,-16.000000
1297451.435837,15.000000,43.000000,9.000000,12.000000,-2.000000,-25.000000,-35.000000,-3.000000
1297451.436208,33.000000,10.000000,4.000000,32.000000,20.000000,16.000000,11.000000,15.000000
1297451.436228,108.000000,38.000000,2.000000,-17.000000,5.000000,-4.000000,-2.000000,-5.000000
1297451.437314,22.000000,33.000000,10.000000,43.000000,-2.000000,-2.000000,6.000000,11.000000
1297451.437532,25.000000,108.000000,-17.000000,11.000000,4.000000,6.000000,2.000000,-1.000000
1297451.437783,-11.000000,-24.000000,-11.000000,-32.000000,11.000000,-5.000000,-4.000000,-5.000000
1297451.437805,42.000000,31.000000,16.000000,2.000000,-5.000000,3.000000,8.000000,10.000000
1297451.438171,5.000000,3.000000,-15.000000,-16.000000,-4.000000,1.000000,2.000000,4.000000
1297451.438339,0.000000,13.000000,3.000000,51.000000,6.000000,7.000000,1.000000,0.000000
1297451.438766,20.000000,-48.000000,-5.000000,1.000000,-7.000000,3.000000,-2.000000,5.000000
1297451.438798,53.000000,127.000000,2.000000,0.000000,9.000000,0.000000,11.000000,2.000000
1297451.449759,23.000000,53.000000,4.000000,24.000000,1.000000,2.000000,8.000000,-4.000000
1297451.449797,62.000000,60.000000,-16.000000,-64.000000,26.000000,14.000000,20.000000,8.000000
1297451.479946,29.000000,-20.000000,-21.000000,-1.000000,2.000000,-8.000000,-8.000000,23.000000
1297451.479969,22.000000,-19.000000,46.000000,32.000000,1.000000,-6.000000,5.000000,1.000000
1297451.487230,-4.000000,0.000000,-26.000000,11.000000,-15.000000,-2.000000,-35.000000,-6.000000
1297451.487248,23.000000,50.000000,2.000000,-39.000000,6.000000,4.000000,29.000000,-1.000000
1297451.510015,-60.000000,-10.000000,-11.000000,-8.000000,-23.000000,-6.000000,2.000000,-5.000000
1297451.510064,35.000000,24.000000,2.000000,4.000000,9.000000,-3.000000,5.000000,11.000000
1297451.517202,-28.000000,-75.000000,-17.000000,-11.000000,-3.000000,-7.000000,-12.000000,-6.000000
1297451.517238,-7.000000,93.000000,6.000000,9.000000,-2.000000,-3.000000,-5.000000,0.000000
1297451.554632,10.000000,56.000000,10.000000,-52.000000,14.000000,6.000000,1.000000,1.000000
1297451.554834,-128.000000,-128.000000,-21.000000,71.000000,-24.000000,-4.000000,-11.000000,-20.000000
1297451.555329,27.000000,20.000000,14.000000,-49.000000,4.000000,6.000000,11.000000,16.000000
1297451.555360,36.000000,45.000000,12.000000,43.000000,-5.000000,-3.000000,-1.000000,-13.000000
1297451.557138,28.000000,-35.000000,2.000000,5.000000,0.000000,2.000000,7.000000,16.000000
1297451.557181,-115.000000,-75.000000,3.000000,-56.000000,9.000000,-3.000000,-5.000000,-12.000000
1297451.558002,-81.000000,27.000000,2.000000,13.000000,-7.000000,-9.000000,-12.000000,-10.000000
1297451.558022,22.000000,24.000000,-39.000000,-82.000000,-4.000000,3.000000,4.000000,-1.000000
1297451.558851,-28.000000,73.000000,30.000000,39.000000,9.000000,8.000000,2.000000,-5.000000
1297451.558888,18.000000,-8.000000,9.000000,19.000000,-4.000000,5.000000,12.000000,37.000000
1297451.569695,35.000000,42.000000,16.000000,21.000000,2.000000,0.000000,7.000000,13.000000
1297451.569737,-34.000000,42.000000,23.000000,19.000000,4.000000,-7.000000,-9.000000,-5.000000
1297451.584624,19.000000,-17.000000,-36.000000,17.000000,8.000000,0.000000,1.000000,-5.000000
1297451.584661,-17.000000,-19.000000,-13.000000,-50.000000,-9.000000,-5.000000,5.000000,0.000000
1297451.592514,44.000000,19.000000,-16.000000,54.000000,6.000000,4.000000,7.000000,9.000000
1297451.592605,46.000000,18.000000,1.000000,7.000000,11.000000,3.000000,-4.000000,-3.000000
1297451.599704,1.000000,-63.000000,-13.000000,57.000000,6.000000,-1.000000,1.000000,3.000000
1297451.599722,-9.000000,-2.000000,-3.000000,-39.000000,-10.000000,-12.000000,-14.000000,-12.000000
1297451.607190,19.000000,31.000000,22.000000,30.000000,10.000000,2.000000,9.000000,10.000000
1297451.607209,19.000000,36.000000,-30.000000,-128.000000,-17.000000,-7.000000,-9.000000,-10.000000
1297451.629737,-94.000000,71.000000,23.000000,114.000000,6.000000,1.000000,-22.000000,-20.000000
1297451.629777,-29.000000,-105.000000,17.000000,-117.000000,-21.000000,-20.000000,-22.000000,-16.000000
1297451.637183,-47.000000,-13.000000,-46.000000,29.000000,-14.000000,-3.000000,-1.000000,-10.000000
1297451.637207,41.000000,3.000000,8.000000,7.000000,-10.000000,-5.000000,-9.000000,4.000000
1297451.660031,-31.000000,-17.000000,-1.000000,5.000000,-5.000000,-1.000000,11.000000,0.000000
1297451.660050,7.000000,73.000000,7.000000,11.000000,6.000000,-3.000000,-17.000000,-4.000000
1297451.674920,2.000000,50.000000,1.000000,9.000000,2.000000,3.000000,5.000000,3.000000
1297451.674955,-9.000000,-3.000000,-14.000000,-18.000000,-1.000000,5.000000,15.000000,10.000000
1297451.676800,13.000000,95.000000,18.000000,105.000000,1.000000,5.000000,2.000000,8.000000
1297451.676822,28.000000,1.000000,-26.000000,-119.000000,1.000000,0.000000,-1.000000,3.000000
1297451.677075,-43.000000,-31.000000,14.000000,-1.000000,-4.000000,-2.000000,-4.000000,-5.000000
1297451.677093,12.000000,-4.000000,8.000000,22.000000,7.000000,-3.000000,-3.000000,-2.000000
1297451.678253,30.000000,20.000000,-9.000000,26.000000,1.000000,6.000000,1.000000,6.000000
1297451.678290,15.000000,54.000000,26.000000,17.000000,-7.000000,-2.000000,2.000000,0.000000
1297451.712094,3.000000,103.000000,-12.000000,13.000000,-5.000000,-1.000000,10.000000,-1.000000
1297451.712272,0.000000,-75.000000,-46.000000,-67.000000,-1.000000,-12.000000,-18.000000,-18.000000
1297451.713347,-36.000000,-128.000000,28.000000,24.000000,-1.000000,-7.000000,-11.000000,-2.000000
1297451.713378,-37.000000,-4.000000,-11.000000,-5.000000,-30.000000,-3.000000,-2.000000,-11.000000
1297451.714152,13.000000,-43.000000,-4.000000,16.000000,5.000000,3.000000,6.000000,6.000000
1297451.714187,-20.000000,16.000000,7.000000,-13.000000,-7.000000,-16.000000,-39.000000,-26.000000
1297451.734480,4.000000,-79.000000,-4.000000,39.000000,10.000000,8.000000,9.000000,7.000000
1297451.734499,57.000000,72.000000,-8.000000,4.000000,8.000000,8.000000,18.000000,24.000000
1297451.749911,-6.000000,5.000000,2.000000,-11.000000,8.000000,-3.000000,12.000000,3.000000
1297451.749931,5.000000,-7.000000,-1.000000,26.000000,3.000000,11.000000,4.000000,-9.000000
1297451.757979,16.000000,4.000000,9.000000,22.000000,7.000000,-1.000000,2.000000,3.000000
1297451.758023,-12.000000,21.000000,6.000000,-16.000000,-5.000000,4.000000,0.000000,-2.000000
1297451.758658,2.000000,5.000000,2.000000,-9.000000,3.000000,-1.000000,1.000000,3.000000
1297451.758680,6.000000,20.000000,4.000000,21.000000,-12.000000,-5.000000,0.000000,-4.000000
1297451.760136,-59.000000,-128.000000,20.000000,21.000000,-1.000000,-6.000000,-6.000000,-16.000000
1297451.760154,27.000000,27.000000,-28.000000,-16.000000,0.000000,0.000000,-6.000000,8.000000
1297451.765339,52.000000,59.000000,26.000000,23.000000,6.000000,7.000000,-2.000000,-7.000000
1297451.765369,67.000000,15.000000,-32.000000,-28.000000,-6.000000,-19.000000,-38.000000,-23.000000
1297451.787311,-5.000000,-33.000000,4.000000,26.000000,-6.000000,7.000000,42.000000,31.000000
1297451.787356,17.000000,-17.000000,-9.000000,2.000000,-3.000000,7.000000,6.000000,1.000000
1297451.795302,-31.000000,-23.000000,-8.000000,-55.000000,-9.000000,-16.000000,-41.000000,-40.000000
1297451.795336,27.000000,-59.000000,2.000000,-41.000000,6.000000,11.000000,10.000000,40.000000
1297451.796259,-96.000000,-28.000000,8.000000,40.000000,-19.000000,-3.000000,13.000000,-11.000000
1297451.796278,27.000000,-66.000000,5.000000,40.000000,4.000000,-13.000000,-34.000000,-31.000000
1297451.825898,13.000000,23.000000,-18.000000,16.000000,-2.000000,-1.000000,2.000000,-4.000000
1297451.825939,60.000000,-5.000000,-16.000000,-70.000000,9.000000,8.000000,12.000000,14.000000
1297451.832180,-128.000000,-47.000000,16.000000,21.000000,-9.000000,-2.000000,6.000000,-11.000000
1297451.832212,-23.000000,-43.000000,-13.000000,20.000000,-8.000000,1.000000,-9.000000,-8.000000
1297451.847249,14.000000,14.000000,-8.000000,-51.000000,-11.000000,-5.000000,1.000000,6.000000
1297451.847285,28.000000,127.000000,12.000000,7.000000,24.000000,8.000000,12.000000,16.000000
1297451.854998,-23.000000,83.000000,15.000000,76.000000,-8.000000,3.000000,-4.000000,-2.000000
1297451.855017,74.000000,-40.000000,-6.000000,-2.000000,13.000000,7.000000,0.000000,-6.000000
1297451.877340,-30.000000,-39.000000,-12.000000,0.000000,-8.000000,-3.000000,4.000000,4.000000
1297451.877376,20.000000,46.000000,-7.000000,-10.000000,-17.000000,-6.000000,-5.000000,-6.000000
1297451.884575,30.000000,38.000000,25.000000,-43.000000,9.000000,-7.000000,-5.000000,3.000000
1297451.884658,-111.000000,-26.000000,-63.000000,50.000000,-3.000000,3.000000,-5.000000,-12.000000
1297451.885936,-1.000000,-30.000000,-10.000000,-45.000000,-7.000000,-4.000000,-5.000000,7.000000
1297451.885968,112.000000,115.000000,16.000000,11.000000,29.000000,18.000000,26.000000,9.000000
1297451.886643,-60.000000,-14.000000,22.000000,-9.000000,-9.000000,-10.000000,-17.000000,-1.000000
1297451.886684,32.000000,25.000000,-14.000000,-19.000000,-16.000000,-21.000000,-13.000000,-28.000000
1297451.914570,-13.000000,-11.000000,7.000000,-29.000000,2.000000,4.000000,0.000000,0.000000
1297451.914728,-58.000000,-128.000000,-2.000000,41.000000,-29.000000,-1.000000,3.000000,-10.000000
1297451.915030,-3.000000,-53.000000,6.000000,-25.000000,4.000000,6.000000,17.000000,20.000000
1297451.915065,10.000000,-47.000000,26.000000,2.000000,-5.000000,1.000000,0.000000,-26.000000
1297451.916343,-45.000000,-90.000000,-45.000000,-69.000000,-25.000000,-24.000000,-22.000000,-13.000000
1297451.916369,-10.000000,-14.000000,6.000000,-29.000000,7.000000,2.000000,0.000000,-6.000000
1297451.917248,9.000000,-21.000000,0.000000,26.000000,-5.000000,4.000000,7.000000,2.000000
1297451.917282,-33.000000,22.000000,-13.000000,26.000000,-5.000000,-4.000000,-1.000000,-1.000000
1297451.937209,-3.000000,-36.000000,-5.000000,-69.000000,0.000000,7.000000,9.000000,4.000000
1297451.937248,41.000000,-47.000000,8.000000,-16.000000,-8.000000,-6.000000,0.000000,-1.000000
1297451.952283,-102.000000,-73.000000,5.000000,-40.000000,-15.000000,-16.000000,-32.000000,-28.000000
1297451.952319,-45.000000,-78.000000,0.000000,6.000000,-4.000000,1.000000,-8.000000,-8.000000
1297451.967530,-23.000000,51.000000,7.000000,33.000000,10.000000,16.000000,31.000000,22.000000
1297451.967558,-47.000000,-3.000000,11.000000,-11.000000,-20.000000,-19.000000,-29.000000,-9.000000
1297451.989932,-32.000000,-74.000000,-16.000000,53.000000,-5.000000,-7.000000,-24.000000,-38.000000
1297451.990012,-8.000000,11.000000,-6.000000,-90.000000,6.000000,11.000000,5.000000,-13.000000
1297452.004989,24.000000,-66.000000,-23.000000,2.000000,8.000000,9.000000,26.000000,18.000000
1297452.005009,-80.000000,25.000000,26.000000,44.000000,-9.000000,-2.000000,2.000000,-1.000000
1297452.027518,47.000000,56.000000,-1.000000,-47.000000,-9.000000,-18.000000,-55.000000,-30.000000
1297452.027552,-2.000000,15.000000,-5.000000,-24.000000,7.000000,6.000000,12.000000,10.000000
1297452.042166,-17.000000,-28.000000,-3.000000,3.000000,-10.000000,7.000000,21.000000,10.000000
1297452.042203,27.000000,37.000000,9.000000,57.000000,10.000000,9.000000,-1.000000,3.000000
1297452.042912,2.000000,-3.000000,-14.000000,-92.000000,2.000000,-7.000000,3.000000,2.000000
1297452.043088,-22.000000,-2.000000,13.000000,38.000000,-3.000000,-1.000000,2.000000,-6.000000
1297452.044053,2.000000,41.000000,13.000000,17.000000,-16.000000,2.000000,5.000000,3.000000
1297452.044072,11.000000,0.000000,12.000000,-28.000000,10.000000,2.000000,5.000000,0.000000
1297452.044789,24.000000,127.000000,-25.000000,-17.000000,15.000000,11.000000,7.000000,5.000000
1297452.044816,114.000000,37.000000,3.000000,3.000000,4.000000,1.000000,-4.000000,-14.000000
1297452.045405,43.000000,33.000000,17.000000,59.000000,2.000000,-2.000000,1.000000,-11.000000
1297452.045440,-70.000000,-37.000000,-25.000000,-116.000000,-9.000000,-11.000000,-24.000000,-15.000000
1297452.072093,23.000000,79.000000,0.000000,50.000000,10.000000,2.000000,12.000000,16.000000
1297452.072129,63.000000,9.000000,6.000000,-4.000000,-10.000000,6.000000,21.000000,20.000000
1297452.079714,-24.000000,-25.000000,-20.000000,13.000000,8.000000,1.000000,-15.000000,-18.000000
1297452.079752,23.000000,26.000000,19.000000,34.000000,-9.000000,6.000000,9.000000,6.000000
1297452.102127,1.000000,-12.000000,-12.000000,2.000000,5.000000,-1.000000,-6.000000,1.000000
1297452.102164,36.000000,-128.000000,10.000000,-55.000000,17.000000,0.000000,-11.000000,-13.000000
1297452.109775,-128.000000,1.000000,2.000000,-41.000000,-20.000000,-1.000000,4.000000,-3.000000
1297452.109813,-19.000000,-39.000000,7.000000,42.000000,-15.000000,-9.000000,-5.000000,0.000000
1297452.124833,40.000000,127.000000,-4.000000,19.000000,-1.000000,5.000000,6.000000,16.000000
1297452.124870,-39.000000,-11.000000,-19.000000,-98.000000,-15.000000,-6.000000,0.000000,-13.000000
1297452.132184,7.000000,-11.000000,-19.000000,5.000000,7.000000,-3.000000,-3.000000,2.000000
1297452.132221,17.000000,17.000000,3.000000,-13.000000,6.000000,1.000000,9.000000,13.000000
1297452.147366,25.000000,-43.000000,3.000000,33.000000,-1.000000,4.000000,8.000000,7.000000
1297452.147621,-62.000000,-17.000000,16.000000,-13.000000,-15.000000,-1.000000,-1.000000,-9.000000
1297452.148018,-77.000000,-89.000000,14.000000,26.000000,-27.000000,-12.000000,-31.000000,-18.000000
1297452.148034,-47.000000,-37.000000,-9.000000,-74.000000,1.000000,-9.000000,-18.000000,-19.000000
1297452.148992,-47.000000,-128.000000,-1.000000,20.000000,-4.000000,5.000000,24.000000,16.000000
1297452.149028,77.000000,43.000000,2.000000,9.000000,-2.000000,5.000000,3.000000,-2.000000
1297452.149892,-32.000000,19.000000,-16.000000,-19.000000,-12.000000,0.000000,-9.000000,-13.000000
1297452.149927,18.000000,26.000000,21.000000,31.000000,-3.000000,-13.000000,-14.000000,2.000000
1297452.151085,11.000000,-29.000000,1.000000,56.000000,5.000000,6.000000,8.000000,2.000000
1297452.151103,-9.000000,62.000000,-14.000000,-79.000000,28.000000,16.000000,9.000000,7.000000
1297452.162294,-31.000000,1.000000,-6.000000,-29.000000,-10.000000,-3.000000,0.000000,-3.000000
1297452.162392,10.000000,18.000000,0.000000,12.000000,16.000000,0.000000,-1.000000,9.000000
1297452.192430,-14.000000,-73.000000,-1.000000,22.000000,-14.000000,-4.000000,-13.000000,-7.000000
1297452.192467,-37.000000,-22.000000,-5.000000,52.000000,-1.000000,3.000000,16.000000,9.000000
1297452.199969,-14.000000,-10.000000,-29.000000,-90.000000,6.000000,1.000000,0.000000,-6.000000
1297452.200015,25.000000,-15.000000,18.000000,18.000000,10.000000,2.000000,-3.000000,1.000000
1297452.229958,25.000000,-14.000000,-36.000000,21.000000,-6.000000,-7.000000,1.000000,-5.000000
1297452.229997,60.000000,127.000000,9.000000,-5.000000,1.000000,6.000000,8.000000,12.000000
1297452.237518,7.000000,-38.000000,-2.000000,-39.000000,-14.000000,-4.000000,-12.000000,-9.000000
1297452.237563,28.000000,81.000000,-8.000000,-28.000000,3.000000,-5.000000,-14.000000,-4.000000
1297452.267326,9.000000,50.000000,7.000000,44.000000,0.000000,-6.000000,-7.000000,-7.000000
1297452.267592,21.000000,-33.000000,-33.000000,19.000000,2.000000,6.000000,27.000000,21.000000
1297452.268150,32.000000,-18.000000,-7.000000,-20.000000,-10.000000,3.000000,-14.000000,-14.000000
1297452.268182,13.000000,11.000000,-2.000000,37.000000,13.000000,-2.000000,-13.000000,5.000000
1297452.269907,13.000000,-50.000000,-5.000000,37.000000,0.000000,-8.000000,-12.000000,-5.000000
1297452.269936,-77.000000,-128.000000,-11.000000,-45.000000,-3.000000,-9.000000,-9.000000,-12.000000
1297452.270647,-72.000000,106.000000,12.000000,38.000000,13.000000,5.000000,12.000000,6.000000
1297452.270680,70.000000,16.000000,4.000000,-63.000000,-6.000000,7.000000,15.000000,5.000000
1297452.271336,1.000000,-15.000000,-27.000000,9.000000,-8.000000,-10.000000,0.000000,1.000000
1297452.271371,13.000000,-16.000000,-14.000000,6.000000,-10.000000,-5.000000,-17.000000,-8.000000
1297452.282999,6.000000,-82.000000,-6.000000,33.000000,-16.000000,-6.000000,-11.000000,-9.000000
1297452.283035,-61.000000,-21.000000,-25.000000,-80.000000,-8.000000,-12.000000,-17.000000,-14.000000
1297452.319893,82.000000,65.000000,3.000000,4.000000,6.000000,4.000000,11.000000,12.000000
1297452.319914,-14.000000,38.000000,44.000000,26.000000,6.000000,1.000000,14.000000,5.000000
1297452.327611,-26.000000,4.000000,-50.000000,6.000000,-36.000000,-33.000000,-38.000000,-24.000000
1297452.327641,26.000000,-25.000000,5.000000,-35.000000,9.000000,2.000000,11.000000,5.000000
1297452.349785,54.000000,127.000000,-4.000000,-4.000000,20.000000,8.000000,15.000000,15.000000
1297452.349804,-2.000000,-12.000000,-5.000000,20.000000,-8.000000,0.000000,-10.000000,-16.000000
1297452.357299,81.000000,85.000000,17.000000,29.000000,7.000000,-8.000000,-12.000000,24.000000
1297452.357318,-44.000000,-60.000000,10.000000,-39.000000,-2.000000,4.000000,3.000000,-2.000000
1297452.380651,41.000000,-3.000000,-34.000000,-8.000000,0.000000,-5.000000,-4.000000,-5.000000
1297452.380676,-65.000000,-63.000000,-8.000000,-54.000000,10.000000,10.000000,15.000000,6.000000
1297452.394881,-4.000000,8.000000,30.000000,36.000000,-16.000000,-8.000000,-7.000000,-10.000000
1297452.394936,-29.000000,15.000000,-22.000000,-15.000000,-5.000000,5.000000,8.000000,3.000000
1297452.396946,-5.000000,82.000000,-10.000000,-7.000000,2.000000,-6.000000,-15.000000,-11.000000
1297452.396990,24.000000,49.000000,20.000000,18.000000,5.000000,14.000000,21.000000,14.000000
1297452.398479,15.000000,12.000000,14.000000,-5.000000,-14.000000,-11.000000,-13.000000,-9.000000
1297452.398508,10.000000,29.000000,9.000000,-6.000000,13.000000,-1.000000,-17.000000,-11.000000
1297452.399364,-29.000000,-2.000000,-2.000000,0.000000,-10.000000,-13.000000,-6.000000,-3.000000
1297452.399381,74.000000,40.000000,33.000000,22.000000,5.000000,12.000000,14.000000,18.000000
1297452.402281,-34.000000,124.000000,16.000000,6.000000,-1.000000,-2.000000,2.000000,-5.000000
1297452.402319,-42.000000,-17.000000,-41.000000,-33.000000,7.000000,-9.000000,-14.000000,-22.000000
1297452.410791,20.000000,7.000000,5.000000,-14.000000,15.000000,-4.000000,-4.000000,10.000000
1297452.410823,-26.000000,2.000000,10.000000,5.000000,-7.000000,4.000000,8.000000,5.000000
1297452.417203,-4.000000,30.000000,9.000000,32.000000,10.000000,9.000000,19.000000,19.000000
1297452.417223,15.000000,-83.000000,11.000000,69.000000,-34.000000,-8.000000,-13.000000,-32.000000
1297452.439776,-101.000000,-61.000000,-19.000000,-128.000000,20.000000,-9.000000,-18.000000,-13.000000
1297452.439811,17.000000,93.000000,15.000000,62.000000,7.000000,9.000000,13.000000,16.000000
1297452.462550,38.000000,37.000000,-9.000000,43.000000,-11.000000,-1.000000,-5.000000,1.000000
1297452.462580,45.000000,49.000000,25.000000,17.000000,-4.000000,4.000000,10.000000,3.000000
1297452.477180,-17.000000,-81.000000,-39.000000,-84.000000,3.000000,-12.000000,-17.000000,-15.000000
1297452.477199,-4.000000,-7.000000,21.000000,15.000000,2.000000,-5.000000,-4.000000,5.000000
1297452.484968,-7.000000,-112.000000,-5.000000,-64.000000,-1.000000,5.000000,14.000000,8.000000
1297452.485238,15.000000,71.000000,16.000000,-1.000000,-13.000000,-6.000000,-10.000000,-5.000000
1297452.486362,23.000000,16.000000,-4.000000,58.000000,-2.000000,0.000000,-6.000000,-1.000000
1297452.486452,18.000000,12.000000,-4.000000,8.000000,8.000000,3.000000,9.000000,9.000000
1297452.493839,-24.000000,43.000000,-18.000000,-26.000000,-7.000000,1.000000,8.000000,2.000000
1297452.493869,18.000000,-1.000000,27.000000,34.000000,-6.000000,2.000000,1.000000,5.000000
1297452.507193,-128.000000,3.000000,0.000000,-52.000000,-34.000000,-23.000000,-41.000000,-43.000000
1297452.507327,14.000000,-63.000000,-2.000000,-15.000000,20.000000,9.000000,11.000000,20.000000
1297452.508332,45.000000,17.000000,-6.000000,11.000000,-6.000000,-1.000000,8.000000,3.000000
1297452.508626,11.000000,1.000000,8.000000,8.000000,8.000000,5.000000,12.000000,8.000000
1297452.509917,51.000000,-2.000000,0.000000,38.000000,-7.000000,-9.000000,-20.000000,-10.000000
1297452.509935,-75.000000,-13.000000,-5.000000,-52.000000,-12.000000,-3.000000,-4.000000,-11.000000
1297452.544754,11.000000,-12.000000,-5.000000,25.000000,12.000000,0.000000,3.000000,3.000000
1297452.544792,-40.000000,-128.000000,6.000000,27.000000,-20.000000,-1.000000,13.000000,8.000000
1297452.582184,-21.000000,42.000000,30.000000,18.000000,-6.000000,-11.000000,-26.000000,-24.000000
1297452.582222,-23.000000,-58.000000,15.000000,-25.000000,-6.000000,-8.000000,-12.000000,1.000000
1297452.589600,-15.000000,-90.000000,-57.000000,44.000000,6.000000,3.000000,9.000000,3.000000
1297452.589641,35.000000,4.000000,7.000000,-80.000000,5.000000,0.000000,8.000000,3.000000
1297452.597800,-78.000000,113.000000,7.000000,1.000000,18.000000,1.000000,5.000000,5.000000
1297452.598001,11.000000,26.000000,-8.000000,71.000000,-12.000000,1.000000,-1.000000,-1.000000
1297452.598398,-8.000000,0.000000,-30.000000,-80.000000,17.000000,-3.000000,-8.000000,-10.000000
1297452.598439,6.000000,-2.000000,18.000000,21.000000,-1.000000,4.000000,6.000000,8.000000
1297452.599399,-114.000000,19.000000,6.000000,32.000000,-3.000000,-2.000000,-2.000000,-13.000000
1297452.599418,17.000000,-127.000000,5.000000,-6.000000,-7.000000,-18.000000,-32.000000,-25.000000
1297452.599871,-40.000000,-36.000000,-8.000000,-10.000000,4.000000,3.000000,7.000000,-4.000000
1297452.599893,-35.000000,-99.000000,19.000000,50.000000,-21.000000,-1.000000,0.000000,-9.000000
1297452.634740,22.000000,-56.000000,-10.000000,-21.000000,-6.000000,-18.000000,-26.000000,-8.000000
1297452.634765,21.000000,-34.000000,-34.000000,-65.000000,3.000000,1.000000,10.000000,10.000000
1297452.664758,-57.000000,-3.000000,9.000000,-3.000000,-22.000000,-9.000000,-4.000000,-15.000000
1297452.664794,44.000000,-21.000000,5.000000,50.000000,3.000000,1.000000,0.000000,6.000000
1297452.679649,31.000000,26.000000,-4.000000,-20.000000,1.000000,7.000000,8.000000,6.000000
1297452.679685,43.000000,85.000000,8.000000,39.000000,22.000000,2.000000,8.000000,15.000000
1297452.687007,-61.000000,9.000000,-7.000000,-30.000000,-5.000000,2.000000,-5.000000,-4.000000
1297452.687045,-6.000000,7.000000,1.000000,7.000000,6.000000,-1.000000,-5.000000,-2.000000
1297452.717644,46.000000,86.000000,-1.000000,12.000000,16.000000,4.000000,6.000000,18.000000
1297452.717812,-76.000000,-55.000000,-2.000000,44.000000,-19.000000,2.000000,10.000000,13.000000
1297452.718226,9.000000,58.000000,-12.000000,-22.000000,0.000000,-16.000000,-31.000000,-14.000000
1297452.718259,56.000000,13.000000,1.000000,-25.000000,11.000000,0.000000,-7.000000,-4.000000
1297452.718804,107.000000,56.000000,19.000000,55.000000,6.000000,-2.000000,-2.000000,30.000000
1297452.718831,-79.000000,22.000000,-4.000000,-8.000000,4.000000,3.000000,11.000000,-2.000000
1297452.720003,24.000000,23.000000,5.000000,46.000000,-6.000000,9.000000,0.000000,7.000000
1297452.720042,-59.000000,22.000000,18.000000,-30.000000,-3.000000,-9.000000,-15.000000,-12.000000
1297452.732882,-6.000000,42.000000,-14.000000,2.000000,9.000000,-5.000000,-10.000000,-14.000000
1297452.732900,2.000000,3.000000,18.000000,4.000000,-5.000000,-6.000000,-17.000000,-12.000000
1297452.747314,31.000000,-13.000000,-3.000000,9.000000,5.000000,-5.000000,-21.000000,-21.000000
1297452.747364,26.000000,21.000000,2.000000,28.000000,-3.000000,3.000000,15.000000,22.000000
1297452.762080,-54.000000,-128.000000,6.000000,-75.000000,-9.000000,-3.000000,-7.000000,-6.000000
1297452.762117,84.000000,32.000000,-5.000000,18.000000,1.000000,9.000000,19.000000,21.000000
1297452.769743,-25.000000,127.000000,17.000000,7.000000,-20.000000,-6.000000,-1.000000,-4.000000
1297452.769763,-20.000000,14.000000,1.000000,4.000000,15.000000,-1.000000,-18.000000,-15.000000
1297452.799986,28.000000,-4.000000,2.000000,-47.000000,-2.000000,1.000000,-4.000000,4.000000
1297452.800009,-17.000000,43.000000,1.000000,20.000000,2.000000,5.000000,18.000000,12.000000
1297452.814951,15.000000,39.000000,10.000000,-8.000000,-20.000000,4.000000,8.000000,6.000000
1297452.815011,-1.000000,19.000000,-20.000000,20.000000,9.000000,5.000000,2.000000,3.000000
1297452.829726,-33.000000,-89.000000,-8.000000,-75.000000,-10.000000,-10.000000,-20.000000,-24.000000
1297452.829759,17.000000,-7.000000,16.000000,23.000000,-7.000000,3.000000,6.000000,8.000000
1297452.837200,-4.000000,-65.000000,6.000000,60.000000,-29.000000,0.000000,14.000000,7.000000
1297452.837242,-41.000000,-54.000000,-24.000000,-128.000000,-5.000000,-21.000000,-36.000000,-61.000000
1297452.838419,20.000000,127.000000,23.000000,21.000000,5.000000,1.000000,0.000000,17.000000
1297452.838585,8.000000,19.000000,-5.000000,33.000000,10.000000,12.000000,16.000000,9.000000
1297452.838956,28.000000,13.000000,-4.000000,-25.000000,-16.000000,-3.000000,15.000000,10.000000
1297452.838993,-36.000000,-64.000000,19.000000,-45.000000,-17.000000,-19.000000,-27.000000,-21.000000
1297452.840681,2.000000,23.000000,1.000000,49.000000,8.000000,-5.000000,-14.000000,-11.000000
1297452.840699,-13.000000,-8.000000,1.000000,-44.000000,-19.000000,-18.000000,-22.000000,-8.000000
1297452.859891,-12.000000,-18.000000,-1.000000,-40.000000,17.000000,5.000000,-2.000000,-14.000000
1297452.860085,17.000000,70.000000,-2.000000,21.000000,3.000000,9.000000,29.000000,22.000000
1297452.860498,7.000000,-8.000000,-3.000000,21.000000,-16.000000,-10.000000,-14.000000,-7.000000
1297452.860517,22.000000,-58.000000,17.000000,39.000000,-7.000000,-3.000000,-20.000000,-3.000000
1297452.867806,32.000000,40.000000,-22.000000,-75.000000,14.000000,16.000000,12.000000,20.000000
1297452.867823,-71.000000,4.000000,-5.000000,-16.000000,-3.000000,-3.000000,11.000000,-5.000000
1297452.897418,-7.000000,-22.000000,1.000000,-3.000000,-5.000000,-2.000000,-5.000000,2.000000
1297452.897456,1.000000,-36.000000,1.000000,3.000000,4.000000,3.000000,5.000000,2.000000
1297452.911996,1.000000,4.000000,-21.000000,-31.000000,1.000000,1.000000,-1.000000,-1.000000
1297452.912031,18.000000,111.000000,9.000000,2.000000,11.000000,9.000000,7.000000,24.000000
1297452.935017,19.000000,6.000000,-10.000000,82.000000,8.000000,7.000000,31.000000,3.000000
1297452.935092,-128.000000,-78.000000,13.000000,-68.000000,-28.000000,-18.000000,-47.000000,-76.000000
1297452.950103,28.000000,-7.000000,19.000000,-12.000000,7.000000,2.000000,13.000000,31.000000
1297452.950152,18.000000,40.000000,-4.000000,-1.000000,-5.000000,-3.000000,-5.000000,30.000000
1297452.957645,38.000000,60.000000,4.000000,29.000000,-2.000000,5.000000,1.000000,-12.000000
1297452.957687,-81.000000,-27.000000,-4.000000,13.000000,24.000000,-3.000000,-14.000000,-21.000000
1297452.964682,-22.000000,35.000000,1.000000,-8.000000,3.000000,6.000000,27.000000,36.000000
1297452.964934,76.000000,10.000000,4.000000,16.000000,1.000000,-2.000000,-9.000000,-34.000000
1297452.965294,98.000000,127.000000,-20.000000,-21.000000,9.000000,-9.000000,-10.000000,13.000000
1297452.965443,-102.000000,-66.000000,15.000000,-4.000000,-25.000000,-5.000000,5.000000,-6.000000
1297452.966617,33.000000,39.000000,-5.000000,-30.000000,9.000000,5.000000,7.000000,10.000000
1297452.966650,-24.000000,-62.000000,-4.000000,13.000000,-10.000000,5.000000,7.000000,1.000000
1297452.979697,29.000000,-18.000000,-17.000000,-37.000000,-17.000000,-10.000000,-4.000000,1.000000
1297452.979732,-8.000000,-128.000000,21.000000,-38.000000,-2.000000,-8.000000,-3.000000,-1.000000
1297452.980395,-23.000000,-28.000000,-28.000000,-8.000000,-10.000000,-2.000000,-8.000000,-11.000000
1297452.980432,3.000000,15.000000,4.000000,45.000000,4.000000,9.000000,12.000000,4.000000
1297452.994805,-10.000000,-99.000000,12.000000,-28.000000,-4.000000,-1.000000,-7.000000,12.000000
1297452.994843,-50.000000,-128.000000,-21.000000,1.000000,-15.000000,-12.000000,-13.000000,-35.000000
1297453.017366,-69.000000,67.000000,-13.000000,-11.000000,4.000000,6.000000,19.000000,6.000000
1297453.017402,-18.000000,93.000000,53.000000,7.000000,-24.000000,-36.000000,-80.000000,-50.000000
1297453.031957,-37.000000,-80.000000,-18.000000,-58.000000,-3.000000,-5.000000,0.000000,9.000000
1297453.031977,81.000000,127.000000,2.000000,10.000000,16.000000,12.000000,23.000000,23.000000
1297453.062419,-47.000000,-54.000000,-11.000000,51.000000,-17.000000,3.000000,19.000000,12.000000
1297453.062785,-20.000000,23.000000,-6.000000,-56.000000,5.000000,5.000000,13.000000,19.000000
1297453.063802,0.000000,-27.000000,-8.000000,-108.000000,5.000000,-10.000000,-32.000000,-27.000000
1297453.063819,-41.000000,2.000000,-8.000000,31.000000,10.000000,15.000000,11.000000,15.000000
1297453.064165,-3.000000,-13.000000,2.000000,52.000000,8.000000,9.000000,22.000000,15.000000
1297453.064202,10.000000,0.000000,-9.000000,3.000000,-5.000000,-12.000000,-14.000000,-9.000000
1297453.070401,-6.000000,-55.000000,4.000000,21.000000,5.000000,0.000000,-6.000000,-1.000000
1297453.070464,-23.000000,-84.000000,-1.000000,20.000000,-12.000000,2.000000,10.000000,13.000000
1297453.071115,114.000000,-52.000000,-11.000000,31.000000,3.000000,0.000000,-3.000000,-6.000000
1297453.071295,-60.000000,-8.000000,-23.000000,-71.000000,7.000000,-1.000000,2.000000,-11.000000
1297453.072392,17.000000,127.000000,21.000000,50.000000,17.000000,7.000000,12.000000,16.000000
1297453.072409,-3.000000,28.000000,4.000000,-21.000000,-4.000000,-7.000000,-9.000000,-6.000000
1297453.099801,10.000000,3.000000,16.000000,60.000000,-5.000000,-4.000000,-4.000000,-2.000000
1297453.099831,42.000000,-19.000000,-6.000000,-25.000000,-5.000000,4.000000,11.000000,5.000000
1297453.101096,50.000000,-76.000000,0.000000,44.000000,6.000000,-9.000000,-25.000000,-27.000000
1297453.101123,31.000000,-3.000000,-3.000000,6.000000,3.000000,6.000000,14.000000,19.000000
1297453.101745,33.000000,44.000000,3.000000,64.000000,-6.000000,7.000000,20.000000,11.000000
1297453.101762,-12.000000,38.000000,-10.000000,-69.000000,-6.000000,-11.000000,-27.000000,-11.000000
1297453.114580,-14.000000,-82.000000,10.000000,-53.000000,-20.000000,-9.000000,2.000000,-2.000000
1297453.114600,22.000000,36.000000,12.000000,91.000000,11.000000,11.000000,15.000000,16.000000
1297453.122310,-1.000000,-9.000000,9.000000,-74.000000,-12.000000,-10.000000,-12.000000,-13.000000
1297453.122348,1.000000,53.000000,18.000000,68.000000,1.000000,-8.000000,-14.000000,-2.000000
1297453.159510,-42.000000,-21.000000,9.000000,-34.000000,-2.000000,3.000000,13.000000,15.000000
1297453.159529,-72.000000,-107.000000,-11.000000,51.000000,-3.000000,0.000000,-18.000000,-47.000000
1297453.182397,-9.000000,-76.000000,-7.000000,-45.000000,-3.000000,-3.000000,0.000000,4.000000
1297453.182608,16.000000,47.000000,-14.000000,13.000000,-1.000000,-4.000000,-2.000000,3.000000
1297453.183868,-39.000000,76.000000,-10.000000,-43.000000,11.000000,2.000000,8.000000,3.000000
1297453.183899,14.000000,79.000000,-2.000000,8.000000,0.000000,-8.000000,-12.000000,-11.000000
1297453.184173,65.000000,48.000000,-2.000000,-37.000000,2.000000,2.000000,0.000000,11.000000
1297453.184332,36.000000,-42.000000,-10.000000,40.000000,-8.000000,2.000000,18.000000,24.000000
1297453.185314,22.000000,-5.000000,-6.000000,-37.000000,4.000000,7.000000,9.000000,4.000000
1297453.185332,99.000000,116.000000,20.000000,17.000000,29.000000,-1.000000,-13.000000,3.000000
1297453.186200,-14.000000,-128.000000,-18.000000,26.000000,-9.000000,-12.000000,-19.000000,-34.000000
1297453.186236,39.000000,51.000000,-4.000000,-126.000000,-7.000000,12.000000,21.000000,21.000000
1297453.190890,39.000000,114.000000,-1.000000,-27.000000,1.000000,6.000000,18.000000,6.000000
1297453.190911,-81.000000,-128.000000,6.000000,32.000000,-4.000000,-7.000000,-14.000000,-9.000000
1297453.204704,53.000000,94.000000,4.000000,-2.000000,-10.000000,-3.000000,2.000000,-2.000000
1297453.204724,27.000000,-47.000000,-1.000000,-49.000000,3.000000,8.000000,7.000000,7.000000
1297453.219604,-43.000000,-102.000000,-15.000000,27.000000,-16.000000,6.000000,17.000000,12.000000
1297453.219639,27.000000,127.000000,-5.000000,-57.000000,17.000000,2.000000,-24.000000,-23.000000
1297453.220343,47.000000,-30.000000,27.000000,85.000000,3.000000,-5.000000,-21.000000,-9.000000
1297453.220377,-18.000000,-19.000000,-20.000000,-12.000000,-2.000000,8.000000,16.000000,10.000000
1297453.234706,52.000000,-16.000000,2.000000,39.000000,0.000000,-3.000000,-5.000000,0.000000
1297453.234746,-33.000000,64.000000,17.000000,28.000000,1.000000,2.000000,-1.000000,-29.000000
1297453.242331,-28.000000,-69.000000,-37.000000,-25.000000,-9.000000,-16.000000,-9.000000,-9.000000
1297453.242371,57.000000,127.000000,22.000000,-28.000000,18.000000,2.000000,-8.000000,10.000000
1297453.264764,5.000000,6.000000,17.000000,-27.000000,-2.000000,4.000000,21.000000,20.000000
1297453.264802,45.000000,-33.000000,-19.000000,28.000000,-15.000000,-7.000000,-10.000000,-16.000000
1297453.272290,-47.000000,110.000000,-6.000000,-18.000000,1.000000,4.000000,6.000000,6.000000
1297453.272309,-30.000000,14.000000,19.000000,-5.000000,-20.000000,-7.000000,-19.000000,-15.000000
1297453.302201,-65.000000,-24.000000,-17.000000,5.000000,8.000000,-13.000000,-12.000000,-7.000000
1297453.302221,33.000000,-29.000000,11.000000,-35.000000,13.000000,5.000000,-3.000000,-9.000000
1297453.309738,34.000000,9.000000,-4.000000,32.000000,-1.000000,7.000000,17.000000,19.000000
1297453.309779,-32.000000,5.000000,-18.000000,-35.000000,-27.000000,3.000000,27.000000,19.000000
1297453.324921,-15.000000,-51.000000,6.000000,-67.000000,-14.000000,-27.000000,-62.000000,-46.000000
1297453.324954,-18.000000,-67.000000,-23.000000,94.000000,9.000000,-5.000000,-15.000000,-12.000000
1297453.332244,0.000000,-121.000000,-9.000000,-92.000000,3.000000,7.000000,11.000000,11.000000
1297453.332284,5.000000,47.000000,24.000000,47.000000,14.000000,8.000000,13.000000,14.000000
1297453.347417,-20.000000,-74.000000,-14.000000,41.000000,-6.000000,5.000000,8.000000,3.000000
1297453.347613,27.000000,12.000000,12.000000,64.000000,4.000000,6.000000,1.000000,8.000000
1297453.348343,15.000000,-25.000000,10.000000,-51.000000,-4.000000,-4.000000,-7.000000,-6.000000
1297453.348386,-13.000000,19.000000,-8.000000,16.000000,10.000000,4.000000,1.000000,-8.000000
1297453.349326,3.000000,-9.000000,1.000000,10.000000,12.000000,7.000000,16.000000,10.000000
1297453.349350,3.000000,27.000000,-6.000000,-1.000000,-4.000000,-3.000000,-5.000000,-5.000000
1297453.349600,21.000000,-1.000000,-2.000000,8.000000,12.000000,0.000000,12.000000,19.000000
1297453.349616,-45.000000,-21.000000,3.000000,2.000000,-17.000000,-4.000000,-3.000000,-10.000000
1297453.377300,17.000000,-6.000000,8.000000,53.000000,8.000000,-1.000000,-21.000000,-7.000000
1297453.377337,-22.000000,-25.000000,-27.000000,-60.000000,15.000000,1.000000,11.000000,11.000000
1297453.384871,32.000000,54.000000,21.000000,4.000000,-8.000000,-3.000000,-6.000000,-10.000000
1297453.384909,12.000000,78.000000,18.000000,12.000000,-8.000000,1.000000,5.000000,12.000000
1297453.399697,-32.000000,-114.000000,3.000000,21.000000,-13.000000,-1.000000,-5.000000,-12.000000
1297453.399736,12.000000,12.000000,0.000000,-21.000000,6.000000,-5.000000,-4.000000,-11.000000
1297453.415009,24.000000,-14.000000,-26.000000,-31.000000,23.000000,15.000000,14.000000,24.000000
1297453.415049,-52.000000,127.000000,18.000000,-19.000000,9.000000,10.000000,23.000000,-9.000000
1297453.415930,-113.000000,-37.000000,-6.000000,-8.000000,-1.000000,-11.000000,-27.000000,-26.000000
1297453.416091,19.000000,-35.000000,9.000000,13.000000,2.000000,-7.000000,-28.000000,-22.000000
1297453.416573,20.000000,-43.000000,-25.000000,-21.000000,-2.000000,8.000000,16.000000,19.000000
1297453.416616,36.000000,18.000000,3.000000,87.000000,3.000000,15.000000,37.000000,22.000000
1297453.417966,-39.000000,2.000000,28.000000,-43.000000,-13.000000,-6.000000,-17.000000,-10.000000
1297453.418003,-30.000000,-16.000000,-46.000000,-66.000000,1.000000,-24.000000,-35.000000,-13.000000
1297453.429683,-19.000000,55.000000,13.000000,31.000000,21.000000,14.000000,35.000000,25.000000
1297453.429872,17.000000,127.000000,10.000000,24.000000,15.000000,12.000000,16.000000,20.000000
1297453.430932,-103.000000,-90.000000,26.000000,-20.000000,-13.000000,-3.000000,-6.000000,-23.000000
1297453.430950,-18.000000,9.000000,-13.000000,-6.000000,-6.000000,-12.000000,-26.000000,-18.000000
1297453.459894,22.000000,49.000000,17.000000,33.000000,30.000000,10.000000,17.000000,20.000000
1297453.459916,30.000000,-56.000000,-12.000000,-19.000000,-20.000000,13.000000,30.000000,28.000000
1297453.461175,-40.000000,-118.000000,-13.000000,-5.000000,-22.000000,-16.000000,-49.000000,-46.000000
1297453.461194,-31.000000,23.000000,14.000000,-23.000000,-4.000000,-5.000000,-15.000000,-7.000000
1297453.461843,-3.000000,-21.000000,-4.000000,-33.000000,3.000000,10.000000,14.000000,13.000000
1297453.461862,34.000000,19.000000,2.000000,64.000000,-6.000000,6.000000,22.000000,25.000000
1297453.489710,9.000000,18.000000,9.000000,57.000000,-2.000000,-6.000000,-25.000000,-38.000000
1297453.489747,-34.000000,-21.000000,-30.000000,-24.000000,-4.000000,-9.000000,-7.000000,-13.000000
1297453.497230,-42.000000,-67.000000,-15.000000,-16.000000,11.000000,8.000000,14.000000,12.000000
1297453.497261,95.000000,-31.000000,13.000000,54.000000,0.000000,10.000000,31.000000,30.000000
1297453.512320,-22.000000,-33.000000,-16.000000,-49.000000,-15.000000,-24.000000,-66.000000,-59.000000
1297453.512361,-19.000000,-90.000000,-29.000000,30.000000,-2.000000,-5.000000,-8.000000,-2.000000
1297453.534808,-1.000000,-31.000000,-5.000000,0.000000,6.000000,5.000000,22.000000,14.000000
1297453.534847,38.000000,127.000000,-8.000000,-7.000000,-9.000000,-3.000000,5.000000,3.000000
1297453.549449,-33.000000,-2.000000,19.000000,14.000000,-20.000000,-27.000000,-51.000000,-50.000000
1297453.549547,-77.000000,-51.000000,22.000000,-27.000000,9.000000,9.000000,9.000000,10.000000
1297453.550292,49.000000,1.000000,-29.000000,9.000000,6.000000,6.000000,16.000000,12.000000
1297453.550321,-12.000000,-1.000000,11.000000,22.000000,2.000000,7.000000,11.000000,8.000000
1297453.552022,90.000000,5.000000,-5.000000,-62.000000,1.000000,-6.000000,0.000000,13.000000
1297453.552051,-32.000000,31.000000,10.000000,-3.000000,5.000000,4.000000,-3.000000,-12.000000
1297453.552522,-14.000000,24.000000,-13.000000,-104.000000,-10.000000,-2.000000,2.000000,1.000000
1297453.552559,12.000000,-42.000000,-15.000000,46.000000,-3.000000,3.000000,7.000000,11.000000
1297453.564593,34.000000,-49.000000,-30.000000,-44.000000,3.000000,5.000000,-1.000000,-3.000000
1297453.564631,52.000000,7.000000,13.000000,-52.000000,9.000000,-11.000000,0.000000,14.000000
1297453.572943,10.000000,-29.000000,3.000000,40.000000,-14.000000,-3.000000,4.000000,-10.000000
1297453.572980,127.000000,-28.000000,1.000000,39.000000,10.000000,17.000000,22.000000,38.000000
1297453.579980,-128.000000,104.000000,2.000000,19.000000,-13.000000,-20.000000,-43.000000,-58.000000
1297453.580008,-33.000000,-128.000000,-9.000000,-45.000000,14.000000,-6.000000,-6.000000,10.000000
1297453.602458,-51.000000,17.000000,13.000000,11.000000,-11.000000,4.000000,15.000000,9.000000
1297453.602496,36.000000,35.000000,1.000000,6.000000,-1.000000,3.000000,19.000000,14.000000
1297453.603179,-5.000000,-9.000000,-3.000000,46.000000,-5.000000,8.000000,12.000000,8.000000
1297453.603214,1.000000,-109.000000,-2.000000,-7.000000,-8.000000,-8.000000,-9.000000,-13.000000
1297453.624615,0.000000,-128.000000,25.000000,-12.000000,-14.000000,-6.000000,-14.000000,-1.000000
1297453.624650,-38.000000,45.000000,-3.000000,57.000000,10.000000,0.000000,2.000000,-2.000000
1297453.632080,-17.000000,-81.000000,-12.000000,-36.000000,-19.000000,-4.000000,-4.000000,-7.000000
1297453.632119,-29.000000,-24.000000,28.000000,41.000000,-5.000000,7.000000,5.000000,-1.000000
1297453.662665,69.000000,50.000000,-4.000000,11.000000,-6.000000,16.000000,34.000000,27.000000
1297453.662764,-40.000000,-128.000000,-22.000000,-98.000000,-2.000000,-29.000000,-68.000000,-61.000000
1297453.663394,-1.000000,127.000000,9.000000,13.000000,19.000000,6.000000,0.000000,19.000000
1297453.663412,8.000000,40.000000,18.000000,48.000000,6.000000,10.000000,32.000000,34.000000
1297453.664223,84.000000,-13.000000,-3.000000,3.000000,-9.000000,7.000000,19.000000,2.000000
1297453.664262,-128.000000,-113.000000,3.000000,25.000000,-20.000000,-15.000000,-33.000000,-43.000000
1297453.664885,25.000000,-70.000000,-13.000000,-73.000000,-3.000000,-5.000000,-17.000000,-4.000000
1297453.664917,27.000000,27.000000,8.000000,12.000000,17.000000,0.000000,8.000000,21.000000
1297453.677202,37.000000,-65.000000,-25.000000,0.000000,-3.000000,6.000000,25.000000,16.000000
1297453.677223,-46.000000,10.000000,2.000000,-2.000000,-7.000000,-5.000000,-16.000000,-20.000000
1297453.691930,5.000000,8.000000,14.000000,12.000000,0.000000,-8.000000,-26.000000,-12.000000
1297453.691949,21.000000,29.000000,13.000000,19.000000,-15.000000,8.000000,10.000000,-4.000000
1297453.693447,-41.000000,-107.000000,-23.000000,-16.000000,13.000000,-4.000000,8.000000,3.000000
1297453.693465,-19.000000,-115.000000,-24.000000,-116.000000,-3.000000,4.000000,-6.000000,-21.000000
1297453.707399,-19.000000,-118.000000,2.000000,27.000000,19.000000,-3.000000,7.000000,8.000000
1297453.707427,44.000000,-19.000000,-1.000000,-20.000000,-11.000000,4.000000,8.000000,13.000000
1297453.737359,7.000000,24.000000,8.000000,-1.000000,-31.000000,-11.000000,-12.000000,-22.000000
1297453.737385,19.000000,-8.000000,-18.000000,30.000000,19.000000,0.000000,-4.000000,4.000000
1297453.744645,-6.000000,-15.000000,-13.000000,-6.000000,-2.000000,3.000000,6.000000,5.000000
1297453.744665,46.000000,-52.000000,-3.000000,-5.000000,-3.000000,1.000000,12.000000,11.000000
1297453.776112,-43.000000,16.000000,-5.000000,-7.000000,-4.000000,-8.000000,-25.000000,-10.000000
1297453.776146,39.000000,127.000000,-1.000000,-5.000000,18.000000,6.000000,-5.000000,-1.000000
1297453.776301,2.000000,-42.000000,-2.000000,-13.000000,7.000000,14.000000,22.000000,20.000000
1297453.776339,44.000000,4.000000,-10.000000,48.000000,-17.000000,-7.000000,-11.000000,-6.000000
1297453.778102,-28.000000,83.000000,1.000000,-25.000000,11.000000,-2.000000,-2.000000,12.000000
1297453.778126,20.000000,34.000000,3.000000,-4.000000,16.000000,9.000000,15.000000,6.000000
1297453.778672,-55.000000,-79.000000,-3.000000,43.000000,-18.000000,-6.000000,-8.000000,-12.000000
1297453.778757,-38.000000,37.000000,-8.000000,-20.000000,0.000000,4.000000,6.000000,3.000000
1297453.782179,-39.000000,4.000000,-14.000000,-25.000000,-11.000000,-13.000000,-13.000000,-23.000000
1297453.782197,3.000000,-58.000000,2.000000,-14.000000,17.000000,6.000000,10.000000,8.000000
1297453.790560,-23.000000,23.000000,-6.000000,-37.000000,-1.000000,6.000000,11.000000,10.000000
1297453.790667,31.000000,-25.000000,2.000000,32.000000,-13.000000,-5.000000,-5.000000,-4.000000
1297453.812095,-53.000000,-92.000000,-14.000000,18.000000,-6.000000,-14.000000,-14.000000,-9.000000
1297453.812129,28.000000,-19.000000,22.000000,53.000000,-1.000000,11.000000,18.000000,20.000000
1297453.813514,-3.000000,6.000000,-5.000000,-64.000000,8.000000,3.000000,-11.000000,-21.000000
1297453.813534,-5.000000,12.000000,14.000000,29.000000,5.000000,-7.000000,-13.000000,-1.000000
1297453.819780,36.000000,-38.000000,0.000000,15.000000,-4.000000,1.000000,8.000000,7.000000
1297453.819815,-76.000000,-128.000000,-23.000000,-6.000000,-15.000000,-3.000000,11.000000,-5.000000
1297453.849718,77.000000,4.000000,25.000000,53.000000,-1.000000,-10.000000,-34.000000,-25.000000
1297453.849773,-14.000000,-38.000000,-17.000000,-63.000000,8.000000,7.000000,11.000000,14.000000
1297453.857267,47.000000,-23.000000,6.000000,27.000000,0.000000,5.000000,13.000000,11.000000
1297453.857311,15.000000,32.000000,-2.000000,-34.000000,-4.000000,-10.000000,-10.000000,-9.000000
1297453.879746,-27.000000,-86.000000,-19.000000,-70.000000,5.000000,-1.000000,-5.000000,-8.000000
1297453.879766,-7.000000,26.000000,8.000000,8.000000,3.000000,4.000000,0.000000,-2.000000
1297453.894700,-11.000000,12.000000,2.000000,5.000000,3.000000,1.000000,7.000000,12.000000
1297453.894747,36.000000,11.000000,6.000000,28.000000,5.000000,-1.000000,2.000000,1.000000
1297453.909882,60.000000,31.000000,6.000000,22.000000,2.000000,-1.000000,9.000000,13.000000
1297453.909903,-45.000000,-98.000000,-30.000000,-44.000000,-20.000000,-6.000000,-8.000000,-7.000000
1297453.932364,42.000000,30.000000,36.000000,33.000000,-6.000000,-9.000000,-8.000000,-13.000000
1297453.932397,54.000000,-99.000000,-41.000000,-75.000000,9.000000,-1.000000,-3.000000,10.000000
1297453.940329,-95.000000,19.000000,-4.000000,-26.000000,-18.000000,-4.000000,4.000000,6.000000
1297453.940362,-67.000000,-109.000000,34.000000,32.000000,-14.000000,-14.000000,-16.000000,-16.000000
1297453.941828,-34.000000,127.000000,-13.000000,24.000000,16.000000,12.000000,5.000000,7.000000
1297453.941861,-24.000000,-30.000000,14.000000,-16.000000,-13.000000,-7.000000,-9.000000,4.000000
1297453.943352,25.000000,40.000000,7.000000,-35.000000,2.000000,-5.000000,-10.000000,3.000000
1297453.943388,32.000000,-47.000000,-16.000000,23.000000,-5.000000,-7.000000,-7.000000,5.000000
1297453.963329,-43.000000,-128.000000,-26.000000,-128.000000,-24.000000,-9.000000,-6.000000,-4.000000
1297453.963367,45.000000,22.000000,17.000000,26.000000,-9.000000,4.000000,6.000000,5.000000
1297453.977310,-14.000000,-64.000000,-24.000000,-62.000000,6.000000,0.000000,12.000000,13.000000
1297453.977331,-67.000000,13.000000,14.000000,43.000000,7.000000,-4.000000,-9.000000,-11.000000
1297453.999929,23.000000,4.000000,-26.000000,12.000000,-25.000000,-16.000000,-30.000000,-14.000000
1297453.999960,44.000000,37.000000,25.000000,36.000000,14.000000,3.000000,-6.000000,-13.000000
1297454.014987,-97.000000,-64.000000,-8.000000,-7.000000,-8.000000,0.000000,-2.000000,-16.000000
1297454.015008,57.000000,72.000000,3.000000,43.000000,10.000000,6.000000,25.000000,23.000000
1297454.044755,-28.000000,-9.000000,-4.000000,-46.000000,-25.000000,-6.000000,6.000000,-7.000000
1297454.044794,29.000000,27.000000,9.000000,5.000000,27.000000,4.000000,-5.000000,-5.000000
1297454.052065,-38.000000,2.000000,-27.000000,-10.000000,-5.000000,1.000000,2.000000,5.000000
1297454.052084,43.000000,30.000000,-32.000000,-82.000000,-10.000000,-5.000000,-1.000000,-16.000000
1297454.060451,-30.000000,-13.000000,15.000000,-3.000000,-3.000000,-10.000000,-29.000000,-9.000000
1297454.060657,13.000000,21.000000,-2.000000,-7.000000,13.000000,7.000000,17.000000,25.000000
1297454.061046,32.000000,13.000000,10.000000,-32.000000,6.000000,17.000000,17.000000,18.000000
1297454.061063,-67.000000,-48.000000,-11.000000,-12.000000,-26.000000,-6.000000,-13.000000,-10.000000
1297454.062143,-71.000000,17.000000,0.000000,3.000000,5.000000,1.000000,5.000000,-4.000000
1297454.062162,0.000000,48.000000,4.000000,37.000000,10.000000,7.000000,0.000000,1.000000
1297454.067224,26.000000,11.000000,-17.000000,15.000000,-9.000000,-11.000000,-14.000000,2.000000
1297454.067263,36.000000,63.000000,11.000000,-23.000000,1.000000,7.000000,4.000000,-9.000000
1297454.074648,3.000000,-73.000000,-12.000000,29.000000,-14.000000,-13.000000,-17.000000,-26.000000
1297454.074668,-20.000000,20.000000,11.000000,17.000000,4.000000,4.000000,8.000000,10.000000
1297454.089633,25.000000,0.000000,30.000000,1.000000,-4.000000,0.000000,4.000000,12.000000
1297454.089654,6.000000,-29.000000,-13.000000,32.000000,-14.000000,-9.000000,-3.000000,-6.000000
1297454.127494,29.000000,86.000000,17.000000,-39.000000,25.000000,2.000000,-9.000000,2.000000
1297454.127535,10.000000,-106.000000,-8.000000,23.000000,-4.000000,10.000000,11.000000,7.000000
1297454.134855,-23.000000,47.000000,-11.000000,-42.000000,-4.000000,-3.000000,-9.000000,-7.000000
1297454.135063,-16.000000,4.000000,11.000000,61.000000,7.000000,-1.000000,-3.000000,-1.000000
1297454.136336,-12.000000,-28.000000,-21.000000,-44.000000,-11.000000,-11.000000,0.000000,-7.000000
1297454.136425,-9.000000,-18.000000,16.000000,32.000000,-6.000000,0.000000,-4.000000,-2.000000
1297454.136712,-1.000000,19.000000,-14.000000,-40.000000,-4.000000,-6.000000,0.000000,-4.000000
1297454.136731,13.000000,-68.000000,-19.000000,-19.000000,-5.000000,0.000000,8.000000,7.000000
1297454.137861,43.000000,13.000000,-12.000000,13.000000,-7.000000,-7.000000,-8.000000,-4.000000
1297454.137897,-14.000000,21.000000,28.000000,44.000000,1.000000,3.000000,-1.000000,-16.000000
1297454.142248,-105.000000,-107.000000,-22.000000,-15.000000,-28.000000,-11.000000,-10.000000,-9.000000
1297454.142277,29.000000,-31.000000,-19.000000,0.000000,0.000000,-6.000000,4.000000,-5.000000
1297454.157209,29.000000,-12.000000,10.000000,-9.000000,4.000000,-3.000000,-6.000000,10.000000
1297454.157238,79.000000,79.000000,-22.000000,10.000000,10.000000,0.000000,4.000000,12.000000
1297454.172426,-1.000000,21.000000,5.000000,15.000000,-16.000000,-2.000000,-7.000000,-10.000000
1297454.172517,-8.000000,-9.000000,3.000000,19.000000,10.000000,6.000000,8.000000,7.000000
1297454.173734,52.000000,-14.000000,-14.000000,-28.000000,8.000000,4.000000,8.000000,1.000000
1297454.173774,-55.000000,127.000000,40.000000,58.000000,-5.000000,7.000000,8.000000,1.000000
1297454.210345,-52.000000,-56.000000,-12.000000,-14.000000,18.000000,-7.000000,-8.000000,-9.000000
1297454.210402,-33.000000,11.000000,38.000000,63.000000,12.000000,6.000000,16.000000,3.000000
1297454.225291,33.000000,70.000000,18.000000,36.000000,-12.000000,-3.000000,-5.000000,12.000000
1297454.225349,-14.000000,-52.000000,-25.000000,-82.000000,-6.000000,-12.000000,-30.000000,-48.000000
1297454.249230,29.000000,-9.000000,21.000000,-6.000000,10.000000,1.000000,3.000000,8.000000
1297454.249276,11.000000,19.000000,22.000000,37.000000,4.000000,11.000000,26.000000,24.000000
1297454.250175,-5.000000,-32.000000,-15.000000,34.000000,-17.000000,-4.000000,3.000000,-9.000000
1297454.250213,-9.000000,19.000000,3.000000,26.000000,-3.000000,-6.000000,-22.000000,-23.000000
1297454.251005,3.000000,-91.000000,-22.000000,-76.000000,11.000000,-8.000000,-7.000000,6.000000
1297454.251380,-107.000000,-128.000000,-6.000000,-11.000000,-6.000000,5.000000,27.000000,4.000000
1297454.251985,-14.000000,12.000000,11.000000,37.000000,-9.000000,-1.000000,-5.000000,-17.000000
1297454.252016,-60.000000,-19.000000,-9.000000,7.000000,-11.000000,-11.000000,-19.000000,-11.000000
1297454.252414,-14.000000,-58.000000,-24.000000,-83.000000,11.000000,-2.000000,0.000000,-26.000000
1297454.252467,-5.000000,-58.000000,2.000000,10.000000,-4.000000,2.000000,4.000000,11.000000
1297454.255378,-34.000000,-31.000000,7.000000,44.000000,6.000000,7.000000,20.000000,15.000000
1297454.255433,-22.000000,-15.000000,-4.000000,-16.000000,-37.000000,-14.000000,-13.000000,-28.000000
1297454.262885,-50.000000,-4.000000,8.000000,-61.000000,24.000000,0.000000,2.000000,0.000000
1297454.262940,16.000000,49.000000,-4.000000,14.000000,-12.000000,-7.000000,-23.000000,-12.000000
1297454.293665,-21.000000,-29.000000,0.000000,2.000000,-3.000000,5.000000,6.000000,4.000000
1297454.294313,19.000000,-35.000000,-27.000000,13.000000,2.000000,0.000000,6.000000,6.000000
1297454.295299,-19.000000,-57.000000,8.000000,-3.000000,-9.000000,-7.000000,-5.000000,-6.000000
1297454.295937,-36.000000,-128.000000,-28.000000,-27.000000,2.000000,-2.000000,-1.000000,-6.000000
1297454.296575,21.000000,13.000000,12.000000,2.000000,14.000000,5.000000,12.000000,17.000000
1297454.296626,-12.000000,-16.000000,16.000000,17.000000,-13.000000,-8.000000,-18.000000,-11.000000
1297454.315138,-46.000000,84.000000,6.000000,38.000000,16.000000,2.000000,-12.000000,-7.000000
1297454.315185,20.000000,-6.000000,-20.000000,-100.000000,-8.000000,-6.000000,0.000000,7.000000
1297454.329925,-87.000000,1.000000,4.000000,43.000000,7.000000,11.000000,16.000000,5.000000
1297454.329952,29.000000,2.000000,16.000000,40.000000,-4.000000,0.000000,7.000000,5.000000
1297454.337663,32.000000,2.000000,-15.000000,-27.000000,10.000000,-3.000000,4.000000,10.000000
1297454.337699,-64.000000,14.000000,-6.000000,16.000000,-6.000000,2.000000,-2.000000,-15.000000
1297454.367879,-6.000000,49.000000,-12.000000,-3.000000,4.000000,-7.000000,-16.000000,-12.000000
1297454.367923,30.000000,78.000000,-3.000000,15.000000,12.000000,3.000000,-1.000000,10.000000
1297454.375243,13.000000,24.000000,7.000000,10.000000,5.000000,15.000000,22.000000,15.000000
1297454.375609,54.000000,-9.000000,1.000000,-33.000000,8.000000,0.000000,15.000000,9.000000
1297454.377532,0.000000,-9.000000,-5.000000,35.000000,-14.000000,-12.000000,-33.000000,-30.000000
1297454.377827,2.000000,-9.000000,-7.000000,-116.000000,6.000000,-8.000000,-20.000000,-25.000000
1297454.378590,31.000000,45.000000,10.000000,17.000000,12.000000,13.000000,22.000000,21.000000
1297454.378641,0.000000,22.000000,-8.000000,39.000000,4.000000,9.000000,8.000000,10.000000
1297454.379564,3.000000,5.000000,16.000000,-26.000000,23.000000,9.000000,21.000000,9.000000
1297454.379588,33.000000,-5.000000,-27.000000,26.000000,-19.000000,-8.000000,-5.000000,5.000000
1297454.382508,-20.000000,-44.000000,-6.000000,-29.000000,-6.000000,-1.000000,-13.000000,-19.000000
1297454.382558,-64.000000,-33.000000,-16.000000,-25.000000,-10.000000,-1.000000,9.000000,2.000000
1297454.414423,15.000000,96.000000,-8.000000,18.000000,3.000000,2.000000,0.000000,-2.000000
1297454.414457,76.000000,41.000000,2.000000,45.000000,17.000000,1.000000,2.000000,15.000000
1297454.414586,-32.000000,-33.000000,2.000000,-85.000000,-7.000000,-17.000000,-37.000000,-59.000000
1297454.414636,-15.000000,31.000000,3.000000,13.000000,17.000000,16.000000,30.000000,26.000000
1297454.415744,65.000000,38.000000,-17.000000,-2.000000,4.000000,-14.000000,-18.000000,-7.000000
1297454.415792,26.000000,69.000000,20.000000,86.000000,-9.000000,2.000000,4.000000,5.000000
1297454.435376,-15.000000,-10.000000,-10.000000,-90.000000,4.000000,-1.000000,7.000000,-1.000000
1297454.435402,1.000000,-41.000000,16.000000,48.000000,13.000000,1.000000,-9.000000,-17.000000
1297454.457849,14.000000,46.000000,12.000000,17.000000,-9.000000,-6.000000,-23.000000,2.000000
1297454.457909,11.000000,67.000000,-7.000000,-121.000000,2.000000,6.000000,13.000000,10.000000
1297454.465617,0.000000,59.000000,2.000000,-17.000000,17.000000,5.000000,19.000000,16.000000
1297454.465675,32.000000,12.000000,11.000000,29.000000,-1.000000,-1.000000,-6.000000,-6.000000
1297454.495238,60.000000,127.000000,14.000000,26.000000,11.000000,-2.000000,-1.000000,8.000000
1297454.495693,-58.000000,-57.000000,-5.000000,31.000000,-19.000000,-4.000000,3.000000,7.000000
1297454.496804,52.000000,26.000000,-16.000000,23.000000,-6.000000,4.000000,12.000000,5.000000
1297454.497097,-74.000000,-99.000000,-10.000000,-82.000000,-15.000000,-16.000000,-35.000000,-42.000000
1297454.498512,-21.000000,-28.000000,2.000000,27.000000,21.000000,5.000000,7.000000,7.000000
1297454.498619,97.000000,63.000000,23.000000,83.000000,-1.000000,8.000000,14.000000,15.000000
1297454.498939,-83.000000,-82.000000,-53.000000,-86.000000,-23.000000,-17.000000,-18.000000,-14.000000
1297454.498985,30.000000,-9.000000,5.000000,10.000000,4.000000,-1.000000,6.000000,7.000000
1297454.502648,4.000000,4.000000,16.000000,83.000000,5.000000,4.000000,-2.000000,1.000000
1297454.502699,110.000000,-50.000000,1.000000,-45.000000,-21.000000,0.000000,6.000000,7.000000
1297454.525470,-4.000000,-47.000000,18.000000,7.000000,10.000000,-2.000000,3.000000,4.000000
1297454.525516,43.000000,-19.000000,-26.000000,-23.000000,1.000000,-1.000000,-2.000000,-7.000000
1297454.525716,-88.000000,-45.000000,28.000000,8.000000,-9.000000,0.000000,-12.000000,-16.000000
1297454.525761,-56.000000,-21.000000,-32.000000,-27.000000,-21.000000,-10.000000,-6.000000,7.000000
1297454.532598,-17.000000,-69.000000,8.000000,-1.000000,4.000000,-8.000000,-5.000000,5.000000
1297454.532641,-13.000000,-70.000000,-13.000000,-4.000000,-7.000000,0.000000,7.000000,-6.000000
1297454.570152,-13.000000,36.000000,6.000000,13.000000,-1.000000,-6.000000,-14.000000,-11.000000
1297454.570216,-24.000000,-50.000000,3.000000,23.000000,11.000000,7.000000,7.000000,9.000000
1297454.600468,-5.000000,-42.000000,-14.000000,-28.000000,-2.000000,-5.000000,4.000000,6.000000
1297454.600529,7.000000,4.000000,-18.000000,5.000000,-8.000000,-5.000000,-8.000000,-10.000000
1297454.615349,-11.000000,-24.000000,19.000000,22.000000,-3.000000,2.000000,0.000000,-1.000000
1297454.615411,24.000000,-36.000000,-18.000000,-5.000000,-5.000000,3.000000,3.000000,3.000000
1297454.617339,16.000000,50.000000,2.000000,-39.000000,8.000000,-1.000000,12.000000,15.000000
1297454.617722,64.000000,63.000000,21.000000,52.000000,-11.000000,-3.000000,-5.000000,6.000000
1297454.618790,-63.000000,-51.000000,-3.000000,-25.000000,-15.000000,-7.000000,-14.000000,-20.000000
1297454.618828,-12.000000,-74.000000,1.000000,-11.000000,6.000000,3.000000,-1.000000,-5.000000
1297454.619477,-20.000000,23.000000,-28.000000,-47.000000,-11.000000,-8.000000,-18.000000,-1.000000
1297454.619842,50.000000,4.000000,2.000000,34.000000,0.000000,-7.000000,3.000000,7.000000
1297454.620307,6.000000,-22.000000,-21.000000,-8.000000,3.000000,-4.000000,-10.000000,-13.000000
1297454.620350,8.000000,25.000000,7.000000,-20.000000,1.000000,-12.000000,-9.000000,0.000000
1297454.622896,19.000000,1.000000,-4.000000,29.000000,-2.000000,2.000000,8.000000,10.000000
1297454.622955,-1.000000,-92.000000,2.000000,3.000000,4.000000,-1.000000,6.000000,-3.000000
1297454.638038,39.000000,53.000000,12.000000,57.000000,7.000000,10.000000,17.000000,21.000000
1297454.638089,-74.000000,-52.000000,-12.000000,-49.000000,-45.000000,-22.000000,-45.000000,-57.000000
1297454.645559,13.000000,-59.000000,-3.000000,-33.000000,5.000000,-9.000000,-11.000000,1.000000
1297454.645626,-10.000000,-13.000000,12.000000,23.000000,14.000000,10.000000,21.000000,8.000000
1297454.653171,61.000000,-27.000000,-16.000000,-39.000000,-7.000000,-8.000000,7.000000,1.000000
1297454.653228,-63.000000,-17.000000,7.000000,6.000000,-7.000000,-7.000000,-19.000000,-16.000000
1297454.676824,5.000000,-22.000000,0.000000,-27.000000,10.000000,-3.000000,1.000000,7.000000
1297454.676907,-42.000000,62.000000,16.000000,17.000000,-7.000000,-2.000000,2.000000,-4.000000
1297454.690692,12.000000,-43.000000,5.000000,-7.000000,-7.000000,4.000000,0.000000,4.000000
1297454.690737,52.000000,96.000000,11.000000,15.000000,-5.000000,-7.000000,8.000000,5.000000
1297454.697851,12.000000,17.000000,-33.000000,-92.000000,1.000000,-3.000000,-14.000000,-20.000000
1297454.697911,-16.000000,63.000000,13.000000,-15.000000,5.000000,8.000000,-1.000000,0.000000
1297454.727725,-2.000000,-12.000000,10.000000,22.000000,4.000000,2.000000,4.000000,3.000000
1297454.727795,46.000000,-71.000000,3.000000,11.000000,-17.000000,-7.000000,0.000000,9.000000
1297454.729177,-6.000000,-19.000000,-1.000000,-1.000000,12.000000,2.000000,9.000000,4.000000
1297454.729530,-15.000000,8.000000,28.000000,8.000000,-5.000000,5.000000,-8.000000,0.000000
1297454.731289,-68.000000,127.000000,-14.000000,-19.000000,-9.000000,-6.000000,-2.000000,-6.000000
1297454.731318,17.000000,10.000000,7.000000,-44.000000,3.000000,-7.000000,-3.000000,1.000000
1297454.731628,51.000000,13.000000,11.000000,18.000000,3.000000,7.000000,5.000000,7.000000
1297454.731653,-32.000000,-80.000000,2.000000,16.000000,-3.000000,-7.000000,-19.000000,-11.000000
1297454.735374,7.000000,-39.000000,-6.000000,18.000000,-8.000000,4.000000,16.000000,5.000000
1297454.735400,-36.000000,-36.000000,-12.000000,-49.000000,13.000000,5.000000,5.000000,-7.000000
1297454.742895,-16.000000,100.000000,11.000000,52.000000,17.000000,14.000000,19.000000,20.000000
1297454.742941,66.000000,25.000000,9.000000,-72.000000,-16.000000,-10.000000,-29.000000,-17.000000
1297454.766835,34.000000,-68.000000,3.000000,31.000000,16.000000,6.000000,4.000000,10.000000
1297454.766890,61.000000,28.000000,15.000000,47.000000,-4.000000,6.000000,7.000000,-7.000000
1297454.767611,-61.000000,10.000000,-22.000000,-10.000000,9.000000,-3.000000,5.000000,-4.000000
1297454.767670,1.000000,101.000000,-2.000000,-104.000000,-10.000000,5.000000,2.000000,9.000000
1297454.773227,-1.000000,12.000000,12.000000,23.000000,1.000000,-4.000000,-6.000000,-3.000000
1297454.773284,53.000000,41.000000,-9.000000,29.000000,11.000000,-1.000000,5.000000,12.000000
1297454.795927,32.000000,-49.000000,6.000000,51.000000,-13.000000,0.000000,7.000000,5.000000
1297454.795980,27.000000,3.000000,9.000000,-24.000000,-15.000000,-8.000000,-17.000000,-5.000000
1297454.811466,-3.000000,-25.000000,-2.000000,-1.000000,11.000000,-5.000000,-6.000000,1.000000
1297454.811507,-40.000000,16.000000,9.000000,25.000000,-4.000000,6.000000,11.000000,6.000000
1297454.818479,-9.000000,49.000000,11.000000,74.000000,4.000000,9.000000,15.000000,6.000000
1297454.818541,-28.000000,80.000000,11.000000,-101.000000,-2.000000,-1.000000,-9.000000,-8.000000
1297454.857461,41.000000,28.000000,-4.000000,19.000000,8.000000,-8.000000,1.000000,3.000000
1297454.857897,-117.000000,10.000000,-8.000000,68.000000,-17.000000,4.000000,19.000000,13.000000
1297454.858185,26.000000,25.000000,4.000000,-39.000000,-6.000000,-3.000000,-27.000000,-20.000000
1297454.858231,-128.000000,-30.000000,16.000000,13.000000,-13.000000,-10.000000,-19.000000,-16.000000
1297454.859868,51.000000,17.000000,10.000000,11.000000,-12.000000,-2.000000,1.000000,1.000000
1297454.859922,2.000000,-36.000000,-32.000000,-40.000000,9.000000,-3.000000,5.000000,1.000000
1297454.860338,20.000000,5.000000,8.000000,-7.000000,5.000000,5.000000,11.000000,7.000000
1297454.860391,17.000000,72.000000,7.000000,10.000000,3.000000,0.000000,-5.000000,8.000000
1297454.886368,-18.000000,15.000000,3.000000,40.000000,14.000000,6.000000,8.000000,11.000000
1297454.886418,50.000000,48.000000,1.000000,-34.000000,-10.000000,-2.000000,-3.000000,-2.000000
1297454.888340,-33.000000,61.000000,7.000000,32.000000,12.000000,10.000000,7.000000,6.000000
1297454.888369,-18.000000,-99.000000,-30.000000,-33.000000,-17.000000,-1.000000,-4.000000,-5.000000
1297454.890160,24.000000,-76.000000,-12.000000,21.000000,-5.000000,1.000000,18.000000,17.000000
1297454.890186,-58.000000,32.000000,28.000000,21.000000,-11.000000,-5.000000,-23.000000,-46.000000
1297454.900728,-14.000000,60.000000,-7.000000,-39.000000,-12.000000,-16.000000,-5.000000,0.000000
1297454.900782,18.000000,-19.000000,-14.000000,-7.000000,-1.000000,-7.000000,-19.000000,-15.000000
1297454.922168,17.000000,66.000000,25.000000,28.000000,14.000000,0.000000,-5.000000,1.000000
1297454.922203,-26.000000,113.000000,7.000000,-48.000000,10.000000,8.000000,18.000000,15.000000
1297454.929775,87.000000,127.000000,11.000000,3.000000,14.000000,3.000000,11.000000,10.000000
1297454.929811,-6.000000,-16.000000,12.000000,24.000000,-4.000000,0.000000,15.000000,6.000000
1297454.959713,-10.000000,-71.000000,-6.000000,20.000000,-1.000000,-5.000000,-11.000000,-10.000000
1297454.959785,25.000000,71.000000,-17.000000,-53.000000,-12.000000,3.000000,-2.000000,0.000000
1297454.967017,-7.000000,-29.000000,0.000000,-7.000000,2.000000,-2.000000,0.000000,-4.000000
1297454.967035,29.000000,-55.000000,-9.000000,28.000000,6.000000,2.000000,2.000000,9.000000
1297454.975065,23.000000,-12.000000,-1.000000,-29.000000,-5.000000,1.000000,4.000000,3.000000
1297454.975094,16.000000,5.000000,-8.000000,24.000000,-7.000000,-7.000000,-11.000000,-12.000000
1297454.975690,-39.000000,10.000000,-6.000000,-80.000000,6.000000,0.000000,-2.000000,5.000000
1297454.975720,86.000000,23.000000,-5.000000,10.000000,11.000000,6.000000,0.000000,0.000000
1297454.976993,-59.000000,-128.000000,-5.000000,27.000000,-20.000000,-8.000000,-3.000000,-8.000000
1297454.977019,-11.000000,52.000000,-14.000000,-87.000000,6.000000,2.000000,12.000000,6.000000
1297454.977767,-45.000000,5.000000,6.000000,10.000000,-1.000000,-7.000000,-1.000000,-5.000000
1297454.977802,67.000000,47.000000,-1.000000,-16.000000,3.000000,8.000000,1.000000,10.000000
1297455.006523,-39.000000,-15.000000,6.000000,43.000000,-4.000000,-12.000000,-26.000000,-30.000000
1297455.006666,15.000000,123.000000,19.000000,28.000000,16.000000,13.000000,17.000000,26.000000
1297455.006867,30.000000,-21.000000,-25.000000,21.000000,-1.000000,-10.000000,-15.000000,-45.000000
1297455.007034,-23.000000,-92.000000,2.000000,-67.000000,0.000000,4.000000,3.000000,11.000000
1297455.007531,-26.000000,-24.000000,-13.000000,11.000000,-15.000000,-3.000000,6.000000,6.000000
1297455.007545,56.000000,120.000000,-1.000000,-28.000000,4.000000,1.000000,-1.000000,2.000000
1297455.020325,-7.000000,-102.000000,15.000000,22.000000,-1.000000,-5.000000,-11.000000,-9.000000
1297455.020351,-32.000000,-61.000000,-40.000000,-30.000000,-14.000000,3.000000,3.000000,-1.000000
1297455.042139,19.000000,44.000000,15.000000,43.000000,23.000000,5.000000,7.000000,7.000000
1297455.042156,-26.000000,8.000000,4.000000,-44.000000,-12.000000,-15.000000,-16.000000,-16.000000
1297455.049768,9.000000,77.000000,-5.000000,17.000000,-9.000000,-10.000000,-6.000000,1.000000
1297455.049786,9.000000,-2.000000,-19.000000,-48.000000,10.000000,8.000000,8.000000,3.000000
1297455.072204,43.000000,6.000000,3.000000,39.000000,2.000000,-1.000000,-1.000000,2.000000
1297455.072244,-122.000000,-117.000000,-1.000000,-85.000000,-23.000000,-3.000000,2.000000,-21.000000
1297455.079782,122.000000,27.000000,20.000000,32.000000,5.000000,-12.000000,-22.000000,0.000000
1297455.079804,40.000000,-100.000000,-44.000000,17.000000,-21.000000,-7.000000,-7.000000,-7.000000
1297455.087563,-59.000000,-30.000000,-26.000000,-45.000000,4.000000,4.000000,9.000000,2.000000
1297455.087600,-45.000000,5.000000,19.000000,15.000000,-3.000000,-3.000000,3.000000,16.000000
1297455.088401,117.000000,114.000000,0.000000,-11.000000,21.000000,0.000000,-1.000000,0.000000
1297455.088428,-73.000000,-2.000000,7.000000,31.000000,-6.000000,1.000000,1.000000,-3.000000
1297455.090157,20.000000,-7.000000,-9.000000,-37.000000,-3.000000,1.000000,9.000000,15.000000
1297455.090173,-54.000000,-9.000000,6.000000,7.000000,-12.000000,-6.000000,-10.000000,-15.000000
1297455.094701,-2.000000,-106.000000,7.000000,-9.000000,11.000000,5.000000,3.000000,8.000000
1297455.094730,-16.000000,-46.000000,11.000000,-2.000000,-5.000000,0.000000,9.000000,-1.000000
1297455.125346,-10.000000,-16.000000,23.000000,14.000000,-11.000000,-4.000000,-8.000000,-1.000000
1297455.125587,-22.000000,-11.000000,-33.000000,-6.000000,-3.000000,-7.000000,-12.000000,-19.000000
1297455.126045,-8.000000,-84.000000,1.000000,-1.000000,-5.000000,-3.000000,-4.000000,1.000000
1297455.126266,-13.000000,19.000000,6.000000,6.000000,1.000000,-7.000000,-5.000000,7.000000
1297455.127232,-12.000000,-32.000000,20.000000,9.000000,-15.000000,0.000000,6.000000,7.000000
1297455.127249,12.000000,61.000000,-30.000000,-42.000000,0.000000,5.000000,7.000000,1.000000
1297455.140553,-59.000000,-76.000000,6.000000,6.000000,12.000000,0.000000,9.000000,6.000000
1297455.140613,30.000000,-12.000000,15.000000,23.000000,-12.000000,-12.000000,-28.000000,-19.000000
1297455.169402,-32.000000,4.000000,6.000000,-6.000000,1.000000,-7.000000,-20.000000,-17.000000
1297455.169426,10.000000,70.000000,-14.000000,18.000000,8.000000,9.000000,19.000000,12.000000
1297455.170154,36.000000,5.000000,33.000000,5.000000,6.000000,7.000000,21.000000,19.000000
1297455.170177,-4.000000,-18.000000,-50.000000,-45.000000,-9.000000,-11.000000,-12.000000,-3.000000
1297455.171469,16.000000,-22.000000,3.000000,-22.000000,6.000000,0.000000,1.000000,3.000000
1297455.171503,-8.000000,-8.000000,1.000000,5.000000,-3.000000,3.000000,9.000000,12.000000
1297455.177235,-30.000000,35.000000,12.000000,69.000000,-15.000000,1.000000,-5.000000,-9.000000
1297455.177258,-11.000000,-76.000000,-48.000000,-128.000000,12.000000,4.000000,-5.000000,1.000000
1297455.199781,3.000000,-48.000000,6.000000,13.000000,-7.000000,-3.000000,3.000000,4.000000
1297455.199878,4.000000,9.000000,13.000000,31.000000,-4.000000,1.000000,5.000000,0.000000
1297455.206977,0.000000,75.000000,-13.000000,4.000000,0.000000,-6.000000,-6.000000,0.000000
1297455.207005,15.000000,-17.000000,10.000000,11.000000,2.000000,1.000000,9.000000,5.000000
1297455.229737,8.000000,-104.000000,-47.000000,4.000000,5.000000,8.000000,4.000000,3.000000
1297455.229770,-8.000000,11.000000,19.000000,2.000000,-2.000000,-7.000000,-11.000000,-12.000000
1297455.236937,-83.000000,-128.000000,-27.000000,-22.000000,-34.000000,-16.000000,-42.000000,-39.000000
1297455.236954,41.000000,79.000000,7.000000,3.000000,11.000000,-4.000000,10.000000,26.000000
1297455.252718,-2.000000,74.000000,16.000000,49.000000,-1.000000,7.000000,6.000000,-7.000000
1297455.252895,43.000000,-10.000000,-27.000000,1.000000,19.000000,9.000000,18.000000,19.000000
1297455.253327,-36.000000,27.000000,16.000000,17.000000,-23.000000,-8.000000,0.000000,1.000000
1297455.253342,36.000000,26.000000,5.000000,-23.000000,-1.000000,-4.000000,-6.000000,-9.000000
1297455.255030,15.000000,51.000000,-17.000000,-44.000000,9.000000,-2.000000,5.000000,9.000000
1297455.255060,-55.000000,-128.000000,7.000000,56.000000,-11.000000,0.000000,-12.000000,-19.000000
1297455.259867,-22.000000,-57.000000,-13.000000,-63.000000,-4.000000,-13.000000,-11.000000,-4.000000
1297455.259908,-7.000000,12.000000,4.000000,8.000000,9.000000,8.000000,13.000000,11.000000
1297455.289788,28.000000,-12.000000,1.000000,32.000000,5.000000,6.000000,4.000000,0.000000
1297455.289820,16.000000,-66.000000,11.000000,21.000000,-17.000000,-10.000000,-14.000000,-9.000000
1297455.297070,16.000000,-20.000000,-24.000000,17.000000,8.000000,0.000000,1.000000,-3.000000
1297455.297218,-17.000000,127.000000,6.000000,-42.000000,5.000000,1.000000,10.000000,10.000000
1297455.327271,29.000000,-42.000000,-15.000000,-13.000000,-1.000000,-1.000000,-1.000000,0.000000
1297455.327348,-104.000000,-84.000000,3.000000,-29.000000,-14.000000,-4.000000,-8.000000,-7.000000
1297455.334621,13.000000,-32.000000,6.000000,1.000000,4.000000,3.000000,6.000000,16.000000
1297455.334655,49.000000,127.000000,24.000000,43.000000,1.000000,5.000000,4.000000,1.000000
1297455.358330,-5.000000,-113.000000,-19.000000,-32.000000,-3.000000,-12.000000,-38.000000,-54.000000
1297455.358356,-15.000000,9.000000,-21.000000,-29.000000,15.000000,-1.000000,6.000000,8.000000
1297455.358610,6.000000,73.000000,7.000000,24.000000,5.000000,6.000000,14.000000,19.000000
1297455.358645,74.000000,41.000000,-8.000000,18.000000,5.000000,3.000000,14.000000,25.000000
1297455.364740,-22.000000,-82.000000,-18.000000,-21.000000,5.000000,1.000000,3.000000,9.000000
1297455.364935,-33.000000,-5.000000,-2.000000,-20.000000,14.000000,9.000000,22.000000,16.000000
1297455.365991,39.000000,47.000000,33.000000,71.000000,-15.000000,-1.000000,9.000000,5.000000
1297455.366009,-1.000000,8.000000,-14.000000,-56.000000,2.000000,-9.000000,-27.000000,-38.000000
1297455.367002,-24.000000,10.000000,0.000000,-43.000000,-1.000000,4.000000,10.000000,6.000000
1297455.367019,-39.000000,-28.000000,-36.000000,1.000000,-11.000000,-10.000000,-9.000000,-16.000000
1297455.402130,-60.000000,-5.000000,2.000000,-1.000000,11.000000,-10.000000,-23.000000,-11.000000
1297455.402160,91.000000,101.000000,16.000000,10.000000,-1.000000,-1.000000,7.000000,11.000000
1297455.431827,-40.000000,105.000000,-1.000000,21.000000,13.000000,19.000000,33.000000,17.000000
1297455.431845,-51.000000,-49.000000,-17.000000,-16.000000,-7.000000,-9.000000,-13.000000,-12.000000
1297455.439581,39.000000,127.000000,24.000000,52.000000,25.000000,-7.000000,-27.000000,-12.000000
1297455.439730,-33.000000,40.000000,-21.000000,-5.000000,4.000000,9.000000,14.000000,14.000000
1297455.447296,-57.000000,127.000000,2.000000,31.000000,11.000000,12.000000,44.000000,39.000000
1297455.447336,36.000000,3.000000,0.000000,-28.000000,0.000000,-2.000000,-31.000000,-56.000000
1297455.448297,-52.000000,-32.000000,-4.000000,-38.000000,-3.000000,-11.000000,-13.000000,-3.000000
1297455.448376,20.000000,-2.000000,11.000000,54.000000,5.000000,7.000000,17.000000,26.000000
1297455.449350,77.000000,90.000000,-8.000000,-33.000000,7.000000,4.000000,21.000000,13.000000
1297455.449646,-94.000000,-83.000000,-5.000000,27.000000,-8.000000,-19.000000,-31.000000,-31.000000
1297455.450047,42.000000,-24.000000,-7.000000,-94.000000,11.000000,0.000000,-6.000000,-3.000000
1297455.450082,49.000000,70.000000,27.000000,62.000000,-2.000000,4.000000,4.000000,15.000000
1297455.451124,28.000000,9.000000,-1.000000,18.000000,-8.000000,14.000000,26.000000,10.000000
1297455.451149,7.000000,0.000000,-24.000000,-55.000000,-8.000000,-4.000000,5.000000,6.000000
1297455.454475,2.000000,-36.000000,-27.000000,-31.000000,15.000000,-9.000000,-54.000000,-55.000000
1297455.454510,36.000000,-30.000000,27.000000,50.000000,13.000000,3.000000,12.000000,19.000000
1297455.477735,25.000000,-49.000000,5.000000,-4.000000,-9.000000,5.000000,14.000000,10.000000
1297455.477750,-90.000000,-128.000000,-3.000000,9.000000,-31.000000,-11.000000,-2.000000,-7.000000
1297455.484513,-8.000000,-12.000000,0.000000,0.000000,4.000000,-6.000000,-15.000000,-14.000000
1297455.484539,15.000000,47.000000,19.000000,0.000000,0.000000,5.000000,7.000000,8.000000
1297455.485892,22.000000,-43.000000,-14.000000,6.000000,5.000000,3.000000,13.000000,19.000000
1297455.485907,20.000000,22.000000,-4.000000,11.000000,-2.000000,11.000000,6.000000,-3.000000
1297455.522381,23.000000,16.000000,12.000000,57.000000,0.000000,-12.000000,-20.000000,-6.000000
1297455.522413,4.000000,-34.000000,-13.000000,-84.000000,3.000000,4.000000,8.000000,10.000000
1297455.536929,-7.000000,-10.000000,-1.000000,2.000000,1.000000,4.000000,4.000000,5.000000
1297455.537022,20.000000,17.000000,7.000000,56.000000,-7.000000,4.000000,12.000000,18.000000
1297455.544443,-18.000000,20.000000,-6.000000,-62.000000,-1.000000,-6.000000,-15.000000,-27.000000
1297455.544459,17.000000,-15.000000,-20.000000,-21.000000,1.000000,-6.000000,-9.000000,2.000000
1297455.567862,-8.000000,16.000000,-10.000000,-5.000000,-6.000000,0.000000,5.000000,8.000000
1297455.567923,18.000000,28.000000,18.000000,91.000000,13.000000,6.000000,18.000000,17.000000
1297455.568580,-4.000000,-89.000000,-6.000000,-128.000000,-7.000000,-5.000000,-5.000000,-1.000000
1297455.568747,26.000000,74.000000,-40.000000,60.000000,-1.000000,-13.000000,-13.000000,-16.000000
1297455.569732,20.000000,34.000000,27.000000,-15.000000,-6.000000,6.000000,-20.000000,-7.000000
1297455.569949,-36.000000,-52.000000,8.000000,15.000000,-9.000000,-4.000000,-12.000000,-25.000000
1297455.570289,28.000000,42.000000,-10.000000,55.000000,-1.000000,3.000000,23.000000,27.000000
1297455.570390,-17.000000,5.000000,16.000000,-62.000000,10.000000,1.000000,8.000000,5.000000
1297455.574788,13.000000,81.000000,14.000000,29.000000,0.000000,-4.000000,-15.000000,-13.000000
1297455.574806,-32.000000,-59.000000,-12.000000,-15.000000,6.000000,-4.000000,0.000000,-5.000000
1297455.597830,18.000000,-11.000000,-2.000000,-61.000000,4.000000,2.000000,5.000000,7.000000
1297455.597861,20.000000,-118.000000,3.000000,12.000000,-1.000000,2.000000,5.000000,5.000000
1297455.604568,-24.000000,40.000000,11.000000,42.000000,-6.000000,3.000000,10.000000,6.000000
1297455.604593,-34.000000,-88.000000,-9.000000,-28.000000,-26.000000,-13.000000,-31.000000,-26.000000
1297455.605805,-25.000000,-32.000000,-3.000000,3.000000,9.000000,-1.000000,3.000000,10.000000
1297455.605836,7.000000,2.000000,13.000000,45.000000,0.000000,4.000000,4.000000,5.000000
1297455.619738,-1.000000,-74.000000,-18.000000,22.000000,-7.000000,2.000000,4.000000,-15.000000
1297455.619803,33.000000,-8.000000,2.000000,-66.000000,3.000000,-22.000000,-26.000000,-7.000000
1297455.642104,32.000000,-42.000000,-3.000000,-7.000000,-22.000000,-2.000000,-4.000000,-6.000000
1297455.642137,13.000000,7.000000,-16.000000,-6.000000,-5.000000,9.000000,25.000000,17.000000
1297455.649304,-120.000000,-38.000000,-4.000000,-6.000000,-2.000000,-8.000000,-19.000000,-34.000000
1297455.649338,30.000000,18.000000,-1.000000,-9.000000,-10.000000,-8.000000,-22.000000,3.000000
1297455.650976,40.000000,-14.000000,13.000000,48.000000,3.000000,10.000000,20.000000,16.000000
1297455.651009,-35.000000,-93.000000,-22.000000,-15.000000,-21.000000,-5.000000,6.000000,3.000000
1297455.680143,-10.000000,65.000000,7.000000,-121.000000,-9.000000,0.000000,-2.000000,4.000000
1297455.680180,1.000000,98.000000,-4.000000,53.000000,4.000000,-5.000000,-5.000000,5.000000
1297455.681834,-3.000000,-42.000000,-10.000000,-47.000000,-11.000000,-11.000000,-11.000000,-18.000000
1297455.681851,-27.000000,-111.000000,-4.000000,0.000000,1.000000,-1.000000,-2.000000,-2.000000
1297455.682081,18.000000,-13.000000,9.000000,1.000000,-3.000000,0.000000,14.000000,13.000000
1297455.682115,18.000000,6.000000,13.000000,44.000000,1.000000,-1.000000,-12.000000,-7.000000
1297455.687835,-32.000000,56.000000,13.000000,-10.000000,11.000000,12.000000,6.000000,4.000000
1297455.687853,22.000000,37.000000,-3.000000,21.000000,-2.000000,2.000000,3.000000,3.000000
1297455.709503,22.000000,46.000000,-6.000000,-11.000000,0.000000,7.000000,15.000000,16.000000
1297455.709538,43.000000,24.000000,10.000000,-13.000000,4.000000,-9.000000,-30.000000,-6.000000
1297455.717684,-42.000000,-13.000000,2.000000,48.000000,-5.000000,3.000000,12.000000,10.000000
1297455.717714,60.000000,30.000000,-9.000000,-47.000000,17.000000,4.000000,-8.000000,-9.000000
1297455.725142,-128.000000,-61.000000,24.000000,28.000000,-10.000000,-4.000000,-6.000000,-7.000000
1297455.725162,-20.000000,-128.000000,-24.000000,-37.000000,7.000000,-2.000000,-8.000000,-8.000000
1297455.726014,-4.000000,-56.000000,-16.000000,-4.000000,-2.000000,3.000000,5.000000,6.000000
1297455.726028,6.000000,-9.000000,26.000000,43.000000,-3.000000,3.000000,2.000000,12.000000
1297455.739566,59.000000,26.000000,-7.000000,43.000000,10.000000,3.000000,9.000000,10.000000
1297455.739597,-50.000000,-27.000000,-4.000000,6.000000,-7.000000,-1.000000,-6.000000,-12.000000
1297455.754590,22.000000,41.000000,16.000000,-14.000000,13.000000,4.000000,1.000000,8.000000
1297455.754609,30.000000,10.000000,-2.000000,14.000000,-12.000000,-1.000000,-3.000000,-1.000000
1297455.762288,-38.000000,-27.000000,1.000000,-12.000000,-7.000000,-7.000000,-15.000000,-29.000000
1297455.762308,9.000000,-128.000000,-19.000000,-49.000000,-3.000000,-2.000000,1.000000,9.000000
1297455.792249,-22.000000,29.000000,3.000000,-11.000000,-6.000000,2.000000,6.000000,-5.000000
1297455.792310,19.000000,13.000000,0.000000,10.000000,-3.000000,1.000000,10.000000,12.000000
1297455.807150,-5.000000,-26.000000,18.000000,28.000000,1.000000,3.000000,-4.000000,8.000000
1297455.807333,52.000000,-29.000000,-10.000000,12.000000,-4.000000,-15.000000,-12.000000,-11.000000
1297455.808137,7.000000,-47.000000,-12.000000,9.000000,0.000000,3.000000,9.000000,7.000000
1297455.808152,7.000000,-40.000000,-2.000000,-22.000000,7.000000,1.000000,3.000000,2.000000
1297455.808600,47.000000,-31.000000,6.000000,20.000000,4.000000,-1.000000,14.000000,2.000000
1297455.808629,-76.000000,82.000000,20.000000,6.000000,-9.000000,-13.000000,-45.000000,-19.000000
1297455.810286,27.000000,-9.000000,-31.000000,0.000000,13.000000,-3.000000,-4.000000,6.000000
1297455.810306,-83.000000,-105.000000,-10.000000,0.000000,-4.000000,6.000000,9.000000,-5.000000
1297455.822308,18.000000,34.000000,10.000000,-5.000000,-8.000000,5.000000,17.000000,17.000000
1297455.822336,17.000000,3.000000,-4.000000,-18.000000,-2.000000,-4.000000,3.000000,-1.000000
1297455.844718,33.000000,27.000000,12.000000,65.000000,17.000000,4.000000,-10.000000,-9.000000
1297455.844736,-14.000000,-23.000000,-47.000000,-127.000000,-4.000000,-9.000000,-4.000000,-1.000000
1297455.851994,-29.000000,9.000000,2.000000,55.000000,4.000000,2.000000,0.000000,-1.000000
1297455.852071,27.000000,-5.000000,-22.000000,15.000000,-5.000000,2.000000,11.000000,13.000000
1297455.882317,-48.000000,-7.000000,10.000000,19.000000,-7.000000,-1.000000,-8.000000,-9.000000
1297455.882348,-25.000000,-3.000000,11.000000,10.000000,-6.000000,-15.000000,-19.000000,-8.000000
1297455.889627,-7.000000,-10.000000,-11.000000,-54.000000,-10.000000,4.000000,16.000000,4.000000
1297455.889660,0.000000,-61.000000,5.000000,15.000000,11.000000,5.000000,4.000000,5.000000
1297455.912754,49.000000,-67.000000,14.000000,50.000000,-15.000000,1.000000,14.000000,25.000000
1297455.912994,-127.000000,-88.000000,-12.000000,-55.000000,-28.000000,-15.000000,-38.000000,-56.000000
1297455.913319,-21.000000,-24.000000,3.000000,-57.000000,14.000000,-6.000000,-25.000000,-13.000000
1297455.913334,10.000000,9.000000,14.000000,37.000000,7.000000,1.000000,8.000000,12.000000
