# participant_id: P4
# gesture: hard
# trial_number: 2
# stream_name: Myo_EMG
# stream_type: emg
# timestamp: 20260420_135113
# samples: 5686
# duration_sec: 30.495
# nominal_sample_rate: 200.0
# effective_sample_rate: 186.42
#
timestamp,emg_1,emg_2,emg_3,emg_4,emg_5,emg_6,emg_7,emg_8
1297764.927102,28.000000,-17.000000,-39.000000,-96.000000,-5.000000,0.000000,5.000000,15.000000
1297764.927112,58.000000,42.000000,11.000000,49.000000,11.000000,5.000000,-3.000000,-14.000000
1297764.934710,-22.000000,-128.000000,11.000000,-68.000000,-17.000000,-18.000000,-31.000000,-22.000000
1297764.934727,78.000000,6.000000,-68.000000,-103.000000,6.000000,9.000000,28.000000,27.000000
1297764.972341,-27.000000,-67.000000,18.000000,39.000000,-8.000000,-2.000000,-2.000000,-18.000000
1297764.972352,13.000000,51.000000,19.000000,91.000000,2.000000,-6.000000,-43.000000,-7.000000
1297764.979879,23.000000,-33.000000,-10.000000,27.000000,4.000000,2.000000,-18.000000,-25.000000
1297764.979889,31.000000,34.000000,28.000000,-78.000000,8.000000,13.000000,20.000000,29.000000
1297765.009611,46.000000,-33.000000,-48.000000,19.000000,-21.000000,-10.000000,1.000000,-12.000000
1297765.009629,7.000000,127.000000,56.000000,35.000000,3.000000,13.000000,12.000000,4.000000
1297765.010122,49.000000,-45.000000,-20.000000,69.000000,8.000000,3.000000,11.000000,21.000000
1297765.010132,53.000000,121.000000,11.000000,-128.000000,-6.000000,-12.000000,1.000000,10.000000
1297765.010540,-22.000000,-33.000000,6.000000,5.000000,5.000000,1.000000,-8.000000,-12.000000
1297765.010549,31.000000,-16.000000,21.000000,67.000000,1.000000,-3.000000,-4.000000,2.000000
1297765.011238,-71.000000,-19.000000,-26.000000,-37.000000,-18.000000,0.000000,5.000000,4.000000
1297765.011246,24.000000,-104.000000,-18.000000,127.000000,4.000000,-7.000000,-7.000000,-12.000000
1297765.012644,-128.000000,68.000000,39.000000,57.000000,0.000000,-5.000000,-39.000000,-64.000000
1297765.012655,-32.000000,106.000000,-7.000000,54.000000,-2.000000,-8.000000,-11.000000,12.000000
1297765.013465,-13.000000,23.000000,-9.000000,-7.000000,9.000000,4.000000,10.000000,15.000000
1297765.013474,97.000000,30.000000,-3.000000,9.000000,5.000000,6.000000,1.000000,-6.000000
1297765.017117,1.000000,-6.000000,-5.000000,-79.000000,0.000000,8.000000,23.000000,13.000000
1297765.017136,37.000000,-29.000000,2.000000,45.000000,-19.000000,-10.000000,-9.000000,1.000000
1297765.047024,43.000000,-22.000000,25.000000,38.000000,-4.000000,-13.000000,-30.000000,-12.000000
1297765.047034,44.000000,80.000000,-1.000000,-63.000000,7.000000,7.000000,14.000000,12.000000
1297765.047439,28.000000,-2.000000,14.000000,33.000000,-4.000000,-1.000000,8.000000,10.000000
1297765.047448,39.000000,-39.000000,23.000000,127.000000,7.000000,5.000000,10.000000,7.000000
1297765.049096,-15.000000,-128.000000,-39.000000,-40.000000,-1.000000,3.000000,7.000000,7.000000
1297765.049106,-15.000000,-4.000000,-12.000000,-116.000000,5.000000,-6.000000,-20.000000,-24.000000
1297765.062357,-14.000000,-55.000000,32.000000,5.000000,-18.000000,-4.000000,-5.000000,4.000000
1297765.062375,19.000000,-33.000000,-63.000000,8.000000,3.000000,2.000000,8.000000,13.000000
1297765.069882,30.000000,32.000000,47.000000,27.000000,9.000000,8.000000,10.000000,12.000000
1297765.069901,-74.000000,-104.000000,10.000000,31.000000,1.000000,0.000000,-11.000000,-19.000000
1297765.084733,47.000000,-17.000000,4.000000,-62.000000,-3.000000,1.000000,19.000000,24.000000
1297765.084748,-14.000000,79.000000,12.000000,20.000000,4.000000,-6.000000,-11.000000,-18.000000
1297765.092230,28.000000,-56.000000,9.000000,-17.000000,-4.000000,-10.000000,-6.000000,9.000000
1297765.092241,-128.000000,-85.000000,-13.000000,-20.000000,8.000000,-10.000000,-16.000000,-46.000000
1297765.099667,56.000000,101.000000,13.000000,61.000000,-5.000000,2.000000,20.000000,32.000000
1297765.099677,-103.000000,-128.000000,-12.000000,5.000000,-10.000000,-5.000000,-17.000000,-34.000000
1297765.137367,39.000000,93.000000,0.000000,-45.000000,-9.000000,-11.000000,-23.000000,-14.000000
1297765.137378,-8.000000,-43.000000,-13.000000,-38.000000,17.000000,8.000000,17.000000,18.000000
1297765.144531,-35.000000,-12.000000,28.000000,74.000000,0.000000,8.000000,10.000000,12.000000
1297765.144540,-20.000000,32.000000,-12.000000,16.000000,2.000000,-1.000000,-2.000000,-6.000000
1297765.167871,46.000000,127.000000,17.000000,-27.000000,-3.000000,-3.000000,5.000000,7.000000
1297765.167892,-87.000000,-44.000000,-40.000000,-20.000000,-11.000000,1.000000,3.000000,-3.000000
1297765.168488,59.000000,122.000000,28.000000,127.000000,22.000000,12.000000,13.000000,22.000000
1297765.168509,-80.000000,-10.000000,-78.000000,-128.000000,-41.000000,-19.000000,-27.000000,-28.000000
1297765.169542,42.000000,-26.000000,18.000000,92.000000,6.000000,-5.000000,-3.000000,3.000000
1297765.169563,12.000000,-37.000000,1.000000,85.000000,-4.000000,1.000000,5.000000,-1.000000
1297765.170203,10.000000,19.000000,-15.000000,-34.000000,-6.000000,3.000000,9.000000,18.000000
1297765.170224,111.000000,40.000000,9.000000,3.000000,4.000000,6.000000,9.000000,17.000000
1297765.174962,20.000000,63.000000,28.000000,54.000000,-3.000000,3.000000,-1.000000,-16.000000
1297765.174984,-128.000000,-128.000000,-128.000000,-128.000000,-26.000000,-21.000000,-36.000000,-56.000000
1297765.182163,9.000000,62.000000,-10.000000,-66.000000,-3.000000,2.000000,5.000000,14.000000
1297765.182175,45.000000,-128.000000,16.000000,17.000000,-7.000000,-2.000000,16.000000,22.000000
1297765.189892,70.000000,108.000000,0.000000,-34.000000,-7.000000,-9.000000,-20.000000,-40.000000
1297765.189912,-34.000000,1.000000,-19.000000,-56.000000,-1.000000,6.000000,11.000000,9.000000
1297765.204632,-49.000000,-84.000000,-12.000000,-62.000000,5.000000,2.000000,-6.000000,-1.000000
1297765.204660,10.000000,-40.000000,-20.000000,-91.000000,-6.000000,-1.000000,2.000000,6.000000
1297765.212082,-12.000000,-21.000000,1.000000,30.000000,7.000000,0.000000,9.000000,5.000000
1297765.212099,18.000000,36.000000,18.000000,58.000000,-10.000000,3.000000,7.000000,7.000000
1297765.219785,19.000000,-119.000000,-25.000000,89.000000,-8.000000,-2.000000,2.000000,3.000000
1297765.219824,56.000000,29.000000,21.000000,7.000000,12.000000,3.000000,-9.000000,-1.000000
1297765.249893,-60.000000,-37.000000,-24.000000,-78.000000,9.000000,10.000000,7.000000,1.000000
1297765.249904,-14.000000,-6.000000,-28.000000,-43.000000,-30.000000,-17.000000,-14.000000,-14.000000
1297765.257189,69.000000,16.000000,20.000000,-32.000000,1.000000,-8.000000,-18.000000,0.000000
1297765.257207,41.000000,33.000000,12.000000,35.000000,4.000000,3.000000,4.000000,-2.000000
1297765.272512,-76.000000,2.000000,-12.000000,-29.000000,-1.000000,-4.000000,-2.000000,0.000000
1297765.272527,-29.000000,-114.000000,-7.000000,46.000000,-13.000000,-7.000000,-9.000000,-2.000000
1297765.273189,25.000000,51.000000,13.000000,-24.000000,-8.000000,-11.000000,-6.000000,-3.000000
1297765.273206,-33.000000,45.000000,0.000000,-37.000000,-1.000000,3.000000,-8.000000,-12.000000
1297765.274876,-27.000000,-128.000000,-11.000000,32.000000,13.000000,-5.000000,-8.000000,-10.000000
1297765.274895,63.000000,25.000000,1.000000,15.000000,14.000000,10.000000,19.000000,10.000000
1297765.287235,-62.000000,-14.000000,-43.000000,-128.000000,-10.000000,-19.000000,-37.000000,-24.000000
1297765.287253,-28.000000,105.000000,41.000000,67.000000,-8.000000,0.000000,-3.000000,-5.000000
1297765.294779,-24.000000,-66.000000,-4.000000,6.000000,-8.000000,4.000000,20.000000,17.000000
1297765.294800,40.000000,-21.000000,3.000000,-6.000000,-5.000000,-6.000000,-11.000000,-11.000000
1297765.309538,7.000000,10.000000,-16.000000,54.000000,17.000000,3.000000,3.000000,-1.000000
1297765.309555,-116.000000,-54.000000,-1.000000,-89.000000,-19.000000,-6.000000,12.000000,9.000000
1297765.317872,16.000000,-2.000000,5.000000,4.000000,1.000000,-1.000000,-4.000000,-6.000000
1297765.317887,78.000000,79.000000,-8.000000,50.000000,3.000000,-2.000000,1.000000,2.000000
1297765.325407,-32.000000,-15.000000,-19.000000,-18.000000,-10.000000,-1.000000,3.000000,-3.000000
1297765.325420,-24.000000,-36.000000,9.000000,89.000000,-3.000000,2.000000,23.000000,31.000000
1297765.332321,114.000000,3.000000,-50.000000,-128.000000,-15.000000,-8.000000,-55.000000,-50.000000
1297765.332331,-52.000000,-114.000000,0.000000,69.000000,6.000000,2.000000,-9.000000,-39.000000
1297765.339764,22.000000,-2.000000,-4.000000,-76.000000,5.000000,16.000000,26.000000,20.000000
1297765.339775,-128.000000,-15.000000,5.000000,51.000000,-2.000000,-10.000000,3.000000,8.000000
1297765.363051,27.000000,-17.000000,-24.000000,99.000000,-6.000000,-5.000000,-9.000000,-16.000000
1297765.363092,-60.000000,-112.000000,-7.000000,-26.000000,0.000000,-2.000000,-1.000000,-3.000000
1297765.369762,10.000000,22.000000,-1.000000,-6.000000,11.000000,3.000000,15.000000,12.000000
1297765.369783,49.000000,127.000000,-37.000000,-102.000000,-10.000000,1.000000,9.000000,7.000000
1297765.384752,-128.000000,-60.000000,4.000000,-10.000000,2.000000,6.000000,-15.000000,-11.000000
1297765.384770,24.000000,9.000000,-5.000000,2.000000,9.000000,0.000000,-11.000000,-6.000000
1297765.407886,37.000000,0.000000,-1.000000,-10.000000,-17.000000,-3.000000,-4.000000,14.000000
1297765.407907,41.000000,41.000000,17.000000,23.000000,5.000000,7.000000,8.000000,19.000000
1297765.408469,22.000000,-46.000000,-19.000000,119.000000,-4.000000,3.000000,3.000000,-21.000000
1297765.408490,-113.000000,-128.000000,-38.000000,-128.000000,-18.000000,-18.000000,-19.000000,-17.000000
1297765.408895,24.000000,0.000000,12.000000,54.000000,1.000000,-3.000000,-3.000000,9.000000
1297765.408916,85.000000,54.000000,-16.000000,-55.000000,-1.000000,1.000000,3.000000,7.000000
1297765.414923,-62.000000,-96.000000,4.000000,36.000000,15.000000,14.000000,21.000000,13.000000
1297765.414944,43.000000,-75.000000,8.000000,30.000000,-7.000000,-4.000000,0.000000,11.000000
1297765.437235,39.000000,127.000000,-20.000000,-38.000000,-7.000000,-12.000000,-16.000000,-16.000000
1297765.437251,-5.000000,62.000000,16.000000,-19.000000,4.000000,-1.000000,-7.000000,-10.000000
1297765.438343,-66.000000,-27.000000,-6.000000,-14.000000,-5.000000,2.000000,16.000000,6.000000
1297765.438352,22.000000,-8.000000,-11.000000,100.000000,1.000000,-6.000000,-10.000000,-10.000000
1297765.444365,-80.000000,-58.000000,-35.000000,-60.000000,-3.000000,-3.000000,-12.000000,-25.000000
1297765.444375,35.000000,14.000000,21.000000,2.000000,2.000000,4.000000,8.000000,12.000000
1297765.452328,7.000000,91.000000,21.000000,30.000000,11.000000,12.000000,15.000000,11.000000
1297765.452345,-14.000000,-75.000000,-7.000000,96.000000,7.000000,-7.000000,-4.000000,4.000000
1297765.460484,103.000000,-3.000000,-8.000000,-69.000000,-4.000000,-7.000000,-25.000000,-14.000000
1297765.460525,7.000000,38.000000,30.000000,-47.000000,4.000000,4.000000,12.000000,19.000000
1297765.482391,-14.000000,-128.000000,-44.000000,92.000000,-7.000000,-1.000000,4.000000,-11.000000
1297765.482401,-21.000000,-76.000000,8.000000,16.000000,-6.000000,-5.000000,-9.000000,-12.000000
1297765.489588,-16.000000,-51.000000,-44.000000,-44.000000,-12.000000,-5.000000,0.000000,-5.000000
1297765.489598,-106.000000,5.000000,-6.000000,25.000000,-6.000000,2.000000,2.000000,5.000000
1297765.527069,-4.000000,-54.000000,-21.000000,-31.000000,-4.000000,-4.000000,-2.000000,-18.000000
1297765.527080,7.000000,22.000000,-23.000000,16.000000,-2.000000,-9.000000,-10.000000,1.000000
1297765.527592,0.000000,80.000000,41.000000,108.000000,3.000000,7.000000,21.000000,21.000000
1297765.527674,127.000000,127.000000,-8.000000,-103.000000,-4.000000,-15.000000,-28.000000,-25.000000
1297765.528898,-85.000000,-128.000000,-44.000000,-37.000000,-13.000000,-4.000000,-12.000000,-10.000000
1297765.528908,24.000000,40.000000,7.000000,66.000000,7.000000,8.000000,14.000000,13.000000
1297765.529441,-5.000000,107.000000,19.000000,-37.000000,3.000000,1.000000,11.000000,5.000000
1297765.529449,55.000000,6.000000,-2.000000,-11.000000,2.000000,-3.000000,1.000000,5.000000
1297765.534522,-57.000000,-56.000000,-24.000000,23.000000,1.000000,0.000000,6.000000,-3.000000
1297765.534534,51.000000,-65.000000,-5.000000,-11.000000,-1.000000,4.000000,14.000000,16.000000
1297765.541960,-40.000000,21.000000,18.000000,9.000000,-20.000000,-9.000000,-7.000000,-15.000000
1297765.541976,-4.000000,-21.000000,-1.000000,-25.000000,-15.000000,-12.000000,-23.000000,0.000000
1297765.564613,16.000000,-38.000000,-32.000000,-15.000000,6.000000,0.000000,-8.000000,-15.000000
1297765.564674,-56.000000,-65.000000,7.000000,-37.000000,-2.000000,6.000000,22.000000,14.000000
1297765.565055,37.000000,114.000000,47.000000,-10.000000,1.000000,8.000000,19.000000,31.000000
1297765.565069,102.000000,10.000000,-34.000000,-52.000000,-32.000000,-16.000000,-20.000000,-14.000000
1297765.572172,22.000000,-58.000000,6.000000,20.000000,-7.000000,-14.000000,-28.000000,-20.000000
1297765.572190,21.000000,51.000000,22.000000,-14.000000,10.000000,5.000000,16.000000,24.000000
1297765.602211,22.000000,-42.000000,-16.000000,38.000000,2.000000,3.000000,20.000000,27.000000
1297765.602221,-38.000000,9.000000,5.000000,43.000000,3.000000,7.000000,33.000000,21.000000
1297765.640847,19.000000,127.000000,9.000000,15.000000,-2.000000,-9.000000,-32.000000,-41.000000
1297765.640868,-27.000000,16.000000,-25.000000,-90.000000,11.000000,4.000000,-14.000000,5.000000
1297765.647336,36.000000,-30.000000,-24.000000,-21.000000,-6.000000,2.000000,5.000000,4.000000
1297765.647358,19.000000,91.000000,-15.000000,19.000000,-1.000000,-6.000000,10.000000,11.000000
1297765.684875,25.000000,127.000000,30.000000,13.000000,3.000000,9.000000,14.000000,17.000000
1297765.684973,-91.000000,35.000000,11.000000,51.000000,-10.000000,-11.000000,-15.000000,-17.000000
1297765.685226,-53.000000,-68.000000,-8.000000,0.000000,6.000000,0.000000,8.000000,17.000000
1297765.685246,-22.000000,-11.000000,-57.000000,-92.000000,11.000000,1.000000,-4.000000,-23.000000
1297765.693053,-3.000000,33.000000,26.000000,33.000000,-3.000000,-3.000000,-13.000000,5.000000
1297765.693093,-12.000000,6.000000,34.000000,69.000000,10.000000,5.000000,11.000000,10.000000
1297765.700311,8.000000,86.000000,21.000000,9.000000,-2.000000,-4.000000,11.000000,19.000000
1297765.700333,78.000000,24.000000,-16.000000,9.000000,12.000000,7.000000,12.000000,5.000000
1297765.714747,-30.000000,-32.000000,-8.000000,37.000000,-7.000000,-5.000000,-10.000000,-9.000000
1297765.714769,-6.000000,24.000000,6.000000,-22.000000,3.000000,3.000000,-4.000000,-5.000000
1297765.722090,9.000000,-34.000000,3.000000,13.000000,-1.000000,4.000000,15.000000,19.000000
1297765.722107,55.000000,101.000000,-7.000000,0.000000,6.000000,2.000000,-4.000000,3.000000
1297765.729588,10.000000,14.000000,6.000000,48.000000,2.000000,2.000000,19.000000,27.000000
1297765.729597,67.000000,9.000000,-5.000000,-92.000000,-13.000000,-13.000000,-51.000000,-49.000000
1297765.737778,14.000000,-20.000000,23.000000,28.000000,-3.000000,-5.000000,-3.000000,6.000000
1297765.737819,34.000000,-44.000000,-22.000000,-105.000000,4.000000,14.000000,34.000000,36.000000
1297765.752716,-79.000000,-72.000000,17.000000,107.000000,-4.000000,-3.000000,-9.000000,-15.000000
1297765.752740,4.000000,-51.000000,-6.000000,-55.000000,9.000000,-7.000000,-9.000000,16.000000
1297765.759363,32.000000,-50.000000,-20.000000,-91.000000,-17.000000,-4.000000,-11.000000,-27.000000
1297765.759373,41.000000,17.000000,0.000000,-27.000000,3.000000,5.000000,11.000000,8.000000
1297765.759956,22.000000,-5.000000,12.000000,74.000000,-14.000000,-4.000000,2.000000,0.000000
1297765.759974,-28.000000,-95.000000,-8.000000,-27.000000,-2.000000,-1.000000,0.000000,-4.000000
1297765.760714,-35.000000,-71.000000,-39.000000,8.000000,2.000000,-7.000000,-10.000000,-12.000000
1297765.760748,57.000000,32.000000,14.000000,-9.000000,-3.000000,-1.000000,-3.000000,0.000000
1297765.761846,26.000000,-71.000000,1.000000,16.000000,-10.000000,0.000000,5.000000,5.000000
1297765.761854,-32.000000,29.000000,6.000000,12.000000,8.000000,4.000000,5.000000,3.000000
1297765.762703,63.000000,127.000000,23.000000,100.000000,1.000000,4.000000,0.000000,8.000000
1297765.762711,-63.000000,35.000000,15.000000,-93.000000,1.000000,-4.000000,-10.000000,-9.000000
1297765.774628,-8.000000,15.000000,5.000000,13.000000,10.000000,-2.000000,-1.000000,-2.000000
1297765.774643,-18.000000,-29.000000,7.000000,26.000000,-4.000000,0.000000,-2.000000,2.000000
1297765.805697,39.000000,53.000000,-17.000000,13.000000,4.000000,-1.000000,-13.000000,-2.000000
1297765.805744,4.000000,27.000000,31.000000,-23.000000,-17.000000,-6.000000,-5.000000,-7.000000
1297765.843143,6.000000,24.000000,-22.000000,-31.000000,-2.000000,5.000000,12.000000,17.000000
1297765.843194,-10.000000,38.000000,19.000000,18.000000,14.000000,0.000000,-13.000000,-23.000000
1297765.850468,-30.000000,-1.000000,-17.000000,-2.000000,-3.000000,2.000000,4.000000,2.000000
1297765.850492,-13.000000,-128.000000,-2.000000,-21.000000,1.000000,-5.000000,-26.000000,-7.000000
1297765.866257,45.000000,74.000000,22.000000,45.000000,5.000000,5.000000,15.000000,9.000000
1297765.866575,-14.000000,-48.000000,13.000000,17.000000,13.000000,5.000000,7.000000,-1.000000
1297765.867400,-71.000000,-68.000000,-18.000000,78.000000,-12.000000,-6.000000,-6.000000,-9.000000
1297765.867422,-14.000000,-128.000000,-69.000000,-128.000000,-6.000000,-7.000000,-31.000000,-30.000000
1297765.880629,6.000000,59.000000,19.000000,-6.000000,16.000000,-1.000000,7.000000,17.000000
1297765.880731,81.000000,43.000000,22.000000,31.000000,2.000000,4.000000,11.000000,13.000000
1297765.881194,53.000000,36.000000,9.000000,-11.000000,1.000000,4.000000,7.000000,19.000000
1297765.881472,-128.000000,-128.000000,-28.000000,7.000000,-14.000000,-5.000000,10.000000,-13.000000
1297765.883103,14.000000,-5.000000,-20.000000,7.000000,-9.000000,-10.000000,-23.000000,-13.000000
1297765.883124,56.000000,68.000000,1.000000,-76.000000,0.000000,-4.000000,-4.000000,0.000000
1297765.883609,-22.000000,-84.000000,14.000000,35.000000,3.000000,9.000000,16.000000,3.000000
1297765.883647,8.000000,-6.000000,-4.000000,-23.000000,-8.000000,5.000000,14.000000,16.000000
1297765.895475,14.000000,21.000000,3.000000,55.000000,6.000000,0.000000,19.000000,23.000000
1297765.895522,-7.000000,-20.000000,-8.000000,-41.000000,-3.000000,-2.000000,-23.000000,-28.000000
1297765.918888,-21.000000,-90.000000,-12.000000,-24.000000,10.000000,0.000000,-3.000000,-3.000000
1297765.919391,2.000000,12.000000,0.000000,-18.000000,-2.000000,-3.000000,6.000000,18.000000
1297765.920404,-13.000000,-23.000000,-9.000000,-65.000000,-12.000000,-1.000000,6.000000,0.000000
1297765.920425,-45.000000,27.000000,6.000000,37.000000,9.000000,3.000000,0.000000,-7.000000
1297765.925644,11.000000,80.000000,12.000000,12.000000,4.000000,0.000000,-7.000000,2.000000
1297765.925693,22.000000,15.000000,4.000000,59.000000,-2.000000,3.000000,-3.000000,2.000000
1297765.963041,-23.000000,-68.000000,-14.000000,-46.000000,5.000000,4.000000,22.000000,15.000000
1297765.963071,40.000000,-38.000000,3.000000,36.000000,-7.000000,-8.000000,-17.000000,-16.000000
1297765.970458,-62.000000,-59.000000,-33.000000,-64.000000,2.000000,-5.000000,-11.000000,-6.000000
1297765.970508,57.000000,25.000000,22.000000,3.000000,5.000000,12.000000,25.000000,31.000000
1297766.001827,7.000000,19.000000,-11.000000,7.000000,-7.000000,-2.000000,0.000000,-31.000000
1297766.002690,43.000000,-51.000000,2.000000,30.000000,-5.000000,-7.000000,-13.000000,-1.000000
1297766.002914,-25.000000,-17.000000,3.000000,-34.000000,3.000000,0.000000,2.000000,-5.000000
1297766.002957,-5.000000,20.000000,-11.000000,-85.000000,-2.000000,-2.000000,6.000000,2.000000
1297766.004341,66.000000,105.000000,31.000000,-5.000000,4.000000,6.000000,13.000000,20.000000
1297766.004367,-23.000000,3.000000,-15.000000,30.000000,1.000000,-3.000000,-6.000000,-12.000000
1297766.004880,-15.000000,-60.000000,-3.000000,-17.000000,-6.000000,-1.000000,-9.000000,-6.000000
1297766.004924,-14.000000,-20.000000,4.000000,48.000000,-5.000000,-5.000000,-1.000000,-2.000000
1297766.005407,12.000000,25.000000,13.000000,35.000000,5.000000,4.000000,4.000000,2.000000
1297766.005451,-19.000000,3.000000,1.000000,-12.000000,1.000000,2.000000,-9.000000,-15.000000
1297766.015480,-21.000000,8.000000,-43.000000,-37.000000,3.000000,0.000000,-4.000000,-13.000000
1297766.015509,-76.000000,-28.000000,6.000000,-8.000000,-9.000000,-11.000000,-22.000000,-29.000000
1297766.038399,54.000000,-17.000000,-6.000000,-4.000000,5.000000,6.000000,13.000000,16.000000
1297766.038420,-26.000000,-106.000000,2.000000,48.000000,-10.000000,7.000000,28.000000,25.000000
1297766.039311,-6.000000,-51.000000,-23.000000,-36.000000,-7.000000,-24.000000,-60.000000,-54.000000
1297766.039351,-22.000000,-3.000000,-47.000000,-35.000000,-6.000000,-19.000000,-24.000000,-15.000000
1297766.045340,29.000000,45.000000,55.000000,25.000000,-1.000000,6.000000,16.000000,29.000000
1297766.045361,55.000000,51.000000,-14.000000,101.000000,-14.000000,-2.000000,11.000000,4.000000
1297766.083158,-106.000000,-67.000000,-21.000000,-79.000000,-8.000000,-4.000000,-15.000000,-22.000000
1297766.083204,15.000000,127.000000,18.000000,-22.000000,13.000000,7.000000,6.000000,5.000000
1297766.090576,-7.000000,14.000000,12.000000,13.000000,13.000000,3.000000,7.000000,9.000000
1297766.090635,24.000000,-125.000000,-14.000000,44.000000,-10.000000,5.000000,18.000000,12.000000
1297766.107188,-41.000000,-15.000000,4.000000,23.000000,20.000000,7.000000,-4.000000,-9.000000
1297766.107530,11.000000,-68.000000,-13.000000,-118.000000,-2.000000,-5.000000,-7.000000,-8.000000
1297766.108317,26.000000,59.000000,28.000000,-10.000000,7.000000,10.000000,23.000000,26.000000
1297766.108365,-8.000000,-35.000000,-33.000000,55.000000,-9.000000,3.000000,-5.000000,-10.000000
1297766.109231,50.000000,-16.000000,-10.000000,2.000000,1.000000,-5.000000,-3.000000,1.000000
1297766.109252,19.000000,-58.000000,-14.000000,2.000000,-3.000000,-8.000000,-7.000000,-14.000000
1297766.109775,33.000000,21.000000,-3.000000,-46.000000,4.000000,0.000000,4.000000,14.000000
1297766.109975,-86.000000,-29.000000,11.000000,19.000000,-9.000000,-4.000000,3.000000,-3.000000
1297766.120405,-10.000000,44.000000,45.000000,17.000000,-11.000000,-4.000000,-16.000000,-21.000000
1297766.120447,-1.000000,114.000000,-21.000000,1.000000,6.000000,5.000000,14.000000,13.000000
1297766.128563,3.000000,19.000000,26.000000,2.000000,4.000000,5.000000,10.000000,13.000000
1297766.128776,53.000000,-52.000000,-11.000000,-4.000000,0.000000,-1.000000,5.000000,-1.000000
1297766.150504,-20.000000,-88.000000,-4.000000,-18.000000,0.000000,-8.000000,-9.000000,-9.000000
1297766.150528,8.000000,20.000000,12.000000,-65.000000,-15.000000,-3.000000,-2.000000,-1.000000
1297766.158084,12.000000,9.000000,-32.000000,78.000000,11.000000,0.000000,2.000000,2.000000
1297766.158107,9.000000,31.000000,17.000000,-11.000000,21.000000,13.000000,21.000000,14.000000
1297766.159680,8.000000,3.000000,-32.000000,29.000000,-11.000000,-6.000000,-7.000000,-2.000000
1297766.159717,-7.000000,-27.000000,20.000000,-39.000000,-16.000000,-5.000000,-12.000000,-9.000000
1297766.172807,78.000000,53.000000,0.000000,-41.000000,-8.000000,-4.000000,-5.000000,9.000000
1297766.172854,-28.000000,-114.000000,-14.000000,-24.000000,-1.000000,4.000000,13.000000,4.000000
1297766.195476,43.000000,127.000000,18.000000,-29.000000,-10.000000,-6.000000,4.000000,-6.000000
1297766.195521,8.000000,-4.000000,9.000000,91.000000,3.000000,0.000000,-10.000000,-15.000000
1297766.203134,-39.000000,18.000000,3.000000,-63.000000,-5.000000,3.000000,1.000000,0.000000
1297766.203241,25.000000,-49.000000,-14.000000,-20.000000,-10.000000,-12.000000,-5.000000,1.000000
1297766.211803,17.000000,36.000000,17.000000,31.000000,18.000000,12.000000,16.000000,6.000000
1297766.211827,47.000000,41.000000,8.000000,-17.000000,-3.000000,2.000000,5.000000,20.000000
1297766.212052,-43.000000,-8.000000,9.000000,66.000000,5.000000,0.000000,-10.000000,-11.000000
1297766.212097,-10.000000,-7.000000,29.000000,-95.000000,-14.000000,-9.000000,-10.000000,-10.000000
1297766.217608,40.000000,4.000000,13.000000,24.000000,10.000000,7.000000,17.000000,17.000000
1297766.217630,11.000000,58.000000,-6.000000,10.000000,-10.000000,0.000000,9.000000,12.000000
1297766.240644,-42.000000,-128.000000,-3.000000,24.000000,-8.000000,-5.000000,-14.000000,-14.000000
1297766.240723,-26.000000,3.000000,-27.000000,-30.000000,6.000000,-5.000000,-3.000000,1.000000
1297766.270378,11.000000,39.000000,29.000000,23.000000,12.000000,7.000000,9.000000,12.000000
1297766.270402,15.000000,27.000000,3.000000,27.000000,-1.000000,6.000000,0.000000,1.000000
1297766.285815,25.000000,-46.000000,-20.000000,5.000000,-20.000000,-1.000000,10.000000,11.000000
1297766.285857,8.000000,-18.000000,19.000000,-128.000000,1.000000,0.000000,-1.000000,-1.000000
1297766.292989,-12.000000,-1.000000,-4.000000,14.000000,9.000000,1.000000,-3.000000,-12.000000
1297766.293012,26.000000,13.000000,24.000000,107.000000,10.000000,5.000000,0.000000,8.000000
1297766.307815,-10.000000,93.000000,15.000000,40.000000,7.000000,7.000000,18.000000,15.000000
1297766.307860,91.000000,90.000000,13.000000,51.000000,-3.000000,-6.000000,-2.000000,-11.000000
1297766.317248,-36.000000,-86.000000,-4.000000,22.000000,-3.000000,-4.000000,-22.000000,-32.000000
1297766.317584,-9.000000,-20.000000,-24.000000,-82.000000,-3.000000,-2.000000,16.000000,11.000000
1297766.319610,-47.000000,-9.000000,-31.000000,34.000000,10.000000,8.000000,14.000000,15.000000
1297766.319662,-6.000000,-15.000000,14.000000,51.000000,-7.000000,-4.000000,0.000000,-3.000000
1297766.319965,-7.000000,-5.000000,-10.000000,-34.000000,-17.000000,-14.000000,-26.000000,-22.000000
1297766.320173,22.000000,11.000000,11.000000,-54.000000,10.000000,14.000000,20.000000,25.000000
1297766.320441,39.000000,10.000000,-5.000000,-25.000000,3.000000,-6.000000,-9.000000,-11.000000
1297766.320489,27.000000,10.000000,14.000000,23.000000,7.000000,-5.000000,3.000000,4.000000
1297766.323957,14.000000,13.000000,-19.000000,17.000000,6.000000,9.000000,10.000000,-3.000000
1297766.323988,33.000000,19.000000,-21.000000,-37.000000,-21.000000,-12.000000,-10.000000,-4.000000
1297766.360345,-41.000000,-29.000000,0.000000,-16.000000,-11.000000,-11.000000,-21.000000,-11.000000
1297766.360617,-5.000000,2.000000,-12.000000,43.000000,2.000000,4.000000,6.000000,4.000000
1297766.362018,-6.000000,-66.000000,-11.000000,1.000000,7.000000,9.000000,9.000000,4.000000
1297766.362070,4.000000,-26.000000,2.000000,39.000000,-14.000000,-8.000000,0.000000,3.000000
1297766.362869,-4.000000,21.000000,-13.000000,-107.000000,-2.000000,0.000000,-13.000000,-9.000000
1297766.362909,-14.000000,20.000000,13.000000,26.000000,11.000000,6.000000,1.000000,8.000000
1297766.368508,-53.000000,-51.000000,-4.000000,2.000000,-14.000000,5.000000,12.000000,8.000000
1297766.368550,-50.000000,-7.000000,6.000000,-20.000000,2.000000,-6.000000,-2.000000,-8.000000
1297766.383228,18.000000,127.000000,45.000000,-21.000000,3.000000,-13.000000,-77.000000,-53.000000
1297766.383261,-54.000000,-57.000000,-40.000000,13.000000,-9.000000,-2.000000,3.000000,3.000000
1297766.397841,-5.000000,-35.000000,4.000000,44.000000,3.000000,7.000000,23.000000,18.000000
1297766.397894,11.000000,-20.000000,-3.000000,-5.000000,-8.000000,0.000000,16.000000,19.000000
1297766.405921,-60.000000,69.000000,21.000000,3.000000,-13.000000,-4.000000,-5.000000,-8.000000
1297766.405969,-24.000000,-40.000000,-40.000000,-28.000000,-5.000000,-2.000000,-7.000000,-5.000000
1297766.435856,13.000000,28.000000,-3.000000,-54.000000,-1.000000,1.000000,1.000000,-2.000000
1297766.435884,18.000000,62.000000,30.000000,60.000000,5.000000,9.000000,14.000000,12.000000
1297766.443879,-37.000000,-2.000000,-1.000000,78.000000,-18.000000,-19.000000,-35.000000,-24.000000
1297766.443906,33.000000,-17.000000,-8.000000,-94.000000,12.000000,6.000000,0.000000,4.000000
1297766.444792,2.000000,23.000000,-20.000000,4.000000,0.000000,4.000000,11.000000,8.000000
1297766.444816,4.000000,-52.000000,-20.000000,14.000000,-7.000000,-8.000000,-5.000000,-4.000000
1297766.445031,-97.000000,-14.000000,28.000000,37.000000,-33.000000,-21.000000,-28.000000,-27.000000
1297766.445069,76.000000,60.000000,-36.000000,-128.000000,7.000000,9.000000,18.000000,27.000000
1297766.446920,-48.000000,-49.000000,-6.000000,61.000000,-1.000000,-14.000000,-20.000000,-15.000000
1297766.447081,0.000000,125.000000,11.000000,-26.000000,-1.000000,0.000000,-4.000000,-10.000000
1297766.473697,-5.000000,-23.000000,5.000000,48.000000,0.000000,8.000000,31.000000,29.000000
1297766.473739,71.000000,95.000000,11.000000,26.000000,-1.000000,-8.000000,-13.000000,-8.000000
1297766.474932,19.000000,-43.000000,-10.000000,-27.000000,-7.000000,-5.000000,-3.000000,7.000000
1297766.474975,-74.000000,36.000000,3.000000,101.000000,5.000000,-5.000000,3.000000,-7.000000
1297766.475165,8.000000,-17.000000,-16.000000,-52.000000,6.000000,-5.000000,-20.000000,-10.000000
1297766.475203,45.000000,1.000000,9.000000,66.000000,-1.000000,1.000000,11.000000,18.000000
1297766.497125,-28.000000,81.000000,25.000000,-75.000000,4.000000,3.000000,4.000000,-6.000000
1297766.497601,-2.000000,-52.000000,-50.000000,27.000000,-9.000000,-4.000000,6.000000,-1.000000
1297766.498160,19.000000,9.000000,2.000000,66.000000,4.000000,7.000000,7.000000,10.000000
1297766.498193,-17.000000,-7.000000,-15.000000,-120.000000,-20.000000,-15.000000,-20.000000,-9.000000
1297766.525594,1.000000,127.000000,45.000000,27.000000,11.000000,2.000000,15.000000,24.000000
1297766.525763,-62.000000,16.000000,-17.000000,23.000000,-6.000000,1.000000,-11.000000,-32.000000
1297766.533203,13.000000,-67.000000,-3.000000,-44.000000,3.000000,4.000000,11.000000,25.000000
1297766.533252,52.000000,60.000000,16.000000,37.000000,14.000000,11.000000,7.000000,-16.000000
1297766.562814,-1.000000,-128.000000,-25.000000,-17.000000,-6.000000,-2.000000,10.000000,3.000000
1297766.562860,-2.000000,33.000000,16.000000,51.000000,0.000000,2.000000,-9.000000,8.000000
1297766.571622,22.000000,6.000000,1.000000,43.000000,4.000000,-4.000000,3.000000,5.000000
1297766.571656,9.000000,23.000000,6.000000,-40.000000,-17.000000,-5.000000,7.000000,6.000000
1297766.572321,-14.000000,-78.000000,-17.000000,6.000000,9.000000,4.000000,9.000000,5.000000
1297766.572355,22.000000,35.000000,11.000000,24.000000,9.000000,2.000000,-6.000000,2.000000
1297766.573607,38.000000,125.000000,21.000000,40.000000,-1.000000,-3.000000,5.000000,1.000000
1297766.573646,23.000000,127.000000,-4.000000,-9.000000,13.000000,13.000000,10.000000,15.000000
1297766.593691,-34.000000,-88.000000,-12.000000,18.000000,-11.000000,-7.000000,-3.000000,-4.000000
1297766.593745,-8.000000,-58.000000,-16.000000,9.000000,10.000000,2.000000,-2.000000,5.000000
1297766.595325,-26.000000,-15.000000,-17.000000,27.000000,11.000000,9.000000,20.000000,12.000000
1297766.595346,18.000000,-37.000000,-1.000000,-21.000000,-4.000000,-4.000000,-12.000000,0.000000
1297766.595573,-37.000000,-22.000000,-5.000000,4.000000,-7.000000,0.000000,-7.000000,-8.000000
1297766.595586,9.000000,-12.000000,11.000000,35.000000,4.000000,-3.000000,-3.000000,-2.000000
1297766.645708,55.000000,22.000000,12.000000,11.000000,-12.000000,-10.000000,-32.000000,-13.000000
1297766.645770,5.000000,48.000000,10.000000,-58.000000,3.000000,8.000000,19.000000,19.000000
1297766.675944,23.000000,-5.000000,-33.000000,17.000000,-8.000000,-5.000000,-2.000000,-2.000000
1297766.676233,-65.000000,-95.000000,-4.000000,-18.000000,-12.000000,-8.000000,-24.000000,-31.000000
1297766.677732,2.000000,-16.000000,-15.000000,-22.000000,5.000000,2.000000,-3.000000,0.000000
1297766.677769,59.000000,32.000000,-5.000000,81.000000,-4.000000,-5.000000,10.000000,11.000000
1297766.678272,5.000000,10.000000,-19.000000,-77.000000,-15.000000,1.000000,-5.000000,7.000000
1297766.678317,-77.000000,9.000000,-20.000000,-71.000000,-6.000000,-4.000000,-4.000000,-11.000000
1297766.679663,35.000000,18.000000,4.000000,-44.000000,-17.000000,-8.000000,-8.000000,-5.000000
1297766.679688,-21.000000,21.000000,4.000000,-45.000000,5.000000,5.000000,0.000000,-4.000000
1297766.683657,11.000000,13.000000,-4.000000,48.000000,4.000000,-4.000000,-5.000000,-5.000000
1297766.683700,-15.000000,-114.000000,3.000000,-25.000000,-5.000000,-13.000000,-16.000000,-19.000000
1297766.713297,-38.000000,-2.000000,-1.000000,-41.000000,-7.000000,-3.000000,-3.000000,-3.000000
1297766.713443,-31.000000,-5.000000,5.000000,33.000000,-6.000000,8.000000,17.000000,9.000000
1297766.721930,42.000000,17.000000,7.000000,10.000000,12.000000,9.000000,18.000000,19.000000
1297766.722141,-39.000000,-26.000000,-1.000000,81.000000,-2.000000,-5.000000,-11.000000,-17.000000
1297766.722889,-11.000000,-25.000000,-30.000000,-128.000000,-8.000000,-4.000000,-1.000000,-1.000000
1297766.722928,29.000000,-13.000000,15.000000,59.000000,2.000000,1.000000,2.000000,5.000000
1297766.729335,-70.000000,13.000000,0.000000,29.000000,11.000000,2.000000,9.000000,15.000000
1297766.729385,43.000000,-14.000000,-1.000000,3.000000,-13.000000,0.000000,2.000000,0.000000
1297766.758256,27.000000,66.000000,27.000000,-35.000000,-4.000000,-6.000000,-14.000000,-4.000000
1297766.758300,4.000000,18.000000,31.000000,26.000000,12.000000,8.000000,10.000000,19.000000
1297766.780698,12.000000,21.000000,-46.000000,-10.000000,-6.000000,-5.000000,13.000000,2.000000
1297766.780741,20.000000,49.000000,5.000000,7.000000,1.000000,-6.000000,-14.000000,-17.000000
1297766.795898,-24.000000,-11.000000,-2.000000,10.000000,-15.000000,-13.000000,-27.000000,-18.000000
1297766.796257,14.000000,-16.000000,13.000000,24.000000,8.000000,7.000000,2.000000,7.000000
1297766.797617,15.000000,0.000000,-3.000000,-12.000000,2.000000,9.000000,24.000000,22.000000
1297766.797672,33.000000,6.000000,-6.000000,51.000000,-14.000000,-3.000000,-12.000000,-21.000000
1297766.799432,11.000000,15.000000,-26.000000,-28.000000,6.000000,-7.000000,-12.000000,-8.000000
1297766.799707,-27.000000,26.000000,-42.000000,-19.000000,11.000000,6.000000,4.000000,-2.000000
1297766.800572,-51.000000,-128.000000,-25.000000,0.000000,-11.000000,-2.000000,-13.000000,-11.000000
1297766.800592,1.000000,0.000000,6.000000,-46.000000,2.000000,6.000000,4.000000,2.000000
1297766.800693,78.000000,-4.000000,15.000000,37.000000,10.000000,10.000000,16.000000,20.000000
1297766.800718,-26.000000,108.000000,5.000000,80.000000,6.000000,-6.000000,-14.000000,-12.000000
1297766.804048,18.000000,51.000000,-4.000000,-66.000000,-10.000000,6.000000,3.000000,4.000000
1297766.804090,-57.000000,-4.000000,-18.000000,20.000000,-10.000000,-6.000000,-17.000000,-17.000000
1297766.826258,9.000000,3.000000,-1.000000,-62.000000,1.000000,8.000000,23.000000,23.000000
1297766.826558,-11.000000,19.000000,5.000000,91.000000,-1.000000,-10.000000,-24.000000,-22.000000
1297766.827501,-82.000000,-4.000000,-7.000000,-72.000000,3.000000,7.000000,-8.000000,-25.000000
1297766.827575,-16.000000,-9.000000,-10.000000,-19.000000,-1.000000,-9.000000,-6.000000,-3.000000
1297766.833101,38.000000,-42.000000,-28.000000,5.000000,-1.000000,3.000000,15.000000,15.000000
1297766.833125,-18.000000,-16.000000,-29.000000,-22.000000,-9.000000,-5.000000,-7.000000,-4.000000
1297766.849655,83.000000,86.000000,33.000000,40.000000,17.000000,13.000000,17.000000,6.000000
1297766.849710,-54.000000,6.000000,-11.000000,79.000000,14.000000,-3.000000,-7.000000,-8.000000
1297766.863175,13.000000,-27.000000,1.000000,-115.000000,-15.000000,-7.000000,-10.000000,-1.000000
1297766.863200,-21.000000,-9.000000,3.000000,81.000000,-4.000000,-5.000000,6.000000,9.000000
1297766.877843,47.000000,18.000000,2.000000,-32.000000,23.000000,10.000000,9.000000,2.000000
1297766.877889,-64.000000,28.000000,-19.000000,8.000000,0.000000,-7.000000,-11.000000,-14.000000
1297766.885809,33.000000,-32.000000,20.000000,47.000000,-6.000000,-7.000000,-4.000000,-4.000000
1297766.885851,-6.000000,-4.000000,2.000000,-1.000000,-12.000000,1.000000,9.000000,8.000000
1297766.923036,-31.000000,-6.000000,-3.000000,-36.000000,27.000000,15.000000,-4.000000,-24.000000
1297766.923087,93.000000,39.000000,-3.000000,-30.000000,-13.000000,-8.000000,-16.000000,4.000000
1297766.938028,6.000000,-26.000000,-16.000000,-74.000000,-9.000000,-9.000000,8.000000,2.000000
1297766.938084,-24.000000,-23.000000,31.000000,24.000000,9.000000,16.000000,21.000000,18.000000
1297766.940029,-17.000000,-25.000000,-7.000000,39.000000,7.000000,-9.000000,-17.000000,-11.000000
1297766.940063,-23.000000,13.000000,4.000000,19.000000,-5.000000,6.000000,10.000000,2.000000
1297766.940488,-13.000000,112.000000,30.000000,25.000000,-3.000000,-8.000000,-7.000000,-11.000000
1297766.940528,21.000000,-20.000000,-10.000000,-7.000000,1.000000,-7.000000,-19.000000,6.000000
1297766.941515,-41.000000,-4.000000,12.000000,2.000000,10.000000,12.000000,12.000000,-9.000000
1297766.941616,19.000000,-16.000000,3.000000,48.000000,-11.000000,-7.000000,-5.000000,-5.000000
1297766.953820,1.000000,61.000000,15.000000,11.000000,3.000000,0.000000,13.000000,32.000000
1297766.954112,80.000000,-2.000000,0.000000,-83.000000,-4.000000,1.000000,-1.000000,-8.000000
1297766.954473,-28.000000,-60.000000,16.000000,6.000000,5.000000,2.000000,5.000000,12.000000
1297766.954512,122.000000,79.000000,33.000000,55.000000,10.000000,2.000000,1.000000,11.000000
1297766.976089,-67.000000,-107.000000,-56.000000,-60.000000,-14.000000,-6.000000,-6.000000,-21.000000
1297766.976325,2.000000,-1.000000,23.000000,16.000000,-3.000000,4.000000,10.000000,20.000000
1297766.976787,6.000000,-42.000000,-1.000000,-53.000000,-8.000000,-5.000000,6.000000,7.000000
1297766.976830,42.000000,-1.000000,-6.000000,1.000000,-3.000000,-15.000000,-34.000000,-17.000000
1297766.998109,7.000000,9.000000,-9.000000,79.000000,4.000000,4.000000,6.000000,-1.000000
1297766.998134,-71.000000,-128.000000,35.000000,-52.000000,-12.000000,-3.000000,7.000000,-3.000000
1297767.005801,-2.000000,-12.000000,-30.000000,47.000000,17.000000,6.000000,7.000000,9.000000
1297767.005835,40.000000,7.000000,-26.000000,-66.000000,-11.000000,-1.000000,7.000000,9.000000
1297767.027896,54.000000,-14.000000,-3.000000,49.000000,4.000000,-1.000000,-2.000000,3.000000
1297767.027940,-10.000000,-2.000000,-27.000000,-1.000000,-11.000000,-15.000000,-19.000000,-17.000000
1297767.035503,20.000000,-6.000000,4.000000,-44.000000,-4.000000,-2.000000,-3.000000,6.000000
1297767.035572,-108.000000,-117.000000,-9.000000,19.000000,-3.000000,0.000000,1.000000,-4.000000
1297767.050354,13.000000,29.000000,18.000000,47.000000,-3.000000,-5.000000,7.000000,3.000000
1297767.050400,-1.000000,9.000000,7.000000,-44.000000,-1.000000,7.000000,4.000000,-11.000000
1297767.065938,-30.000000,-99.000000,-13.000000,-52.000000,-6.000000,-11.000000,-9.000000,-2.000000
1297767.065965,82.000000,111.000000,13.000000,10.000000,7.000000,0.000000,-20.000000,-34.000000
1297767.073099,-3.000000,-34.000000,-18.000000,-25.000000,-7.000000,-1.000000,-7.000000,-1.000000
1297767.073159,-22.000000,15.000000,5.000000,18.000000,-6.000000,2.000000,-4.000000,2.000000
1297767.074226,-11.000000,6.000000,13.000000,82.000000,11.000000,9.000000,8.000000,7.000000
1297767.074250,-71.000000,-37.000000,-20.000000,-100.000000,-1.000000,-1.000000,-2.000000,-5.000000
1297767.075122,-28.000000,5.000000,4.000000,80.000000,2.000000,3.000000,14.000000,9.000000
1297767.075166,-10.000000,-111.000000,-10.000000,-47.000000,2.000000,-3.000000,2.000000,-3.000000
1297767.080420,43.000000,-77.000000,-22.000000,-53.000000,-10.000000,-13.000000,-22.000000,-19.000000
1297767.080465,94.000000,66.000000,22.000000,38.000000,-16.000000,-5.000000,-2.000000,9.000000
1297767.089021,-88.000000,17.000000,-16.000000,21.000000,18.000000,4.000000,4.000000,3.000000
1297767.089065,42.000000,127.000000,30.000000,16.000000,5.000000,3.000000,13.000000,12.000000
1297767.110542,-69.000000,3.000000,-8.000000,-25.000000,-15.000000,-5.000000,0.000000,-13.000000
1297767.110582,8.000000,-46.000000,1.000000,77.000000,-5.000000,-13.000000,-49.000000,-30.000000
1297767.125277,23.000000,36.000000,18.000000,-76.000000,8.000000,3.000000,11.000000,17.000000
1297767.125321,46.000000,40.000000,41.000000,19.000000,6.000000,6.000000,22.000000,21.000000
1297767.140692,-34.000000,-25.000000,-16.000000,-9.000000,-8.000000,-5.000000,-14.000000,-15.000000
1297767.140741,10.000000,25.000000,28.000000,47.000000,2.000000,8.000000,12.000000,-4.000000
1297767.148978,18.000000,96.000000,8.000000,37.000000,9.000000,0.000000,-3.000000,-5.000000
1297767.149027,39.000000,7.000000,-4.000000,18.000000,-4.000000,1.000000,-5.000000,-6.000000
1297767.149201,-32.000000,-21.000000,1.000000,-44.000000,-5.000000,2.000000,6.000000,11.000000
1297767.149240,23.000000,20.000000,-22.000000,19.000000,10.000000,13.000000,16.000000,9.000000
1297767.150940,7.000000,-9.000000,26.000000,45.000000,14.000000,8.000000,15.000000,21.000000
1297767.150980,15.000000,32.000000,-42.000000,-51.000000,-8.000000,-9.000000,-38.000000,-41.000000
1297767.155401,-13.000000,22.000000,21.000000,-24.000000,1.000000,-3.000000,11.000000,10.000000
1297767.155447,49.000000,46.000000,10.000000,18.000000,11.000000,11.000000,15.000000,11.000000
1297767.170508,-7.000000,-73.000000,-5.000000,7.000000,-27.000000,-18.000000,-26.000000,-16.000000
1297767.170553,-61.000000,20.000000,11.000000,-9.000000,9.000000,5.000000,12.000000,14.000000
1297767.193748,9.000000,13.000000,-19.000000,-92.000000,-3.000000,9.000000,21.000000,14.000000
1297767.193803,69.000000,-6.000000,20.000000,-15.000000,-1.000000,-2.000000,-14.000000,-20.000000
1297767.195024,-128.000000,22.000000,0.000000,36.000000,-13.000000,-5.000000,-4.000000,9.000000
1297767.195069,-25.000000,0.000000,-8.000000,-41.000000,-9.000000,-1.000000,-3.000000,-39.000000
1297767.200181,1.000000,26.000000,19.000000,6.000000,12.000000,2.000000,2.000000,15.000000
1297767.200226,65.000000,59.000000,21.000000,29.000000,8.000000,8.000000,14.000000,10.000000
1297767.215456,69.000000,-128.000000,-62.000000,-11.000000,-8.000000,-14.000000,-9.000000,-11.000000
1297767.215590,-23.000000,-72.000000,18.000000,-17.000000,6.000000,7.000000,9.000000,6.000000
1297767.216386,50.000000,12.000000,-26.000000,20.000000,-9.000000,-9.000000,-9.000000,2.000000
1297767.216409,12.000000,-15.000000,3.000000,-65.000000,-4.000000,3.000000,-1.000000,1.000000
1297767.238123,58.000000,60.000000,27.000000,127.000000,4.000000,4.000000,-3.000000,1.000000
1297767.238165,-128.000000,7.000000,19.000000,-104.000000,-14.000000,-6.000000,-16.000000,-14.000000
1297767.253057,38.000000,11.000000,1.000000,48.000000,0.000000,-1.000000,21.000000,12.000000
1297767.253121,43.000000,123.000000,1.000000,-6.000000,2.000000,1.000000,-5.000000,5.000000
1297767.270032,36.000000,57.000000,23.000000,36.000000,9.000000,4.000000,-6.000000,-21.000000
1297767.270068,-118.000000,-38.000000,-36.000000,5.000000,-12.000000,-7.000000,0.000000,-3.000000
1297767.270968,9.000000,15.000000,-25.000000,-31.000000,-11.000000,-6.000000,-3.000000,5.000000
1297767.271023,24.000000,-71.000000,-3.000000,72.000000,7.000000,2.000000,10.000000,7.000000
1297767.271472,0.000000,28.000000,2.000000,-12.000000,-2.000000,8.000000,4.000000,19.000000
1297767.271516,-46.000000,27.000000,-18.000000,-55.000000,-11.000000,-9.000000,-11.000000,-15.000000
1297767.275523,-26.000000,-63.000000,-19.000000,1.000000,-10.000000,-9.000000,-13.000000,-19.000000
1297767.275550,-29.000000,-34.000000,-1.000000,-13.000000,1.000000,5.000000,15.000000,13.000000
1297767.298041,69.000000,35.000000,-1.000000,7.000000,-2.000000,0.000000,14.000000,12.000000
1297767.298099,6.000000,11.000000,13.000000,36.000000,-13.000000,-7.000000,-17.000000,-27.000000
1297767.305839,-20.000000,33.000000,-3.000000,6.000000,7.000000,0.000000,-1.000000,3.000000
1297767.306175,8.000000,-7.000000,-12.000000,-23.000000,-4.000000,3.000000,21.000000,18.000000
1297767.307700,-10.000000,22.000000,-4.000000,-66.000000,0.000000,-2.000000,-9.000000,-9.000000
1297767.307727,8.000000,-11.000000,5.000000,63.000000,13.000000,2.000000,-3.000000,2.000000
1297767.322165,8.000000,4.000000,-4.000000,-74.000000,-10.000000,-2.000000,0.000000,-10.000000
1297767.322226,22.000000,54.000000,23.000000,-21.000000,11.000000,4.000000,2.000000,-1.000000
1297767.358227,-49.000000,30.000000,-17.000000,-3.000000,5.000000,2.000000,1.000000,-2.000000
1297767.358282,-30.000000,9.000000,13.000000,39.000000,-2.000000,7.000000,4.000000,4.000000
1297767.365774,22.000000,93.000000,4.000000,14.000000,9.000000,0.000000,7.000000,19.000000
1297767.365836,28.000000,-10.000000,37.000000,-7.000000,-12.000000,-3.000000,-6.000000,-14.000000
1297767.395924,9.000000,40.000000,1.000000,10.000000,5.000000,0.000000,6.000000,7.000000
1297767.396262,-21.000000,-12.000000,11.000000,28.000000,2.000000,1.000000,-5.000000,3.000000
1297767.398053,73.000000,11.000000,15.000000,-6.000000,3.000000,5.000000,19.000000,21.000000
1297767.398083,-11.000000,-53.000000,-51.000000,-75.000000,3.000000,-14.000000,-24.000000,-37.000000
1297767.399615,-43.000000,-12.000000,19.000000,13.000000,-6.000000,-12.000000,-19.000000,-19.000000
1297767.399812,42.000000,53.000000,3.000000,58.000000,7.000000,12.000000,14.000000,15.000000
1297767.400625,-7.000000,-22.000000,1.000000,-15.000000,2.000000,9.000000,19.000000,31.000000
1297767.400652,-48.000000,43.000000,5.000000,-4.000000,-18.000000,-18.000000,-36.000000,-67.000000
1297767.425886,-6.000000,-67.000000,-28.000000,48.000000,18.000000,6.000000,15.000000,5.000000
1297767.426205,-31.000000,32.000000,22.000000,-10.000000,-8.000000,-11.000000,-15.000000,-7.000000
1297767.426994,48.000000,24.000000,6.000000,27.000000,0.000000,5.000000,14.000000,21.000000
1297767.427019,-126.000000,-33.000000,5.000000,-2.000000,-6.000000,-4.000000,-24.000000,-33.000000
1297767.428045,8.000000,-18.000000,4.000000,-53.000000,-18.000000,-9.000000,-17.000000,-11.000000
1297767.428092,17.000000,-40.000000,-28.000000,-25.000000,0.000000,-6.000000,9.000000,13.000000
1297767.440965,-32.000000,-8.000000,8.000000,56.000000,-4.000000,-1.000000,-9.000000,-28.000000
1297767.441014,33.000000,42.000000,19.000000,4.000000,-4.000000,0.000000,-1.000000,10.000000
1297767.470800,21.000000,-17.000000,-7.000000,-11.000000,6.000000,9.000000,18.000000,15.000000
1297767.470858,46.000000,40.000000,7.000000,76.000000,1.000000,-5.000000,-8.000000,-3.000000
1297767.478520,-18.000000,-71.000000,-23.000000,-81.000000,-4.000000,2.000000,-3.000000,-4.000000
1297767.478588,53.000000,11.000000,18.000000,21.000000,-5.000000,1.000000,8.000000,14.000000
1297767.507991,-128.000000,-12.000000,-38.000000,39.000000,14.000000,6.000000,6.000000,-11.000000
1297767.508037,-4.000000,-16.000000,-8.000000,23.000000,-1.000000,-5.000000,-16.000000,-15.000000
1297767.515550,-55.000000,-45.000000,-42.000000,-78.000000,-11.000000,-6.000000,-4.000000,-4.000000
1297767.515577,32.000000,24.000000,18.000000,50.000000,8.000000,12.000000,21.000000,16.000000
1297767.545573,6.000000,-29.000000,10.000000,-44.000000,-3.000000,0.000000,-13.000000,-18.000000
1297767.545717,-20.000000,85.000000,35.000000,72.000000,10.000000,-1.000000,-1.000000,10.000000
1297767.553013,-12.000000,19.000000,1.000000,-21.000000,-3.000000,8.000000,12.000000,-1.000000
1297767.553068,-37.000000,-18.000000,-3.000000,-16.000000,-15.000000,-22.000000,-29.000000,-24.000000
1297767.568104,-4.000000,-51.000000,-5.000000,-13.000000,-8.000000,4.000000,15.000000,19.000000
1297767.568159,32.000000,32.000000,-9.000000,1.000000,1.000000,3.000000,4.000000,-4.000000
1297767.585238,-70.000000,-52.000000,-27.000000,-1.000000,1.000000,-3.000000,-3.000000,-10.000000
1297767.585358,37.000000,4.000000,-10.000000,-85.000000,0.000000,2.000000,7.000000,8.000000
1297767.586485,-41.000000,29.000000,4.000000,-1.000000,6.000000,1.000000,4.000000,5.000000
1297767.586513,15.000000,4.000000,17.000000,38.000000,0.000000,-5.000000,-6.000000,10.000000
1297767.588149,46.000000,33.000000,-17.000000,-80.000000,11.000000,0.000000,5.000000,-3.000000
1297767.588175,10.000000,3.000000,14.000000,31.000000,5.000000,-1.000000,2.000000,-6.000000
1297767.590285,29.000000,69.000000,6.000000,6.000000,-5.000000,3.000000,14.000000,14.000000
1297767.590311,-17.000000,4.000000,6.000000,48.000000,5.000000,-1.000000,-19.000000,-6.000000
1297767.598343,5.000000,-94.000000,-47.000000,-57.000000,-8.000000,-7.000000,-21.000000,-27.000000
1297767.598490,90.000000,51.000000,21.000000,18.000000,-6.000000,-5.000000,10.000000,14.000000
1297767.628257,-52.000000,-2.000000,19.000000,38.000000,-3.000000,-4.000000,0.000000,-3.000000
1297767.628315,-42.000000,-69.000000,-30.000000,-83.000000,-20.000000,-8.000000,-11.000000,-15.000000
1297767.629996,1.000000,41.000000,12.000000,75.000000,3.000000,1.000000,0.000000,-2.000000
1297767.630021,-10.000000,-39.000000,-13.000000,-87.000000,-4.000000,-4.000000,-4.000000,5.000000
1297767.630656,78.000000,22.000000,-13.000000,-67.000000,2.000000,10.000000,13.000000,14.000000
1297767.630717,-36.000000,-62.000000,-27.000000,-37.000000,-6.000000,-9.000000,-4.000000,-18.000000
1297767.635583,-11.000000,-56.000000,20.000000,71.000000,-1.000000,-8.000000,-27.000000,-18.000000
1297767.635635,20.000000,50.000000,-2.000000,27.000000,0.000000,3.000000,5.000000,8.000000
1297767.657773,7.000000,24.000000,0.000000,14.000000,4.000000,4.000000,19.000000,11.000000
1297767.657824,20.000000,-7.000000,-3.000000,-21.000000,-11.000000,-7.000000,-15.000000,3.000000
1297767.665667,-35.000000,-27.000000,-7.000000,42.000000,-4.000000,-1.000000,2.000000,-21.000000
1297767.665718,55.000000,51.000000,5.000000,-64.000000,-1.000000,-7.000000,-14.000000,-10.000000
1297767.667150,-27.000000,15.000000,-3.000000,69.000000,-4.000000,5.000000,12.000000,6.000000
1297767.667266,-14.000000,-10.000000,-11.000000,-32.000000,1.000000,-1.000000,-3.000000,-10.000000
1297767.703246,57.000000,-43.000000,13.000000,30.000000,-5.000000,2.000000,8.000000,3.000000
1297767.703287,5.000000,-20.000000,-57.000000,-29.000000,8.000000,9.000000,6.000000,-2.000000
1297767.717954,12.000000,-30.000000,-28.000000,29.000000,-2.000000,-8.000000,-23.000000,-20.000000
1297767.718006,-21.000000,-13.000000,10.000000,-8.000000,-17.000000,-21.000000,-26.000000,-20.000000
1297767.748220,33.000000,46.000000,-10.000000,27.000000,10.000000,5.000000,8.000000,10.000000
1297767.748269,58.000000,93.000000,28.000000,11.000000,-12.000000,-1.000000,6.000000,9.000000
1297767.749916,4.000000,-63.000000,-27.000000,-57.000000,10.000000,10.000000,23.000000,20.000000
1297767.749958,-60.000000,1.000000,4.000000,-10.000000,1.000000,-1.000000,0.000000,-2.000000
1297767.750400,57.000000,-2.000000,-29.000000,38.000000,-14.000000,-23.000000,-37.000000,-21.000000
1297767.750935,-17.000000,9.000000,30.000000,3.000000,9.000000,8.000000,7.000000,8.000000
1297767.751949,80.000000,8.000000,-21.000000,-90.000000,-12.000000,8.000000,25.000000,28.000000
1297767.751998,-16.000000,14.000000,-10.000000,-5.000000,-17.000000,-18.000000,-43.000000,-45.000000
1297767.752966,-2.000000,-1.000000,30.000000,126.000000,0.000000,-2.000000,4.000000,5.000000
1297767.753017,68.000000,38.000000,-4.000000,-64.000000,7.000000,4.000000,2.000000,9.000000
1297767.755519,51.000000,61.000000,25.000000,67.000000,-2.000000,-4.000000,-8.000000,-8.000000
1297767.755564,-3.000000,-13.000000,-15.000000,-50.000000,-4.000000,-7.000000,-7.000000,-6.000000
1297767.771645,14.000000,92.000000,1.000000,39.000000,4.000000,7.000000,14.000000,10.000000
1297767.771755,45.000000,67.000000,17.000000,-68.000000,5.000000,4.000000,13.000000,19.000000
1297767.786118,31.000000,-31.000000,3.000000,15.000000,-16.000000,-3.000000,-6.000000,-8.000000
1297767.786280,-31.000000,-6.000000,20.000000,19.000000,7.000000,0.000000,-14.000000,-7.000000
1297767.787440,-66.000000,-9.000000,-14.000000,-9.000000,-7.000000,-12.000000,-16.000000,-29.000000
1297767.787495,22.000000,15.000000,5.000000,12.000000,-8.000000,2.000000,5.000000,11.000000
1297767.808721,-41.000000,-8.000000,-13.000000,-22.000000,-7.000000,-3.000000,-15.000000,-16.000000
1297767.808779,-21.000000,-1.000000,19.000000,39.000000,11.000000,-6.000000,5.000000,7.000000
1297767.830736,-115.000000,-38.000000,-47.000000,30.000000,2.000000,5.000000,20.000000,13.000000
1297767.830790,26.000000,60.000000,-10.000000,-66.000000,-16.000000,-6.000000,-3.000000,-14.000000
1297767.837876,-49.000000,-36.000000,2.000000,60.000000,2.000000,-7.000000,-17.000000,-15.000000
1297767.837922,70.000000,42.000000,10.000000,71.000000,11.000000,14.000000,18.000000,25.000000
1297767.860580,-57.000000,-31.000000,-21.000000,-90.000000,10.000000,8.000000,6.000000,3.000000
1297767.860618,22.000000,84.000000,7.000000,-6.000000,-17.000000,-9.000000,-11.000000,-6.000000
1297767.868069,-11.000000,28.000000,2.000000,49.000000,12.000000,14.000000,16.000000,15.000000
1297767.868113,-27.000000,-73.000000,6.000000,39.000000,-22.000000,-9.000000,-4.000000,-12.000000
1297767.870080,-10.000000,82.000000,20.000000,-1.000000,9.000000,1.000000,-15.000000,-5.000000
1297767.870363,48.000000,-20.000000,-3.000000,13.000000,17.000000,15.000000,20.000000,22.000000
1297767.871216,-9.000000,-14.000000,-1.000000,-123.000000,-24.000000,-8.000000,4.000000,0.000000
1297767.871261,-15.000000,-11.000000,4.000000,-22.000000,4.000000,7.000000,2.000000,0.000000
1297767.871728,-17.000000,38.000000,14.000000,41.000000,-7.000000,-16.000000,-24.000000,-22.000000
1297767.871771,8.000000,11.000000,12.000000,21.000000,-5.000000,3.000000,12.000000,10.000000
1297767.875379,-111.000000,-128.000000,-42.000000,-30.000000,-8.000000,5.000000,7.000000,1.000000
1297767.875424,12.000000,19.000000,-7.000000,-19.000000,-4.000000,-8.000000,-17.000000,-11.000000
1297767.905539,2.000000,21.000000,1.000000,15.000000,11.000000,7.000000,3.000000,2.000000
1297767.905954,28.000000,-14.000000,11.000000,2.000000,-10.000000,-7.000000,-7.000000,4.000000
1297767.907017,-20.000000,20.000000,1.000000,23.000000,6.000000,8.000000,20.000000,-3.000000
1297767.907067,15.000000,46.000000,3.000000,21.000000,-5.000000,-9.000000,-18.000000,-6.000000
1297767.908068,-29.000000,3.000000,9.000000,-27.000000,-2.000000,-6.000000,-10.000000,-4.000000
1297767.908092,26.000000,10.000000,-6.000000,-108.000000,-10.000000,-1.000000,11.000000,8.000000
1297767.935833,0.000000,38.000000,14.000000,69.000000,5.000000,-4.000000,-12.000000,-7.000000
1297767.935888,67.000000,-8.000000,16.000000,15.000000,0.000000,-6.000000,2.000000,4.000000
1297767.951183,-67.000000,-88.000000,-3.000000,-9.000000,-14.000000,-4.000000,1.000000,-5.000000
1297767.951230,-4.000000,7.000000,19.000000,47.000000,18.000000,8.000000,-9.000000,-7.000000
1297767.952044,48.000000,17.000000,-40.000000,-11.000000,-16.000000,-8.000000,-5.000000,-2.000000
1297767.952357,2.000000,0.000000,11.000000,-24.000000,-1.000000,-6.000000,-9.000000,3.000000
1297767.952972,-26.000000,-33.000000,7.000000,-20.000000,1.000000,-2.000000,0.000000,-9.000000
1297767.953015,29.000000,95.000000,11.000000,30.000000,5.000000,-1.000000,-4.000000,-1.000000
1297767.958013,-1.000000,24.000000,10.000000,-21.000000,-7.000000,-10.000000,-21.000000,-3.000000
1297767.958142,33.000000,-17.000000,18.000000,24.000000,1.000000,5.000000,11.000000,6.000000
1297767.973286,-3.000000,16.000000,7.000000,-4.000000,1.000000,6.000000,17.000000,18.000000
1297767.973315,-6.000000,49.000000,-4.000000,-40.000000,-10.000000,-15.000000,-38.000000,-24.000000
1297767.980511,-13.000000,-50.000000,-69.000000,3.000000,-12.000000,0.000000,2.000000,8.000000
1297767.980561,53.000000,35.000000,26.000000,76.000000,9.000000,11.000000,12.000000,13.000000
1297767.989016,-3.000000,10.000000,-36.000000,-47.000000,-1.000000,-9.000000,-19.000000,-11.000000
1297767.989058,-2.000000,-33.000000,7.000000,-2.000000,-10.000000,-5.000000,7.000000,11.000000
1297768.026548,3.000000,-9.000000,-14.000000,8.000000,15.000000,15.000000,15.000000,-5.000000
1297768.026970,13.000000,36.000000,19.000000,-18.000000,-1.000000,-5.000000,-22.000000,-16.000000
1297768.027807,-53.000000,-27.000000,3.000000,10.000000,-13.000000,-11.000000,-12.000000,-8.000000
1297768.027829,-9.000000,10.000000,-13.000000,-1.000000,-8.000000,3.000000,7.000000,6.000000
1297768.028265,-22.000000,12.000000,8.000000,38.000000,-1.000000,-2.000000,12.000000,2.000000
1297768.028390,17.000000,16.000000,8.000000,12.000000,-6.000000,-3.000000,-5.000000,7.000000
1297768.033124,58.000000,93.000000,20.000000,-38.000000,6.000000,7.000000,-4.000000,0.000000
1297768.033177,-39.000000,-39.000000,-27.000000,-17.000000,-4.000000,-3.000000,-4.000000,-1.000000
1297768.055593,20.000000,91.000000,26.000000,81.000000,9.000000,7.000000,12.000000,8.000000
1297768.055641,-1.000000,-18.000000,2.000000,-3.000000,11.000000,-1.000000,-6.000000,-4.000000
1297768.070427,52.000000,81.000000,28.000000,-15.000000,2.000000,3.000000,-2.000000,-10.000000
1297768.070552,-19.000000,-90.000000,-78.000000,35.000000,-8.000000,-3.000000,-2.000000,-6.000000
1297768.086596,18.000000,-9.000000,11.000000,100.000000,17.000000,11.000000,16.000000,9.000000
1297768.086648,-12.000000,30.000000,7.000000,-114.000000,-6.000000,-2.000000,-8.000000,-1.000000
1297768.087633,77.000000,9.000000,5.000000,14.000000,4.000000,1.000000,-5.000000,2.000000
1297768.087687,-27.000000,15.000000,20.000000,34.000000,2.000000,0.000000,10.000000,9.000000
1297768.088156,36.000000,39.000000,3.000000,58.000000,0.000000,-2.000000,1.000000,-1.000000
1297768.088276,-128.000000,82.000000,18.000000,-64.000000,-4.000000,-3.000000,-11.000000,6.000000
1297768.102262,21.000000,-9.000000,-3.000000,8.000000,-8.000000,-5.000000,-8.000000,-16.000000
1297768.102316,10.000000,-5.000000,16.000000,36.000000,15.000000,11.000000,21.000000,18.000000
1297768.103432,-19.000000,8.000000,-4.000000,47.000000,-1.000000,-7.000000,-9.000000,-10.000000
1297768.103494,-2.000000,-33.000000,-34.000000,-64.000000,-6.000000,-4.000000,-3.000000,5.000000
1297768.108619,49.000000,11.000000,7.000000,-60.000000,-2.000000,4.000000,14.000000,15.000000
1297768.108668,-63.000000,-14.000000,0.000000,7.000000,15.000000,8.000000,10.000000,-14.000000
1297768.130643,33.000000,106.000000,25.000000,-1.000000,-4.000000,-7.000000,-10.000000,-10.000000
1297768.130670,-83.000000,-23.000000,-11.000000,41.000000,-8.000000,-1.000000,-4.000000,0.000000
1297768.146038,-7.000000,-25.000000,-35.000000,-110.000000,-18.000000,-11.000000,-13.000000,-4.000000
1297768.146062,41.000000,-6.000000,15.000000,19.000000,14.000000,5.000000,2.000000,8.000000
1297768.153120,4.000000,39.000000,14.000000,95.000000,18.000000,11.000000,17.000000,6.000000
1297768.153170,-74.000000,-39.000000,-34.000000,-60.000000,-16.000000,-9.000000,-25.000000,-21.000000
1297768.182968,30.000000,11.000000,-12.000000,-59.000000,1.000000,-4.000000,1.000000,10.000000
1297768.183016,37.000000,-24.000000,-30.000000,-82.000000,-13.000000,-5.000000,6.000000,16.000000
1297768.190597,-33.000000,-44.000000,-34.000000,76.000000,0.000000,-1.000000,-6.000000,-16.000000
1297768.190645,-4.000000,-12.000000,-7.000000,3.000000,-1.000000,2.000000,6.000000,-3.000000
1297768.220718,-32.000000,-15.000000,-5.000000,-19.000000,9.000000,-3.000000,-7.000000,-7.000000
1297768.220744,-7.000000,15.000000,24.000000,28.000000,0.000000,0.000000,6.000000,4.000000
1297768.228171,60.000000,127.000000,16.000000,57.000000,1.000000,5.000000,8.000000,14.000000
1297768.228197,-13.000000,-58.000000,-75.000000,15.000000,-4.000000,-11.000000,-7.000000,-6.000000
1297768.258599,55.000000,-13.000000,-22.000000,-87.000000,-12.000000,-5.000000,-3.000000,-3.000000
1297768.258658,-21.000000,-19.000000,-26.000000,3.000000,3.000000,-2.000000,-11.000000,-1.000000
1297768.260407,13.000000,6.000000,8.000000,-4.000000,-4.000000,-7.000000,-6.000000,-6.000000
1297768.261028,47.000000,-23.000000,5.000000,39.000000,-14.000000,-5.000000,4.000000,5.000000
1297768.262016,6.000000,14.000000,-32.000000,5.000000,-2.000000,1.000000,12.000000,9.000000
1297768.262118,-55.000000,-20.000000,-3.000000,-27.000000,8.000000,3.000000,-8.000000,-22.000000
1297768.262471,37.000000,103.000000,13.000000,-49.000000,-5.000000,0.000000,-2.000000,14.000000
1297768.262517,10.000000,-43.000000,-4.000000,73.000000,-4.000000,-5.000000,6.000000,-9.000000
1297768.263024,47.000000,19.000000,15.000000,-37.000000,-7.000000,-8.000000,-14.000000,-8.000000
1297768.263050,-52.000000,-30.000000,-33.000000,11.000000,3.000000,4.000000,12.000000,14.000000
1297768.288164,-3.000000,71.000000,20.000000,62.000000,2.000000,6.000000,15.000000,19.000000
1297768.288210,23.000000,40.000000,-1.000000,-47.000000,-3.000000,-1.000000,-2.000000,-10.000000
1297768.304684,-14.000000,-29.000000,-3.000000,36.000000,8.000000,-5.000000,-9.000000,-7.000000
1297768.304712,17.000000,14.000000,6.000000,-81.000000,-17.000000,-1.000000,3.000000,9.000000
1297768.318967,-17.000000,-32.000000,-32.000000,-63.000000,-5.000000,-1.000000,2.000000,-6.000000
1297768.319038,18.000000,81.000000,17.000000,20.000000,0.000000,1.000000,2.000000,4.000000
1297768.340983,8.000000,19.000000,16.000000,-13.000000,-14.000000,-20.000000,-27.000000,-13.000000
1297768.341581,63.000000,26.000000,-11.000000,-12.000000,7.000000,11.000000,18.000000,32.000000
1297768.343319,-32.000000,-17.000000,7.000000,0.000000,-12.000000,-6.000000,-15.000000,-20.000000
1297768.343389,-47.000000,-19.000000,10.000000,73.000000,1.000000,-3.000000,-13.000000,-39.000000
1297768.345546,-40.000000,-75.000000,21.000000,36.000000,-9.000000,-6.000000,-9.000000,-18.000000
1297768.345692,-1.000000,-68.000000,-39.000000,-86.000000,0.000000,3.000000,-2.000000,3.000000
1297768.346178,19.000000,15.000000,-27.000000,-61.000000,-11.000000,-6.000000,2.000000,-6.000000
1297768.346224,-22.000000,-110.000000,11.000000,46.000000,-2.000000,2.000000,7.000000,3.000000
1297768.346666,66.000000,-33.000000,-35.000000,-88.000000,2.000000,-3.000000,-2.000000,5.000000
1297768.346703,31.000000,19.000000,21.000000,10.000000,2.000000,4.000000,16.000000,18.000000
1297768.349152,-19.000000,24.000000,5.000000,32.000000,1.000000,-6.000000,-12.000000,-6.000000
1297768.349181,37.000000,32.000000,3.000000,9.000000,-9.000000,-5.000000,-10.000000,-6.000000
1297768.362816,-1.000000,13.000000,26.000000,-56.000000,6.000000,6.000000,3.000000,1.000000
1297768.362865,-8.000000,-128.000000,-2.000000,26.000000,-2.000000,-2.000000,4.000000,4.000000
1297768.379553,-4.000000,19.000000,-2.000000,-43.000000,-1.000000,-3.000000,16.000000,22.000000
1297768.379579,6.000000,-28.000000,25.000000,-35.000000,-15.000000,-15.000000,-30.000000,-32.000000
1297768.379850,-17.000000,-19.000000,-33.000000,-80.000000,-5.000000,0.000000,-10.000000,-5.000000
1297768.379894,121.000000,41.000000,9.000000,30.000000,-6.000000,0.000000,19.000000,30.000000
1297768.393033,-128.000000,12.000000,27.000000,76.000000,3.000000,8.000000,11.000000,-5.000000
1297768.393083,-52.000000,-128.000000,-47.000000,-60.000000,-20.000000,-15.000000,-31.000000,-35.000000
1297768.416130,-12.000000,13.000000,-3.000000,-3.000000,5.000000,-7.000000,-2.000000,10.000000
1297768.416180,86.000000,30.000000,8.000000,-11.000000,3.000000,4.000000,11.000000,12.000000
1297768.430609,-128.000000,-6.000000,12.000000,66.000000,-8.000000,2.000000,-3.000000,-11.000000
1297768.430671,-21.000000,-128.000000,-37.000000,-28.000000,-18.000000,-4.000000,2.000000,-6.000000
1297768.445951,31.000000,4.000000,-14.000000,-128.000000,0.000000,-14.000000,-34.000000,-19.000000
1297768.446135,-23.000000,-4.000000,-10.000000,33.000000,10.000000,9.000000,13.000000,11.000000
1297768.462300,5.000000,4.000000,3.000000,-19.000000,-8.000000,6.000000,20.000000,16.000000
1297768.462540,-31.000000,-94.000000,0.000000,50.000000,-7.000000,-10.000000,-30.000000,-28.000000
1297768.462906,-21.000000,45.000000,-4.000000,-11.000000,7.000000,1.000000,-1.000000,-1.000000
1297768.462954,2.000000,13.000000,9.000000,7.000000,-6.000000,0.000000,3.000000,2.000000
1297768.463863,19.000000,-21.000000,-21.000000,-35.000000,-1.000000,1.000000,10.000000,9.000000
1297768.463888,-54.000000,24.000000,26.000000,50.000000,-9.000000,-8.000000,0.000000,-3.000000
1297768.464686,1.000000,-45.000000,-11.000000,21.000000,12.000000,-3.000000,-12.000000,-12.000000
1297768.464710,-53.000000,-21.000000,-9.000000,-82.000000,6.000000,4.000000,4.000000,0.000000
1297768.468843,16.000000,-1.000000,-7.000000,-24.000000,-5.000000,-4.000000,4.000000,2.000000
1297768.468866,40.000000,41.000000,33.000000,36.000000,8.000000,2.000000,-1.000000,4.000000
1297768.499204,-57.000000,-30.000000,-39.000000,13.000000,-18.000000,-10.000000,-9.000000,-18.000000
1297768.499252,2.000000,23.000000,11.000000,-5.000000,-1.000000,-11.000000,-23.000000,-5.000000
1297768.500683,89.000000,122.000000,22.000000,-7.000000,11.000000,8.000000,10.000000,18.000000
1297768.500708,83.000000,-2.000000,9.000000,20.000000,-6.000000,5.000000,15.000000,16.000000
1297768.500855,-128.000000,-43.000000,-8.000000,58.000000,-2.000000,-6.000000,-3.000000,-22.000000
1297768.500908,8.000000,-20.000000,-25.000000,-128.000000,-8.000000,-5.000000,-23.000000,-11.000000
1297768.513303,14.000000,14.000000,3.000000,17.000000,0.000000,-1.000000,3.000000,13.000000
1297768.513329,-1.000000,3.000000,5.000000,46.000000,9.000000,12.000000,21.000000,7.000000
1297768.528279,41.000000,6.000000,-12.000000,-35.000000,2.000000,-1.000000,-2.000000,2.000000
1297768.528307,8.000000,-2.000000,2.000000,55.000000,12.000000,1.000000,1.000000,-4.000000
1297768.543165,-7.000000,13.000000,8.000000,32.000000,-11.000000,4.000000,3.000000,2.000000
1297768.543216,6.000000,-6.000000,-2.000000,-56.000000,-2.000000,-2.000000,3.000000,4.000000
1297768.550625,-5.000000,4.000000,10.000000,27.000000,0.000000,-2.000000,-5.000000,-2.000000
1297768.550650,-36.000000,5.000000,16.000000,46.000000,-8.000000,-9.000000,-13.000000,-2.000000
1297768.581959,29.000000,-16.000000,-12.000000,-52.000000,-6.000000,-1.000000,1.000000,-5.000000
1297768.582012,49.000000,0.000000,-8.000000,21.000000,13.000000,2.000000,12.000000,19.000000
1297768.583046,-8.000000,10.000000,28.000000,18.000000,12.000000,2.000000,6.000000,0.000000
1297768.583085,-51.000000,-1.000000,-6.000000,-26.000000,-13.000000,-6.000000,-24.000000,-18.000000
1297768.584543,28.000000,0.000000,54.000000,54.000000,-5.000000,-8.000000,-10.000000,-2.000000
1297768.584711,95.000000,1.000000,-13.000000,-23.000000,9.000000,6.000000,14.000000,28.000000
1297768.584985,-43.000000,1.000000,26.000000,10.000000,-11.000000,-12.000000,-24.000000,-31.000000
1297768.585009,-17.000000,82.000000,16.000000,21.000000,5.000000,-1.000000,10.000000,7.000000
1297768.588757,5.000000,-31.000000,0.000000,-25.000000,4.000000,7.000000,30.000000,28.000000
1297768.588807,-45.000000,-37.000000,-13.000000,46.000000,-8.000000,0.000000,-19.000000,-43.000000
1297768.619373,-57.000000,-6.000000,9.000000,2.000000,-11.000000,-18.000000,-33.000000,-12.000000
1297768.619618,38.000000,-71.000000,-33.000000,-6.000000,7.000000,4.000000,4.000000,10.000000
1297768.620137,20.000000,39.000000,3.000000,18.000000,6.000000,9.000000,23.000000,13.000000
1297768.620161,8.000000,-22.000000,-29.000000,-16.000000,-10.000000,-12.000000,-22.000000,-15.000000
1297768.620817,-16.000000,24.000000,3.000000,-71.000000,0.000000,-6.000000,-4.000000,7.000000
1297768.620869,17.000000,-6.000000,8.000000,23.000000,1.000000,6.000000,6.000000,0.000000
1297768.640857,42.000000,6.000000,-5.000000,-17.000000,-2.000000,6.000000,13.000000,14.000000
1297768.640915,-82.000000,7.000000,9.000000,-7.000000,-6.000000,-5.000000,-13.000000,-17.000000
1297768.655992,-10.000000,-3.000000,8.000000,81.000000,10.000000,1.000000,1.000000,-3.000000
1297768.656043,29.000000,76.000000,-3.000000,-81.000000,1.000000,-1.000000,-12.000000,-1.000000
1297768.671113,25.000000,-11.000000,-15.000000,4.000000,-3.000000,5.000000,22.000000,24.000000
1297768.671155,34.000000,8.000000,33.000000,25.000000,6.000000,9.000000,23.000000,15.000000
1297768.693481,-33.000000,-61.000000,-6.000000,9.000000,-22.000000,-32.000000,-67.000000,-44.000000
1297768.693717,44.000000,7.000000,7.000000,-16.000000,15.000000,9.000000,18.000000,26.000000
1297768.694795,-47.000000,-43.000000,20.000000,52.000000,2.000000,8.000000,14.000000,1.000000
1297768.694840,14.000000,-53.000000,-53.000000,-128.000000,-26.000000,-7.000000,-3.000000,-3.000000
1297768.695941,-3.000000,-75.000000,6.000000,54.000000,0.000000,2.000000,-1.000000,-2.000000
1297768.695998,12.000000,44.000000,25.000000,55.000000,10.000000,10.000000,4.000000,4.000000
1297768.700962,-5.000000,-51.000000,-8.000000,-55.000000,-11.000000,-3.000000,0.000000,-7.000000
1297768.701227,-16.000000,43.000000,29.000000,-7.000000,5.000000,3.000000,15.000000,22.000000
1297768.701750,-30.000000,-52.000000,-38.000000,-3.000000,-25.000000,-8.000000,-14.000000,-18.000000
1297768.701801,2.000000,-22.000000,5.000000,-25.000000,6.000000,-3.000000,-10.000000,-2.000000
1297768.709343,-36.000000,47.000000,29.000000,-21.000000,5.000000,15.000000,16.000000,10.000000
1297768.709396,-67.000000,4.000000,-11.000000,0.000000,-4.000000,-10.000000,-5.000000,-14.000000
1297768.723296,23.000000,39.000000,31.000000,24.000000,13.000000,-5.000000,-13.000000,-5.000000
1297768.723442,-10.000000,96.000000,8.000000,-22.000000,3.000000,9.000000,11.000000,15.000000
1297768.739438,6.000000,-29.000000,-42.000000,18.000000,-1.000000,8.000000,11.000000,3.000000
1297768.739492,-4.000000,45.000000,30.000000,19.000000,6.000000,6.000000,17.000000,16.000000
1297768.739828,35.000000,-15.000000,-32.000000,-7.000000,-5.000000,-9.000000,-27.000000,-13.000000
1297768.739872,-61.000000,-6.000000,24.000000,12.000000,-6.000000,-9.000000,-2.000000,-7.000000
1297768.753045,3.000000,-70.000000,3.000000,28.000000,-4.000000,1.000000,-4.000000,-4.000000
1297768.753093,-23.000000,45.000000,28.000000,32.000000,-12.000000,-4.000000,-22.000000,-21.000000
1297768.775625,-68.000000,-29.000000,-8.000000,-73.000000,4.000000,5.000000,13.000000,5.000000
1297768.775651,11.000000,-2.000000,-22.000000,49.000000,11.000000,3.000000,7.000000,6.000000
1297768.790576,-51.000000,-26.000000,17.000000,-16.000000,-13.000000,-5.000000,3.000000,3.000000
1297768.790626,18.000000,21.000000,10.000000,16.000000,10.000000,3.000000,13.000000,-4.000000
1297768.813046,-13.000000,-57.000000,-36.000000,6.000000,-8.000000,-14.000000,-25.000000,-6.000000
1297768.813095,25.000000,-15.000000,-4.000000,-15.000000,-2.000000,3.000000,5.000000,4.000000
1297768.843171,-12.000000,-9.000000,1.000000,-12.000000,-2.000000,2.000000,5.000000,-1.000000
1297768.843198,-29.000000,24.000000,13.000000,-30.000000,-1.000000,1.000000,9.000000,4.000000
1297768.858231,1.000000,6.000000,-9.000000,20.000000,4.000000,-8.000000,-12.000000,-5.000000
1297768.858280,13.000000,18.000000,11.000000,21.000000,8.000000,-4.000000,-8.000000,0.000000
1297768.880480,26.000000,66.000000,10.000000,-17.000000,-13.000000,13.000000,33.000000,30.000000
1297768.880505,-34.000000,-4.000000,27.000000,94.000000,9.000000,-4.000000,-25.000000,-24.000000
1297768.896185,91.000000,127.000000,-34.000000,-9.000000,4.000000,-7.000000,-27.000000,-10.000000
1297768.896237,-36.000000,0.000000,5.000000,-15.000000,1.000000,7.000000,16.000000,8.000000
1297768.898042,11.000000,14.000000,7.000000,70.000000,0.000000,0.000000,-8.000000,5.000000
1297768.898921,26.000000,20.000000,0.000000,-40.000000,1.000000,4.000000,9.000000,2.000000
1297768.900201,-39.000000,-18.000000,-46.000000,64.000000,6.000000,3.000000,-4.000000,-4.000000
1297768.900355,-2.000000,14.000000,-15.000000,-91.000000,-22.000000,-4.000000,5.000000,2.000000
1297768.900560,12.000000,15.000000,9.000000,76.000000,16.000000,8.000000,10.000000,11.000000
1297768.900603,-13.000000,37.000000,41.000000,-3.000000,-8.000000,-3.000000,-3.000000,-2.000000
1297768.900870,9.000000,3.000000,0.000000,-47.000000,5.000000,5.000000,16.000000,13.000000
1297768.900909,20.000000,62.000000,-1.000000,11.000000,-7.000000,2.000000,0.000000,2.000000
1297768.902975,27.000000,-13.000000,-28.000000,-5.000000,-2.000000,-2.000000,-7.000000,-4.000000
1297768.903027,-128.000000,33.000000,28.000000,25.000000,0.000000,10.000000,24.000000,10.000000
1297768.918364,25.000000,43.000000,18.000000,-26.000000,-11.000000,-14.000000,-32.000000,-27.000000
1297768.918413,30.000000,17.000000,15.000000,2.000000,1.000000,-7.000000,-10.000000,-4.000000
1297768.933396,31.000000,23.000000,2.000000,38.000000,11.000000,11.000000,21.000000,17.000000
1297768.933441,3.000000,-4.000000,-5.000000,-23.000000,12.000000,7.000000,11.000000,17.000000
1297768.934719,-14.000000,31.000000,31.000000,44.000000,-22.000000,-15.000000,-17.000000,-20.000000
1297768.934762,24.000000,-65.000000,15.000000,-72.000000,9.000000,10.000000,9.000000,8.000000
1297768.940493,-9.000000,-12.000000,-46.000000,-30.000000,18.000000,1.000000,6.000000,0.000000
1297768.940518,-62.000000,-16.000000,20.000000,56.000000,-7.000000,0.000000,-3.000000,-3.000000
1297768.955708,-3.000000,-42.000000,18.000000,-10.000000,-14.000000,-2.000000,0.000000,-6.000000
1297768.955735,8.000000,-1.000000,-13.000000,-24.000000,8.000000,-7.000000,-16.000000,-10.000000
1297768.970729,-3.000000,39.000000,29.000000,-8.000000,1.000000,5.000000,1.000000,5.000000
1297768.970772,3.000000,-41.000000,-64.000000,-19.000000,-13.000000,-4.000000,4.000000,7.000000
1297768.985962,2.000000,9.000000,23.000000,35.000000,-1.000000,-5.000000,-10.000000,-11.000000
1297768.986012,-7.000000,-78.000000,25.000000,30.000000,1.000000,-2.000000,-6.000000,4.000000
1297768.993254,-73.000000,-17.000000,-40.000000,-1.000000,2.000000,11.000000,16.000000,-5.000000
1297768.993312,68.000000,45.000000,11.000000,-10.000000,13.000000,8.000000,5.000000,9.000000
1297769.023886,-95.000000,20.000000,7.000000,-40.000000,-13.000000,-8.000000,-5.000000,-12.000000
1297769.023928,-21.000000,-15.000000,23.000000,8.000000,-1.000000,-3.000000,-4.000000,-4.000000
1297769.045577,26.000000,20.000000,4.000000,-19.000000,7.000000,-2.000000,-18.000000,-23.000000
1297769.045602,12.000000,23.000000,3.000000,16.000000,-6.000000,-1.000000,3.000000,10.000000
1297769.053933,-27.000000,-17.000000,-17.000000,-1.000000,-7.000000,-3.000000,4.000000,-3.000000
1297769.053989,16.000000,26.000000,-18.000000,-7.000000,-9.000000,-7.000000,-11.000000,-9.000000
1297769.055551,-16.000000,2.000000,2.000000,-66.000000,0.000000,1.000000,5.000000,5.000000
1297769.055606,22.000000,-125.000000,-21.000000,71.000000,16.000000,2.000000,-8.000000,-5.000000
1297769.057963,2.000000,8.000000,-19.000000,-128.000000,-28.000000,-13.000000,-15.000000,-21.000000
1297769.058019,-12.000000,21.000000,41.000000,37.000000,22.000000,4.000000,11.000000,8.000000
1297769.058386,37.000000,21.000000,-24.000000,51.000000,-12.000000,-2.000000,4.000000,-2.000000
1297769.058469,-80.000000,-61.000000,-15.000000,-10.000000,-17.000000,-9.000000,-9.000000,-14.000000
1297769.059258,11.000000,12.000000,14.000000,41.000000,24.000000,9.000000,17.000000,21.000000
1297769.059316,24.000000,-59.000000,-8.000000,19.000000,-11.000000,-4.000000,-10.000000,-18.000000
1297769.060768,21.000000,50.000000,6.000000,-30.000000,6.000000,-4.000000,-5.000000,15.000000
1297769.060809,-33.000000,-128.000000,27.000000,7.000000,-8.000000,1.000000,3.000000,-17.000000
1297769.098736,-8.000000,-23.000000,-36.000000,18.000000,-12.000000,-4.000000,1.000000,5.000000
1297769.098794,0.000000,43.000000,-10.000000,33.000000,3.000000,-2.000000,-5.000000,6.000000
1297769.105450,33.000000,17.000000,-21.000000,-83.000000,-6.000000,1.000000,10.000000,6.000000
1297769.105475,-5.000000,-31.000000,-11.000000,39.000000,3.000000,-3.000000,-10.000000,-3.000000
1297769.143143,39.000000,-8.000000,14.000000,19.000000,-3.000000,1.000000,8.000000,8.000000
1297769.143169,-5.000000,17.000000,-2.000000,-76.000000,-9.000000,-6.000000,-7.000000,-2.000000
1297769.157922,-32.000000,21.000000,22.000000,104.000000,15.000000,-3.000000,-6.000000,-4.000000
1297769.157948,49.000000,-44.000000,-45.000000,-128.000000,-17.000000,-6.000000,-1.000000,4.000000
1297769.174698,38.000000,-6.000000,-2.000000,32.000000,17.000000,-5.000000,-8.000000,-4.000000
1297769.175184,25.000000,-19.000000,-32.000000,30.000000,1.000000,3.000000,7.000000,1.000000
1297769.176280,-64.000000,24.000000,25.000000,-7.000000,-10.000000,5.000000,17.000000,18.000000
1297769.176309,-35.000000,-9.000000,-13.000000,19.000000,-16.000000,-7.000000,-10.000000,-39.000000
1297769.177027,-17.000000,119.000000,-2.000000,-34.000000,-2.000000,-15.000000,-45.000000,-30.000000
1297769.177052,45.000000,8.000000,21.000000,-20.000000,3.000000,5.000000,2.000000,10.000000
1297769.177174,-85.000000,-37.000000,-36.000000,2.000000,4.000000,3.000000,7.000000,4.000000
1297769.177218,41.000000,40.000000,26.000000,55.000000,4.000000,3.000000,4.000000,5.000000
1297769.180796,52.000000,-30.000000,-12.000000,-8.000000,-7.000000,-5.000000,-1.000000,-12.000000
1297769.180853,-3.000000,0.000000,-9.000000,-21.000000,0.000000,5.000000,13.000000,13.000000
1297769.218794,1.000000,-26.000000,-2.000000,-27.000000,-4.000000,-4.000000,-15.000000,-14.000000
1297769.218831,-30.000000,26.000000,4.000000,5.000000,12.000000,3.000000,4.000000,-1.000000
1297769.233893,-2.000000,84.000000,1.000000,31.000000,6.000000,-9.000000,-3.000000,3.000000
1297769.233964,-35.000000,-67.000000,-8.000000,32.000000,-8.000000,-7.000000,-7.000000,-11.000000
1297769.255742,-42.000000,-25.000000,1.000000,-13.000000,-2.000000,7.000000,9.000000,3.000000
1297769.255784,25.000000,26.000000,-3.000000,54.000000,-3.000000,-12.000000,-4.000000,-4.000000
1297769.263285,-13.000000,13.000000,-15.000000,-83.000000,4.000000,7.000000,2.000000,1.000000
1297769.263313,16.000000,-6.000000,17.000000,14.000000,6.000000,-2.000000,-4.000000,-1.000000
1297769.271756,-3.000000,5.000000,-6.000000,22.000000,2.000000,2.000000,7.000000,6.000000
1297769.271782,8.000000,-111.000000,-4.000000,-20.000000,-14.000000,-13.000000,-20.000000,-15.000000
1297769.285968,26.000000,14.000000,6.000000,-42.000000,10.000000,7.000000,3.000000,8.000000
1297769.286024,40.000000,-17.000000,13.000000,82.000000,4.000000,2.000000,18.000000,18.000000
1297769.293432,25.000000,-18.000000,-13.000000,-25.000000,-8.000000,-5.000000,-4.000000,-2.000000
1297769.293781,29.000000,17.000000,4.000000,-41.000000,5.000000,0.000000,-3.000000,-1.000000
1297769.295060,-12.000000,-6.000000,-14.000000,4.000000,-16.000000,-10.000000,-9.000000,-6.000000
1297769.295473,0.000000,-65.000000,-22.000000,23.000000,9.000000,6.000000,15.000000,10.000000
1297769.296136,75.000000,110.000000,24.000000,-16.000000,-7.000000,-8.000000,-1.000000,-1.000000
1297769.296692,-21.000000,-42.000000,-38.000000,-56.000000,-11.000000,-7.000000,-20.000000,-22.000000
1297769.297391,23.000000,127.000000,31.000000,-8.000000,0.000000,-2.000000,9.000000,14.000000
1297769.297533,-58.000000,-1.000000,-13.000000,66.000000,0.000000,0.000000,-8.000000,-3.000000
1297769.298149,38.000000,38.000000,-7.000000,18.000000,8.000000,4.000000,4.000000,2.000000
1297769.298169,-128.000000,-3.000000,-12.000000,-70.000000,-7.000000,2.000000,7.000000,-6.000000
1297769.300964,-11.000000,-12.000000,23.000000,21.000000,-6.000000,-8.000000,-4.000000,-3.000000
1297769.301025,6.000000,-71.000000,-40.000000,-60.000000,-4.000000,-3.000000,-1.000000,-2.000000
1297769.324230,-23.000000,43.000000,18.000000,38.000000,23.000000,17.000000,21.000000,18.000000
1297769.324291,72.000000,41.000000,21.000000,-21.000000,-5.000000,4.000000,9.000000,11.000000
1297769.331385,-65.000000,-77.000000,-37.000000,15.000000,-18.000000,-14.000000,-27.000000,-26.000000
1297769.331416,5.000000,18.000000,-14.000000,-23.000000,4.000000,0.000000,-5.000000,-3.000000
1297769.346085,4.000000,48.000000,23.000000,-21.000000,5.000000,5.000000,18.000000,13.000000
1297769.346141,-7.000000,15.000000,6.000000,20.000000,-7.000000,-3.000000,-11.000000,-10.000000
1297769.368238,49.000000,12.000000,2.000000,10.000000,-14.000000,-7.000000,-6.000000,3.000000
1297769.368268,-25.000000,-56.000000,-16.000000,42.000000,-6.000000,-3.000000,4.000000,-1.000000
1297769.383737,-6.000000,50.000000,-1.000000,-89.000000,8.000000,15.000000,19.000000,20.000000
1297769.383798,23.000000,-66.000000,11.000000,-5.000000,-1.000000,-2.000000,-4.000000,-16.000000
1297769.384092,9.000000,-10.000000,-26.000000,-9.000000,-8.000000,-3.000000,-6.000000,-3.000000
1297769.384152,-35.000000,-27.000000,-18.000000,-26.000000,-11.000000,-10.000000,-13.000000,-13.000000
1297769.385504,26.000000,-30.000000,1.000000,-1.000000,8.000000,6.000000,18.000000,7.000000
1297769.385636,1.000000,-23.000000,-14.000000,4.000000,-6.000000,-5.000000,-20.000000,-20.000000
1297769.386870,31.000000,-17.000000,-1.000000,-17.000000,3.000000,4.000000,11.000000,12.000000
1297769.386911,32.000000,69.000000,16.000000,-10.000000,11.000000,7.000000,8.000000,8.000000
1297769.414062,30.000000,-8.000000,7.000000,24.000000,1.000000,-1.000000,10.000000,10.000000
1297769.414280,33.000000,7.000000,-6.000000,-12.000000,-16.000000,-12.000000,-10.000000,-12.000000
1297769.414956,-69.000000,-111.000000,-46.000000,-106.000000,0.000000,-4.000000,-3.000000,-7.000000
1297769.414978,-43.000000,-28.000000,-24.000000,-26.000000,-6.000000,-10.000000,-19.000000,-10.000000
1297769.415695,42.000000,38.000000,9.000000,64.000000,3.000000,14.000000,20.000000,24.000000
1297769.415741,10.000000,-11.000000,3.000000,-22.000000,-7.000000,-5.000000,-12.000000,-23.000000
1297769.451110,5.000000,-49.000000,-9.000000,-24.000000,7.000000,-3.000000,-11.000000,-4.000000
1297769.451161,44.000000,127.000000,15.000000,-66.000000,10.000000,-8.000000,-9.000000,-12.000000
1297769.458183,36.000000,37.000000,-11.000000,47.000000,5.000000,3.000000,-2.000000,1.000000
1297769.458208,-51.000000,-54.000000,6.000000,11.000000,-5.000000,3.000000,12.000000,3.000000
1297769.488203,33.000000,16.000000,6.000000,54.000000,2.000000,-6.000000,-8.000000,4.000000
1297769.488253,9.000000,-14.000000,-27.000000,-57.000000,-2.000000,-4.000000,-9.000000,-11.000000
1297769.495828,-71.000000,-110.000000,-2.000000,-1.000000,-1.000000,2.000000,7.000000,-5.000000
1297769.495882,9.000000,0.000000,2.000000,14.000000,-3.000000,-1.000000,0.000000,8.000000
1297769.526384,11.000000,8.000000,-9.000000,13.000000,-11.000000,0.000000,6.000000,9.000000
1297769.526432,5.000000,15.000000,19.000000,-37.000000,-5.000000,-11.000000,-27.000000,-11.000000
1297769.527277,8.000000,58.000000,37.000000,5.000000,3.000000,2.000000,3.000000,-1.000000
1297769.527645,28.000000,-24.000000,3.000000,32.000000,7.000000,2.000000,-2.000000,4.000000
1297769.528709,-43.000000,-9.000000,-37.000000,-87.000000,-4.000000,-3.000000,-1.000000,-2.000000
1297769.528730,-21.000000,-5.000000,4.000000,-35.000000,-2.000000,7.000000,31.000000,21.000000
1297769.530193,-103.000000,21.000000,17.000000,31.000000,2.000000,6.000000,18.000000,-15.000000
1297769.530243,-39.000000,-38.000000,-28.000000,-50.000000,-21.000000,-24.000000,-32.000000,-25.000000
1297769.532855,-3.000000,0.000000,15.000000,-33.000000,5.000000,6.000000,0.000000,5.000000
1297769.532901,45.000000,-22.000000,-22.000000,-50.000000,-1.000000,7.000000,21.000000,25.000000
1297769.578148,43.000000,-11.000000,8.000000,60.000000,6.000000,-1.000000,-4.000000,-15.000000
1297769.578207,5.000000,17.000000,-7.000000,-48.000000,-26.000000,-14.000000,-18.000000,-6.000000
1297769.585803,32.000000,100.000000,11.000000,47.000000,5.000000,5.000000,18.000000,18.000000
1297769.585830,-30.000000,9.000000,28.000000,30.000000,-4.000000,-10.000000,-6.000000,-7.000000
1297769.615919,-13.000000,-43.000000,-4.000000,-30.000000,1.000000,-1.000000,-8.000000,-2.000000
1297769.616269,64.000000,1.000000,24.000000,17.000000,-1.000000,4.000000,3.000000,6.000000
1297769.616971,6.000000,-28.000000,-13.000000,-58.000000,1.000000,-1.000000,1.000000,-1.000000
1297769.617233,41.000000,29.000000,28.000000,35.000000,9.000000,10.000000,12.000000,13.000000
1297769.619040,31.000000,-28.000000,5.000000,-23.000000,-17.000000,-13.000000,-21.000000,-26.000000
1297769.619066,11.000000,1.000000,-2.000000,3.000000,5.000000,1.000000,6.000000,6.000000
1297769.619568,76.000000,41.000000,20.000000,44.000000,16.000000,18.000000,29.000000,25.000000
1297769.619593,-86.000000,94.000000,27.000000,-24.000000,-14.000000,-14.000000,-32.000000,-30.000000
1297769.623875,-4.000000,-38.000000,0.000000,34.000000,0.000000,-10.000000,-11.000000,-12.000000
1297769.624015,-63.000000,-50.000000,-38.000000,-43.000000,10.000000,-5.000000,-4.000000,-2.000000
1297769.646286,44.000000,20.000000,7.000000,17.000000,-1.000000,3.000000,8.000000,13.000000
1297769.646315,-15.000000,14.000000,8.000000,-27.000000,5.000000,5.000000,-7.000000,-17.000000
1297769.647508,12.000000,-4.000000,18.000000,69.000000,-9.000000,-4.000000,-5.000000,-5.000000
1297769.647533,-90.000000,3.000000,-11.000000,-87.000000,-5.000000,1.000000,10.000000,-3.000000
1297769.652917,-60.000000,-21.000000,1.000000,-32.000000,-22.000000,-21.000000,-36.000000,-30.000000
1297769.652981,40.000000,-8.000000,-37.000000,40.000000,9.000000,2.000000,11.000000,12.000000
1297769.676659,20.000000,-1.000000,13.000000,42.000000,10.000000,15.000000,23.000000,25.000000
1297769.676772,-38.000000,34.000000,12.000000,120.000000,2.000000,2.000000,1.000000,-12.000000
1297769.677122,6.000000,-5.000000,-6.000000,-99.000000,-7.000000,-10.000000,-23.000000,-20.000000
1297769.677152,-8.000000,2.000000,-10.000000,39.000000,2.000000,3.000000,12.000000,8.000000
1297769.697955,11.000000,29.000000,8.000000,28.000000,-1.000000,0.000000,14.000000,15.000000
1297769.697981,-44.000000,-17.000000,5.000000,66.000000,-8.000000,7.000000,11.000000,-8.000000
1297769.705580,-9.000000,105.000000,6.000000,-66.000000,1.000000,-14.000000,-28.000000,-26.000000
1297769.705638,27.000000,11.000000,16.000000,-10.000000,-5.000000,-6.000000,-13.000000,2.000000
1297769.729359,-46.000000,-20.000000,-18.000000,4.000000,17.000000,10.000000,14.000000,7.000000
1297769.729882,44.000000,25.000000,22.000000,39.000000,-4.000000,-11.000000,-11.000000,-1.000000
1297769.731064,-45.000000,-25.000000,-12.000000,-53.000000,-12.000000,-3.000000,-2.000000,-3.000000
1297769.731107,-4.000000,-20.000000,8.000000,-3.000000,1.000000,-8.000000,-10.000000,-13.000000
1297769.731549,-11.000000,21.000000,2.000000,53.000000,-5.000000,7.000000,10.000000,13.000000
1297769.731573,7.000000,-12.000000,-28.000000,-128.000000,-3.000000,0.000000,7.000000,1.000000
1297769.735371,22.000000,36.000000,31.000000,65.000000,17.000000,0.000000,-6.000000,-2.000000
1297769.735396,59.000000,34.000000,13.000000,-8.000000,-16.000000,-3.000000,2.000000,16.000000
1297769.751957,26.000000,-56.000000,-17.000000,18.000000,11.000000,1.000000,-5.000000,-9.000000
1297769.752004,-32.000000,-41.000000,-1.000000,-31.000000,-13.000000,-5.000000,0.000000,9.000000
1297769.752224,76.000000,56.000000,25.000000,24.000000,-2.000000,-1.000000,8.000000,16.000000
1297769.752259,-78.000000,22.000000,-33.000000,43.000000,-17.000000,-10.000000,-18.000000,-21.000000
1297769.766494,-47.000000,-20.000000,-15.000000,-70.000000,-3.000000,-6.000000,-15.000000,-9.000000
1297769.766537,28.000000,-2.000000,2.000000,8.000000,8.000000,2.000000,7.000000,11.000000
1297769.773145,-71.000000,-27.000000,15.000000,31.000000,6.000000,12.000000,35.000000,26.000000
1297769.773170,-12.000000,-18.000000,1.000000,47.000000,-19.000000,-23.000000,-35.000000,-32.000000
1297769.810628,4.000000,53.000000,20.000000,-73.000000,2.000000,5.000000,-9.000000,4.000000
1297769.810654,1.000000,-18.000000,-26.000000,-68.000000,3.000000,8.000000,16.000000,19.000000
1297769.817818,14.000000,-12.000000,-5.000000,26.000000,10.000000,5.000000,8.000000,-6.000000
1297769.817863,2.000000,43.000000,35.000000,59.000000,5.000000,0.000000,6.000000,6.000000
1297769.857062,36.000000,1.000000,24.000000,-77.000000,-20.000000,-5.000000,4.000000,1.000000
1297769.857541,-59.000000,-18.000000,-40.000000,43.000000,1.000000,-8.000000,-26.000000,-33.000000
1297769.857788,14.000000,-21.000000,-30.000000,-67.000000,0.000000,-3.000000,-9.000000,0.000000
1297769.857836,-3.000000,-6.000000,12.000000,38.000000,5.000000,12.000000,20.000000,14.000000
1297769.858770,9.000000,-24.000000,-8.000000,-68.000000,-18.000000,-12.000000,1.000000,2.000000
1297769.858874,10.000000,33.000000,-14.000000,-56.000000,-3.000000,-8.000000,-32.000000,-19.000000
1297769.859145,-17.000000,-20.000000,1.000000,21.000000,0.000000,0.000000,3.000000,2.000000
1297769.859192,-2.000000,21.000000,2.000000,-11.000000,3.000000,7.000000,7.000000,10.000000
1297769.886165,11.000000,8.000000,3.000000,-18.000000,9.000000,7.000000,14.000000,10.000000
1297769.886613,18.000000,2.000000,3.000000,88.000000,-6.000000,0.000000,0.000000,10.000000
1297769.886872,-23.000000,7.000000,-10.000000,-67.000000,-12.000000,-8.000000,-8.000000,4.000000
1297769.886922,-42.000000,-58.000000,4.000000,-12.000000,5.000000,-1.000000,2.000000,-15.000000
1297769.888049,-3.000000,34.000000,-12.000000,66.000000,3.000000,-5.000000,-1.000000,6.000000
1297769.888097,31.000000,-50.000000,-10.000000,10.000000,2.000000,-4.000000,0.000000,-10.000000
1297769.893142,-1.000000,14.000000,12.000000,-42.000000,0.000000,-6.000000,-13.000000,-5.000000
1297769.893257,7.000000,22.000000,50.000000,16.000000,-5.000000,1.000000,9.000000,10.000000
1297769.915631,-40.000000,-52.000000,-113.000000,-10.000000,-11.000000,-6.000000,11.000000,13.000000
1297769.915690,-22.000000,15.000000,15.000000,26.000000,0.000000,2.000000,-4.000000,-13.000000
1297769.923163,-21.000000,-29.000000,0.000000,-15.000000,-15.000000,-8.000000,-16.000000,-13.000000
1297769.923330,0.000000,9.000000,25.000000,19.000000,17.000000,3.000000,14.000000,11.000000
1297769.938066,-2.000000,-63.000000,-39.000000,-34.000000,-10.000000,2.000000,13.000000,8.000000
1297769.938114,-92.000000,-121.000000,-2.000000,63.000000,16.000000,-3.000000,2.000000,-11.000000
1297769.968166,-20.000000,-21.000000,-19.000000,-34.000000,-23.000000,-11.000000,-21.000000,-16.000000
1297769.968217,9.000000,-79.000000,8.000000,18.000000,3.000000,-6.000000,-1.000000,-1.000000
1297769.990923,17.000000,40.000000,14.000000,0.000000,7.000000,16.000000,40.000000,36.000000
1297769.990977,3.000000,6.000000,-18.000000,8.000000,-3.000000,-1.000000,-13.000000,-12.000000
1297769.998248,42.000000,-6.000000,15.000000,-41.000000,-3.000000,-16.000000,-50.000000,-38.000000
1297769.998301,0.000000,-24.000000,9.000000,50.000000,1.000000,2.000000,9.000000,8.000000
1297770.007831,41.000000,-33.000000,-5.000000,11.000000,-2.000000,-10.000000,-21.000000,-29.000000
1297770.007880,0.000000,-13.000000,-21.000000,-1.000000,10.000000,-8.000000,-23.000000,-23.000000
1297770.008192,-51.000000,-16.000000,-8.000000,26.000000,6.000000,9.000000,22.000000,16.000000
1297770.008231,115.000000,55.000000,16.000000,-28.000000,-7.000000,13.000000,23.000000,31.000000
1297770.008366,-33.000000,7.000000,-2.000000,41.000000,-10.000000,-7.000000,-6.000000,-7.000000
1297770.008382,-4.000000,11.000000,-17.000000,-101.000000,-7.000000,-4.000000,-4.000000,-3.000000
1297770.010480,7.000000,-39.000000,-14.000000,-34.000000,-6.000000,-5.000000,-4.000000,-9.000000
1297770.010528,15.000000,-8.000000,-2.000000,17.000000,4.000000,12.000000,15.000000,17.000000
1297770.012872,-2.000000,127.000000,24.000000,5.000000,-16.000000,-12.000000,-19.000000,-21.000000
1297770.013012,-4.000000,72.000000,-14.000000,38.000000,-1.000000,-3.000000,-8.000000,1.000000
1297770.029876,33.000000,-5.000000,-9.000000,-64.000000,-4.000000,3.000000,18.000000,20.000000
1297770.029911,-64.000000,-59.000000,22.000000,-17.000000,-8.000000,-14.000000,-27.000000,-19.000000
1297770.043256,23.000000,-39.000000,-24.000000,18.000000,-4.000000,-7.000000,-16.000000,-11.000000
1297770.043306,23.000000,25.000000,4.000000,2.000000,-3.000000,-1.000000,7.000000,1.000000
1297770.058249,-37.000000,-16.000000,9.000000,47.000000,-1.000000,10.000000,30.000000,27.000000
1297770.058295,17.000000,-21.000000,-25.000000,1.000000,-8.000000,-9.000000,9.000000,-2.000000
1297770.065818,-24.000000,-72.000000,-23.000000,-107.000000,-17.000000,-31.000000,-64.000000,-60.000000
1297770.065846,60.000000,32.000000,8.000000,29.000000,12.000000,2.000000,1.000000,14.000000
1297770.087976,-80.000000,-36.000000,18.000000,39.000000,-9.000000,8.000000,15.000000,6.000000
1297770.088008,-9.000000,-75.000000,-21.000000,-8.000000,-12.000000,-1.000000,3.000000,-7.000000
1297770.096003,22.000000,116.000000,6.000000,-8.000000,11.000000,3.000000,0.000000,6.000000
1297770.096331,10.000000,-65.000000,8.000000,15.000000,-7.000000,0.000000,6.000000,2.000000
1297770.097281,-10.000000,4.000000,-6.000000,-21.000000,-6.000000,-1.000000,-2.000000,-6.000000
1297770.097320,-2.000000,-20.000000,7.000000,36.000000,-3.000000,2.000000,-7.000000,-13.000000
1297770.098319,15.000000,0.000000,-3.000000,0.000000,8.000000,4.000000,11.000000,15.000000
1297770.098368,6.000000,19.000000,5.000000,-32.000000,-1.000000,-2.000000,-4.000000,-6.000000
1297770.133303,-21.000000,-45.000000,5.000000,-38.000000,-4.000000,-13.000000,-11.000000,-16.000000
1297770.133330,-8.000000,38.000000,0.000000,4.000000,3.000000,-6.000000,-32.000000,-15.000000
1297770.140600,36.000000,35.000000,7.000000,5.000000,-3.000000,9.000000,23.000000,32.000000
1297770.140650,-14.000000,13.000000,12.000000,50.000000,6.000000,3.000000,7.000000,-8.000000
1297770.163089,-39.000000,-74.000000,-13.000000,22.000000,-17.000000,-14.000000,-24.000000,-7.000000
1297770.163123,56.000000,-31.000000,-1.000000,-50.000000,8.000000,0.000000,2.000000,-4.000000
1297770.170597,-64.000000,41.000000,10.000000,-12.000000,3.000000,0.000000,6.000000,2.000000
1297770.170754,14.000000,-6.000000,-14.000000,53.000000,-15.000000,-8.000000,-1.000000,0.000000
1297770.193054,11.000000,13.000000,11.000000,57.000000,8.000000,3.000000,0.000000,0.000000
1297770.193110,-19.000000,32.000000,10.000000,-46.000000,-1.000000,6.000000,10.000000,4.000000
1297770.200539,29.000000,23.000000,12.000000,28.000000,-7.000000,-3.000000,6.000000,3.000000
1297770.200582,46.000000,0.000000,-18.000000,-50.000000,0.000000,-12.000000,-40.000000,-55.000000
1297770.203544,-29.000000,-1.000000,-6.000000,34.000000,4.000000,6.000000,3.000000,-13.000000
1297770.203863,-10.000000,-18.000000,-2.000000,-32.000000,-1.000000,0.000000,-7.000000,-8.000000
1297770.204570,-33.000000,0.000000,14.000000,0.000000,2.000000,-1.000000,-3.000000,-2.000000
1297770.204614,-6.000000,-42.000000,-31.000000,14.000000,-11.000000,-6.000000,7.000000,5.000000
1297770.205276,26.000000,-30.000000,-15.000000,39.000000,20.000000,19.000000,25.000000,27.000000
1297770.205384,-35.000000,9.000000,5.000000,-21.000000,-5.000000,-7.000000,-9.000000,-15.000000
1297770.207948,-76.000000,-40.000000,8.000000,8.000000,-10.000000,-22.000000,-52.000000,-47.000000
1297770.207972,-9.000000,-87.000000,5.000000,39.000000,0.000000,3.000000,13.000000,19.000000
1297770.215435,26.000000,26.000000,-2.000000,10.000000,-3.000000,4.000000,20.000000,26.000000
1297770.215486,-4.000000,-23.000000,-7.000000,-3.000000,-1.000000,-1.000000,-4.000000,-18.000000
1297770.247201,-6.000000,-58.000000,-44.000000,-19.000000,9.000000,0.000000,2.000000,-3.000000
1297770.247255,53.000000,25.000000,6.000000,32.000000,-3.000000,-3.000000,0.000000,4.000000
1297770.248255,-34.000000,-6.000000,2.000000,11.000000,-11.000000,-8.000000,-16.000000,-19.000000
1297770.248613,68.000000,11.000000,-25.000000,-10.000000,-7.000000,4.000000,13.000000,16.000000
1297770.249494,55.000000,29.000000,3.000000,14.000000,5.000000,17.000000,33.000000,33.000000
1297770.249517,-95.000000,-47.000000,-12.000000,-24.000000,-11.000000,-13.000000,-28.000000,-43.000000
1297770.253162,2.000000,90.000000,-3.000000,-16.000000,10.000000,-8.000000,-32.000000,-9.000000
1297770.253187,12.000000,-9.000000,11.000000,48.000000,6.000000,4.000000,18.000000,21.000000
1297770.268972,-27.000000,9.000000,11.000000,39.000000,5.000000,12.000000,34.000000,23.000000
1297770.269020,-25.000000,18.000000,-1.000000,-82.000000,-23.000000,-19.000000,-45.000000,-47.000000
1297770.283028,-2.000000,-24.000000,-52.000000,27.000000,-12.000000,-13.000000,-18.000000,-9.000000
1297770.283053,8.000000,46.000000,16.000000,-6.000000,21.000000,7.000000,15.000000,11.000000
1297770.321425,21.000000,9.000000,-19.000000,-21.000000,-1.000000,3.000000,7.000000,10.000000
1297770.322021,-35.000000,88.000000,38.000000,11.000000,-12.000000,-2.000000,0.000000,-13.000000
1297770.323713,46.000000,-28.000000,-32.000000,-95.000000,-1.000000,1.000000,9.000000,15.000000
1297770.324146,-94.000000,9.000000,30.000000,66.000000,2.000000,-6.000000,-9.000000,-19.000000
1297770.325034,-19.000000,-13.000000,-8.000000,30.000000,7.000000,4.000000,9.000000,7.000000
1297770.325084,45.000000,57.000000,2.000000,-72.000000,-6.000000,6.000000,17.000000,12.000000
1297770.325595,-128.000000,-128.000000,-14.000000,-54.000000,-3.000000,-6.000000,-25.000000,-26.000000
1297770.325637,-20.000000,-5.000000,19.000000,17.000000,5.000000,-1.000000,-3.000000,0.000000
1297770.328218,85.000000,25.000000,9.000000,-18.000000,-1.000000,5.000000,23.000000,31.000000
1297770.328272,-19.000000,69.000000,17.000000,-64.000000,-12.000000,-14.000000,-27.000000,-25.000000
1297770.335779,26.000000,85.000000,5.000000,39.000000,6.000000,-4.000000,-23.000000,-24.000000
1297770.335834,-18.000000,6.000000,4.000000,22.000000,9.000000,8.000000,10.000000,9.000000
1297770.359126,28.000000,26.000000,11.000000,12.000000,5.000000,13.000000,31.000000,32.000000
1297770.359249,-45.000000,-44.000000,-16.000000,23.000000,-3.000000,-7.000000,-24.000000,-11.000000
1297770.359848,-19.000000,-18.000000,-10.000000,-68.000000,-10.000000,-9.000000,-13.000000,-14.000000
1297770.359890,46.000000,24.000000,40.000000,34.000000,6.000000,9.000000,22.000000,26.000000
1297770.366642,-118.000000,-53.000000,-41.000000,55.000000,11.000000,-8.000000,-1.000000,-18.000000
1297770.366688,-31.000000,-28.000000,-36.000000,-128.000000,-26.000000,-24.000000,-33.000000,-18.000000
1297770.373135,27.000000,33.000000,8.000000,-18.000000,-1.000000,0.000000,5.000000,9.000000
1297770.373189,22.000000,5.000000,-9.000000,33.000000,4.000000,7.000000,24.000000,17.000000
1297770.410798,69.000000,34.000000,8.000000,28.000000,2.000000,6.000000,0.000000,3.000000
1297770.410827,-102.000000,-55.000000,11.000000,11.000000,-15.000000,-8.000000,-25.000000,-38.000000
1297770.418180,22.000000,-17.000000,-22.000000,-18.000000,0.000000,-2.000000,-8.000000,-5.000000
1297770.418239,7.000000,-19.000000,3.000000,10.000000,0.000000,-1.000000,8.000000,8.000000
1297770.448326,20.000000,-51.000000,1.000000,33.000000,2.000000,9.000000,18.000000,26.000000
1297770.448471,-53.000000,-2.000000,-14.000000,-24.000000,-3.000000,-6.000000,-17.000000,-35.000000
1297770.455507,-14.000000,47.000000,2.000000,-23.000000,4.000000,2.000000,7.000000,4.000000
1297770.455556,-4.000000,78.000000,-18.000000,11.000000,-10.000000,-5.000000,-8.000000,3.000000
1297770.477924,-13.000000,-4.000000,-10.000000,-20.000000,14.000000,6.000000,18.000000,15.000000
1297770.477953,21.000000,1.000000,25.000000,86.000000,8.000000,3.000000,0.000000,-4.000000
1297770.479376,-25.000000,-31.000000,-53.000000,-80.000000,-20.000000,-21.000000,-22.000000,-9.000000
1297770.479636,39.000000,-9.000000,-3.000000,-27.000000,3.000000,0.000000,-8.000000,2.000000
1297770.480839,24.000000,15.000000,14.000000,25.000000,13.000000,8.000000,15.000000,16.000000
1297770.480906,-24.000000,-28.000000,13.000000,24.000000,4.000000,6.000000,23.000000,13.000000
1297770.482156,5.000000,2.000000,-2.000000,9.000000,0.000000,-1.000000,-1.000000,7.000000
1297770.482206,8.000000,-18.000000,-7.000000,-9.000000,6.000000,-11.000000,-34.000000,-25.000000
1297770.486271,-15.000000,-25.000000,-14.000000,-70.000000,-1.000000,2.000000,5.000000,-3.000000
1297770.486293,38.000000,127.000000,34.000000,33.000000,10.000000,8.000000,17.000000,14.000000
1297770.492877,-7.000000,-22.000000,-13.000000,48.000000,-9.000000,2.000000,18.000000,11.000000
1297770.492923,-30.000000,-75.000000,-4.000000,-15.000000,-23.000000,-13.000000,-31.000000,-33.000000
1297770.530729,33.000000,36.000000,24.000000,-16.000000,5.000000,-2.000000,1.000000,11.000000
1297770.530778,-2.000000,-18.000000,-41.000000,4.000000,2.000000,8.000000,8.000000,-3.000000
1297770.560865,7.000000,76.000000,30.000000,10.000000,-3.000000,2.000000,7.000000,11.000000
1297770.560927,8.000000,46.000000,1.000000,-3.000000,-5.000000,2.000000,5.000000,-1.000000
1297770.583067,60.000000,13.000000,19.000000,9.000000,-8.000000,-10.000000,0.000000,25.000000
1297770.583116,-11.000000,-3.000000,-20.000000,-12.000000,-4.000000,0.000000,7.000000,-11.000000
1297770.584248,39.000000,-27.000000,-23.000000,-10.000000,3.000000,-5.000000,-21.000000,-14.000000
1297770.584299,-9.000000,-39.000000,18.000000,-15.000000,-1.000000,-1.000000,-5.000000,2.000000
1297770.598755,19.000000,72.000000,-11.000000,-38.000000,-3.000000,0.000000,1.000000,7.000000
1297770.599046,42.000000,9.000000,0.000000,58.000000,2.000000,5.000000,8.000000,11.000000
1297770.600029,16.000000,12.000000,0.000000,-6.000000,0.000000,1.000000,9.000000,9.000000
1297770.600171,9.000000,9.000000,2.000000,27.000000,9.000000,-15.000000,-17.000000,-13.000000
1297770.600961,49.000000,-84.000000,-1.000000,50.000000,-8.000000,-1.000000,20.000000,29.000000
1297770.601258,-69.000000,9.000000,20.000000,-23.000000,5.000000,-5.000000,-26.000000,-47.000000
1297770.602180,-18.000000,-9.000000,30.000000,44.000000,-3.000000,1.000000,5.000000,3.000000
1297770.602202,-79.000000,-24.000000,-26.000000,-128.000000,-26.000000,1.000000,3.000000,-5.000000
1297770.606140,40.000000,3.000000,15.000000,44.000000,-2.000000,-1.000000,-2.000000,-2.000000
1297770.606183,-20.000000,-13.000000,-22.000000,38.000000,2.000000,-6.000000,-4.000000,0.000000
1297770.612849,32.000000,36.000000,18.000000,-5.000000,9.000000,6.000000,8.000000,12.000000
1297770.612874,-24.000000,1.000000,4.000000,18.000000,5.000000,5.000000,12.000000,11.000000
1297770.635699,-21.000000,-15.000000,-9.000000,-28.000000,-19.000000,-9.000000,-21.000000,-23.000000
1297770.635749,21.000000,17.000000,-16.000000,22.000000,-6.000000,-7.000000,-12.000000,-10.000000
1297770.643087,-23.000000,-7.000000,8.000000,37.000000,18.000000,11.000000,19.000000,15.000000
1297770.643137,-12.000000,59.000000,13.000000,-60.000000,-7.000000,-11.000000,-21.000000,-10.000000
1297770.681422,47.000000,13.000000,-9.000000,4.000000,-5.000000,-7.000000,-20.000000,-17.000000
1297770.681452,-37.000000,-28.000000,21.000000,-17.000000,10.000000,4.000000,4.000000,1.000000
1297770.681785,-46.000000,-108.000000,-11.000000,32.000000,-1.000000,-1.000000,19.000000,5.000000
1297770.682807,-56.000000,-4.000000,9.000000,-25.000000,-5.000000,5.000000,2.000000,3.000000
1297770.683467,37.000000,22.000000,6.000000,31.000000,13.000000,9.000000,11.000000,6.000000
1297770.683485,-50.000000,-43.000000,-14.000000,-110.000000,-9.000000,-6.000000,-11.000000,-15.000000
1297770.683591,39.000000,25.000000,14.000000,-38.000000,13.000000,0.000000,-3.000000,4.000000
1297770.683620,3.000000,17.000000,3.000000,23.000000,2.000000,1.000000,11.000000,4.000000
1297770.688075,-36.000000,-8.000000,-4.000000,58.000000,-13.000000,-7.000000,-12.000000,-6.000000
1297770.688122,9.000000,21.000000,20.000000,-85.000000,-14.000000,-5.000000,-11.000000,-2.000000
1297770.695873,-4.000000,8.000000,-6.000000,40.000000,22.000000,7.000000,9.000000,3.000000
1297770.695898,12.000000,-9.000000,-6.000000,17.000000,0.000000,4.000000,9.000000,15.000000
1297770.717937,-5.000000,-53.000000,16.000000,23.000000,-2.000000,-1.000000,-19.000000,-46.000000
1297770.717984,-69.000000,-55.000000,-42.000000,-50.000000,-17.000000,-6.000000,3.000000,3.000000
1297770.725664,27.000000,15.000000,-1.000000,9.000000,1.000000,2.000000,10.000000,11.000000
1297770.725693,-90.000000,-87.000000,-20.000000,-2.000000,-6.000000,-8.000000,-11.000000,-17.000000
1297770.733915,-8.000000,6.000000,-7.000000,-39.000000,0.000000,2.000000,5.000000,8.000000
1297770.733957,-4.000000,-78.000000,-23.000000,17.000000,1.000000,-4.000000,-16.000000,-25.000000
1297770.734841,8.000000,97.000000,26.000000,2.000000,3.000000,-1.000000,-4.000000,8.000000
1297770.734869,32.000000,23.000000,6.000000,-15.000000,0.000000,5.000000,11.000000,13.000000
1297770.763221,1.000000,19.000000,14.000000,-29.000000,-4.000000,3.000000,9.000000,9.000000
1297770.763245,-28.000000,-76.000000,-74.000000,-37.000000,0.000000,1.000000,-6.000000,-21.000000
1297770.770646,8.000000,16.000000,-2.000000,-4.000000,-1.000000,-1.000000,-11.000000,-5.000000
1297770.770672,-19.000000,-5.000000,5.000000,25.000000,-5.000000,-2.000000,0.000000,1.000000
1297770.800716,11.000000,-25.000000,7.000000,39.000000,11.000000,5.000000,6.000000,2.000000
1297770.800778,23.000000,2.000000,-18.000000,4.000000,-6.000000,-2.000000,7.000000,5.000000
1297770.808072,21.000000,-24.000000,22.000000,67.000000,13.000000,9.000000,13.000000,19.000000
1297770.808113,-29.000000,61.000000,-8.000000,-10.000000,-23.000000,-20.000000,-44.000000,-48.000000
1297770.839735,4.000000,60.000000,19.000000,-85.000000,13.000000,-6.000000,-14.000000,6.000000
1297770.839782,35.000000,-6.000000,-4.000000,34.000000,-4.000000,1.000000,12.000000,13.000000
1297770.840217,39.000000,40.000000,29.000000,31.000000,5.000000,11.000000,17.000000,14.000000
1297770.840562,-68.000000,-26.000000,-1.000000,11.000000,-8.000000,-4.000000,-2.000000,-3.000000
1297770.841675,-28.000000,-9.000000,14.000000,4.000000,12.000000,4.000000,-5.000000,-16.000000
1297770.841770,12.000000,9.000000,-17.000000,-75.000000,2.000000,4.000000,7.000000,11.000000
1297770.842062,-32.000000,84.000000,-13.000000,30.000000,-5.000000,-1.000000,5.000000,6.000000
1297770.842083,47.000000,25.000000,12.000000,23.000000,9.000000,4.000000,7.000000,6.000000
1297770.846604,33.000000,-3.000000,-9.000000,21.000000,3.000000,2.000000,14.000000,6.000000
1297770.846740,12.000000,19.000000,32.000000,30.000000,-4.000000,-10.000000,-22.000000,-9.000000
1297770.860600,20.000000,42.000000,-24.000000,-14.000000,16.000000,6.000000,8.000000,11.000000
1297770.860639,15.000000,26.000000,5.000000,-31.000000,-4.000000,3.000000,15.000000,19.000000
1297770.882791,4.000000,26.000000,10.000000,12.000000,-6.000000,-5.000000,-8.000000,-19.000000
1297770.882836,-15.000000,-54.000000,-4.000000,13.000000,-13.000000,-5.000000,2.000000,-6.000000
1297770.898248,-25.000000,-36.000000,6.000000,41.000000,-7.000000,-3.000000,-3.000000,-7.000000
1297770.898296,43.000000,36.000000,-8.000000,-35.000000,17.000000,11.000000,17.000000,23.000000
1297770.920669,-85.000000,-36.000000,-6.000000,-33.000000,-9.000000,3.000000,-6.000000,-24.000000
1297770.920720,-58.000000,-67.000000,-8.000000,66.000000,2.000000,-6.000000,-15.000000,-4.000000
1297770.929103,-72.000000,-21.000000,-5.000000,-43.000000,-3.000000,-1.000000,-2.000000,-4.000000
1297770.929435,19.000000,15.000000,-23.000000,-27.000000,-3.000000,-6.000000,-1.000000,5.000000
1297770.931174,19.000000,102.000000,32.000000,24.000000,-4.000000,-1.000000,-2.000000,9.000000
1297770.931574,23.000000,5.000000,7.000000,-23.000000,-1.000000,0.000000,2.000000,-7.000000
1297770.932596,40.000000,19.000000,24.000000,-22.000000,1.000000,-2.000000,-6.000000,-11.000000
1297770.932640,0.000000,40.000000,-8.000000,44.000000,3.000000,6.000000,15.000000,14.000000
1297770.932950,2.000000,-53.000000,-31.000000,-53.000000,-3.000000,-2.000000,-11.000000,-4.000000
1297770.932997,16.000000,19.000000,35.000000,38.000000,-2.000000,1.000000,0.000000,-6.000000
1297770.958203,-12.000000,9.000000,1.000000,52.000000,-5.000000,-6.000000,-8.000000,0.000000
1297770.958633,-81.000000,-4.000000,-18.000000,0.000000,3.000000,5.000000,8.000000,8.000000
1297770.959608,77.000000,-76.000000,-7.000000,12.000000,-3.000000,-2.000000,5.000000,9.000000
1297770.959630,-12.000000,87.000000,12.000000,-3.000000,-6.000000,1.000000,11.000000,7.000000
1297770.960377,-14.000000,-6.000000,18.000000,44.000000,13.000000,4.000000,-19.000000,-17.000000
1297770.960400,24.000000,5.000000,1.000000,2.000000,-1.000000,-5.000000,-12.000000,-3.000000
1297770.966479,-19.000000,-47.000000,0.000000,-31.000000,-1.000000,-5.000000,-11.000000,-11.000000
1297770.966504,23.000000,-14.000000,-8.000000,26.000000,11.000000,6.000000,14.000000,12.000000
1297770.995630,18.000000,6.000000,30.000000,71.000000,3.000000,4.000000,15.000000,6.000000
1297770.995658,90.000000,47.000000,21.000000,-20.000000,-7.000000,-1.000000,-3.000000,13.000000
1297771.010767,-120.000000,-23.000000,-8.000000,-1.000000,-2.000000,-4.000000,-6.000000,-19.000000
1297771.010893,11.000000,40.000000,-19.000000,-102.000000,-2.000000,0.000000,-6.000000,-7.000000
1297771.026105,67.000000,34.000000,20.000000,24.000000,6.000000,11.000000,12.000000,19.000000
1297771.026270,1.000000,-11.000000,-11.000000,67.000000,-8.000000,4.000000,7.000000,5.000000
1297771.040883,69.000000,40.000000,-10.000000,-96.000000,-14.000000,-8.000000,-9.000000,-1.000000
1297771.040928,-22.000000,-38.000000,8.000000,20.000000,18.000000,-3.000000,-12.000000,-5.000000
1297771.042084,31.000000,21.000000,-12.000000,17.000000,3.000000,3.000000,12.000000,14.000000
1297771.042142,-10.000000,118.000000,10.000000,25.000000,-3.000000,8.000000,8.000000,3.000000
1297771.049621,-91.000000,-38.000000,-9.000000,-11.000000,-10.000000,3.000000,-4.000000,-32.000000
1297771.049671,28.000000,18.000000,31.000000,66.000000,5.000000,-8.000000,-9.000000,4.000000
1297771.050323,18.000000,-117.000000,-55.000000,-26.000000,-15.000000,-15.000000,-27.000000,-17.000000
1297771.050374,3.000000,127.000000,7.000000,-14.000000,2.000000,2.000000,17.000000,24.000000
1297771.051937,-58.000000,-60.000000,-41.000000,-128.000000,-18.000000,-16.000000,-28.000000,-17.000000
1297771.051980,5.000000,-13.000000,17.000000,64.000000,14.000000,3.000000,6.000000,4.000000
1297771.078692,12.000000,-22.000000,18.000000,20.000000,2.000000,13.000000,28.000000,24.000000
1297771.079204,1.000000,6.000000,-10.000000,34.000000,-10.000000,-10.000000,-8.000000,-16.000000
1297771.080423,-13.000000,-44.000000,9.000000,5.000000,-1.000000,-2.000000,-9.000000,0.000000
1297771.080483,-14.000000,-9.000000,-29.000000,-50.000000,6.000000,6.000000,1.000000,-1.000000
1297771.081260,-34.000000,12.000000,23.000000,30.000000,-1.000000,3.000000,7.000000,2.000000
1297771.081309,3.000000,14.000000,14.000000,72.000000,6.000000,8.000000,6.000000,9.000000
1297771.086722,-3.000000,-1.000000,-20.000000,-30.000000,-7.000000,-5.000000,0.000000,1.000000
1297771.086747,2.000000,-80.000000,-10.000000,30.000000,0.000000,2.000000,-1.000000,5.000000
1297771.100816,29.000000,66.000000,-13.000000,-48.000000,-20.000000,-4.000000,-7.000000,-26.000000
1297771.100840,-55.000000,-54.000000,-3.000000,5.000000,-4.000000,2.000000,1.000000,5.000000
1297771.123253,30.000000,65.000000,14.000000,30.000000,12.000000,-3.000000,-3.000000,3.000000
1297771.123382,-11.000000,-50.000000,-15.000000,15.000000,-2.000000,-8.000000,-13.000000,-12.000000
1297771.131187,6.000000,27.000000,-4.000000,22.000000,-7.000000,-9.000000,3.000000,2.000000
1297771.131219,-20.000000,-27.000000,6.000000,-69.000000,-15.000000,-9.000000,-13.000000,-4.000000
1297771.153163,9.000000,-49.000000,0.000000,-22.000000,2.000000,1.000000,2.000000,-9.000000
1297771.153225,38.000000,55.000000,21.000000,32.000000,12.000000,0.000000,-5.000000,2.000000
1297771.161074,-28.000000,-83.000000,-19.000000,27.000000,-8.000000,-2.000000,5.000000,-1.000000
1297771.161206,-15.000000,5.000000,-16.000000,24.000000,-3.000000,2.000000,10.000000,0.000000
1297771.163644,17.000000,9.000000,-3.000000,-59.000000,-17.000000,-10.000000,-10.000000,0.000000
1297771.163686,41.000000,-3.000000,-1.000000,32.000000,7.000000,1.000000,-9.000000,2.000000
1297771.163980,8.000000,-19.000000,-26.000000,-45.000000,-7.000000,2.000000,3.000000,-8.000000
1297771.164169,-26.000000,-14.000000,-29.000000,11.000000,2.000000,0.000000,4.000000,0.000000
1297771.168056,5.000000,-4.000000,-29.000000,-36.000000,-1.000000,1.000000,-4.000000,-7.000000
1297771.168082,14.000000,18.000000,20.000000,0.000000,-1.000000,-1.000000,-1.000000,9.000000
1297771.191047,-54.000000,67.000000,-3.000000,-44.000000,-1.000000,2.000000,3.000000,2.000000
1297771.191077,37.000000,40.000000,13.000000,37.000000,-5.000000,4.000000,0.000000,2.000000
1297771.192267,-14.000000,-13.000000,-3.000000,-7.000000,-5.000000,-3.000000,2.000000,18.000000
1297771.192317,26.000000,-35.000000,9.000000,49.000000,3.000000,8.000000,14.000000,-5.000000
1297771.198054,11.000000,-6.000000,-9.000000,-43.000000,-20.000000,-13.000000,-31.000000,-13.000000
1297771.198078,-2.000000,13.000000,17.000000,-12.000000,-5.000000,-9.000000,-16.000000,4.000000
1297771.206404,37.000000,-21.000000,-16.000000,23.000000,15.000000,9.000000,10.000000,10.000000
1297771.206450,-43.000000,9.000000,16.000000,7.000000,2.000000,0.000000,9.000000,1.000000
1297771.235741,-15.000000,-12.000000,-50.000000,-63.000000,-3.000000,5.000000,10.000000,5.000000
1297771.235769,34.000000,2.000000,2.000000,16.000000,-6.000000,-2.000000,5.000000,-1.000000
1297771.273486,-60.000000,53.000000,38.000000,110.000000,18.000000,5.000000,0.000000,7.000000
1297771.273538,18.000000,9.000000,-15.000000,-70.000000,-12.000000,-2.000000,-11.000000,-29.000000
1297771.281371,7.000000,-97.000000,-3.000000,28.000000,13.000000,1.000000,-6.000000,-3.000000
1297771.281421,30.000000,27.000000,8.000000,109.000000,0.000000,0.000000,11.000000,4.000000
1297771.283127,-6.000000,-4.000000,2.000000,-61.000000,-10.000000,-10.000000,-15.000000,-22.000000
1297771.283382,52.000000,34.000000,25.000000,53.000000,9.000000,10.000000,17.000000,32.000000
1297771.283658,-34.000000,-47.000000,-8.000000,-44.000000,-6.000000,-3.000000,-9.000000,-13.000000
1297771.283707,-9.000000,-25.000000,-20.000000,-41.000000,-1.000000,-7.000000,-10.000000,-1.000000
1297771.284370,-2.000000,-21.000000,-48.000000,24.000000,-10.000000,1.000000,4.000000,5.000000
1297771.284411,-29.000000,-58.000000,-16.000000,-92.000000,7.000000,-6.000000,4.000000,-15.000000
1297771.288042,-25.000000,-25.000000,-15.000000,-25.000000,-8.000000,-6.000000,-1.000000,-6.000000
1297771.288092,12.000000,11.000000,-4.000000,-16.000000,8.000000,-3.000000,-12.000000,-11.000000
1297771.295590,17.000000,31.000000,-3.000000,-3.000000,4.000000,2.000000,0.000000,5.000000
1297771.295640,19.000000,12.000000,4.000000,-15.000000,4.000000,0.000000,8.000000,7.000000
1297771.312770,5.000000,-10.000000,-7.000000,13.000000,4.000000,-5.000000,-1.000000,-13.000000
1297771.312902,11.000000,121.000000,-16.000000,-56.000000,3.000000,8.000000,16.000000,8.000000
1297771.318499,-29.000000,-59.000000,-3.000000,22.000000,-3.000000,-10.000000,-27.000000,-21.000000
1297771.318541,50.000000,13.000000,1.000000,-2.000000,-12.000000,-5.000000,-5.000000,4.000000
1297771.327543,44.000000,-6.000000,-20.000000,-71.000000,11.000000,16.000000,25.000000,13.000000
1297771.327689,-19.000000,10.000000,9.000000,-4.000000,-12.000000,-5.000000,-4.000000,-4.000000
1297771.341225,35.000000,6.000000,-6.000000,47.000000,-5.000000,-13.000000,-9.000000,6.000000
1297771.341257,-66.000000,5.000000,0.000000,-65.000000,-12.000000,-9.000000,-32.000000,-35.000000
1297771.363001,-31.000000,23.000000,24.000000,25.000000,3.000000,4.000000,5.000000,3.000000
1297771.363026,5.000000,-76.000000,-26.000000,6.000000,3.000000,0.000000,7.000000,1.000000
1297771.370679,56.000000,72.000000,27.000000,16.000000,3.000000,5.000000,11.000000,16.000000
1297771.370729,-24.000000,-27.000000,-4.000000,75.000000,7.000000,0.000000,5.000000,-3.000000
1297771.393213,31.000000,-8.000000,-33.000000,-118.000000,-5.000000,-9.000000,-13.000000,-4.000000
1297771.393262,12.000000,23.000000,16.000000,49.000000,0.000000,-3.000000,-1.000000,4.000000
1297771.400876,-7.000000,-6.000000,5.000000,-21.000000,-5.000000,-6.000000,-1.000000,-6.000000
1297771.400927,-37.000000,-30.000000,-39.000000,20.000000,1.000000,0.000000,-9.000000,-8.000000
1297771.415783,1.000000,-17.000000,3.000000,-15.000000,7.000000,17.000000,28.000000,41.000000
1297771.415809,10.000000,26.000000,4.000000,-31.000000,-12.000000,-5.000000,-15.000000,-45.000000
1297771.438413,-4.000000,-21.000000,-1.000000,25.000000,-5.000000,-12.000000,-33.000000,-24.000000
1297771.438439,-49.000000,-5.000000,-34.000000,22.000000,0.000000,0.000000,10.000000,18.000000
1297771.468979,17.000000,-16.000000,2.000000,-15.000000,0.000000,0.000000,8.000000,-5.000000
1297771.469018,23.000000,-2.000000,10.000000,0.000000,6.000000,-1.000000,-3.000000,3.000000
1297771.469247,-42.000000,-20.000000,3.000000,22.000000,6.000000,3.000000,5.000000,6.000000
1297771.469279,46.000000,54.000000,28.000000,72.000000,10.000000,3.000000,6.000000,7.000000
1297771.471511,11.000000,1.000000,-13.000000,-105.000000,-1.000000,4.000000,17.000000,12.000000
1297771.471883,-51.000000,-47.000000,-9.000000,35.000000,-3.000000,-14.000000,-35.000000,-33.000000
1297771.472092,17.000000,21.000000,41.000000,73.000000,5.000000,-7.000000,-4.000000,12.000000
1297771.472149,-11.000000,-13.000000,-27.000000,-50.000000,-5.000000,5.000000,4.000000,7.000000
1297771.472612,34.000000,6.000000,13.000000,54.000000,10.000000,3.000000,4.000000,11.000000
1297771.472665,-2.000000,18.000000,-9.000000,1.000000,-1.000000,5.000000,17.000000,6.000000
1297771.475684,10.000000,-33.000000,-3.000000,-46.000000,-7.000000,-11.000000,-26.000000,-27.000000
1297771.475708,28.000000,37.000000,16.000000,39.000000,6.000000,2.000000,21.000000,26.000000
1297771.491082,-81.000000,4.000000,-2.000000,4.000000,-10.000000,4.000000,-5.000000,-14.000000
1297771.491135,-43.000000,-71.000000,-22.000000,-72.000000,0.000000,0.000000,-12.000000,-13.000000
1297771.506285,6.000000,-32.000000,13.000000,37.000000,-4.000000,-6.000000,-11.000000,-26.000000
1297771.506317,13.000000,51.000000,0.000000,35.000000,7.000000,2.000000,-2.000000,5.000000
1297771.514982,99.000000,39.000000,46.000000,36.000000,3.000000,2.000000,7.000000,18.000000
1297771.515012,-92.000000,-13.000000,-19.000000,-13.000000,-4.000000,0.000000,-1.000000,-7.000000
1297771.520870,7.000000,113.000000,15.000000,-89.000000,-4.000000,-4.000000,-6.000000,-9.000000
1297771.521272,-11.000000,-40.000000,-16.000000,41.000000,-2.000000,-8.000000,-16.000000,-15.000000
1297771.527954,10.000000,11.000000,10.000000,40.000000,3.000000,0.000000,-8.000000,3.000000
1297771.527982,10.000000,-97.000000,-4.000000,16.000000,4.000000,3.000000,10.000000,2.000000
1297771.551507,-10.000000,-30.000000,-1.000000,21.000000,-11.000000,-7.000000,-8.000000,-6.000000
1297771.551568,18.000000,17.000000,-13.000000,-41.000000,3.000000,1.000000,7.000000,3.000000
1297771.552799,-13.000000,-1.000000,-12.000000,-32.000000,-2.000000,2.000000,10.000000,18.000000
1297771.552824,17.000000,-13.000000,-8.000000,38.000000,-4.000000,-6.000000,3.000000,-1.000000
1297771.558597,-1.000000,-6.000000,-7.000000,-85.000000,-9.000000,-7.000000,-32.000000,-35.000000
1297771.558642,-7.000000,58.000000,6.000000,2.000000,-1.000000,-2.000000,10.000000,13.000000
1297771.588454,-6.000000,8.000000,38.000000,1.000000,-6.000000,5.000000,4.000000,6.000000
1297771.588572,9.000000,52.000000,-24.000000,26.000000,-1.000000,0.000000,7.000000,6.000000
1297771.595681,22.000000,21.000000,30.000000,23.000000,-3.000000,-9.000000,-20.000000,-11.000000
1297771.595713,-20.000000,-7.000000,-6.000000,-69.000000,-6.000000,4.000000,-3.000000,-6.000000
1297771.633889,-11.000000,-16.000000,2.000000,7.000000,7.000000,7.000000,14.000000,13.000000
1297771.634317,8.000000,-48.000000,1.000000,78.000000,-1.000000,-4.000000,2.000000,-6.000000
1297771.634815,-11.000000,46.000000,-9.000000,-124.000000,-16.000000,-4.000000,0.000000,5.000000
1297771.634850,10.000000,-29.000000,3.000000,24.000000,15.000000,-1.000000,-4.000000,-6.000000
1297771.635638,8.000000,6.000000,-8.000000,6.000000,-4.000000,1.000000,1.000000,1.000000
1297771.635674,22.000000,10.000000,5.000000,73.000000,6.000000,9.000000,27.000000,29.000000
1297771.636316,13.000000,28.000000,8.000000,-41.000000,8.000000,2.000000,-3.000000,-16.000000
1297771.636583,-13.000000,-12.000000,24.000000,1.000000,-14.000000,-15.000000,-31.000000,-11.000000
1297771.640101,-9.000000,-6.000000,-4.000000,4.000000,-6.000000,4.000000,5.000000,9.000000
1297771.640157,13.000000,1.000000,-10.000000,-28.000000,-11.000000,-11.000000,-21.000000,-17.000000
1297771.670938,-1.000000,5.000000,14.000000,-3.000000,1.000000,-3.000000,-1.000000,-1.000000
1297771.671217,43.000000,45.000000,2.000000,-59.000000,-8.000000,-1.000000,-6.000000,-1.000000
1297771.671658,-42.000000,63.000000,25.000000,74.000000,21.000000,5.000000,4.000000,8.000000
