# participant_id: P10
# gesture: hard
# trial_number: 2
# stream_name: Myo_EMG
# stream_type: emg
# timestamp: 20260420_161714
# samples: 5598
# duration_sec: 30.480
# nominal_sample_rate: 200.0
# effective_sample_rate: 183.63
#
timestamp,emg_1,emg_2,emg_3,emg_4,emg_5,emg_6,emg_7,emg_8
1306526.307040,-96.000000,4.000000,32.000000,-122.000000,-83.000000,-32.000000,-55.000000,-90.000000
1306526.307057,-125.000000,6.000000,-40.000000,-128.000000,-128.000000,-16.000000,127.000000,-107.000000
1306526.344515,122.000000,1.000000,79.000000,127.000000,109.000000,39.000000,100.000000,127.000000
1306526.344556,17.000000,-7.000000,-126.000000,-128.000000,-100.000000,-76.000000,-128.000000,-94.000000
1306526.345023,-86.000000,-6.000000,-13.000000,-99.000000,63.000000,14.000000,-128.000000,-128.000000
1306526.345031,22.000000,0.000000,5.000000,-1.000000,-9.000000,10.000000,127.000000,124.000000
1306526.345848,11.000000,1.000000,-44.000000,-84.000000,78.000000,10.000000,-21.000000,127.000000
1306526.345858,-84.000000,-6.000000,127.000000,113.000000,-82.000000,-52.000000,-128.000000,-102.000000
1306526.346593,40.000000,5.000000,-10.000000,98.000000,0.000000,120.000000,127.000000,47.000000
1306526.346601,6.000000,-4.000000,-4.000000,127.000000,-1.000000,-69.000000,127.000000,127.000000
1306526.348131,-22.000000,-1.000000,-82.000000,-128.000000,9.000000,-10.000000,-128.000000,-63.000000
1306526.348140,-23.000000,-8.000000,93.000000,127.000000,119.000000,67.000000,-108.000000,-110.000000
1306526.359612,-68.000000,-3.000000,44.000000,127.000000,95.000000,22.000000,53.000000,26.000000
1306526.359646,104.000000,-2.000000,-99.000000,-128.000000,-58.000000,-38.000000,1.000000,-8.000000
1306526.381709,-128.000000,3.000000,36.000000,-128.000000,-80.000000,-12.000000,-64.000000,-80.000000
1306526.381755,84.000000,2.000000,-56.000000,97.000000,-18.000000,-64.000000,-128.000000,-15.000000
1306526.383055,18.000000,3.000000,73.000000,-128.000000,-92.000000,5.000000,127.000000,-41.000000
1306526.383083,-68.000000,5.000000,84.000000,127.000000,127.000000,49.000000,36.000000,127.000000
1306526.396975,-5.000000,-1.000000,-55.000000,-37.000000,-18.000000,-57.000000,-107.000000,-61.000000
1306526.397004,82.000000,-8.000000,-61.000000,-95.000000,-43.000000,-74.000000,-128.000000,-17.000000
1306526.398056,1.000000,0.000000,-97.000000,-72.000000,-128.000000,-23.000000,-19.000000,-103.000000
1306526.398065,7.000000,1.000000,94.000000,127.000000,127.000000,51.000000,127.000000,127.000000
1306526.404569,56.000000,-7.000000,81.000000,127.000000,127.000000,72.000000,65.000000,107.000000
1306526.404588,22.000000,-3.000000,-4.000000,-42.000000,-14.000000,35.000000,-128.000000,-128.000000
1306526.441909,27.000000,-2.000000,-31.000000,-128.000000,-19.000000,-50.000000,127.000000,127.000000
1306526.441922,127.000000,-1.000000,95.000000,127.000000,72.000000,53.000000,55.000000,115.000000
1306526.456954,-81.000000,-3.000000,-119.000000,-128.000000,-106.000000,-18.000000,18.000000,-128.000000
1306526.456975,54.000000,-4.000000,77.000000,127.000000,127.000000,-17.000000,8.000000,-7.000000
1306526.464703,76.000000,-2.000000,82.000000,-117.000000,-30.000000,22.000000,-20.000000,15.000000
1306526.464720,-128.000000,-5.000000,-128.000000,-128.000000,-74.000000,-65.000000,-112.000000,-107.000000
1306526.465296,60.000000,-2.000000,127.000000,127.000000,127.000000,86.000000,127.000000,127.000000
1306526.465313,83.000000,-1.000000,5.000000,127.000000,127.000000,11.000000,33.000000,9.000000
1306526.466495,-82.000000,3.000000,-43.000000,-72.000000,-100.000000,11.000000,-128.000000,-89.000000
1306526.466504,23.000000,3.000000,24.000000,-128.000000,-30.000000,-48.000000,127.000000,16.000000
1306526.467465,26.000000,0.000000,-128.000000,-40.000000,-128.000000,-24.000000,-40.000000,-13.000000
1306526.467473,-91.000000,1.000000,105.000000,127.000000,127.000000,90.000000,100.000000,-28.000000
1306526.479194,102.000000,-1.000000,127.000000,118.000000,-8.000000,2.000000,54.000000,41.000000
1306526.479203,-128.000000,0.000000,-128.000000,-128.000000,-75.000000,-26.000000,-128.000000,-128.000000
1306526.502186,9.000000,-3.000000,-32.000000,-50.000000,-52.000000,-35.000000,-68.000000,-79.000000
1306526.502222,4.000000,2.000000,40.000000,-128.000000,-59.000000,28.000000,127.000000,127.000000
1306526.524296,53.000000,-2.000000,15.000000,8.000000,39.000000,9.000000,-81.000000,-17.000000
1306526.524307,-66.000000,-2.000000,5.000000,9.000000,11.000000,-37.000000,-128.000000,-128.000000
1306526.539746,-43.000000,0.000000,-29.000000,-128.000000,-16.000000,11.000000,88.000000,-101.000000
1306526.539756,113.000000,5.000000,1.000000,127.000000,66.000000,13.000000,73.000000,83.000000
1306526.554191,-8.000000,-8.000000,81.000000,127.000000,127.000000,-5.000000,-128.000000,-32.000000
1306526.554215,87.000000,9.000000,-75.000000,-59.000000,19.000000,33.000000,127.000000,89.000000
1306526.561921,69.000000,3.000000,59.000000,47.000000,14.000000,-5.000000,-7.000000,51.000000
1306526.561951,-37.000000,2.000000,-73.000000,-128.000000,-24.000000,-42.000000,-39.000000,-32.000000
1306526.585454,25.000000,0.000000,80.000000,110.000000,90.000000,87.000000,55.000000,101.000000
1306526.585463,-25.000000,-9.000000,18.000000,3.000000,6.000000,0.000000,40.000000,-52.000000
1306526.586044,21.000000,-8.000000,4.000000,73.000000,31.000000,-10.000000,-36.000000,-46.000000
1306526.586052,49.000000,2.000000,-3.000000,21.000000,-92.000000,-4.000000,49.000000,-21.000000
1306526.587429,24.000000,-5.000000,-34.000000,-67.000000,-85.000000,-20.000000,-33.000000,-36.000000
1306526.587439,26.000000,1.000000,-47.000000,-128.000000,-128.000000,-80.000000,-33.000000,40.000000
1306526.588997,-128.000000,-10.000000,-57.000000,-25.000000,-21.000000,28.000000,-128.000000,-111.000000
1306526.589025,-1.000000,-7.000000,-2.000000,-128.000000,-127.000000,-5.000000,36.000000,6.000000
1306526.599917,-13.000000,-6.000000,-67.000000,-117.000000,0.000000,-33.000000,-93.000000,-67.000000
1306526.599984,-89.000000,5.000000,-92.000000,-128.000000,-128.000000,-46.000000,-128.000000,-108.000000
1306526.621958,52.000000,12.000000,120.000000,127.000000,9.000000,44.000000,127.000000,68.000000
1306526.622098,25.000000,-4.000000,45.000000,-128.000000,-25.000000,-31.000000,-96.000000,62.000000
1306526.622979,-68.000000,4.000000,-128.000000,-128.000000,-83.000000,13.000000,8.000000,-90.000000
1306526.623005,6.000000,-3.000000,41.000000,-19.000000,-79.000000,-6.000000,72.000000,63.000000
1306526.637089,3.000000,6.000000,10.000000,8.000000,8.000000,-16.000000,-94.000000,-48.000000
1306526.637099,-50.000000,-6.000000,45.000000,1.000000,-6.000000,-2.000000,-128.000000,-125.000000
1306526.667010,34.000000,-5.000000,-93.000000,-9.000000,-128.000000,-3.000000,0.000000,-84.000000
1306526.667021,86.000000,2.000000,-6.000000,55.000000,47.000000,5.000000,127.000000,91.000000
1306526.674405,-52.000000,-5.000000,-33.000000,33.000000,12.000000,-24.000000,-128.000000,1.000000
1306526.674415,-128.000000,1.000000,-15.000000,-128.000000,-51.000000,-9.000000,-64.000000,-128.000000
1306526.711868,127.000000,-4.000000,38.000000,127.000000,73.000000,0.000000,127.000000,120.000000
1306526.711905,-2.000000,-1.000000,44.000000,127.000000,127.000000,38.000000,-61.000000,16.000000
1306526.722123,86.000000,3.000000,0.000000,127.000000,81.000000,85.000000,66.000000,124.000000
1306526.722141,14.000000,6.000000,81.000000,-121.000000,-95.000000,-39.000000,72.000000,59.000000
1306526.722360,-87.000000,1.000000,-72.000000,-128.000000,-44.000000,-32.000000,-128.000000,-128.000000
1306526.722366,-11.000000,-1.000000,21.000000,-128.000000,-48.000000,-5.000000,127.000000,-55.000000
1306526.723263,21.000000,-12.000000,-117.000000,-128.000000,24.000000,-27.000000,-121.000000,-30.000000
1306526.723273,-128.000000,-3.000000,-128.000000,-128.000000,-128.000000,-43.000000,-35.000000,-128.000000
1306526.723862,9.000000,-4.000000,-109.000000,24.000000,44.000000,33.000000,-115.000000,25.000000
1306526.723869,87.000000,3.000000,55.000000,38.000000,-26.000000,-19.000000,-24.000000,17.000000
1306526.723906,54.000000,-3.000000,89.000000,127.000000,114.000000,3.000000,127.000000,88.000000
1306526.723910,39.000000,5.000000,31.000000,-128.000000,-85.000000,16.000000,-85.000000,-35.000000
1306526.734549,-17.000000,2.000000,63.000000,127.000000,88.000000,27.000000,-67.000000,-62.000000
1306526.734560,-109.000000,1.000000,-47.000000,126.000000,37.000000,-9.000000,-12.000000,-7.000000
1306526.741977,-128.000000,6.000000,60.000000,12.000000,7.000000,-37.000000,-66.000000,-128.000000
1306526.741988,127.000000,-2.000000,-122.000000,-128.000000,-46.000000,23.000000,99.000000,-62.000000
1306526.756949,103.000000,-5.000000,127.000000,127.000000,127.000000,65.000000,127.000000,127.000000
1306526.756965,-128.000000,-10.000000,-11.000000,-46.000000,112.000000,-28.000000,-128.000000,-99.000000
1306526.794286,127.000000,6.000000,37.000000,-20.000000,32.000000,53.000000,127.000000,127.000000
1306526.794296,22.000000,-6.000000,-24.000000,119.000000,120.000000,-1.000000,-19.000000,61.000000
1306526.801764,-99.000000,-1.000000,8.000000,-128.000000,-74.000000,46.000000,-128.000000,-128.000000
1306526.801774,-16.000000,-5.000000,53.000000,127.000000,127.000000,-9.000000,53.000000,23.000000
1306526.817829,-128.000000,3.000000,-37.000000,-128.000000,-119.000000,44.000000,110.000000,-128.000000
1306526.817841,96.000000,-4.000000,-100.000000,-128.000000,-37.000000,-32.000000,127.000000,127.000000
1306526.818244,-97.000000,-6.000000,-87.000000,-128.000000,-128.000000,-27.000000,-128.000000,-128.000000
1306526.818265,-45.000000,-2.000000,32.000000,127.000000,11.000000,-4.000000,127.000000,41.000000
1306526.819381,102.000000,1.000000,63.000000,-21.000000,-45.000000,18.000000,127.000000,62.000000
1306526.819397,-15.000000,-3.000000,-22.000000,-66.000000,-21.000000,-9.000000,-128.000000,-128.000000
1306526.820139,-28.000000,-1.000000,-10.000000,1.000000,-16.000000,-11.000000,65.000000,21.000000
1306526.820154,-26.000000,6.000000,13.000000,-14.000000,-6.000000,-39.000000,-128.000000,-52.000000
1306526.820777,89.000000,3.000000,7.000000,120.000000,45.000000,21.000000,127.000000,126.000000
1306526.820788,15.000000,1.000000,-14.000000,6.000000,41.000000,60.000000,17.000000,85.000000
1306526.839099,-28.000000,-3.000000,-2.000000,-113.000000,-9.000000,-30.000000,-67.000000,-100.000000
1306526.839113,127.000000,-9.000000,39.000000,127.000000,127.000000,21.000000,127.000000,105.000000
1306526.840624,-87.000000,-2.000000,84.000000,127.000000,127.000000,67.000000,-55.000000,-57.000000
1306526.840633,-35.000000,-2.000000,43.000000,127.000000,7.000000,-23.000000,-53.000000,-6.000000
1306526.854190,-128.000000,5.000000,-24.000000,-75.000000,3.000000,-38.000000,-95.000000,-96.000000
1306526.854217,24.000000,-4.000000,-33.000000,-47.000000,11.000000,14.000000,-46.000000,-49.000000
1306526.862047,-59.000000,1.000000,-128.000000,-128.000000,-128.000000,-58.000000,-100.000000,-128.000000
1306526.862058,127.000000,-6.000000,69.000000,127.000000,127.000000,12.000000,127.000000,-1.000000
1306526.869809,-15.000000,0.000000,43.000000,-98.000000,73.000000,25.000000,81.000000,127.000000
1306526.869849,102.000000,-8.000000,27.000000,71.000000,22.000000,-82.000000,-128.000000,-128.000000
1306526.899510,-106.000000,2.000000,68.000000,34.000000,-36.000000,78.000000,51.000000,127.000000
1306526.899521,102.000000,0.000000,-128.000000,-118.000000,91.000000,8.000000,-128.000000,-79.000000
1306526.914453,109.000000,-5.000000,108.000000,-128.000000,-15.000000,-60.000000,-55.000000,94.000000
1306526.914464,-128.000000,-1.000000,14.000000,127.000000,100.000000,23.000000,-128.000000,-128.000000
1306526.937124,-66.000000,-3.000000,2.000000,38.000000,20.000000,18.000000,127.000000,127.000000
1306526.937133,-28.000000,-2.000000,-88.000000,127.000000,127.000000,59.000000,-79.000000,121.000000
1306526.937766,-28.000000,2.000000,43.000000,-34.000000,-55.000000,-56.000000,-30.000000,-124.000000
1306526.937775,-128.000000,-1.000000,-128.000000,-44.000000,-80.000000,-17.000000,-128.000000,-128.000000
1306526.939199,127.000000,-14.000000,31.000000,-128.000000,-53.000000,-25.000000,127.000000,30.000000
1306526.939214,-124.000000,-1.000000,-128.000000,111.000000,60.000000,-18.000000,-128.000000,-36.000000
1306526.939846,-80.000000,9.000000,127.000000,127.000000,52.000000,26.000000,1.000000,-76.000000
1306526.939863,104.000000,-8.000000,-86.000000,-128.000000,-68.000000,12.000000,46.000000,64.000000
1306526.940584,-5.000000,-4.000000,-92.000000,-128.000000,-105.000000,-54.000000,-128.000000,-47.000000
1306526.940592,-74.000000,-1.000000,42.000000,79.000000,-19.000000,-8.000000,127.000000,70.000000
1306526.951981,127.000000,-13.000000,-80.000000,102.000000,127.000000,16.000000,-26.000000,15.000000
1306526.951993,-74.000000,2.000000,127.000000,-128.000000,-104.000000,-48.000000,-128.000000,-111.000000
1306526.959363,-82.000000,-7.000000,-67.000000,43.000000,-107.000000,10.000000,-30.000000,-128.000000
1306526.959373,-128.000000,4.000000,-128.000000,-117.000000,-44.000000,-84.000000,-30.000000,-81.000000
1306526.974264,-6.000000,2.000000,-114.000000,-99.000000,-63.000000,-29.000000,-77.000000,-62.000000
1306526.974282,62.000000,7.000000,127.000000,127.000000,127.000000,54.000000,-64.000000,-29.000000
1306527.011935,-62.000000,-2.000000,84.000000,64.000000,127.000000,60.000000,23.000000,-66.000000
1306527.011946,71.000000,9.000000,-127.000000,-128.000000,-128.000000,-89.000000,39.000000,41.000000
1306527.019256,73.000000,3.000000,38.000000,89.000000,127.000000,92.000000,21.000000,41.000000
1306527.019277,-50.000000,14.000000,4.000000,-128.000000,-121.000000,-108.000000,-128.000000,-128.000000
1306527.064050,-46.000000,-24.000000,-84.000000,-116.000000,67.000000,127.000000,127.000000,127.000000
1306527.064060,127.000000,-4.000000,84.000000,127.000000,127.000000,-11.000000,127.000000,127.000000
1306527.064742,89.000000,3.000000,122.000000,-90.000000,-20.000000,24.000000,-128.000000,-2.000000
1306527.064760,10.000000,-21.000000,-2.000000,127.000000,100.000000,19.000000,4.000000,-24.000000
1306527.066040,-94.000000,1.000000,127.000000,127.000000,118.000000,63.000000,-24.000000,-31.000000
1306527.066058,127.000000,2.000000,-111.000000,23.000000,15.000000,27.000000,-28.000000,11.000000
1306527.071821,95.000000,6.000000,-96.000000,-60.000000,127.000000,31.000000,-15.000000,0.000000
1306527.071831,-31.000000,-7.000000,84.000000,127.000000,-128.000000,9.000000,93.000000,-27.000000
1306527.073079,127.000000,0.000000,94.000000,62.000000,42.000000,39.000000,127.000000,127.000000
1306527.073132,-77.000000,-8.000000,-9.000000,127.000000,45.000000,-15.000000,24.000000,7.000000
1306527.079187,-55.000000,0.000000,21.000000,53.000000,-5.000000,21.000000,-104.000000,-125.000000
1306527.079197,-55.000000,-3.000000,-51.000000,-65.000000,53.000000,-8.000000,27.000000,-14.000000
1306527.094545,127.000000,8.000000,-76.000000,-128.000000,-128.000000,-58.000000,87.000000,85.000000
1306527.094558,17.000000,-1.000000,85.000000,127.000000,127.000000,33.000000,2.000000,48.000000
1306527.102087,-26.000000,-6.000000,47.000000,5.000000,-87.000000,-19.000000,-75.000000,-35.000000
1306527.102097,-1.000000,8.000000,-75.000000,-128.000000,-84.000000,-38.000000,-128.000000,-66.000000
1306527.139660,-42.000000,-3.000000,127.000000,127.000000,60.000000,41.000000,127.000000,-5.000000
1306527.139670,-128.000000,-11.000000,-106.000000,-128.000000,-74.000000,-51.000000,-102.000000,-53.000000
1306527.146832,-45.000000,7.000000,7.000000,127.000000,59.000000,32.000000,-8.000000,-2.000000
1306527.146844,4.000000,-6.000000,53.000000,-14.000000,73.000000,-44.000000,-128.000000,-3.000000
1306527.177206,108.000000,8.000000,22.000000,14.000000,15.000000,106.000000,127.000000,127.000000
1306527.177219,-27.000000,-1.000000,-4.000000,-25.000000,2.000000,-62.000000,-47.000000,-43.000000
1306527.192338,-104.000000,7.000000,68.000000,-38.000000,-55.000000,2.000000,-128.000000,-99.000000
1306527.192352,-96.000000,-3.000000,-128.000000,-13.000000,-1.000000,-29.000000,127.000000,16.000000
1306527.214619,22.000000,-2.000000,120.000000,127.000000,-24.000000,26.000000,75.000000,40.000000
1306527.214628,84.000000,3.000000,-128.000000,-127.000000,-76.000000,-77.000000,-128.000000,-41.000000
1306527.215457,127.000000,-6.000000,127.000000,-128.000000,-62.000000,32.000000,112.000000,-22.000000
1306527.215474,-128.000000,-5.000000,-84.000000,-87.000000,32.000000,-17.000000,20.000000,102.000000
1306527.216658,-15.000000,0.000000,-103.000000,127.000000,127.000000,12.000000,-79.000000,-56.000000
1306527.216701,80.000000,-6.000000,-25.000000,34.000000,13.000000,-15.000000,-128.000000,-64.000000
1306527.217264,127.000000,9.000000,22.000000,-61.000000,-128.000000,-67.000000,69.000000,-26.000000
1306527.217274,35.000000,14.000000,-59.000000,-85.000000,-27.000000,-14.000000,127.000000,127.000000
1306527.229271,-128.000000,0.000000,-31.000000,50.000000,85.000000,11.000000,-128.000000,-128.000000
1306527.229299,34.000000,-1.000000,93.000000,47.000000,-128.000000,37.000000,127.000000,127.000000
1306527.244408,64.000000,-10.000000,42.000000,116.000000,127.000000,-4.000000,9.000000,74.000000
1306527.244418,40.000000,0.000000,47.000000,-128.000000,-64.000000,-54.000000,-128.000000,-23.000000
1306527.251826,-128.000000,3.000000,-128.000000,-128.000000,-128.000000,-14.000000,-114.000000,-128.000000
1306527.251879,88.000000,8.000000,127.000000,127.000000,127.000000,51.000000,127.000000,97.000000
1306527.274343,-25.000000,-7.000000,-71.000000,-128.000000,-128.000000,-75.000000,-128.000000,-60.000000
1306527.274379,127.000000,1.000000,-71.000000,-32.000000,43.000000,97.000000,127.000000,95.000000
1306527.289737,-128.000000,19.000000,109.000000,-128.000000,-128.000000,74.000000,-45.000000,-128.000000
1306527.289752,-54.000000,5.000000,-78.000000,127.000000,127.000000,-5.000000,127.000000,104.000000
1306527.291112,-105.000000,-1.000000,-128.000000,-128.000000,-128.000000,-77.000000,-128.000000,-128.000000
1306527.291128,-13.000000,-2.000000,-30.000000,18.000000,-67.000000,28.000000,50.000000,39.000000
1306527.291322,26.000000,-3.000000,-98.000000,47.000000,6.000000,27.000000,-15.000000,-3.000000
1306527.291337,-92.000000,-5.000000,20.000000,59.000000,70.000000,-60.000000,-29.000000,-86.000000
1306527.292586,9.000000,6.000000,14.000000,-26.000000,1.000000,13.000000,31.000000,-72.000000
1306527.292683,-47.000000,5.000000,-13.000000,70.000000,-11.000000,-30.000000,-25.000000,8.000000
1306527.296723,74.000000,-2.000000,51.000000,-9.000000,32.000000,65.000000,-38.000000,-43.000000
1306527.296740,-98.000000,-5.000000,-75.000000,-2.000000,-61.000000,-75.000000,77.000000,43.000000
1306527.334254,33.000000,4.000000,106.000000,-128.000000,-80.000000,2.000000,-128.000000,20.000000
1306527.334273,127.000000,12.000000,-41.000000,127.000000,127.000000,27.000000,122.000000,60.000000
1306527.334647,-74.000000,-2.000000,-74.000000,-128.000000,-115.000000,-55.000000,-126.000000,-65.000000
1306527.334655,-64.000000,-4.000000,47.000000,-52.000000,21.000000,20.000000,22.000000,7.000000
1306527.336211,88.000000,-4.000000,65.000000,127.000000,58.000000,1.000000,-23.000000,-11.000000
1306527.336221,-11.000000,-3.000000,-59.000000,-86.000000,-17.000000,-31.000000,17.000000,-8.000000
1306527.356912,-128.000000,-10.000000,3.000000,2.000000,-111.000000,-6.000000,-29.000000,24.000000
1306527.356945,82.000000,3.000000,19.000000,-76.000000,28.000000,-41.000000,40.000000,15.000000
1306527.394287,-55.000000,-17.000000,19.000000,22.000000,-4.000000,-7.000000,3.000000,-49.000000
1306527.394297,31.000000,-7.000000,-4.000000,-29.000000,16.000000,29.000000,-84.000000,33.000000
1306527.409172,-38.000000,9.000000,106.000000,-128.000000,-14.000000,-26.000000,-128.000000,-128.000000
1306527.409202,-30.000000,12.000000,10.000000,127.000000,127.000000,-50.000000,127.000000,-16.000000
1306527.410380,127.000000,-5.000000,68.000000,127.000000,127.000000,66.000000,127.000000,127.000000
1306527.410397,-94.000000,7.000000,12.000000,-128.000000,54.000000,-1.000000,-128.000000,-65.000000
1306527.411348,94.000000,7.000000,17.000000,-64.000000,-47.000000,-15.000000,-21.000000,-33.000000
1306527.411357,-54.000000,10.000000,-110.000000,-61.000000,6.000000,3.000000,-53.000000,-93.000000
1306527.412358,-36.000000,0.000000,45.000000,-29.000000,5.000000,-17.000000,1.000000,-29.000000
1306527.412376,73.000000,13.000000,63.000000,-98.000000,-66.000000,46.000000,-128.000000,-121.000000
1306527.416897,24.000000,5.000000,40.000000,127.000000,127.000000,58.000000,18.000000,72.000000
1306527.416908,-4.000000,17.000000,-88.000000,-128.000000,-128.000000,-95.000000,-4.000000,-21.000000
1306527.432767,70.000000,-3.000000,32.000000,127.000000,127.000000,89.000000,76.000000,74.000000
1306527.432789,-30.000000,-4.000000,-17.000000,-66.000000,-93.000000,-1.000000,-21.000000,-13.000000
1306527.454867,87.000000,-1.000000,-74.000000,-117.000000,-40.000000,-26.000000,-8.000000,23.000000
1306527.454909,-17.000000,-13.000000,52.000000,-78.000000,-79.000000,3.000000,-67.000000,-90.000000
1306527.455769,-21.000000,20.000000,73.000000,57.000000,-128.000000,-14.000000,127.000000,52.000000
1306527.455790,3.000000,4.000000,-57.000000,-53.000000,17.000000,21.000000,-53.000000,25.000000
1306527.469366,18.000000,-4.000000,-37.000000,-53.000000,-7.000000,126.000000,116.000000,89.000000
1306527.469379,50.000000,11.000000,88.000000,-15.000000,4.000000,-44.000000,-42.000000,-38.000000
1306527.506971,32.000000,-8.000000,-50.000000,15.000000,33.000000,56.000000,40.000000,66.000000
1306527.506983,-2.000000,16.000000,-16.000000,37.000000,68.000000,20.000000,99.000000,66.000000
1306527.514689,-59.000000,1.000000,-14.000000,18.000000,11.000000,4.000000,-128.000000,-72.000000
1306527.514702,20.000000,0.000000,5.000000,38.000000,14.000000,-6.000000,127.000000,18.000000
1306527.529796,-12.000000,7.000000,-6.000000,20.000000,43.000000,62.000000,-58.000000,-20.000000
1306527.529809,-45.000000,3.000000,-12.000000,11.000000,-6.000000,-11.000000,-128.000000,-106.000000
1306527.530376,49.000000,11.000000,63.000000,74.000000,51.000000,49.000000,109.000000,127.000000
1306527.530384,60.000000,2.000000,-7.000000,27.000000,35.000000,-18.000000,127.000000,76.000000
1306527.531602,-4.000000,6.000000,-27.000000,-91.000000,11.000000,-38.000000,-128.000000,-43.000000
1306527.531610,-99.000000,-20.000000,-20.000000,-61.000000,39.000000,17.000000,-128.000000,-128.000000
1306527.532142,127.000000,2.000000,127.000000,127.000000,-128.000000,56.000000,127.000000,127.000000
1306527.532150,15.000000,-5.000000,-128.000000,-128.000000,-29.000000,13.000000,16.000000,41.000000
1306527.551872,-39.000000,-8.000000,-63.000000,-128.000000,-128.000000,-29.000000,-77.000000,14.000000
1306527.551886,-61.000000,-9.000000,-55.000000,-128.000000,-108.000000,-41.000000,-100.000000,-78.000000
1306527.552898,82.000000,6.000000,-128.000000,-107.000000,-64.000000,-16.000000,-58.000000,-28.000000
1306527.552906,-63.000000,-13.000000,33.000000,-128.000000,-111.000000,-33.000000,-39.000000,-118.000000
1306527.567438,127.000000,22.000000,89.000000,127.000000,100.000000,38.000000,127.000000,127.000000
1306527.567469,-19.000000,-9.000000,-128.000000,-109.000000,-53.000000,-31.000000,-48.000000,28.000000
1306527.575172,-99.000000,-1.000000,24.000000,-81.000000,-31.000000,39.000000,-37.000000,-51.000000
1306527.575181,-9.000000,15.000000,21.000000,4.000000,12.000000,-25.000000,21.000000,-27.000000
1306527.581815,30.000000,6.000000,-20.000000,30.000000,42.000000,25.000000,-1.000000,22.000000
1306527.581836,-6.000000,-10.000000,-33.000000,27.000000,13.000000,-14.000000,-66.000000,-44.000000
1306527.627121,-117.000000,-10.000000,-9.000000,54.000000,-26.000000,3.000000,-128.000000,-128.000000
1306527.627139,44.000000,-19.000000,-117.000000,-128.000000,-79.000000,-61.000000,127.000000,49.000000
1306527.634547,-9.000000,36.000000,49.000000,127.000000,66.000000,91.000000,-92.000000,15.000000
1306527.634576,51.000000,-12.000000,-8.000000,-128.000000,-128.000000,-49.000000,-2.000000,40.000000
1306527.649755,-28.000000,-22.000000,-35.000000,-120.000000,-14.000000,20.000000,-48.000000,-88.000000
1306527.649783,18.000000,-11.000000,27.000000,-128.000000,-126.000000,-56.000000,89.000000,51.000000
1306527.650628,-16.000000,14.000000,-29.000000,82.000000,-26.000000,-11.000000,-84.000000,-49.000000
1306527.650654,-66.000000,-26.000000,-115.000000,30.000000,-7.000000,-35.000000,-33.000000,-64.000000
1306527.651856,37.000000,19.000000,12.000000,28.000000,-14.000000,-26.000000,-32.000000,-24.000000
1306527.651878,1.000000,5.000000,54.000000,95.000000,47.000000,-16.000000,-21.000000,-35.000000
1306527.652428,-128.000000,-18.000000,-115.000000,-113.000000,-128.000000,-78.000000,38.000000,-33.000000
1306527.652443,127.000000,43.000000,-112.000000,-128.000000,-25.000000,21.000000,103.000000,99.000000
1306527.672081,-43.000000,-10.000000,6.000000,-94.000000,-19.000000,2.000000,22.000000,-36.000000
1306527.672203,100.000000,0.000000,-53.000000,-64.000000,-44.000000,-57.000000,-6.000000,22.000000
1306527.673622,-20.000000,-12.000000,-128.000000,63.000000,90.000000,12.000000,-59.000000,-56.000000
1306527.673644,-88.000000,-11.000000,22.000000,-114.000000,-36.000000,-26.000000,-128.000000,-83.000000
1306527.687206,57.000000,-11.000000,19.000000,127.000000,127.000000,34.000000,114.000000,52.000000
1306527.687228,27.000000,-8.000000,30.000000,83.000000,102.000000,25.000000,53.000000,33.000000
1306527.694924,-4.000000,8.000000,69.000000,-46.000000,6.000000,-10.000000,-44.000000,-22.000000
1306527.694934,-65.000000,-19.000000,-84.000000,-128.000000,-91.000000,-23.000000,-35.000000,-59.000000
1306527.709564,84.000000,37.000000,124.000000,127.000000,21.000000,92.000000,116.000000,50.000000
1306527.709593,-9.000000,10.000000,-112.000000,-41.000000,23.000000,-24.000000,56.000000,54.000000
1306527.746805,-66.000000,-20.000000,4.000000,-128.000000,-42.000000,-48.000000,-71.000000,-103.000000
1306527.746815,-4.000000,11.000000,-62.000000,-90.000000,-49.000000,18.000000,-128.000000,-70.000000
1306527.769339,-52.000000,-8.000000,-17.000000,-128.000000,-89.000000,-25.000000,127.000000,38.000000
1306527.769349,41.000000,6.000000,126.000000,127.000000,127.000000,68.000000,56.000000,119.000000
1306527.791729,-16.000000,-8.000000,-53.000000,-122.000000,-72.000000,-42.000000,-128.000000,-61.000000
1306527.791739,-100.000000,-10.000000,-65.000000,-128.000000,-37.000000,-34.000000,-110.000000,-126.000000
1306527.806911,70.000000,17.000000,-21.000000,-128.000000,5.000000,72.000000,127.000000,127.000000
1306527.806925,109.000000,-12.000000,127.000000,127.000000,127.000000,81.000000,33.000000,119.000000
1306527.807836,-47.000000,-8.000000,-122.000000,-128.000000,-62.000000,-25.000000,-86.000000,-67.000000
1306527.807846,-55.000000,4.000000,-91.000000,-101.000000,-58.000000,-28.000000,-60.000000,-59.000000
1306527.808481,-74.000000,3.000000,40.000000,-26.000000,-34.000000,-9.000000,-128.000000,-96.000000
1306527.808491,25.000000,-17.000000,-22.000000,-18.000000,-16.000000,-72.000000,127.000000,27.000000
1306527.809217,-38.000000,-32.000000,3.000000,92.000000,35.000000,44.000000,50.000000,6.000000
1306527.809233,16.000000,6.000000,-83.000000,-128.000000,-101.000000,-20.000000,35.000000,26.000000
1306527.809826,-67.000000,-11.000000,-38.000000,-128.000000,-54.000000,-27.000000,-44.000000,-39.000000
1306527.809837,-13.000000,16.000000,-61.000000,-99.000000,-56.000000,-36.000000,79.000000,35.000000
1306527.829372,85.000000,7.000000,127.000000,127.000000,122.000000,24.000000,46.000000,91.000000
1306527.829393,-21.000000,16.000000,-128.000000,-128.000000,-97.000000,-10.000000,-84.000000,-66.000000
1306527.844517,-9.000000,-6.000000,127.000000,127.000000,124.000000,10.000000,-31.000000,-30.000000
1306527.844528,-110.000000,0.000000,-15.000000,-13.000000,-108.000000,-16.000000,87.000000,-33.000000
1306527.859703,73.000000,-16.000000,-66.000000,-86.000000,26.000000,7.000000,-128.000000,-86.000000
1306527.859713,-7.000000,35.000000,119.000000,-77.000000,-128.000000,-41.000000,127.000000,119.000000
1306527.866907,87.000000,2.000000,-128.000000,-33.000000,51.000000,4.000000,-103.000000,69.000000
1306527.866917,39.000000,16.000000,37.000000,-128.000000,-60.000000,-3.000000,-7.000000,-59.000000
1306527.867975,-71.000000,-6.000000,-86.000000,-99.000000,-83.000000,-13.000000,-54.000000,-2.000000
1306527.867984,-64.000000,14.000000,15.000000,-54.000000,-10.000000,-11.000000,-98.000000,-64.000000
1306527.868697,-12.000000,-33.000000,-65.000000,-17.000000,78.000000,-35.000000,7.000000,0.000000
1306527.868723,37.000000,2.000000,-42.000000,-128.000000,-31.000000,15.000000,48.000000,33.000000
1306527.889849,127.000000,15.000000,127.000000,127.000000,127.000000,53.000000,81.000000,127.000000
1306527.889858,-84.000000,0.000000,-128.000000,-128.000000,-73.000000,-25.000000,-85.000000,-76.000000
1306527.890425,-70.000000,-34.000000,-21.000000,19.000000,22.000000,20.000000,27.000000,-23.000000
1306527.890436,13.000000,-17.000000,-8.000000,-95.000000,-66.000000,-76.000000,-8.000000,1.000000
1306527.892171,-19.000000,10.000000,23.000000,95.000000,33.000000,19.000000,-128.000000,-50.000000
1306527.892182,-10.000000,-1.000000,51.000000,63.000000,49.000000,17.000000,65.000000,-33.000000
1306527.904863,-106.000000,-2.000000,-15.000000,13.000000,25.000000,-34.000000,-25.000000,5.000000
1306527.904873,96.000000,36.000000,-107.000000,-128.000000,-47.000000,-26.000000,-9.000000,4.000000
1306527.912410,-4.000000,24.000000,127.000000,127.000000,127.000000,68.000000,-11.000000,0.000000
1306527.912427,-39.000000,-36.000000,-36.000000,-49.000000,-83.000000,-16.000000,-18.000000,-69.000000
1306527.926796,65.000000,3.000000,-68.000000,-128.000000,-48.000000,-36.000000,115.000000,48.000000
1306527.926805,-14.000000,63.000000,32.000000,43.000000,-96.000000,22.000000,-19.000000,-12.000000
1306527.949372,-48.000000,-8.000000,-57.000000,-107.000000,-32.000000,20.000000,-86.000000,-55.000000
1306527.949382,24.000000,17.000000,-21.000000,-48.000000,-29.000000,-51.000000,67.000000,-19.000000
1306527.964405,25.000000,-39.000000,50.000000,48.000000,-21.000000,23.000000,23.000000,65.000000
1306527.964415,-67.000000,1.000000,-50.000000,-42.000000,-40.000000,-14.000000,-75.000000,-61.000000
1306527.987227,-34.000000,32.000000,-54.000000,-24.000000,36.000000,3.000000,10.000000,-49.000000
1306527.987241,104.000000,3.000000,71.000000,-77.000000,10.000000,31.000000,119.000000,97.000000
1306528.009412,-54.000000,-19.000000,-10.000000,94.000000,67.000000,0.000000,-67.000000,-35.000000
1306528.009425,-65.000000,-38.000000,-44.000000,10.000000,32.000000,9.000000,-12.000000,-27.000000
1306528.010391,9.000000,13.000000,15.000000,0.000000,-5.000000,-7.000000,16.000000,4.000000
1306528.010406,74.000000,-6.000000,27.000000,36.000000,14.000000,-8.000000,5.000000,48.000000
1306528.011061,-6.000000,16.000000,-23.000000,-7.000000,13.000000,4.000000,16.000000,-1.000000
1306528.011069,-6.000000,-27.000000,-6.000000,13.000000,-28.000000,20.000000,-43.000000,-23.000000
1306528.012254,-6.000000,23.000000,-24.000000,-72.000000,-24.000000,22.000000,127.000000,-2.000000
1306528.012263,-27.000000,-25.000000,36.000000,15.000000,6.000000,27.000000,118.000000,127.000000
1306528.013136,73.000000,47.000000,15.000000,106.000000,111.000000,22.000000,-26.000000,-14.000000
1306528.013155,5.000000,-41.000000,26.000000,-4.000000,14.000000,79.000000,16.000000,4.000000
1306528.024261,5.000000,49.000000,-128.000000,-128.000000,-128.000000,18.000000,59.000000,1.000000
1306528.024290,60.000000,20.000000,127.000000,127.000000,127.000000,121.000000,127.000000,109.000000
1306528.047121,101.000000,53.000000,-64.000000,-128.000000,-106.000000,-5.000000,13.000000,60.000000
1306528.047136,15.000000,18.000000,-76.000000,-109.000000,-59.000000,-23.000000,-53.000000,-44.000000
1306528.047817,-92.000000,-34.000000,58.000000,18.000000,-67.000000,-31.000000,-79.000000,-41.000000
1306528.047865,-62.000000,-8.000000,-45.000000,-54.000000,-128.000000,-58.000000,-21.000000,-95.000000
1306528.054083,49.000000,-32.000000,48.000000,96.000000,78.000000,5.000000,81.000000,110.000000
1306528.054092,-38.000000,-7.000000,-128.000000,17.000000,-4.000000,-19.000000,-12.000000,-6.000000
1306528.061865,-8.000000,2.000000,45.000000,34.000000,74.000000,22.000000,-84.000000,-51.000000
1306528.061876,-7.000000,30.000000,34.000000,16.000000,31.000000,-41.000000,-37.000000,-104.000000
1306528.084683,-36.000000,-49.000000,-60.000000,-128.000000,-37.000000,-14.000000,96.000000,127.000000
1306528.084709,81.000000,39.000000,127.000000,127.000000,127.000000,81.000000,45.000000,44.000000
1306528.091961,-24.000000,21.000000,-119.000000,-122.000000,-24.000000,7.000000,-44.000000,-20.000000
1306528.091976,-107.000000,7.000000,-128.000000,55.000000,-17.000000,-60.000000,-91.000000,-75.000000
1306528.106773,-11.000000,33.000000,9.000000,-10.000000,-56.000000,0.000000,-37.000000,-18.000000
1306528.106788,76.000000,-23.000000,-10.000000,-128.000000,-81.000000,-40.000000,80.000000,46.000000
1306528.122141,57.000000,40.000000,101.000000,127.000000,127.000000,70.000000,25.000000,72.000000
1306528.122160,-32.000000,5.000000,-13.000000,31.000000,51.000000,0.000000,-56.000000,-34.000000
1306528.123099,-3.000000,-7.000000,-128.000000,-128.000000,-66.000000,-29.000000,-20.000000,-49.000000
1306528.123110,-28.000000,-49.000000,127.000000,2.000000,-72.000000,-49.000000,-77.000000,-76.000000
1306528.123791,72.000000,47.000000,-72.000000,83.000000,18.000000,39.000000,127.000000,79.000000
1306528.123801,27.000000,-20.000000,20.000000,52.000000,98.000000,8.000000,-40.000000,9.000000
1306528.130108,0.000000,6.000000,-8.000000,-39.000000,-10.000000,-7.000000,-87.000000,-41.000000
1306528.130119,-119.000000,-59.000000,-64.000000,-66.000000,-29.000000,-17.000000,9.000000,-68.000000
1306528.144428,77.000000,-13.000000,0.000000,21.000000,-17.000000,5.000000,27.000000,53.000000
1306528.144441,-41.000000,39.000000,-52.000000,8.000000,-25.000000,-7.000000,-128.000000,-93.000000
1306528.167129,30.000000,-122.000000,35.000000,5.000000,22.000000,-3.000000,108.000000,119.000000
1306528.167138,57.000000,42.000000,-67.000000,-1.000000,-25.000000,10.000000,2.000000,42.000000
1306528.167772,-78.000000,-25.000000,28.000000,65.000000,18.000000,6.000000,-54.000000,-44.000000
1306528.167780,-36.000000,10.000000,46.000000,8.000000,-17.000000,-13.000000,-12.000000,-25.000000
1306528.174621,40.000000,0.000000,45.000000,-37.000000,18.000000,13.000000,27.000000,21.000000
1306528.174633,99.000000,6.000000,0.000000,31.000000,-15.000000,55.000000,94.000000,76.000000
1306528.182075,-108.000000,-115.000000,-33.000000,-13.000000,-24.000000,-36.000000,-45.000000,-19.000000
1306528.182123,6.000000,8.000000,-1.000000,48.000000,48.000000,-13.000000,-44.000000,-26.000000
1306528.204670,-25.000000,19.000000,-55.000000,-59.000000,-33.000000,37.000000,98.000000,0.000000
1306528.204695,50.000000,47.000000,16.000000,-111.000000,-89.000000,-74.000000,-48.000000,3.000000
1306528.211849,-14.000000,-11.000000,3.000000,41.000000,-5.000000,2.000000,-15.000000,-27.000000
1306528.211859,18.000000,-7.000000,-56.000000,127.000000,127.000000,53.000000,-1.000000,-7.000000
1306528.227194,7.000000,-1.000000,57.000000,-30.000000,-27.000000,-7.000000,36.000000,18.000000
1306528.227204,-101.000000,-11.000000,-1.000000,-43.000000,-8.000000,0.000000,-50.000000,-83.000000
1306528.228055,127.000000,-29.000000,-47.000000,-60.000000,-27.000000,-55.000000,63.000000,74.000000
1306528.228064,-72.000000,-93.000000,-33.000000,-128.000000,-128.000000,0.000000,18.000000,13.000000
1306528.242139,19.000000,6.000000,127.000000,127.000000,127.000000,55.000000,41.000000,35.000000
1306528.242161,-20.000000,-19.000000,-114.000000,-71.000000,-9.000000,-13.000000,-48.000000,-32.000000
1306528.242615,-7.000000,41.000000,77.000000,13.000000,-19.000000,-6.000000,-36.000000,-29.000000
1306528.242632,-59.000000,-54.000000,-26.000000,-93.000000,-40.000000,0.000000,-1.000000,-44.000000
1306528.249801,-9.000000,-69.000000,-5.000000,-4.000000,-22.000000,-63.000000,-9.000000,19.000000
1306528.249819,78.000000,127.000000,-27.000000,-128.000000,-53.000000,-22.000000,-29.000000,1.000000
1306528.264525,-108.000000,-88.000000,92.000000,127.000000,81.000000,32.000000,34.000000,4.000000
1306528.264557,67.000000,1.000000,-128.000000,19.000000,2.000000,9.000000,0.000000,7.000000
1306528.287269,-120.000000,-93.000000,22.000000,-11.000000,-20.000000,-16.000000,-39.000000,-44.000000
1306528.287286,50.000000,40.000000,31.000000,-73.000000,-7.000000,-6.000000,12.000000,16.000000
1306528.287737,14.000000,-26.000000,127.000000,-45.000000,19.000000,31.000000,-60.000000,-61.000000
1306528.287746,-47.000000,-26.000000,-128.000000,-32.000000,127.000000,-27.000000,15.000000,-14.000000
1306528.294385,-10.000000,1.000000,127.000000,127.000000,127.000000,95.000000,70.000000,71.000000
1306528.294396,28.000000,32.000000,41.000000,-128.000000,-41.000000,-23.000000,13.000000,-8.000000
1306528.301672,73.000000,-5.000000,56.000000,127.000000,17.000000,27.000000,44.000000,40.000000
1306528.301682,-31.000000,-128.000000,127.000000,-128.000000,-35.000000,-4.000000,1.000000,-26.000000
1306528.324660,-83.000000,79.000000,-128.000000,-39.000000,-25.000000,12.000000,-92.000000,-54.000000
1306528.324689,31.000000,53.000000,40.000000,-40.000000,-37.000000,-86.000000,-39.000000,-23.000000
1306528.346695,-54.000000,-24.000000,60.000000,127.000000,35.000000,-2.000000,8.000000,19.000000
1306528.346706,127.000000,63.000000,81.000000,47.000000,31.000000,70.000000,-13.000000,-19.000000
1306528.362459,-21.000000,-94.000000,-1.000000,-7.000000,-20.000000,-79.000000,84.000000,64.000000
1306528.362468,-24.000000,-68.000000,-105.000000,52.000000,25.000000,11.000000,-21.000000,20.000000
1306528.363002,20.000000,-36.000000,23.000000,-33.000000,-29.000000,-24.000000,-88.000000,-75.000000
1306528.363009,19.000000,-29.000000,-128.000000,-16.000000,-23.000000,-5.000000,22.000000,22.000000
1306528.364168,-106.000000,-76.000000,39.000000,51.000000,-21.000000,-7.000000,-3.000000,-23.000000
1306528.364177,44.000000,69.000000,40.000000,-24.000000,-15.000000,-13.000000,-17.000000,3.000000
1306528.365051,78.000000,37.000000,114.000000,-9.000000,-23.000000,-17.000000,16.000000,29.000000
1306528.365060,31.000000,72.000000,64.000000,127.000000,58.000000,63.000000,21.000000,12.000000
1306528.384865,7.000000,15.000000,39.000000,-100.000000,28.000000,48.000000,-93.000000,-69.000000
1306528.384920,-62.000000,-128.000000,-55.000000,-128.000000,-50.000000,-66.000000,87.000000,25.000000
1306528.385567,35.000000,-8.000000,-30.000000,-47.000000,51.000000,59.000000,-53.000000,-16.000000
1306528.385588,38.000000,-19.000000,15.000000,-105.000000,-70.000000,-68.000000,-23.000000,-10.000000
1306528.399679,-114.000000,-128.000000,-128.000000,115.000000,5.000000,-34.000000,-20.000000,24.000000
1306528.399688,34.000000,43.000000,-101.000000,114.000000,-7.000000,-22.000000,-65.000000,-43.000000
1306528.400542,55.000000,37.000000,127.000000,-63.000000,6.000000,6.000000,-17.000000,-11.000000
1306528.400550,-78.000000,-40.000000,27.000000,-19.000000,6.000000,26.000000,-37.000000,-47.000000
1306528.421901,44.000000,-48.000000,35.000000,-17.000000,-2.000000,-5.000000,84.000000,19.000000
1306528.421912,61.000000,22.000000,-128.000000,-128.000000,-48.000000,-30.000000,-61.000000,22.000000
1306528.444290,17.000000,114.000000,54.000000,127.000000,127.000000,40.000000,-18.000000,-11.000000
1306528.444300,-24.000000,-55.000000,113.000000,127.000000,65.000000,-3.000000,-1.000000,14.000000
1306528.466961,-19.000000,-21.000000,-65.000000,127.000000,-8.000000,-7.000000,-40.000000,-26.000000
1306528.466973,-22.000000,-13.000000,40.000000,-105.000000,42.000000,22.000000,-122.000000,-68.000000
1306528.481944,-10.000000,32.000000,-110.000000,-8.000000,-59.000000,-56.000000,76.000000,15.000000
1306528.481958,29.000000,-87.000000,105.000000,42.000000,24.000000,0.000000,-58.000000,55.000000
1306528.504282,13.000000,30.000000,-35.000000,-117.000000,-34.000000,-5.000000,-25.000000,-55.000000
1306528.504292,-34.000000,-55.000000,-24.000000,97.000000,11.000000,7.000000,35.000000,20.000000
1306528.519339,91.000000,30.000000,59.000000,-12.000000,26.000000,-16.000000,-25.000000,37.000000
1306528.519350,-89.000000,-60.000000,-12.000000,-110.000000,-25.000000,-9.000000,-56.000000,-66.000000
1306528.520228,42.000000,-25.000000,-72.000000,-78.000000,-38.000000,17.000000,60.000000,20.000000
1306528.520237,-24.000000,-19.000000,112.000000,-5.000000,0.000000,10.000000,-21.000000,-26.000000
1306528.521110,73.000000,74.000000,40.000000,127.000000,98.000000,28.000000,60.000000,37.000000
1306528.521140,-27.000000,7.000000,57.000000,124.000000,127.000000,34.000000,33.000000,36.000000
1306528.521642,101.000000,-11.000000,-128.000000,100.000000,64.000000,-7.000000,124.000000,79.000000
1306528.521658,-26.000000,-19.000000,22.000000,-48.000000,-10.000000,30.000000,-6.000000,68.000000
1306528.523418,-50.000000,-72.000000,5.000000,-91.000000,1.000000,-15.000000,-16.000000,-24.000000
1306528.523427,74.000000,104.000000,69.000000,126.000000,12.000000,0.000000,-54.000000,-25.000000
1306528.541730,-85.000000,-45.000000,-37.000000,84.000000,9.000000,-1.000000,38.000000,34.000000
1306528.541739,18.000000,18.000000,72.000000,-41.000000,8.000000,-7.000000,-94.000000,-25.000000
1306528.549699,-12.000000,37.000000,-12.000000,-8.000000,-6.000000,-1.000000,118.000000,-28.000000
1306528.549710,-45.000000,-84.000000,-17.000000,0.000000,-6.000000,-15.000000,-29.000000,34.000000
1306528.572362,127.000000,59.000000,5.000000,14.000000,12.000000,1.000000,-4.000000,34.000000
1306528.572377,-48.000000,-106.000000,-74.000000,-128.000000,-78.000000,-26.000000,-16.000000,-52.000000
1306528.579629,-94.000000,12.000000,-32.000000,127.000000,-26.000000,34.000000,43.000000,33.000000
1306528.579653,102.000000,44.000000,60.000000,127.000000,75.000000,15.000000,-13.000000,8.000000
1306528.602220,-31.000000,0.000000,83.000000,-80.000000,-25.000000,-27.000000,-112.000000,-93.000000
1306528.602228,37.000000,-11.000000,-58.000000,-126.000000,-96.000000,-42.000000,31.000000,50.000000
1306528.602909,-51.000000,-70.000000,50.000000,-128.000000,-126.000000,-68.000000,16.000000,0.000000
1306528.602917,56.000000,-11.000000,-21.000000,99.000000,112.000000,36.000000,20.000000,81.000000
1306528.604134,21.000000,25.000000,-3.000000,-65.000000,-2.000000,-11.000000,-26.000000,-46.000000
1306528.604142,-75.000000,-62.000000,45.000000,-15.000000,-19.000000,-19.000000,-63.000000,-45.000000
1306528.605084,23.000000,-19.000000,-22.000000,-23.000000,9.000000,9.000000,21.000000,18.000000
1306528.605095,9.000000,46.000000,-7.000000,-62.000000,-50.000000,-35.000000,19.000000,-22.000000
1306528.617352,-1.000000,-8.000000,44.000000,100.000000,59.000000,10.000000,35.000000,55.000000
1306528.617362,-62.000000,-33.000000,-48.000000,9.000000,37.000000,15.000000,-14.000000,-14.000000
1306528.624285,43.000000,38.000000,51.000000,5.000000,-56.000000,-21.000000,-48.000000,-38.000000
1306528.624298,-61.000000,-46.000000,4.000000,-20.000000,-16.000000,-6.000000,36.000000,19.000000
1306528.661809,17.000000,-18.000000,-25.000000,-126.000000,-72.000000,-9.000000,-35.000000,-48.000000
1306528.661820,36.000000,52.000000,17.000000,127.000000,44.000000,39.000000,109.000000,67.000000
1306528.676921,8.000000,27.000000,-28.000000,58.000000,105.000000,22.000000,-11.000000,-7.000000
1306528.676939,6.000000,26.000000,67.000000,-24.000000,13.000000,11.000000,-3.000000,-7.000000
1306528.699752,-69.000000,-67.000000,-91.000000,-10.000000,-2.000000,-15.000000,-26.000000,-33.000000
1306528.699782,-17.000000,32.000000,60.000000,2.000000,-28.000000,4.000000,-5.000000,7.000000
1306528.721739,36.000000,90.000000,-73.000000,-61.000000,-11.000000,-40.000000,-8.000000,5.000000
1306528.721757,11.000000,58.000000,68.000000,127.000000,86.000000,24.000000,24.000000,-25.000000
1306528.722750,3.000000,-32.000000,-128.000000,113.000000,122.000000,40.000000,-77.000000,14.000000
1306528.722759,-14.000000,-85.000000,45.000000,-108.000000,-67.000000,-72.000000,44.000000,20.000000
1306528.723435,33.000000,6.000000,127.000000,-33.000000,-19.000000,1.000000,-35.000000,7.000000
1306528.723444,-48.000000,-35.000000,-128.000000,-15.000000,9.000000,6.000000,-69.000000,-57.000000
1306528.724676,85.000000,63.000000,127.000000,58.000000,-50.000000,-28.000000,-29.000000,9.000000
1306528.724685,-78.000000,-52.000000,-78.000000,23.000000,21.000000,35.000000,5.000000,-26.000000
1306528.725551,-79.000000,-12.000000,94.000000,27.000000,19.000000,0.000000,-10.000000,-25.000000
1306528.725560,-5.000000,12.000000,-89.000000,-128.000000,-29.000000,-17.000000,2.000000,-16.000000
1306528.737155,-13.000000,-42.000000,40.000000,-46.000000,-51.000000,-23.000000,-45.000000,-20.000000
1306528.737166,-81.000000,-27.000000,44.000000,-11.000000,-59.000000,-12.000000,64.000000,-45.000000
1306528.744586,112.000000,13.000000,-116.000000,-24.000000,0.000000,0.000000,59.000000,71.000000
1306528.744596,-40.000000,23.000000,66.000000,29.000000,-16.000000,15.000000,-77.000000,-84.000000
1306528.774336,-118.000000,-128.000000,-83.000000,-105.000000,-20.000000,-37.000000,4.000000,-6.000000
1306528.774377,33.000000,106.000000,65.000000,14.000000,-76.000000,-15.000000,95.000000,91.000000
1306528.782143,67.000000,8.000000,-1.000000,-73.000000,3.000000,8.000000,-18.000000,1.000000
1306528.782154,-49.000000,-41.000000,127.000000,94.000000,53.000000,24.000000,-48.000000,-18.000000
1306528.819091,-16.000000,17.000000,-95.000000,-26.000000,-25.000000,-22.000000,-35.000000,-50.000000
1306528.819105,-13.000000,-18.000000,81.000000,-54.000000,-33.000000,-1.000000,-14.000000,4.000000
1306528.819537,32.000000,35.000000,-61.000000,46.000000,37.000000,25.000000,9.000000,1.000000
1306528.819545,-29.000000,-48.000000,-7.000000,7.000000,0.000000,8.000000,8.000000,7.000000
1306528.820867,-14.000000,-9.000000,4.000000,-20.000000,-40.000000,-40.000000,-17.000000,-35.000000
1306528.820875,-13.000000,-39.000000,8.000000,-38.000000,-43.000000,-14.000000,5.000000,-25.000000
1306528.821701,17.000000,13.000000,7.000000,-46.000000,-83.000000,-3.000000,121.000000,82.000000
1306528.821713,-11.000000,-43.000000,38.000000,124.000000,-7.000000,-12.000000,-36.000000,-7.000000
1306528.842324,-111.000000,-128.000000,6.000000,28.000000,31.000000,15.000000,-57.000000,-19.000000
1306528.842495,-6.000000,13.000000,-37.000000,-105.000000,-59.000000,-17.000000,2.000000,-38.000000
1306528.843242,127.000000,98.000000,49.000000,127.000000,127.000000,25.000000,48.000000,38.000000
1306528.843262,-48.000000,-109.000000,-69.000000,-63.000000,-22.000000,-26.000000,-14.000000,15.000000
1306528.843785,-74.000000,-34.000000,-22.000000,-128.000000,-62.000000,-18.000000,-90.000000,-26.000000
1306528.843793,-42.000000,17.000000,-104.000000,127.000000,36.000000,-1.000000,15.000000,-53.000000
1306528.857460,37.000000,7.000000,-33.000000,17.000000,14.000000,4.000000,63.000000,49.000000
1306528.857475,-29.000000,-6.000000,-43.000000,-26.000000,9.000000,6.000000,-37.000000,-19.000000
1306528.864321,-29.000000,-47.000000,-62.000000,-93.000000,-51.000000,-15.000000,-8.000000,-31.000000
1306528.864331,10.000000,-38.000000,28.000000,-41.000000,62.000000,8.000000,-32.000000,-13.000000
1306528.894436,-12.000000,42.000000,31.000000,-15.000000,-33.000000,33.000000,-65.000000,-73.000000
1306528.894465,-3.000000,33.000000,74.000000,127.000000,48.000000,-17.000000,127.000000,62.000000
1306528.902084,76.000000,-39.000000,-92.000000,42.000000,-40.000000,-22.000000,-32.000000,38.000000
1306528.902117,11.000000,59.000000,55.000000,-29.000000,-7.000000,27.000000,-11.000000,-25.000000
1306528.932000,-11.000000,-90.000000,71.000000,-22.000000,32.000000,0.000000,-98.000000,-57.000000
1306528.932011,74.000000,107.000000,38.000000,127.000000,66.000000,21.000000,85.000000,50.000000
1306528.939443,2.000000,127.000000,-9.000000,-89.000000,-1.000000,-17.000000,-18.000000,15.000000
1306528.939454,-32.000000,0.000000,107.000000,127.000000,127.000000,54.000000,-35.000000,-39.000000
1306528.954708,-30.000000,-15.000000,-46.000000,-119.000000,-29.000000,-10.000000,35.000000,11.000000
1306528.954736,42.000000,24.000000,31.000000,66.000000,80.000000,-10.000000,-12.000000,22.000000
1306528.955347,32.000000,-23.000000,-33.000000,-55.000000,-51.000000,18.000000,-11.000000,-18.000000
1306528.955374,109.000000,52.000000,12.000000,10.000000,30.000000,-3.000000,-25.000000,-3.000000
1306528.956665,-128.000000,-128.000000,13.000000,-10.000000,-6.000000,6.000000,18.000000,36.000000
1306528.956680,-65.000000,90.000000,-77.000000,-128.000000,-46.000000,-36.000000,-38.000000,-56.000000
1306528.957285,2.000000,43.000000,86.000000,51.000000,20.000000,10.000000,34.000000,-2.000000
1306528.957303,66.000000,68.000000,3.000000,57.000000,5.000000,-6.000000,-3.000000,38.000000
1306528.958161,-71.000000,-23.000000,127.000000,87.000000,39.000000,25.000000,5.000000,-33.000000
1306528.958202,96.000000,-10.000000,-65.000000,-52.000000,2.000000,22.000000,73.000000,91.000000
1306528.961775,-12.000000,41.000000,49.000000,117.000000,14.000000,21.000000,-19.000000,-24.000000
1306528.961804,-55.000000,-74.000000,-102.000000,-128.000000,-43.000000,-31.000000,-18.000000,-31.000000
1306528.976801,21.000000,61.000000,29.000000,33.000000,-13.000000,11.000000,57.000000,37.000000
1306528.976811,30.000000,33.000000,39.000000,50.000000,64.000000,45.000000,-7.000000,30.000000
1306528.999337,-20.000000,-37.000000,-27.000000,-71.000000,0.000000,13.000000,-56.000000,-68.000000
1306528.999365,-63.000000,-33.000000,-54.000000,-52.000000,1.000000,-18.000000,16.000000,-33.000000
1306529.014634,41.000000,33.000000,42.000000,-87.000000,-45.000000,5.000000,52.000000,53.000000
1306529.014647,77.000000,8.000000,19.000000,127.000000,127.000000,27.000000,-7.000000,28.000000
1306529.022009,-26.000000,-19.000000,-104.000000,-52.000000,-30.000000,-11.000000,-46.000000,-32.000000
1306529.022019,-13.000000,28.000000,2.000000,-30.000000,50.000000,-7.000000,-40.000000,-30.000000
1306529.051809,21.000000,126.000000,-4.000000,127.000000,-29.000000,14.000000,5.000000,7.000000
1306529.051820,-54.000000,-81.000000,-46.000000,-30.000000,31.000000,12.000000,-17.000000,-17.000000
1306529.059314,-33.000000,-29.000000,40.000000,-25.000000,-67.000000,-36.000000,-31.000000,-30.000000
1306529.059326,-16.000000,-5.000000,2.000000,-1.000000,26.000000,15.000000,71.000000,18.000000
1306529.081692,86.000000,90.000000,-107.000000,-88.000000,-65.000000,-19.000000,16.000000,54.000000
1306529.081740,13.000000,59.000000,8.000000,73.000000,127.000000,51.000000,-86.000000,-41.000000
1306529.097069,21.000000,74.000000,127.000000,-8.000000,-36.000000,-13.000000,12.000000,7.000000
1306529.097080,30.000000,-94.000000,-98.000000,36.000000,67.000000,19.000000,-20.000000,4.000000
1306529.097871,-6.000000,-51.000000,9.000000,23.000000,-13.000000,-9.000000,3.000000,0.000000
1306529.097952,-86.000000,12.000000,-64.000000,-79.000000,-19.000000,17.000000,-28.000000,-43.000000
1306529.098499,-36.000000,-30.000000,-50.000000,12.000000,30.000000,-4.000000,24.000000,-2.000000
1306529.098547,81.000000,112.000000,64.000000,70.000000,7.000000,5.000000,-13.000000,-18.000000
1306529.099013,-128.000000,-128.000000,-68.000000,-81.000000,-15.000000,-24.000000,6.000000,-17.000000
1306529.099021,2.000000,16.000000,-33.000000,-113.000000,-42.000000,-36.000000,11.000000,4.000000
1306529.100744,58.000000,-17.000000,8.000000,125.000000,108.000000,9.000000,-59.000000,7.000000
1306529.100761,-56.000000,14.000000,92.000000,-102.000000,-74.000000,-27.000000,2.000000,-37.000000
1306529.119426,-6.000000,-65.000000,-114.000000,71.000000,78.000000,-1.000000,-20.000000,-12.000000
1306529.119437,18.000000,79.000000,-6.000000,-26.000000,-27.000000,-5.000000,12.000000,-21.000000
1306529.156855,-26.000000,-67.000000,31.000000,-48.000000,33.000000,14.000000,-10.000000,38.000000
1306529.156865,2.000000,4.000000,-56.000000,-57.000000,-116.000000,-37.000000,-17.000000,-28.000000
1306529.164217,-32.000000,-19.000000,37.000000,-115.000000,-68.000000,-7.000000,-54.000000,-34.000000
1306529.164254,1.000000,18.000000,47.000000,43.000000,32.000000,0.000000,-9.000000,-25.000000
1306529.172524,-5.000000,-9.000000,12.000000,-128.000000,-36.000000,-3.000000,46.000000,37.000000
1306529.172547,36.000000,-114.000000,13.000000,12.000000,60.000000,18.000000,17.000000,32.000000
1306529.173080,10.000000,56.000000,-16.000000,-90.000000,50.000000,-10.000000,-51.000000,-22.000000
1306529.173099,-11.000000,-19.000000,-31.000000,-33.000000,-18.000000,9.000000,-24.000000,-39.000000
1306529.174318,6.000000,43.000000,8.000000,0.000000,2.000000,3.000000,31.000000,16.000000
1306529.174335,30.000000,13.000000,-86.000000,-18.000000,9.000000,-1.000000,70.000000,40.000000
1306529.175680,8.000000,-2.000000,8.000000,-30.000000,8.000000,7.000000,-6.000000,47.000000
1306529.175687,-11.000000,29.000000,19.000000,116.000000,48.000000,32.000000,-46.000000,-31.000000
1306529.194221,-5.000000,-55.000000,-16.000000,-84.000000,-29.000000,-28.000000,4.000000,3.000000
1306529.194241,-5.000000,40.000000,116.000000,-32.000000,-63.000000,-15.000000,1.000000,-11.000000
1306529.195546,5.000000,65.000000,-58.000000,107.000000,43.000000,1.000000,-8.000000,-4.000000
1306529.195555,34.000000,-108.000000,40.000000,88.000000,56.000000,20.000000,-4.000000,6.000000
1306529.202151,39.000000,63.000000,-97.000000,-105.000000,-25.000000,-48.000000,-54.000000,6.000000
1306529.202163,-14.000000,56.000000,90.000000,-11.000000,60.000000,39.000000,26.000000,-13.000000
1306529.217486,87.000000,-76.000000,67.000000,53.000000,22.000000,10.000000,39.000000,44.000000
1306529.217497,-108.000000,-128.000000,-128.000000,-76.000000,-16.000000,-1.000000,-7.000000,-9.000000
1306529.232057,-13.000000,127.000000,33.000000,35.000000,-19.000000,19.000000,-128.000000,-93.000000
1306529.232159,57.000000,-40.000000,15.000000,61.000000,8.000000,-31.000000,127.000000,98.000000
1306529.233079,-55.000000,-90.000000,-128.000000,-28.000000,10.000000,3.000000,-68.000000,-19.000000
1306529.233099,40.000000,5.000000,69.000000,7.000000,17.000000,-7.000000,-49.000000,-12.000000
1306529.254684,-26.000000,-1.000000,45.000000,56.000000,-2.000000,6.000000,-20.000000,-26.000000
1306529.254720,-17.000000,-10.000000,-66.000000,-43.000000,-11.000000,-6.000000,-64.000000,-30.000000
1306529.284150,5.000000,-7.000000,43.000000,-37.000000,37.000000,17.000000,27.000000,6.000000
1306529.284160,61.000000,59.000000,-26.000000,40.000000,31.000000,13.000000,16.000000,27.000000
1306529.292001,-69.000000,-101.000000,57.000000,13.000000,-11.000000,-9.000000,-46.000000,-18.000000
1306529.292012,-68.000000,-32.000000,9.000000,39.000000,-47.000000,-7.000000,-30.000000,-36.000000
1306529.314352,33.000000,-12.000000,-53.000000,-114.000000,3.000000,-12.000000,13.000000,41.000000
1306529.314370,-6.000000,14.000000,42.000000,127.000000,-4.000000,5.000000,18.000000,32.000000
1306529.314779,48.000000,14.000000,-17.000000,-101.000000,-4.000000,4.000000,-13.000000,1.000000
1306529.314791,1.000000,-20.000000,-20.000000,19.000000,-21.000000,-10.000000,-20.000000,-18.000000
1306529.315964,-24.000000,-9.000000,2.000000,95.000000,22.000000,4.000000,-19.000000,-33.000000
1306529.316004,8.000000,-13.000000,18.000000,-57.000000,-6.000000,23.000000,14.000000,2.000000
1306529.316561,-12.000000,48.000000,-13.000000,-23.000000,41.000000,27.000000,18.000000,2.000000
1306529.316568,66.000000,37.000000,-47.000000,-93.000000,-51.000000,-9.000000,34.000000,25.000000
1306529.318192,43.000000,-31.000000,18.000000,88.000000,63.000000,13.000000,45.000000,38.000000
1306529.318207,-15.000000,-25.000000,57.000000,-4.000000,-9.000000,6.000000,-41.000000,0.000000
1306529.321899,16.000000,107.000000,42.000000,-47.000000,-35.000000,-25.000000,-52.000000,-54.000000
1306529.321913,-32.000000,11.000000,56.000000,0.000000,-50.000000,8.000000,-32.000000,-54.000000
1306529.336786,3.000000,-57.000000,-116.000000,-38.000000,-28.000000,-14.000000,18.000000,32.000000
1306529.336815,47.000000,35.000000,82.000000,33.000000,42.000000,15.000000,38.000000,47.000000
1306529.352192,-30.000000,-20.000000,-96.000000,21.000000,-54.000000,-59.000000,-93.000000,-35.000000
1306529.352210,16.000000,-15.000000,-14.000000,-10.000000,-24.000000,-9.000000,27.000000,4.000000
1306529.374312,-72.000000,-72.000000,9.000000,61.000000,-17.000000,-5.000000,-68.000000,-36.000000
1306529.374329,109.000000,77.000000,23.000000,-36.000000,10.000000,27.000000,99.000000,52.000000
1306529.396858,-96.000000,-87.000000,-13.000000,111.000000,31.000000,-17.000000,-22.000000,-48.000000
1306529.396871,61.000000,50.000000,62.000000,-80.000000,64.000000,34.000000,60.000000,46.000000
1306529.411936,64.000000,-26.000000,34.000000,121.000000,42.000000,-7.000000,2.000000,13.000000
1306529.411954,-39.000000,-30.000000,-37.000000,17.000000,29.000000,-1.000000,-49.000000,-39.000000
1306529.412343,12.000000,44.000000,59.000000,-27.000000,8.000000,16.000000,81.000000,19.000000
1306529.412365,-44.000000,-1.000000,-7.000000,-51.000000,-15.000000,24.000000,-6.000000,-31.000000
1306529.413423,-9.000000,-100.000000,-8.000000,18.000000,-62.000000,-34.000000,13.000000,20.000000
1306529.413457,7.000000,19.000000,-18.000000,13.000000,21.000000,2.000000,-34.000000,-17.000000
1306529.414030,-7.000000,-9.000000,10.000000,-100.000000,25.000000,5.000000,-6.000000,-6.000000
1306529.414039,-45.000000,62.000000,76.000000,127.000000,92.000000,27.000000,23.000000,0.000000
1306529.434580,-7.000000,17.000000,-101.000000,-77.000000,-13.000000,0.000000,-56.000000,-31.000000
1306529.434629,-8.000000,-22.000000,-99.000000,-63.000000,8.000000,-17.000000,50.000000,32.000000
1306529.435599,-48.000000,-43.000000,60.000000,46.000000,-29.000000,-17.000000,5.000000,33.000000
1306529.435607,72.000000,33.000000,63.000000,-21.000000,-9.000000,-5.000000,-31.000000,-15.000000
1306529.449298,0.000000,23.000000,-51.000000,-14.000000,-5.000000,-4.000000,-40.000000,-35.000000
1306529.449325,-40.000000,-15.000000,47.000000,8.000000,16.000000,-4.000000,-19.000000,-18.000000
1306529.456769,-10.000000,6.000000,12.000000,-2.000000,-2.000000,-2.000000,1.000000,-4.000000
1306529.456789,-40.000000,-29.000000,-47.000000,6.000000,1.000000,2.000000,-19.000000,-14.000000
1306529.471939,38.000000,96.000000,46.000000,32.000000,91.000000,8.000000,4.000000,2.000000
1306529.471968,19.000000,32.000000,20.000000,-51.000000,-46.000000,10.000000,17.000000,1.000000
1306529.494453,-15.000000,-103.000000,75.000000,127.000000,7.000000,-7.000000,-7.000000,19.000000
1306529.494503,47.000000,-128.000000,-55.000000,-82.000000,18.000000,-8.000000,38.000000,31.000000
1306529.509453,-14.000000,40.000000,-13.000000,-102.000000,-31.000000,12.000000,-32.000000,-55.000000
1306529.509464,-22.000000,6.000000,46.000000,123.000000,28.000000,27.000000,25.000000,41.000000
1306529.532081,5.000000,-30.000000,3.000000,21.000000,49.000000,4.000000,0.000000,-21.000000
1306529.532099,-8.000000,15.000000,-86.000000,-42.000000,34.000000,8.000000,-56.000000,-29.000000
1306529.532472,0.000000,-1.000000,60.000000,-12.000000,-3.000000,1.000000,-8.000000,-8.000000
1306529.532483,-24.000000,-58.000000,-2.000000,-58.000000,-8.000000,-25.000000,-49.000000,-21.000000
1306529.533512,-7.000000,-28.000000,-21.000000,12.000000,-34.000000,1.000000,52.000000,35.000000
1306529.533523,7.000000,-37.000000,81.000000,-14.000000,-62.000000,-26.000000,-17.000000,14.000000
1306529.534143,2.000000,39.000000,-19.000000,-61.000000,8.000000,-14.000000,-40.000000,-20.000000
1306529.534156,-33.000000,-9.000000,45.000000,-50.000000,-94.000000,-20.000000,-8.000000,-43.000000
1306529.535699,75.000000,-7.000000,13.000000,55.000000,48.000000,27.000000,74.000000,77.000000
1306529.535710,-33.000000,-17.000000,21.000000,-19.000000,-7.000000,-5.000000,-49.000000,-40.000000
1306529.554316,-75.000000,22.000000,-8.000000,-1.000000,-26.000000,-9.000000,19.000000,-24.000000
1306529.554338,45.000000,-102.000000,-16.000000,-77.000000,-22.000000,10.000000,27.000000,35.000000
1306529.555807,26.000000,38.000000,31.000000,127.000000,76.000000,0.000000,17.000000,6.000000
1306529.555824,-52.000000,9.000000,2.000000,-30.000000,1.000000,7.000000,-75.000000,-55.000000
1306529.569166,33.000000,-59.000000,-2.000000,-87.000000,-67.000000,-43.000000,13.000000,1.000000
1306529.569194,1.000000,-44.000000,24.000000,94.000000,33.000000,16.000000,-5.000000,37.000000
1306529.577070,-23.000000,29.000000,-39.000000,-70.000000,-21.000000,-13.000000,-32.000000,-29.000000
1306529.577081,-13.000000,-20.000000,4.000000,47.000000,-22.000000,7.000000,2.000000,-4.000000
1306529.591816,-37.000000,-6.000000,-3.000000,-32.000000,20.000000,-2.000000,-75.000000,-52.000000
1306529.591844,25.000000,102.000000,-82.000000,-61.000000,-27.000000,-6.000000,42.000000,3.000000
1306529.629340,35.000000,1.000000,127.000000,99.000000,42.000000,13.000000,44.000000,32.000000
1306529.629351,-21.000000,-20.000000,-60.000000,-22.000000,-31.000000,-17.000000,-41.000000,-34.000000
1306529.636667,-23.000000,32.000000,18.000000,-63.000000,-64.000000,-17.000000,-18.000000,-33.000000
1306529.636678,53.000000,49.000000,-4.000000,119.000000,72.000000,31.000000,68.000000,47.000000
1306529.652181,-45.000000,-85.000000,15.000000,-4.000000,1.000000,4.000000,-3.000000,-3.000000
1306529.652199,-21.000000,47.000000,7.000000,-1.000000,-20.000000,-13.000000,-29.000000,-21.000000
1306529.652861,3.000000,26.000000,4.000000,-88.000000,-29.000000,-29.000000,-26.000000,-23.000000
1306529.652869,-6.000000,38.000000,-8.000000,47.000000,10.000000,29.000000,36.000000,-2.000000
1306529.654125,25.000000,15.000000,7.000000,24.000000,66.000000,20.000000,90.000000,59.000000
1306529.654135,46.000000,1.000000,29.000000,-8.000000,3.000000,-3.000000,-21.000000,16.000000
1306529.654675,-3.000000,-10.000000,-37.000000,-128.000000,-63.000000,-19.000000,-39.000000,-32.000000
1306529.654683,1.000000,49.000000,102.000000,127.000000,127.000000,37.000000,23.000000,7.000000
1306529.674284,-32.000000,-72.000000,-92.000000,-57.000000,-11.000000,-12.000000,-11.000000,-12.000000
1306529.674314,21.000000,26.000000,-10.000000,-54.000000,-39.000000,-18.000000,-32.000000,-6.000000
1306529.674764,-39.000000,-71.000000,27.000000,48.000000,0.000000,5.000000,41.000000,4.000000
1306529.674775,32.000000,12.000000,7.000000,-25.000000,-20.000000,3.000000,26.000000,34.000000
1306529.676206,-25.000000,-12.000000,-8.000000,9.000000,9.000000,6.000000,-10.000000,-20.000000
1306529.676214,0.000000,37.000000,-27.000000,-15.000000,-16.000000,-14.000000,-128.000000,-64.000000
1306529.689486,4.000000,53.000000,18.000000,-110.000000,-48.000000,-25.000000,73.000000,0.000000
1306529.689500,56.000000,-92.000000,13.000000,127.000000,127.000000,39.000000,46.000000,82.000000
1306529.711870,-35.000000,14.000000,-28.000000,-73.000000,-22.000000,-9.000000,-57.000000,-39.000000
1306529.711879,9.000000,14.000000,-7.000000,-5.000000,-8.000000,-9.000000,-3.000000,-21.000000
1306529.719649,13.000000,49.000000,-14.000000,-68.000000,-8.000000,6.000000,6.000000,-12.000000
1306529.719660,19.000000,-52.000000,21.000000,127.000000,77.000000,12.000000,22.000000,11.000000
1306529.734437,-36.000000,-91.000000,-18.000000,-27.000000,-9.000000,-10.000000,-16.000000,-10.000000
1306529.734460,-17.000000,8.000000,-28.000000,-38.000000,-36.000000,-18.000000,-14.000000,-20.000000
1306529.749511,-45.000000,-15.000000,-4.000000,-60.000000,-26.000000,11.000000,-7.000000,-16.000000
1306529.749521,30.000000,6.000000,-37.000000,127.000000,29.000000,0.000000,15.000000,15.000000
1306529.786798,3.000000,-6.000000,5.000000,-37.000000,49.000000,8.000000,19.000000,5.000000
1306529.786813,-33.000000,-37.000000,-9.000000,-46.000000,-21.000000,-12.000000,-43.000000,-20.000000
1306529.787228,8.000000,44.000000,-29.000000,127.000000,-8.000000,7.000000,34.000000,-12.000000
1306529.787241,-7.000000,-72.000000,-33.000000,-45.000000,-11.000000,-2.000000,13.000000,42.000000
1306529.788634,-13.000000,42.000000,-21.000000,-22.000000,44.000000,9.000000,-22.000000,-31.000000
1306529.788674,6.000000,-24.000000,71.000000,-31.000000,-22.000000,-7.000000,6.000000,-31.000000
1306529.789463,7.000000,-36.000000,-33.000000,-25.000000,15.000000,12.000000,-11.000000,44.000000
1306529.789519,16.000000,69.000000,7.000000,20.000000,-37.000000,1.000000,-16.000000,-14.000000
1306529.790879,3.000000,28.000000,32.000000,19.000000,28.000000,-1.000000,-40.000000,-48.000000
1306529.790897,26.000000,28.000000,17.000000,66.000000,11.000000,28.000000,116.000000,87.000000
1306529.794418,-18.000000,-52.000000,-6.000000,-15.000000,-1.000000,-22.000000,-37.000000,13.000000
1306529.794427,-19.000000,10.000000,-59.000000,-51.000000,-32.000000,-1.000000,-88.000000,-60.000000
1306529.809527,23.000000,12.000000,1.000000,-66.000000,-4.000000,-13.000000,48.000000,14.000000
1306529.809545,22.000000,-4.000000,-17.000000,45.000000,16.000000,-5.000000,-22.000000,24.000000
1306529.832042,-40.000000,-26.000000,9.000000,102.000000,52.000000,11.000000,8.000000,-18.000000
1306529.832063,9.000000,49.000000,41.000000,28.000000,62.000000,14.000000,15.000000,14.000000
1306529.846874,-7.000000,-5.000000,-20.000000,-25.000000,-32.000000,-23.000000,-32.000000,-18.000000
1306529.846927,-17.000000,-15.000000,-2.000000,-22.000000,-44.000000,-15.000000,-37.000000,-37.000000
1306529.869305,24.000000,44.000000,9.000000,40.000000,8.000000,19.000000,72.000000,44.000000
1306529.869315,-15.000000,-10.000000,8.000000,26.000000,1.000000,9.000000,-26.000000,-13.000000
1306529.892206,64.000000,-31.000000,41.000000,-14.000000,4.000000,-19.000000,36.000000,52.000000
1306529.892405,2.000000,-41.000000,-99.000000,-112.000000,-48.000000,-15.000000,11.000000,23.000000
1306529.893024,-12.000000,31.000000,38.000000,61.000000,11.000000,2.000000,-54.000000,-28.000000
1306529.893092,-51.000000,6.000000,-24.000000,-37.000000,-2.000000,-3.000000,-15.000000,-41.000000
1306529.893712,29.000000,-3.000000,-18.000000,-22.000000,1.000000,-12.000000,5.000000,-3.000000
1306529.893724,-93.000000,-46.000000,49.000000,-5.000000,-91.000000,14.000000,8.000000,-58.000000
1306529.894712,37.000000,38.000000,-47.000000,14.000000,33.000000,4.000000,50.000000,58.000000
1306529.894721,10.000000,-24.000000,55.000000,-4.000000,-16.000000,-16.000000,-52.000000,-40.000000
1306529.906637,-49.000000,-40.000000,28.000000,-5.000000,-5.000000,-12.000000,-39.000000,-22.000000
1306529.906656,20.000000,22.000000,-128.000000,-102.000000,-36.000000,-7.000000,43.000000,7.000000
1306529.907172,36.000000,31.000000,123.000000,127.000000,127.000000,35.000000,3.000000,32.000000
1306529.907191,-37.000000,-47.000000,-2.000000,-26.000000,-20.000000,-6.000000,-7.000000,-11.000000
1306529.914247,4.000000,43.000000,16.000000,-27.000000,-15.000000,-12.000000,7.000000,-24.000000
1306529.914274,11.000000,19.000000,23.000000,-31.000000,-43.000000,-4.000000,12.000000,1.000000
1306529.929435,-27.000000,-5.000000,1.000000,-41.000000,-6.000000,-2.000000,-42.000000,-28.000000
1306529.929456,-1.000000,-44.000000,-86.000000,-41.000000,-65.000000,-24.000000,69.000000,20.000000
1306529.967036,12.000000,-16.000000,27.000000,113.000000,82.000000,18.000000,28.000000,68.000000
1306529.967047,-9.000000,-5.000000,-51.000000,-46.000000,-12.000000,-11.000000,-40.000000,-26.000000
1306529.989665,-17.000000,11.000000,-6.000000,-21.000000,-5.000000,-1.000000,-41.000000,-40.000000
1306529.989692,-22.000000,-26.000000,-10.000000,-27.000000,-34.000000,-26.000000,-19.000000,-18.000000
1306530.011723,10.000000,19.000000,26.000000,-1.000000,-2.000000,8.000000,26.000000,8.000000
1306530.011733,-19.000000,8.000000,-6.000000,48.000000,21.000000,4.000000,14.000000,5.000000
1306530.026836,1.000000,-34.000000,25.000000,17.000000,-2.000000,-5.000000,-23.000000,-7.000000
1306530.026847,-5.000000,-22.000000,-44.000000,-34.000000,10.000000,-2.000000,-20.000000,-11.000000
1306530.049916,-26.000000,25.000000,-18.000000,-85.000000,-20.000000,-5.000000,-96.000000,-52.000000
1306530.049926,32.000000,32.000000,21.000000,97.000000,-11.000000,17.000000,125.000000,49.000000
1306530.050475,-19.000000,-97.000000,23.000000,-2.000000,-1.000000,10.000000,7.000000,39.000000
1306530.050483,-23.000000,22.000000,11.000000,-45.000000,-19.000000,-12.000000,-78.000000,-34.000000
1306530.050985,3.000000,16.000000,-1.000000,-25.000000,-10.000000,-8.000000,-21.000000,13.000000
1306530.050992,-5.000000,1.000000,-11.000000,-57.000000,-31.000000,-13.000000,-25.000000,-4.000000
1306530.051629,-19.000000,-31.000000,-32.000000,-28.000000,-15.000000,3.000000,-20.000000,-9.000000
1306530.051637,-5.000000,-6.000000,37.000000,24.000000,11.000000,-1.000000,-4.000000,3.000000
1306530.052212,-22.000000,-34.000000,-48.000000,-30.000000,-46.000000,-27.000000,-24.000000,-17.000000
1306530.052220,-20.000000,13.000000,-25.000000,-3.000000,2.000000,1.000000,2.000000,-11.000000
1306530.053142,-14.000000,-32.000000,8.000000,-9.000000,-16.000000,-7.000000,-51.000000,-33.000000
1306530.053158,-16.000000,16.000000,21.000000,-11.000000,4.000000,-1.000000,17.000000,-14.000000
1306530.056979,43.000000,1.000000,0.000000,16.000000,3.000000,-1.000000,35.000000,63.000000
1306530.056990,-33.000000,-23.000000,-33.000000,9.000000,1.000000,2.000000,-59.000000,-35.000000
1306530.064542,41.000000,40.000000,20.000000,6.000000,20.000000,23.000000,55.000000,-8.000000
1306530.064553,12.000000,-3.000000,3.000000,68.000000,-8.000000,-4.000000,23.000000,60.000000
1306530.086892,-20.000000,-12.000000,-22.000000,-65.000000,-8.000000,-15.000000,-52.000000,-33.000000
1306530.086903,8.000000,28.000000,50.000000,110.000000,22.000000,3.000000,-22.000000,-17.000000
1306530.109469,36.000000,28.000000,-14.000000,17.000000,24.000000,6.000000,39.000000,35.000000
1306530.109478,8.000000,-7.000000,13.000000,1.000000,1.000000,-6.000000,-18.000000,-7.000000
1306530.124139,-60.000000,12.000000,-60.000000,-76.000000,-39.000000,-16.000000,-111.000000,-74.000000
1306530.124154,45.000000,13.000000,69.000000,103.000000,27.000000,6.000000,96.000000,53.000000
1306530.124791,35.000000,-7.000000,-23.000000,26.000000,10.000000,5.000000,11.000000,63.000000
1306530.124815,-17.000000,11.000000,-31.000000,-48.000000,-12.000000,2.000000,-28.000000,-32.000000
1306530.125949,-12.000000,4.000000,-4.000000,-1.000000,0.000000,-13.000000,-11.000000,-24.000000
1306530.125959,-24.000000,-25.000000,0.000000,-11.000000,-2.000000,-1.000000,-1.000000,-19.000000
1306530.126752,-3.000000,26.000000,17.000000,0.000000,0.000000,5.000000,24.000000,17.000000
1306530.126774,32.000000,-1.000000,-8.000000,-5.000000,8.000000,-7.000000,-37.000000,2.000000
1306530.146784,-22.000000,1.000000,13.000000,35.000000,19.000000,-3.000000,12.000000,-11.000000
1306530.146794,-1.000000,19.000000,39.000000,31.000000,-4.000000,11.000000,4.000000,18.000000
1306530.147149,6.000000,11.000000,-31.000000,90.000000,44.000000,10.000000,8.000000,-5.000000
1306530.147156,18.000000,8.000000,-2.000000,-72.000000,-49.000000,-13.000000,11.000000,12.000000
1306530.169446,-12.000000,-3.000000,-18.000000,-6.000000,-30.000000,-1.000000,1.000000,-8.000000
1306530.169543,-3.000000,-1.000000,0.000000,-30.000000,-10.000000,-5.000000,-16.000000,-13.000000
1306530.170767,0.000000,-8.000000,-29.000000,-9.000000,-4.000000,-15.000000,-10.000000,-27.000000
1306530.170785,-47.000000,-2.000000,46.000000,26.000000,-2.000000,13.000000,27.000000,13.000000
1306530.184420,63.000000,-24.000000,3.000000,20.000000,23.000000,12.000000,29.000000,42.000000
1306530.184481,-5.000000,-20.000000,-23.000000,-12.000000,-5.000000,-11.000000,-17.000000,-28.000000
1306530.207070,-30.000000,-30.000000,0.000000,-26.000000,-27.000000,-8.000000,-22.000000,-2.000000
1306530.207079,25.000000,24.000000,-19.000000,-38.000000,-11.000000,3.000000,19.000000,6.000000
1306530.229372,-26.000000,-14.000000,-12.000000,8.000000,32.000000,-4.000000,-17.000000,-21.000000
1306530.229382,-12.000000,52.000000,87.000000,74.000000,67.000000,24.000000,4.000000,1.000000
1306530.245195,19.000000,-17.000000,-39.000000,-9.000000,9.000000,-6.000000,-22.000000,5.000000
1306530.245220,6.000000,-3.000000,-12.000000,-21.000000,-28.000000,-17.000000,13.000000,35.000000
1306530.245622,-46.000000,-21.000000,-52.000000,-29.000000,-7.000000,-6.000000,-76.000000,-65.000000
1306530.245648,52.000000,38.000000,107.000000,111.000000,52.000000,18.000000,76.000000,34.000000
1306530.246738,4.000000,-20.000000,10.000000,26.000000,16.000000,-3.000000,-21.000000,25.000000
1306530.246765,-15.000000,-3.000000,-32.000000,-35.000000,-7.000000,-11.000000,-12.000000,-30.000000
1306530.247590,-10.000000,-32.000000,33.000000,13.000000,23.000000,4.000000,22.000000,-3.000000
1306530.247601,14.000000,6.000000,-51.000000,-35.000000,0.000000,6.000000,-4.000000,13.000000
1306530.267441,-9.000000,-3.000000,-15.000000,-20.000000,-15.000000,0.000000,-46.000000,-19.000000
1306530.267469,2.000000,30.000000,39.000000,-7.000000,18.000000,-10.000000,21.000000,6.000000
1306530.274420,28.000000,6.000000,67.000000,122.000000,41.000000,9.000000,5.000000,18.000000
1306530.274453,7.000000,-14.000000,-62.000000,-48.000000,-13.000000,-10.000000,-14.000000,-6.000000
1306530.281604,-12.000000,4.000000,-34.000000,-46.000000,-18.000000,-10.000000,-9.000000,-14.000000
1306530.281615,-2.000000,-10.000000,28.000000,7.000000,16.000000,-11.000000,-35.000000,-15.000000
1306530.282378,-4.000000,33.000000,3.000000,-105.000000,-56.000000,8.000000,-16.000000,-17.000000
1306530.282392,25.000000,10.000000,6.000000,25.000000,37.000000,13.000000,106.000000,89.000000
1306530.290044,11.000000,4.000000,-22.000000,41.000000,48.000000,-1.000000,-26.000000,-11.000000
1306530.290054,-11.000000,1.000000,-14.000000,-37.000000,-7.000000,1.000000,-37.000000,-36.000000
1306530.304708,29.000000,46.000000,11.000000,12.000000,-6.000000,20.000000,28.000000,21.000000
1306530.304717,-17.000000,3.000000,66.000000,16.000000,-2.000000,-13.000000,-39.000000,-11.000000
1306530.342149,12.000000,3.000000,-45.000000,-35.000000,3.000000,-4.000000,4.000000,-23.000000
1306530.342160,-7.000000,-24.000000,13.000000,-41.000000,-24.000000,-12.000000,-35.000000,-25.000000
1306530.349662,-42.000000,-68.000000,9.000000,68.000000,42.000000,-1.000000,27.000000,19.000000
1306530.349672,29.000000,4.000000,-75.000000,-20.000000,7.000000,-1.000000,-69.000000,-3.000000
1306530.401976,-18.000000,-14.000000,29.000000,-10.000000,6.000000,-4.000000,28.000000,-15.000000
1306530.402072,1.000000,-18.000000,48.000000,87.000000,26.000000,12.000000,32.000000,14.000000
1306530.402316,13.000000,-21.000000,-43.000000,-49.000000,-6.000000,1.000000,-1.000000,12.000000
1306530.402332,-8.000000,-2.000000,-12.000000,-40.000000,-46.000000,-13.000000,-14.000000,-16.000000
1306530.403526,-13.000000,-3.000000,25.000000,47.000000,-10.000000,-4.000000,-26.000000,-21.000000
1306530.403559,-17.000000,-61.000000,-42.000000,-75.000000,-46.000000,-31.000000,-4.000000,-7.000000
1306530.404488,-21.000000,26.000000,-24.000000,-14.000000,13.000000,6.000000,6.000000,-9.000000
1306530.404498,5.000000,-32.000000,24.000000,0.000000,-15.000000,2.000000,0.000000,8.000000
1306530.405728,-13.000000,-1.000000,-14.000000,25.000000,-20.000000,0.000000,-11.000000,-20.000000
1306530.405736,51.000000,16.000000,19.000000,127.000000,52.000000,25.000000,14.000000,30.000000
1306530.409961,6.000000,-39.000000,4.000000,10.000000,7.000000,7.000000,5.000000,15.000000
1306530.409983,-24.000000,9.000000,-6.000000,-1.000000,-5.000000,-9.000000,-10.000000,-20.000000
1306530.424483,-8.000000,-12.000000,-4.000000,-18.000000,15.000000,1.000000,2.000000,-1.000000
1306530.424492,-12.000000,8.000000,-21.000000,-9.000000,-3.000000,-6.000000,-4.000000,3.000000
1306530.447163,0.000000,-6.000000,12.000000,38.000000,17.000000,2.000000,-8.000000,-13.000000
1306530.447174,-2.000000,-4.000000,37.000000,93.000000,44.000000,3.000000,-5.000000,-1.000000
1306530.469292,-34.000000,-28.000000,-35.000000,-54.000000,-56.000000,-11.000000,-11.000000,-26.000000
1306530.469315,8.000000,-20.000000,-2.000000,-2.000000,-19.000000,-17.000000,-17.000000,2.000000
1306530.470308,-35.000000,17.000000,-17.000000,-21.000000,-7.000000,-12.000000,-7.000000,-20.000000
1306530.470327,87.000000,-13.000000,-60.000000,-71.000000,-43.000000,-12.000000,17.000000,31.000000
1306530.470911,-6.000000,26.000000,18.000000,-3.000000,-19.000000,3.000000,-4.000000,-6.000000
1306530.470955,-37.000000,-23.000000,7.000000,93.000000,13.000000,-10.000000,4.000000,-18.000000
1306530.472612,-19.000000,-2.000000,-5.000000,-6.000000,-22.000000,-15.000000,-20.000000,-26.000000
1306530.472662,-17.000000,-13.000000,-60.000000,-82.000000,-12.000000,4.000000,-14.000000,-17.000000
1306530.476647,10.000000,56.000000,13.000000,43.000000,32.000000,14.000000,35.000000,5.000000
1306530.476674,11.000000,-28.000000,29.000000,13.000000,18.000000,8.000000,10.000000,32.000000
1306530.506990,7.000000,-9.000000,-45.000000,-38.000000,-16.000000,-9.000000,-42.000000,-20.000000
1306530.507003,-40.000000,3.000000,31.000000,-16.000000,-2.000000,-5.000000,6.000000,-26.000000
1306530.507371,71.000000,4.000000,36.000000,127.000000,73.000000,33.000000,54.000000,70.000000
1306530.507380,14.000000,11.000000,19.000000,1.000000,11.000000,-6.000000,-15.000000,5.000000
1306530.509068,-20.000000,-6.000000,-35.000000,-107.000000,-35.000000,-4.000000,-8.000000,-11.000000
1306530.509079,-17.000000,2.000000,35.000000,33.000000,8.000000,11.000000,-24.000000,-26.000000
1306530.522255,27.000000,15.000000,-32.000000,6.000000,9.000000,5.000000,-13.000000,3.000000
1306530.522274,-14.000000,-61.000000,9.000000,-58.000000,-42.000000,-15.000000,43.000000,46.000000
1306530.544494,7.000000,-33.000000,15.000000,28.000000,34.000000,0.000000,-10.000000,2.000000
1306530.544519,-28.000000,-11.000000,-33.000000,-30.000000,-15.000000,-13.000000,-50.000000,-21.000000
1306530.559290,-6.000000,14.000000,-6.000000,-20.000000,-26.000000,-9.000000,-1.000000,-31.000000
1306530.559306,27.000000,6.000000,1.000000,21.000000,12.000000,-2.000000,37.000000,56.000000
1306530.581752,-6.000000,-5.000000,14.000000,-15.000000,-5.000000,1.000000,-2.000000,-12.000000
1306530.581780,-59.000000,16.000000,-3.000000,-20.000000,-21.000000,-7.000000,-37.000000,-48.000000
1306530.589531,54.000000,39.000000,-32.000000,41.000000,16.000000,17.000000,41.000000,40.000000
1306530.589542,-5.000000,-30.000000,-42.000000,-59.000000,11.000000,-16.000000,18.000000,0.000000
1306530.604771,12.000000,26.000000,74.000000,8.000000,-21.000000,13.000000,-13.000000,4.000000
1306530.604784,-2.000000,46.000000,43.000000,44.000000,28.000000,9.000000,-29.000000,-11.000000
1306530.605336,-35.000000,-41.000000,-71.000000,-73.000000,-29.000000,-19.000000,-14.000000,-17.000000
1306530.605343,50.000000,-15.000000,-22.000000,-38.000000,-2.000000,0.000000,21.000000,23.000000
1306530.606815,28.000000,40.000000,-2.000000,37.000000,13.000000,16.000000,4.000000,20.000000
1306530.606825,-8.000000,25.000000,29.000000,7.000000,9.000000,-2.000000,-4.000000,-5.000000
1306530.607746,4.000000,5.000000,6.000000,8.000000,-10.000000,-1.000000,-16.000000,3.000000
1306530.607755,-29.000000,4.000000,-18.000000,-13.000000,-6.000000,-10.000000,-35.000000,-39.000000
1306530.619777,15.000000,47.000000,25.000000,9.000000,9.000000,-6.000000,23.000000,20.000000
1306530.619796,13.000000,17.000000,-15.000000,9.000000,2.000000,5.000000,6.000000,11.000000
1306530.620457,24.000000,11.000000,61.000000,26.000000,14.000000,4.000000,-2.000000,8.000000
1306530.620466,-28.000000,-8.000000,-21.000000,28.000000,18.000000,-2.000000,-27.000000,-25.000000
1306530.627444,9.000000,4.000000,-4.000000,-3.000000,30.000000,-8.000000,-5.000000,11.000000
1306530.627453,-34.000000,-8.000000,-35.000000,-55.000000,-72.000000,-12.000000,-60.000000,-32.000000
1306530.641769,40.000000,32.000000,16.000000,100.000000,8.000000,10.000000,93.000000,70.000000
1306530.641779,7.000000,-14.000000,19.000000,1.000000,10.000000,0.000000,-40.000000,-2.000000
1306530.679379,-55.000000,-26.000000,-8.000000,20.000000,7.000000,-1.000000,-17.000000,-15.000000
1306530.679389,30.000000,27.000000,-28.000000,-63.000000,-24.000000,-11.000000,-12.000000,1.000000
1306530.686848,-6.000000,36.000000,26.000000,102.000000,38.000000,8.000000,-14.000000,-30.000000
1306530.686860,-19.000000,-4.000000,-23.000000,-85.000000,-58.000000,-24.000000,-7.000000,-4.000000
1306530.702297,33.000000,27.000000,40.000000,125.000000,80.000000,28.000000,36.000000,40.000000
1306530.702324,-17.000000,4.000000,-13.000000,-23.000000,5.000000,3.000000,-12.000000,-6.000000
1306530.703186,2.000000,22.000000,18.000000,-27.000000,-6.000000,-4.000000,5.000000,0.000000
1306530.703199,16.000000,-14.000000,-9.000000,15.000000,55.000000,7.000000,43.000000,36.000000
1306530.704319,6.000000,20.000000,15.000000,127.000000,23.000000,6.000000,-9.000000,-4.000000
1306530.704328,0.000000,21.000000,19.000000,-7.000000,26.000000,2.000000,-31.000000,-26.000000
1306530.705076,-31.000000,-34.000000,-11.000000,-21.000000,-28.000000,-13.000000,1.000000,-11.000000
1306530.705085,13.000000,5.000000,6.000000,-104.000000,-45.000000,-11.000000,20.000000,1.000000
1306530.724230,1.000000,-1.000000,11.000000,126.000000,22.000000,10.000000,7.000000,12.000000
1306530.724247,-1.000000,-11.000000,-13.000000,-11.000000,-5.000000,-8.000000,-12.000000,-4.000000
1306530.724933,-20.000000,12.000000,5.000000,-20.000000,-10.000000,-12.000000,-34.000000,-32.000000
1306530.724949,12.000000,-2.000000,-16.000000,-14.000000,-14.000000,27.000000,64.000000,55.000000
1306530.740115,9.000000,-4.000000,-7.000000,3.000000,26.000000,2.000000,-4.000000,13.000000
1306530.740135,-10.000000,-9.000000,-4.000000,-17.000000,4.000000,-3.000000,-18.000000,-13.000000
1306530.740671,-42.000000,-6.000000,-34.000000,-23.000000,-2.000000,-8.000000,-10.000000,-33.000000
1306530.740686,31.000000,38.000000,62.000000,62.000000,20.000000,9.000000,-7.000000,7.000000
1306530.747288,14.000000,-30.000000,-18.000000,-49.000000,-15.000000,-8.000000,-3.000000,11.000000
1306530.747298,-27.000000,-10.000000,27.000000,-59.000000,-32.000000,-1.000000,16.000000,-20.000000
1306530.761888,28.000000,58.000000,19.000000,111.000000,25.000000,9.000000,34.000000,54.000000
1306530.761919,-2.000000,-7.000000,-51.000000,-36.000000,-10.000000,-4.000000,-15.000000,-13.000000
1306530.821850,-17.000000,8.000000,26.000000,-27.000000,1.000000,3.000000,-13.000000,-21.000000
1306530.821863,0.000000,16.000000,-32.000000,-37.000000,-20.000000,-3.000000,-15.000000,-14.000000
1306530.822292,-9.000000,-13.000000,6.000000,17.000000,-19.000000,-10.000000,0.000000,-25.000000
1306530.822300,-9.000000,-7.000000,-11.000000,18.000000,-3.000000,7.000000,-3.000000,5.000000
1306530.823421,-5.000000,7.000000,50.000000,-15.000000,-20.000000,-18.000000,15.000000,-7.000000
1306530.823433,14.000000,-5.000000,-23.000000,-17.000000,-4.000000,8.000000,-10.000000,18.000000
1306530.823985,-7.000000,-7.000000,7.000000,-10.000000,-2.000000,-7.000000,-48.000000,-16.000000
1306530.823994,6.000000,45.000000,31.000000,19.000000,21.000000,12.000000,18.000000,-7.000000
1306530.825583,13.000000,-9.000000,36.000000,-54.000000,7.000000,-10.000000,-5.000000,36.000000
1306530.825611,-25.000000,13.000000,3.000000,-64.000000,-27.000000,-12.000000,-32.000000,-36.000000
1306530.830430,-8.000000,5.000000,-26.000000,-40.000000,-15.000000,-9.000000,-21.000000,-26.000000
1306530.830441,-8.000000,-79.000000,-14.000000,-10.000000,-13.000000,-11.000000,-9.000000,-6.000000
1306530.836921,-23.000000,-20.000000,-15.000000,3.000000,-7.000000,-4.000000,-8.000000,-16.000000
1306530.836934,-9.000000,8.000000,2.000000,5.000000,-1.000000,6.000000,-1.000000,-6.000000
1306530.859809,16.000000,11.000000,4.000000,42.000000,29.000000,-1.000000,12.000000,6.000000
1306530.859852,-51.000000,-45.000000,-51.000000,-128.000000,-128.000000,-35.000000,-32.000000,-33.000000
1306530.860588,66.000000,104.000000,98.000000,127.000000,127.000000,30.000000,72.000000,80.000000
1306530.860596,2.000000,-22.000000,-18.000000,-64.000000,-5.000000,-5.000000,2.000000,9.000000
1306530.882692,-9.000000,-27.000000,-25.000000,-50.000000,-9.000000,-12.000000,-14.000000,-15.000000
1306530.882721,-36.000000,-6.000000,-8.000000,-15.000000,-12.000000,5.000000,-18.000000,-30.000000
1306530.883256,51.000000,43.000000,25.000000,-9.000000,-12.000000,-2.000000,7.000000,16.000000
1306530.883285,-17.000000,-14.000000,-5.000000,-56.000000,-9.000000,1.000000,-9.000000,-17.000000
1306530.904249,2.000000,36.000000,10.000000,127.000000,41.000000,14.000000,11.000000,11.000000
1306530.904260,3.000000,-57.000000,8.000000,55.000000,12.000000,-4.000000,8.000000,-2.000000
1306530.919684,-4.000000,40.000000,7.000000,8.000000,-24.000000,-7.000000,-7.000000,-12.000000
1306530.919696,18.000000,5.000000,-23.000000,-12.000000,-7.000000,-11.000000,-8.000000,-8.000000
1306530.942491,-5.000000,8.000000,-10.000000,-16.000000,-20.000000,-11.000000,-9.000000,-14.000000
1306530.942500,-6.000000,-34.000000,3.000000,-9.000000,-5.000000,3.000000,18.000000,17.000000
1306530.942743,7.000000,-9.000000,-7.000000,-15.000000,1.000000,0.000000,-3.000000,-1.000000
1306530.942751,-5.000000,40.000000,4.000000,-8.000000,-11.000000,3.000000,-33.000000,-17.000000
1306530.944152,13.000000,26.000000,7.000000,20.000000,-18.000000,0.000000,75.000000,36.000000
1306530.944161,-4.000000,-90.000000,12.000000,19.000000,4.000000,-8.000000,-24.000000,16.000000
1306530.945143,9.000000,20.000000,-1.000000,-16.000000,-7.000000,1.000000,-32.000000,-14.000000
1306530.945170,-16.000000,-17.000000,-26.000000,4.000000,-2.000000,4.000000,-5.000000,-14.000000
1306530.957227,-8.000000,-23.000000,-13.000000,-22.000000,-5.000000,2.000000,-1.000000,-9.000000
1306530.957245,-15.000000,-21.000000,3.000000,-67.000000,11.000000,-2.000000,-13.000000,-12.000000
1306530.957981,-2.000000,25.000000,34.000000,127.000000,86.000000,23.000000,1.000000,8.000000
1306530.958008,45.000000,-1.000000,22.000000,19.000000,10.000000,-4.000000,-2.000000,21.000000
1306530.994381,-1.000000,13.000000,-33.000000,-39.000000,-12.000000,-6.000000,4.000000,-1.000000
1306530.994402,-29.000000,-50.000000,-34.000000,-104.000000,-51.000000,-12.000000,-25.000000,-23.000000
1306531.001794,-9.000000,5.000000,12.000000,68.000000,3.000000,-1.000000,32.000000,7.000000
1306531.001804,-2.000000,-65.000000,34.000000,59.000000,11.000000,-14.000000,-19.000000,3.000000
1306531.024687,-21.000000,4.000000,-21.000000,-83.000000,1.000000,-13.000000,-50.000000,-50.000000
1306531.024699,5.000000,-2.000000,-10.000000,40.000000,-30.000000,14.000000,40.000000,29.000000
1306531.039421,29.000000,-72.000000,3.000000,34.000000,48.000000,9.000000,6.000000,34.000000
1306531.039439,-17.000000,10.000000,-5.000000,-47.000000,-21.000000,-9.000000,-34.000000,-25.000000
1306531.076830,-10.000000,26.000000,-17.000000,-44.000000,-18.000000,-4.000000,2.000000,-28.000000
1306531.076841,48.000000,-1.000000,1.000000,2.000000,16.000000,8.000000,29.000000,54.000000
1306531.091835,-10.000000,16.000000,-1.000000,-5.000000,-10.000000,-6.000000,-24.000000,-11.000000
1306531.091864,-19.000000,6.000000,-21.000000,-33.000000,0.000000,-7.000000,-32.000000,-31.000000
1306531.099766,-9.000000,17.000000,23.000000,20.000000,-25.000000,0.000000,19.000000,2.000000
1306531.099782,1.000000,-55.000000,2.000000,42.000000,16.000000,4.000000,18.000000,10.000000
1306531.100871,30.000000,-5.000000,40.000000,31.000000,22.000000,11.000000,13.000000,49.000000
1306531.100880,1.000000,-39.000000,-44.000000,-25.000000,9.000000,-3.000000,-37.000000,-29.000000
1306531.101635,127.000000,68.000000,92.000000,127.000000,127.000000,36.000000,127.000000,127.000000
1306531.101654,1.000000,-25.000000,-43.000000,-124.000000,-32.000000,-19.000000,-30.000000,17.000000
1306531.115056,11.000000,-19.000000,-38.000000,-1.000000,-6.000000,-12.000000,3.000000,0.000000
1306531.115065,-41.000000,19.000000,47.000000,-87.000000,-35.000000,-13.000000,-36.000000,-37.000000
1306531.122068,32.000000,-13.000000,-39.000000,43.000000,40.000000,12.000000,-4.000000,6.000000
1306531.122081,19.000000,0.000000,36.000000,75.000000,31.000000,6.000000,31.000000,20.000000
1306531.159440,-20.000000,-34.000000,-40.000000,-44.000000,-14.000000,-6.000000,-16.000000,5.000000
1306531.159451,5.000000,1.000000,-7.000000,-51.000000,-5.000000,1.000000,-1.000000,-13.000000
1306531.174384,-6.000000,5.000000,11.000000,39.000000,-57.000000,-15.000000,53.000000,6.000000
1306531.174411,-10.000000,-27.000000,-10.000000,-25.000000,-4.000000,-3.000000,-12.000000,1.000000
1306531.175303,19.000000,4.000000,8.000000,31.000000,12.000000,2.000000,-27.000000,0.000000
1306531.175330,4.000000,24.000000,2.000000,-40.000000,-8.000000,-9.000000,15.000000,-10.000000
1306531.181675,-4.000000,16.000000,-5.000000,25.000000,12.000000,2.000000,2.000000,11.000000
1306531.181691,7.000000,-36.000000,-14.000000,-18.000000,11.000000,0.000000,17.000000,43.000000
1306531.219844,-5.000000,-2.000000,4.000000,-3.000000,-18.000000,-7.000000,-46.000000,-29.000000
1306531.219863,7.000000,23.000000,-24.000000,-67.000000,-13.000000,-4.000000,32.000000,12.000000
1306531.220660,12.000000,22.000000,26.000000,99.000000,39.000000,19.000000,1.000000,27.000000
1306531.220686,-44.000000,-33.000000,44.000000,-47.000000,-18.000000,-21.000000,-46.000000,-39.000000
1306531.221757,43.000000,55.000000,-29.000000,-21.000000,-21.000000,3.000000,22.000000,22.000000
1306531.221770,23.000000,-10.000000,23.000000,41.000000,25.000000,7.000000,8.000000,16.000000
1306531.222381,19.000000,-25.000000,-3.000000,33.000000,9.000000,1.000000,8.000000,21.000000
1306531.222391,-22.000000,-5.000000,-10.000000,-29.000000,-18.000000,-7.000000,0.000000,-13.000000
1306531.227563,14.000000,-25.000000,-14.000000,-9.000000,-26.000000,-1.000000,28.000000,24.000000
1306531.227592,-12.000000,-41.000000,-26.000000,-45.000000,-18.000000,-31.000000,-21.000000,-1.000000
1306531.256999,-17.000000,23.000000,18.000000,-35.000000,-59.000000,5.000000,-47.000000,-28.000000
1306531.257009,1.000000,8.000000,1.000000,48.000000,50.000000,4.000000,19.000000,-16.000000
1306531.294243,34.000000,-23.000000,-3.000000,-15.000000,-33.000000,2.000000,-4.000000,18.000000
1306531.294252,-23.000000,12.000000,9.000000,-9.000000,4.000000,-9.000000,7.000000,-8.000000
1306531.301973,20.000000,-13.000000,-9.000000,11.000000,7.000000,4.000000,0.000000,-2.000000
1306531.301983,11.000000,-3.000000,2.000000,17.000000,-12.000000,2.000000,14.000000,4.000000
1306531.340115,-24.000000,-25.000000,-28.000000,-106.000000,-38.000000,-15.000000,-7.000000,-12.000000
1306531.340126,43.000000,87.000000,113.000000,127.000000,51.000000,29.000000,37.000000,45.000000
1306531.340235,-8.000000,-69.000000,-92.000000,-78.000000,-5.000000,-10.000000,-21.000000,-6.000000
1306531.340256,-7.000000,-1.000000,13.000000,-56.000000,-34.000000,-6.000000,-5.000000,-11.000000
1306531.341072,8.000000,-26.000000,40.000000,-44.000000,-13.000000,2.000000,5.000000,-9.000000
1306531.341092,3.000000,13.000000,-14.000000,106.000000,21.000000,11.000000,33.000000,31.000000
1306531.342799,-10.000000,-10.000000,-14.000000,-128.000000,-72.000000,-5.000000,-1.000000,31.000000
1306531.342808,47.000000,20.000000,66.000000,126.000000,127.000000,32.000000,-36.000000,30.000000
1306531.354914,-1.000000,-22.000000,-84.000000,-6.000000,8.000000,-5.000000,2.000000,-13.000000
1306531.354924,-7.000000,-31.000000,4.000000,-119.000000,-51.000000,-10.000000,-35.000000,-5.000000
1306531.361725,16.000000,13.000000,67.000000,127.000000,50.000000,12.000000,41.000000,16.000000
1306531.361735,-14.000000,-58.000000,-40.000000,-86.000000,-15.000000,-12.000000,6.000000,8.000000
1306531.391977,9.000000,2.000000,4.000000,-49.000000,-40.000000,-12.000000,-17.000000,-28.000000
1306531.391988,-21.000000,29.000000,18.000000,19.000000,-2.000000,7.000000,-26.000000,1.000000
1306531.399581,41.000000,-22.000000,-39.000000,-32.000000,-4.000000,-4.000000,25.000000,22.000000
1306531.399592,4.000000,-12.000000,13.000000,37.000000,32.000000,12.000000,6.000000,29.000000
1306531.414654,-44.000000,6.000000,17.000000,-27.000000,-44.000000,-9.000000,-3.000000,-19.000000
1306531.414670,13.000000,-13.000000,-13.000000,-41.000000,0.000000,-5.000000,0.000000,-3.000000
1306531.415301,21.000000,0.000000,29.000000,15.000000,24.000000,11.000000,20.000000,-10.000000
1306531.415318,5.000000,-3.000000,53.000000,127.000000,123.000000,26.000000,30.000000,6.000000
1306531.416728,-39.000000,-48.000000,-79.000000,8.000000,-9.000000,-8.000000,-67.000000,-59.000000
1306531.416737,1.000000,35.000000,16.000000,-70.000000,-24.000000,-8.000000,63.000000,2.000000
1306531.436852,-21.000000,-36.000000,31.000000,-28.000000,0.000000,1.000000,1.000000,-7.000000
1306531.436861,13.000000,18.000000,-37.000000,32.000000,7.000000,4.000000,-20.000000,-14.000000
1306531.437735,2.000000,-11.000000,18.000000,-36.000000,-12.000000,-10.000000,27.000000,12.000000
1306531.437743,-13.000000,-20.000000,-22.000000,-34.000000,-22.000000,-20.000000,-28.000000,-30.000000
1306531.438913,-16.000000,8.000000,15.000000,60.000000,16.000000,15.000000,20.000000,4.000000
1306531.438923,27.000000,9.000000,-8.000000,29.000000,14.000000,15.000000,11.000000,16.000000
1306531.452727,-9.000000,-9.000000,2.000000,-73.000000,-34.000000,-22.000000,-19.000000,-27.000000
1306531.452737,8.000000,30.000000,32.000000,127.000000,107.000000,22.000000,6.000000,26.000000
1306531.459326,-5.000000,18.000000,59.000000,32.000000,-7.000000,3.000000,-14.000000,-7.000000
1306531.459344,-6.000000,-28.000000,-85.000000,-51.000000,-7.000000,-5.000000,6.000000,-1.000000
1306531.474883,-8.000000,10.000000,3.000000,-59.000000,-68.000000,-20.000000,-8.000000,-13.000000
1306531.474896,9.000000,27.000000,22.000000,62.000000,67.000000,10.000000,2.000000,7.000000
1306531.496909,-26.000000,-29.000000,18.000000,-12.000000,-32.000000,-9.000000,4.000000,-19.000000
1306531.496921,8.000000,10.000000,-2.000000,-40.000000,-18.000000,-5.000000,5.000000,4.000000
1306531.519327,15.000000,45.000000,-7.000000,-39.000000,9.000000,0.000000,17.000000,12.000000
1306531.519357,-6.000000,13.000000,11.000000,31.000000,-6.000000,-8.000000,-22.000000,-29.000000
1306531.526640,0.000000,-61.000000,-49.000000,-4.000000,17.000000,7.000000,69.000000,48.000000
1306531.526651,-8.000000,2.000000,10.000000,-48.000000,-20.000000,-5.000000,-8.000000,-11.000000
1306531.534712,-1.000000,23.000000,24.000000,11.000000,7.000000,2.000000,-7.000000,0.000000
1306531.534721,2.000000,-27.000000,-22.000000,-12.000000,-30.000000,-15.000000,12.000000,8.000000
1306531.535884,9.000000,3.000000,-10.000000,-15.000000,-1.000000,0.000000,-23.000000,-18.000000
1306531.535910,-5.000000,8.000000,-2.000000,-11.000000,-3.000000,1.000000,-11.000000,-13.000000
1306531.537469,0.000000,-11.000000,28.000000,7.000000,-2.000000,-1.000000,-8.000000,-9.000000
1306531.537508,-10.000000,6.000000,-4.000000,9.000000,-25.000000,5.000000,4.000000,-8.000000
1306531.549466,18.000000,30.000000,-1.000000,-24.000000,-4.000000,12.000000,15.000000,11.000000
1306531.549495,11.000000,0.000000,24.000000,28.000000,18.000000,-10.000000,9.000000,-7.000000
1306531.557587,53.000000,-29.000000,-3.000000,-8.000000,30.000000,23.000000,56.000000,69.000000
1306531.557596,-16.000000,-18.000000,-7.000000,-70.000000,-7.000000,-6.000000,-35.000000,-8.000000
1306531.571951,2.000000,14.000000,22.000000,127.000000,60.000000,13.000000,-4.000000,-9.000000
1306531.571974,-9.000000,-42.000000,-29.000000,-53.000000,-17.000000,-8.000000,-29.000000,-20.000000
1306531.573033,-16.000000,-2.000000,27.000000,3.000000,-5.000000,-14.000000,-6.000000,-18.000000
1306531.573061,4.000000,8.000000,-21.000000,-98.000000,-42.000000,7.000000,27.000000,17.000000
1306531.579626,24.000000,-10.000000,-3.000000,73.000000,24.000000,20.000000,42.000000,34.000000
1306531.579636,-4.000000,-13.000000,-18.000000,-42.000000,-10.000000,-20.000000,-9.000000,5.000000
1306531.595226,-16.000000,21.000000,41.000000,-67.000000,-52.000000,-2.000000,-68.000000,-43.000000
1306531.595244,11.000000,14.000000,-3.000000,127.000000,67.000000,13.000000,45.000000,18.000000
1306531.616914,3.000000,-23.000000,-28.000000,-44.000000,-8.000000,-2.000000,16.000000,43.000000
1306531.616929,-32.000000,-20.000000,-22.000000,-28.000000,-10.000000,-14.000000,-46.000000,-35.000000
1306531.632152,14.000000,8.000000,-11.000000,-32.000000,-11.000000,7.000000,24.000000,-15.000000
1306531.632163,-5.000000,-34.000000,20.000000,81.000000,15.000000,3.000000,5.000000,16.000000
1306531.654390,-9.000000,-15.000000,39.000000,-8.000000,-11.000000,-13.000000,-6.000000,1.000000
1306531.654409,-22.000000,-6.000000,-128.000000,-40.000000,3.000000,-1.000000,-23.000000,-27.000000
1306531.677157,-15.000000,-16.000000,47.000000,-36.000000,-5.000000,-1.000000,2.000000,-7.000000
1306531.677168,22.000000,41.000000,117.000000,71.000000,18.000000,25.000000,-1.000000,10.000000
1306531.691883,-1.000000,-6.000000,-46.000000,8.000000,6.000000,-22.000000,6.000000,2.000000
1306531.691912,-14.000000,-21.000000,1.000000,-64.000000,7.000000,4.000000,-19.000000,-7.000000
1306531.693059,20.000000,1.000000,8.000000,69.000000,35.000000,29.000000,-1.000000,1.000000
1306531.693068,10.000000,10.000000,6.000000,-22.000000,-7.000000,-1.000000,24.000000,17.000000
1306531.693586,-16.000000,-19.000000,-40.000000,-24.000000,-7.000000,-9.000000,-21.000000,-13.000000
1306531.693597,-28.000000,-15.000000,-41.000000,-66.000000,2.000000,3.000000,-78.000000,-33.000000
1306531.694803,5.000000,12.000000,1.000000,-78.000000,0.000000,8.000000,-37.000000,-24.000000
1306531.694872,26.000000,0.000000,43.000000,125.000000,37.000000,19.000000,41.000000,39.000000
1306531.699395,43.000000,36.000000,36.000000,-9.000000,-2.000000,9.000000,75.000000,29.000000
1306531.699405,-4.000000,-55.000000,10.000000,-5.000000,13.000000,-8.000000,-50.000000,28.000000
1306531.729536,-14.000000,-18.000000,-57.000000,-89.000000,-40.000000,6.000000,21.000000,-61.000000
1306531.729546,-46.000000,-1.000000,5.000000,-18.000000,-19.000000,-9.000000,-5.000000,29.000000
1306531.736799,76.000000,-13.000000,2.000000,53.000000,8.000000,0.000000,-1.000000,33.000000
1306531.736809,-46.000000,8.000000,8.000000,-97.000000,-42.000000,0.000000,-56.000000,-44.000000
1306531.774218,22.000000,-1.000000,-27.000000,-89.000000,-20.000000,-8.000000,94.000000,61.000000
1306531.774229,8.000000,0.000000,77.000000,127.000000,49.000000,15.000000,-43.000000,19.000000
1306531.774617,-69.000000,15.000000,-76.000000,-48.000000,-15.000000,-4.000000,-54.000000,-74.000000
1306531.774625,66.000000,-13.000000,60.000000,-84.000000,-30.000000,-18.000000,99.000000,54.000000
1306531.775952,64.000000,-36.000000,-38.000000,50.000000,-4.000000,-5.000000,-86.000000,9.000000
1306531.775961,-4.000000,62.000000,5.000000,-22.000000,-8.000000,8.000000,127.000000,74.000000
1306531.776694,13.000000,-68.000000,13.000000,20.000000,5.000000,6.000000,-49.000000,64.000000
1306531.776702,-22.000000,17.000000,-19.000000,-23.000000,5.000000,5.000000,-58.000000,-74.000000
1306531.778234,-19.000000,57.000000,42.000000,127.000000,38.000000,9.000000,-1.000000,-23.000000
1306531.778243,-5.000000,-13.000000,-36.000000,35.000000,24.000000,7.000000,-7.000000,-17.000000
1306531.789239,-35.000000,-23.000000,-42.000000,-61.000000,-30.000000,-16.000000,-47.000000,-35.000000
1306531.789262,21.000000,19.000000,26.000000,-13.000000,-4.000000,-2.000000,22.000000,18.000000
1306531.790438,-8.000000,-15.000000,-67.000000,-87.000000,-8.000000,-2.000000,-12.000000,16.000000
1306531.790446,7.000000,7.000000,29.000000,58.000000,18.000000,-4.000000,3.000000,6.000000
1306531.811982,-12.000000,10.000000,-8.000000,-128.000000,-55.000000,5.000000,0.000000,-7.000000
1306531.811993,-18.000000,-33.000000,-5.000000,-2.000000,-4.000000,-7.000000,-7.000000,1.000000
1306531.834350,-4.000000,-32.000000,-93.000000,-52.000000,-16.000000,-14.000000,-82.000000,-15.000000
1306531.834366,6.000000,2.000000,19.000000,-78.000000,-7.000000,-2.000000,63.000000,-20.000000
1306531.857146,9.000000,-16.000000,-22.000000,36.000000,-23.000000,-9.000000,-34.000000,24.000000
1306531.857157,-36.000000,23.000000,14.000000,72.000000,42.000000,2.000000,5.000000,-28.000000
1306531.894399,61.000000,-25.000000,-17.000000,-5.000000,26.000000,9.000000,5.000000,39.000000
1306531.894412,-18.000000,0.000000,22.000000,1.000000,-6.000000,0.000000,-18.000000,-27.000000
1306531.894906,-3.000000,32.000000,-58.000000,27.000000,-7.000000,-4.000000,-27.000000,-33.000000
1306531.894925,-11.000000,7.000000,27.000000,0.000000,-4.000000,-13.000000,32.000000,-5.000000
1306531.895907,-11.000000,-34.000000,-38.000000,-37.000000,-44.000000,5.000000,-19.000000,12.000000
1306531.895916,9.000000,14.000000,52.000000,41.000000,64.000000,9.000000,25.000000,-14.000000
1306531.896873,17.000000,-20.000000,-84.000000,16.000000,-10.000000,-1.000000,25.000000,65.000000
1306531.896894,-12.000000,28.000000,-11.000000,81.000000,-19.000000,14.000000,-3.000000,8.000000
1306531.897435,17.000000,13.000000,73.000000,-49.000000,-15.000000,1.000000,-10.000000,8.000000
1306531.897448,-4.000000,12.000000,-24.000000,-23.000000,-9.000000,-7.000000,24.000000,-30.000000
1306531.909250,23.000000,2.000000,101.000000,38.000000,36.000000,2.000000,23.000000,3.000000
1306531.909260,-21.000000,-7.000000,-95.000000,4.000000,13.000000,-4.000000,-33.000000,-22.000000
1306531.910568,-4.000000,2.000000,10.000000,-34.000000,-46.000000,-26.000000,-52.000000,-28.000000
1306531.910576,-1.000000,-5.000000,-4.000000,-23.000000,14.000000,1.000000,18.000000,-67.000000
1306531.931851,18.000000,-30.000000,8.000000,23.000000,2.000000,6.000000,30.000000,73.000000
1306531.931866,-30.000000,-45.000000,-45.000000,-63.000000,-23.000000,-35.000000,-72.000000,-47.000000
1306531.933492,-10.000000,36.000000,4.000000,-40.000000,-51.000000,8.000000,34.000000,5.000000
1306531.933516,1.000000,-17.000000,20.000000,91.000000,90.000000,12.000000,-9.000000,4.000000
1306531.939756,-17.000000,30.000000,-22.000000,-128.000000,-43.000000,-18.000000,-11.000000,-16.000000
1306531.939767,42.000000,-9.000000,-12.000000,127.000000,74.000000,23.000000,-1.000000,8.000000
1306531.954576,-2.000000,19.000000,17.000000,-55.000000,-30.000000,2.000000,17.000000,-34.000000
1306531.954596,-15.000000,-50.000000,14.000000,-16.000000,-8.000000,-8.000000,29.000000,56.000000
1306531.961837,6.000000,10.000000,-57.000000,-47.000000,-6.000000,-5.000000,-7.000000,5.000000
1306531.961848,-15.000000,-14.000000,-47.000000,-20.000000,5.000000,-4.000000,-9.000000,-21.000000
1306531.977042,10.000000,-3.000000,-53.000000,3.000000,2.000000,15.000000,-14.000000,8.000000
1306531.977067,5.000000,19.000000,-46.000000,5.000000,6.000000,12.000000,6.000000,-3.000000
1306531.992178,3.000000,2.000000,93.000000,-1.000000,-11.000000,-4.000000,30.000000,23.000000
1306531.992197,-22.000000,-37.000000,-45.000000,3.000000,-11.000000,-11.000000,-47.000000,-21.000000
1306532.014469,8.000000,1.000000,-10.000000,-25.000000,6.000000,-12.000000,-33.000000,-33.000000
1306532.014487,19.000000,9.000000,16.000000,6.000000,9.000000,30.000000,63.000000,69.000000
1306532.021929,6.000000,19.000000,24.000000,68.000000,45.000000,7.000000,-9.000000,-15.000000
1306532.021940,-17.000000,33.000000,31.000000,34.000000,43.000000,24.000000,-14.000000,-33.000000
1306532.029493,-18.000000,-47.000000,31.000000,-39.000000,-70.000000,-40.000000,-21.000000,-32.000000
1306532.029503,24.000000,37.000000,-128.000000,-22.000000,-51.000000,-1.000000,34.000000,39.000000
1306532.029893,7.000000,2.000000,29.000000,111.000000,86.000000,3.000000,-48.000000,16.000000
1306532.029909,-12.000000,-2.000000,57.000000,-17.000000,-12.000000,5.000000,39.000000,0.000000
1306532.031151,-74.000000,-60.000000,-93.000000,-101.000000,-77.000000,-19.000000,3.000000,-4.000000
1306532.031159,109.000000,81.000000,74.000000,110.000000,80.000000,25.000000,42.000000,76.000000
1306532.052692,19.000000,20.000000,104.000000,78.000000,0.000000,-11.000000,-46.000000,27.000000
1306532.052724,-22.000000,-47.000000,-89.000000,11.000000,-12.000000,-11.000000,12.000000,-44.000000
1306532.053540,-32.000000,-10.000000,33.000000,-63.000000,-9.000000,-3.000000,-57.000000,-13.000000
1306532.053547,23.000000,53.000000,-17.000000,85.000000,79.000000,23.000000,84.000000,-4.000000
1306532.066797,-23.000000,-88.000000,-52.000000,-65.000000,-39.000000,-18.000000,-46.000000,-4.000000
1306532.066854,-41.000000,19.000000,-9.000000,-15.000000,-15.000000,6.000000,0.000000,-22.000000
1306532.074478,76.000000,38.000000,21.000000,-34.000000,4.000000,3.000000,-17.000000,54.000000
1306532.074495,-13.000000,-19.000000,96.000000,50.000000,-17.000000,11.000000,28.000000,-20.000000
1306532.089519,-15.000000,-27.000000,-89.000000,-9.000000,-12.000000,-8.000000,-44.000000,-39.000000
1306532.089530,-29.000000,2.000000,-48.000000,-128.000000,-80.000000,-23.000000,41.000000,-21.000000
1306532.126791,91.000000,42.000000,51.000000,127.000000,66.000000,35.000000,97.000000,125.000000
1306532.126803,2.000000,-12.000000,-19.000000,-24.000000,1.000000,-11.000000,-18.000000,19.000000
1306532.134112,-30.000000,-41.000000,-9.000000,-52.000000,-45.000000,-19.000000,-39.000000,-50.000000
1306532.134125,-8.000000,-12.000000,-14.000000,-74.000000,-92.000000,-18.000000,-10.000000,1.000000
1306532.135254,-18.000000,39.000000,0.000000,-5.000000,-20.000000,2.000000,0.000000,-10.000000
1306532.135285,8.000000,-27.000000,44.000000,87.000000,7.000000,-19.000000,-6.000000,7.000000
1306532.136187,-19.000000,-12.000000,7.000000,-44.000000,-63.000000,-28.000000,-21.000000,-25.000000
1306532.136220,-1.000000,12.000000,-67.000000,51.000000,5.000000,16.000000,-10.000000,-13.000000
1306532.137472,8.000000,15.000000,12.000000,41.000000,47.000000,5.000000,16.000000,5.000000
1306532.137499,10.000000,-24.000000,-5.000000,-9.000000,-23.000000,-12.000000,11.000000,28.000000
1306532.149402,-8.000000,-27.000000,-17.000000,8.000000,-91.000000,-23.000000,-25.000000,-16.000000
1306532.149433,-6.000000,4.000000,12.000000,-20.000000,39.000000,11.000000,-9.000000,-16.000000
1306532.150675,-19.000000,-18.000000,-29.000000,-39.000000,-42.000000,-1.000000,-30.000000,-18.000000
1306532.150684,7.000000,44.000000,41.000000,62.000000,19.000000,10.000000,34.000000,-1.000000
1306532.179337,6.000000,-46.000000,62.000000,24.000000,9.000000,-5.000000,30.000000,21.000000
1306532.179352,-2.000000,-16.000000,-89.000000,-62.000000,-7.000000,-8.000000,-28.000000,-32.000000
1306532.209326,12.000000,43.000000,45.000000,56.000000,6.000000,6.000000,17.000000,35.000000
1306532.209337,-5.000000,-7.000000,-8.000000,-18.000000,-15.000000,-12.000000,-14.000000,-5.000000
1306532.224182,-27.000000,-1.000000,47.000000,0.000000,-14.000000,-10.000000,-12.000000,-44.000000
1306532.224192,19.000000,12.000000,-59.000000,-37.000000,-16.000000,-6.000000,10.000000,20.000000
1306532.246998,-2.000000,27.000000,77.000000,-24.000000,-6.000000,0.000000,-50.000000,-16.000000
1306532.247021,-5.000000,-41.000000,-71.000000,-51.000000,-18.000000,-26.000000,34.000000,-17.000000
1306532.269802,34.000000,11.000000,-43.000000,81.000000,26.000000,21.000000,27.000000,50.000000
1306532.269840,-3.000000,-22.000000,45.000000,-16.000000,-25.000000,-18.000000,-32.000000,2.000000
1306532.284696,-24.000000,-7.000000,-7.000000,-88.000000,-40.000000,-16.000000,-19.000000,-30.000000
1306532.284706,23.000000,16.000000,15.000000,74.000000,14.000000,24.000000,58.000000,45.000000
1306532.285459,-19.000000,-19.000000,22.000000,15.000000,1.000000,9.000000,-8.000000,-10.000000
1306532.285470,-37.000000,-12.000000,-12.000000,-12.000000,6.000000,-5.000000,-39.000000,-30.000000
1306532.286145,-12.000000,0.000000,-33.000000,-107.000000,-59.000000,0.000000,-1.000000,-30.000000
1306532.286157,-4.000000,27.000000,81.000000,127.000000,90.000000,28.000000,30.000000,8.000000
1306532.287306,-11.000000,-14.000000,-18.000000,-43.000000,-54.000000,-12.000000,-7.000000,-26.000000
1306532.287324,-10.000000,-10.000000,-8.000000,-87.000000,-26.000000,-1.000000,-14.000000,-6.000000
1306532.288362,-24.000000,-41.000000,-85.000000,-21.000000,-16.000000,-11.000000,-21.000000,-19.000000
1306532.288372,-19.000000,6.000000,13.000000,-31.000000,1.000000,11.000000,2.000000,-14.000000
1306532.291936,26.000000,-3.000000,-7.000000,-23.000000,-10.000000,-19.000000,-22.000000,-25.000000
1306532.291982,15.000000,-11.000000,26.000000,-108.000000,-46.000000,-12.000000,19.000000,40.000000
1306532.299412,1.000000,15.000000,-9.000000,127.000000,77.000000,37.000000,3.000000,-2.000000
1306532.299442,-3.000000,-11.000000,-12.000000,-78.000000,-15.000000,-10.000000,-24.000000,-21.000000
1306532.329628,11.000000,39.000000,1.000000,-47.000000,-68.000000,-8.000000,-6.000000,26.000000
1306532.329638,-1.000000,-24.000000,17.000000,25.000000,18.000000,0.000000,1.000000,-18.000000
1306532.344339,-12.000000,2.000000,-3.000000,-27.000000,-12.000000,-19.000000,-61.000000,-9.000000
1306532.344349,-13.000000,8.000000,-30.000000,-47.000000,-49.000000,10.000000,59.000000,-14.000000
1306532.367017,26.000000,-6.000000,47.000000,-6.000000,0.000000,6.000000,69.000000,56.000000
1306532.367035,29.000000,-3.000000,-2.000000,-10.000000,-4.000000,9.000000,-9.000000,1.000000
1306532.374626,-23.000000,-25.000000,7.000000,-14.000000,-4.000000,-17.000000,-33.000000,-22.000000
1306532.374637,-36.000000,6.000000,-102.000000,-107.000000,-34.000000,9.000000,-5.000000,-50.000000
1306532.390225,32.000000,-11.000000,55.000000,58.000000,27.000000,13.000000,90.000000,60.000000
1306532.390246,-10.000000,-25.000000,48.000000,1.000000,-1.000000,-13.000000,-35.000000,-17.000000
1306532.390879,-9.000000,-21.000000,-29.000000,-54.000000,-14.000000,-5.000000,-20.000000,-17.000000
1306532.391063,-14.000000,10.000000,5.000000,-40.000000,-29.000000,-1.000000,-7.000000,-15.000000
1306532.391781,17.000000,9.000000,1.000000,34.000000,38.000000,8.000000,6.000000,10.000000
1306532.391803,4.000000,-9.000000,4.000000,-14.000000,-3.000000,-5.000000,0.000000,3.000000
1306532.392393,-18.000000,-21.000000,-22.000000,-62.000000,-12.000000,-3.000000,-66.000000,-29.000000
1306532.392402,14.000000,40.000000,87.000000,127.000000,61.000000,14.000000,63.000000,1.000000
1306532.404296,-2.000000,6.000000,-8.000000,-43.000000,-23.000000,11.000000,-3.000000,-27.000000
1306532.404307,1.000000,6.000000,-13.000000,28.000000,22.000000,4.000000,86.000000,32.000000
1306532.411575,34.000000,11.000000,-11.000000,58.000000,-23.000000,8.000000,-9.000000,26.000000
1306532.411589,-3.000000,-9.000000,18.000000,-8.000000,-3.000000,11.000000,-11.000000,-4.000000
1306532.419197,15.000000,49.000000,14.000000,-43.000000,-4.000000,-2.000000,18.000000,9.000000
1306532.419225,0.000000,-39.000000,-14.000000,-17.000000,-5.000000,-10.000000,2.000000,-10.000000
1306532.449513,-14.000000,-17.000000,-8.000000,-47.000000,-7.000000,7.000000,-55.000000,-22.000000
1306532.449525,-20.000000,-5.000000,18.000000,9.000000,31.000000,1.000000,-85.000000,-33.000000
1306532.456935,30.000000,18.000000,-27.000000,-59.000000,-36.000000,4.000000,100.000000,29.000000
1306532.456946,38.000000,11.000000,56.000000,127.000000,62.000000,36.000000,87.000000,124.000000
1306532.487070,-9.000000,-32.000000,-8.000000,-95.000000,-30.000000,-11.000000,-42.000000,-28.000000
1306532.487082,-31.000000,2.000000,-41.000000,-39.000000,4.000000,-8.000000,-40.000000,-37.000000
1306532.487437,-12.000000,20.000000,38.000000,-128.000000,-60.000000,-11.000000,-13.000000,-17.000000
1306532.487446,27.000000,23.000000,58.000000,127.000000,127.000000,40.000000,18.000000,12.000000
1306532.488343,-31.000000,-29.000000,-42.000000,-50.000000,-20.000000,-16.000000,-25.000000,-26.000000
1306532.488352,14.000000,-9.000000,-1.000000,-10.000000,-7.000000,-10.000000,-13.000000,-2.000000
1306532.489166,-13.000000,-8.000000,-24.000000,-128.000000,-55.000000,2.000000,1.000000,-31.000000
1306532.489182,21.000000,4.000000,51.000000,127.000000,109.000000,27.000000,74.000000,61.000000
1306532.494219,-12.000000,-43.000000,-11.000000,-32.000000,-23.000000,-13.000000,-48.000000,-8.000000
1306532.494247,-4.000000,26.000000,17.000000,-28.000000,10.000000,-1.000000,-47.000000,-13.000000
1306532.501710,15.000000,-11.000000,-31.000000,-12.000000,-6.000000,1.000000,60.000000,33.000000
1306532.501719,-1.000000,-14.000000,0.000000,18.000000,-18.000000,3.000000,-36.000000,-4.000000
1306532.524317,-20.000000,-13.000000,5.000000,7.000000,15.000000,2.000000,-6.000000,5.000000
1306532.524346,-22.000000,-10.000000,-21.000000,5.000000,-21.000000,-8.000000,-31.000000,-45.000000
1306532.524775,-5.000000,6.000000,-14.000000,-40.000000,-30.000000,-15.000000,-11.000000,-11.000000
1306532.524784,3.000000,-43.000000,41.000000,103.000000,79.000000,11.000000,-28.000000,-6.000000
1306532.539223,12.000000,-13.000000,-7.000000,-19.000000,-3.000000,5.000000,4.000000,39.000000
1306532.539240,7.000000,-1.000000,-36.000000,-81.000000,-45.000000,-15.000000,50.000000,32.000000
1306532.547366,-26.000000,-4.000000,14.000000,-41.000000,-50.000000,-12.000000,-17.000000,-4.000000
1306532.547421,16.000000,14.000000,-29.000000,85.000000,59.000000,7.000000,9.000000,8.000000
1306532.570030,-26.000000,-20.000000,-20.000000,-105.000000,-24.000000,-16.000000,-28.000000,-45.000000
1306532.570041,38.000000,56.000000,28.000000,-35.000000,-24.000000,3.000000,-23.000000,23.000000
1306532.584254,-12.000000,-28.000000,-15.000000,-31.000000,4.000000,-4.000000,30.000000,-23.000000
1306532.584264,26.000000,-1.000000,-9.000000,-6.000000,1.000000,-2.000000,-2.000000,21.000000
1306532.621862,-19.000000,-26.000000,-96.000000,-114.000000,-35.000000,-13.000000,-26.000000,-27.000000
1306532.621894,5.000000,36.000000,87.000000,77.000000,3.000000,20.000000,48.000000,26.000000
1306532.622527,19.000000,-48.000000,-49.000000,-26.000000,17.000000,-1.000000,8.000000,24.000000
1306532.622554,-12.000000,4.000000,20.000000,-72.000000,-15.000000,-8.000000,-28.000000,-26.000000
1306532.623460,-17.000000,-3.000000,-60.000000,-32.000000,-38.000000,-11.000000,-27.000000,-26.000000
1306532.623467,10.000000,10.000000,-8.000000,-17.000000,-3.000000,-3.000000,9.000000,18.000000
1306532.624375,9.000000,-9.000000,8.000000,52.000000,14.000000,6.000000,-5.000000,13.000000
1306532.624414,-14.000000,1.000000,34.000000,-13.000000,-3.000000,2.000000,10.000000,-50.000000
1306532.625752,-21.000000,-22.000000,-47.000000,-29.000000,2.000000,-9.000000,-17.000000,-50.000000
1306532.625760,51.000000,-1.000000,79.000000,-42.000000,-24.000000,34.000000,66.000000,86.000000
1306532.644126,-28.000000,-51.000000,-31.000000,-7.000000,44.000000,2.000000,-44.000000,-27.000000
1306532.644140,-19.000000,-2.000000,-23.000000,-69.000000,-24.000000,-19.000000,-28.000000,-26.000000
1306532.644649,1.000000,5.000000,2.000000,-120.000000,-32.000000,0.000000,-44.000000,-24.000000
1306532.644660,9.000000,17.000000,54.000000,105.000000,51.000000,0.000000,52.000000,25.000000
1306532.651729,0.000000,-16.000000,-24.000000,-15.000000,4.000000,-3.000000,11.000000,-20.000000
1306532.651749,1.000000,29.000000,63.000000,85.000000,1.000000,1.000000,-40.000000,-8.000000
1306532.667094,-9.000000,-8.000000,-42.000000,2.000000,-53.000000,-23.000000,11.000000,0.000000
1306532.667125,26.000000,5.000000,-25.000000,-25.000000,-7.000000,3.000000,31.000000,44.000000
1306532.689214,-12.000000,-14.000000,-41.000000,-59.000000,-19.000000,-13.000000,-43.000000,-43.000000
1306532.689225,-14.000000,29.000000,1.000000,16.000000,-19.000000,3.000000,28.000000,-31.000000
1306532.697036,-4.000000,-13.000000,88.000000,72.000000,50.000000,29.000000,13.000000,14.000000
1306532.697047,43.000000,1.000000,8.000000,-25.000000,-26.000000,-9.000000,7.000000,27.000000
1306532.726838,1.000000,-1.000000,-39.000000,-52.000000,-13.000000,-8.000000,-9.000000,15.000000
1306532.726857,-29.000000,-27.000000,10.000000,-48.000000,-40.000000,-9.000000,6.000000,-30.000000
1306532.727181,-11.000000,23.000000,7.000000,10.000000,-1.000000,9.000000,-19.000000,-19.000000
1306532.727190,6.000000,26.000000,-43.000000,-26.000000,-14.000000,-18.000000,19.000000,6.000000
1306532.728344,-10.000000,-22.000000,-3.000000,49.000000,20.000000,-6.000000,2.000000,2.000000
1306532.728353,26.000000,13.000000,19.000000,-32.000000,-29.000000,12.000000,-6.000000,27.000000
1306532.729062,-8.000000,1.000000,-5.000000,15.000000,14.000000,-7.000000,18.000000,-15.000000
1306532.729091,-16.000000,-25.000000,-25.000000,-26.000000,-22.000000,-10.000000,-39.000000,-20.000000
1306532.741907,-4.000000,-13.000000,39.000000,113.000000,3.000000,-7.000000,-11.000000,-19.000000
1306532.741944,-10.000000,-16.000000,-28.000000,-78.000000,-24.000000,-12.000000,-50.000000,-23.000000
1306532.742684,2.000000,2.000000,56.000000,-38.000000,-18.000000,10.000000,37.000000,14.000000
1306532.742692,4.000000,-25.000000,-99.000000,-72.000000,-13.000000,-18.000000,-30.000000,12.000000
1306532.764202,7.000000,-2.000000,31.000000,12.000000,-9.000000,-5.000000,-26.000000,-5.000000
1306532.764213,-9.000000,8.000000,53.000000,26.000000,19.000000,8.000000,-9.000000,-18.000000
1306532.764584,1.000000,-34.000000,-73.000000,-55.000000,-21.000000,-4.000000,13.000000,10.000000
1306532.764592,-4.000000,19.000000,20.000000,12.000000,1.000000,-1.000000,-16.000000,-29.000000
1306532.779217,-3.000000,-8.000000,-35.000000,-6.000000,-22.000000,-1.000000,40.000000,4.000000
1306532.779227,10.000000,6.000000,28.000000,13.000000,1.000000,-1.000000,-4.000000,13.000000
1306532.786787,-9.000000,32.000000,-8.000000,37.000000,19.000000,20.000000,-7.000000,-13.000000
1306532.786815,-6.000000,25.000000,15.000000,11.000000,45.000000,24.000000,-6.000000,-10.000000
1306532.816831,18.000000,21.000000,1.000000,1.000000,57.000000,12.000000,30.000000,6.000000
1306532.816888,5.000000,-6.000000,-6.000000,-57.000000,-70.000000,0.000000,37.000000,25.000000
1306532.824124,1.000000,38.000000,21.000000,35.000000,37.000000,13.000000,20.000000,18.000000
1306532.824152,9.000000,-25.000000,-19.000000,-37.000000,-26.000000,-18.000000,-38.000000,-22.000000
1306532.825307,-14.000000,5.000000,-2.000000,-24.000000,12.000000,-13.000000,-66.000000,-25.000000
1306532.825333,-7.000000,53.000000,8.000000,8.000000,63.000000,22.000000,12.000000,-22.000000
1306532.826046,3.000000,-20.000000,-40.000000,-33.000000,-21.000000,-1.000000,45.000000,43.000000
1306532.826084,5.000000,-7.000000,12.000000,-23.000000,10.000000,-9.000000,-25.000000,-5.000000
1306532.839601,-14.000000,-2.000000,-8.000000,13.000000,17.000000,2.000000,-67.000000,-29.000000
1306532.839617,-5.000000,34.000000,24.000000,22.000000,17.000000,4.000000,53.000000,-13.000000
1306532.847004,0.000000,-25.000000,-36.000000,-109.000000,-9.000000,6.000000,-28.000000,6.000000
1306532.847017,20.000000,62.000000,28.000000,55.000000,-5.000000,20.000000,84.000000,38.000000
1306532.854522,16.000000,-17.000000,11.000000,-9.000000,11.000000,14.000000,25.000000,53.000000
1306532.854544,4.000000,-10.000000,-50.000000,-55.000000,-21.000000,-10.000000,-10.000000,-11.000000
1306532.861773,-17.000000,-2.000000,70.000000,35.000000,22.000000,-3.000000,-27.000000,-31.000000
1306532.861837,20.000000,-3.000000,-19.000000,-26.000000,-5.000000,2.000000,22.000000,31.000000
1306532.884797,-12.000000,-10.000000,-20.000000,-23.000000,-9.000000,-4.000000,-36.000000,-6.000000
1306532.884811,-13.000000,22.000000,24.000000,-36.000000,-28.000000,-5.000000,-13.000000,-18.000000
1306532.885541,8.000000,-28.000000,-2.000000,50.000000,-1.000000,2.000000,5.000000,22.000000
1306532.885549,-11.000000,18.000000,20.000000,-39.000000,-12.000000,-2.000000,-5.000000,-26.000000
1306532.899480,14.000000,19.000000,48.000000,25.000000,-16.000000,3.000000,39.000000,19.000000
1306532.899491,-3.000000,-21.000000,-108.000000,-34.000000,-28.000000,2.000000,6.000000,30.000000
1306532.906944,18.000000,33.000000,33.000000,-12.000000,24.000000,3.000000,-21.000000,-19.000000
1306532.906955,-12.000000,25.000000,-2.000000,42.000000,7.000000,7.000000,19.000000,28.000000
1306532.929423,4.000000,-7.000000,13.000000,-19.000000,-19.000000,1.000000,13.000000,25.000000
1306532.929452,-14.000000,-14.000000,21.000000,12.000000,-39.000000,-8.000000,-37.000000,-29.000000
1306532.937092,-8.000000,13.000000,-15.000000,-36.000000,-12.000000,-17.000000,-3.000000,-24.000000
1306532.937103,13.000000,-5.000000,-19.000000,2.000000,30.000000,6.000000,25.000000,28.000000
