# participant_id: P10
# gesture: hard
# trial_number: 1
# stream_name: Myo_EMG
# stream_type: emg
# timestamp: 20260420_161228
# samples: 5578
# duration_sec: 30.502
# nominal_sample_rate: 200.0
# effective_sample_rate: 182.84
#
timestamp,emg_1,emg_2,emg_3,emg_4,emg_5,emg_6,emg_7,emg_8
1306240.601510,-128.000000,-6.000000,-48.000000,-128.000000,-45.000000,-30.000000,-128.000000,-128.000000
1306240.601524,112.000000,-8.000000,127.000000,50.000000,-41.000000,29.000000,127.000000,127.000000
1306240.609391,16.000000,3.000000,-71.000000,52.000000,41.000000,25.000000,-128.000000,90.000000
1306240.609432,28.000000,-7.000000,52.000000,-128.000000,-28.000000,-16.000000,36.000000,-4.000000
1306240.624081,-33.000000,-3.000000,54.000000,-25.000000,117.000000,102.000000,-95.000000,-19.000000
1306240.624157,52.000000,3.000000,-39.000000,53.000000,13.000000,-56.000000,127.000000,69.000000
1306240.624367,-46.000000,3.000000,-128.000000,-128.000000,-45.000000,-45.000000,-128.000000,-32.000000
1306240.624395,-66.000000,-14.000000,83.000000,-102.000000,-1.000000,69.000000,119.000000,39.000000
1306240.625847,-111.000000,-11.000000,-84.000000,-128.000000,-128.000000,-45.000000,-10.000000,-120.000000
1306240.625863,104.000000,-7.000000,85.000000,-128.000000,-37.000000,-42.000000,-43.000000,39.000000
1306240.626321,-68.000000,-1.000000,-113.000000,-104.000000,-10.000000,-65.000000,11.000000,-106.000000
1306240.626355,127.000000,11.000000,127.000000,23.000000,-69.000000,40.000000,121.000000,127.000000
1306240.627193,31.000000,-11.000000,-128.000000,-42.000000,-53.000000,17.000000,-13.000000,-20.000000
1306240.627205,2.000000,7.000000,110.000000,-128.000000,-20.000000,-59.000000,-127.000000,-97.000000
1306240.638946,-128.000000,6.000000,-93.000000,-38.000000,-17.000000,0.000000,36.000000,-17.000000
1306240.638959,98.000000,1.000000,-32.000000,127.000000,41.000000,13.000000,127.000000,73.000000
1306240.646805,-49.000000,-1.000000,-103.000000,6.000000,-29.000000,-41.000000,-91.000000,-13.000000
1306240.646838,127.000000,-4.000000,127.000000,127.000000,6.000000,98.000000,42.000000,104.000000
1306240.654691,60.000000,1.000000,-71.000000,127.000000,127.000000,79.000000,1.000000,-12.000000
1306240.654700,-87.000000,0.000000,13.000000,-23.000000,-17.000000,8.000000,-72.000000,-111.000000
1306240.676553,9.000000,6.000000,-128.000000,-117.000000,-84.000000,-60.000000,-8.000000,13.000000
1306240.676578,-73.000000,-3.000000,-75.000000,-128.000000,-64.000000,41.000000,-28.000000,2.000000
1306240.699075,71.000000,-3.000000,-8.000000,127.000000,127.000000,127.000000,-18.000000,-3.000000
1306240.699114,127.000000,0.000000,105.000000,-58.000000,-54.000000,-101.000000,17.000000,60.000000
1306240.713889,-128.000000,1.000000,114.000000,-60.000000,-3.000000,-35.000000,127.000000,26.000000
1306240.713900,29.000000,-6.000000,-45.000000,24.000000,15.000000,14.000000,-128.000000,-82.000000
1306240.751270,-115.000000,-6.000000,64.000000,-92.000000,-42.000000,8.000000,-91.000000,-101.000000
1306240.751287,50.000000,-2.000000,127.000000,127.000000,127.000000,42.000000,-107.000000,13.000000
1306240.751807,88.000000,8.000000,-128.000000,-128.000000,-72.000000,-47.000000,127.000000,27.000000
1306240.751815,-10.000000,1.000000,127.000000,-128.000000,-13.000000,-28.000000,-69.000000,65.000000
1306240.752932,-45.000000,-8.000000,29.000000,-128.000000,-128.000000,5.000000,-48.000000,-14.000000
1306240.752941,116.000000,-5.000000,127.000000,127.000000,127.000000,54.000000,85.000000,81.000000
1306240.753780,-128.000000,-7.000000,-44.000000,-128.000000,-52.000000,-87.000000,-79.000000,-39.000000
1306240.753788,14.000000,2.000000,-128.000000,127.000000,127.000000,-14.000000,-37.000000,-70.000000
1306240.758791,127.000000,-7.000000,127.000000,-128.000000,-128.000000,29.000000,127.000000,127.000000
1306240.758811,56.000000,5.000000,127.000000,127.000000,127.000000,37.000000,-50.000000,-15.000000
1306240.766312,-47.000000,-6.000000,-103.000000,-128.000000,-121.000000,-50.000000,3.000000,-111.000000
1306240.766322,-128.000000,-5.000000,-128.000000,-128.000000,-128.000000,-81.000000,-128.000000,-128.000000
1306240.774452,127.000000,2.000000,24.000000,103.000000,100.000000,-21.000000,127.000000,88.000000
1306240.774461,-128.000000,-11.000000,26.000000,-128.000000,0.000000,102.000000,8.000000,13.000000
1306240.796374,-60.000000,-4.000000,-68.000000,101.000000,-9.000000,15.000000,127.000000,23.000000
1306240.796385,35.000000,1.000000,-11.000000,-128.000000,-104.000000,3.000000,-128.000000,-7.000000
1306240.848732,-31.000000,1.000000,-128.000000,-128.000000,-75.000000,-95.000000,-128.000000,-80.000000
1306240.848742,-16.000000,0.000000,-6.000000,63.000000,99.000000,-3.000000,-56.000000,-80.000000
1306240.849557,-128.000000,-10.000000,90.000000,73.000000,121.000000,-20.000000,118.000000,76.000000
1306240.849576,127.000000,-2.000000,127.000000,-73.000000,21.000000,127.000000,98.000000,61.000000
1306240.850611,-20.000000,9.000000,-128.000000,-116.000000,-9.000000,-108.000000,-57.000000,-9.000000
1306240.850629,81.000000,9.000000,53.000000,-128.000000,-34.000000,5.000000,-88.000000,-22.000000
1306240.851459,77.000000,-5.000000,-128.000000,-21.000000,-33.000000,9.000000,102.000000,18.000000
1306240.851514,-128.000000,-2.000000,127.000000,58.000000,30.000000,-5.000000,-128.000000,-128.000000
1306240.856788,-11.000000,0.000000,71.000000,-76.000000,-30.000000,24.000000,-98.000000,-104.000000
1306240.856804,-31.000000,6.000000,-55.000000,127.000000,68.000000,22.000000,23.000000,16.000000
1306240.857619,42.000000,-5.000000,127.000000,-103.000000,-58.000000,-5.000000,-24.000000,4.000000
1306240.857628,-71.000000,-3.000000,-22.000000,-64.000000,-73.000000,-21.000000,50.000000,21.000000
1306240.871616,64.000000,9.000000,17.000000,6.000000,27.000000,-28.000000,-54.000000,1.000000
1306240.871631,-93.000000,3.000000,-37.000000,-18.000000,11.000000,40.000000,-25.000000,-41.000000
1306240.886405,124.000000,-5.000000,127.000000,127.000000,125.000000,23.000000,119.000000,127.000000
1306240.886418,-128.000000,1.000000,-104.000000,-128.000000,-128.000000,-37.000000,-128.000000,-113.000000
1306240.887075,127.000000,0.000000,73.000000,11.000000,-67.000000,12.000000,127.000000,33.000000
1306240.887113,-29.000000,2.000000,-128.000000,83.000000,32.000000,-76.000000,-61.000000,15.000000
1306240.894556,-128.000000,0.000000,127.000000,127.000000,86.000000,90.000000,104.000000,27.000000
1306240.894571,72.000000,0.000000,88.000000,29.000000,-51.000000,24.000000,-74.000000,-4.000000
1306240.909018,-66.000000,-1.000000,-21.000000,-16.000000,39.000000,51.000000,-61.000000,-75.000000
1306240.909070,91.000000,-2.000000,-113.000000,-128.000000,-106.000000,-30.000000,6.000000,15.000000
1306240.923967,-9.000000,-7.000000,-57.000000,71.000000,16.000000,-11.000000,-70.000000,-43.000000
1306240.923977,105.000000,-6.000000,-38.000000,-90.000000,-5.000000,5.000000,-7.000000,-27.000000
1306240.931593,-88.000000,0.000000,-128.000000,127.000000,51.000000,-59.000000,20.000000,-63.000000
1306240.931602,60.000000,1.000000,6.000000,-52.000000,7.000000,11.000000,30.000000,52.000000
1306240.968980,-5.000000,-2.000000,92.000000,15.000000,24.000000,-24.000000,-73.000000,-34.000000
1306240.968992,4.000000,2.000000,-21.000000,-25.000000,16.000000,1.000000,11.000000,-9.000000
1306240.969537,-10.000000,8.000000,-41.000000,-4.000000,-44.000000,11.000000,73.000000,50.000000
1306240.969545,-98.000000,-1.000000,-53.000000,-63.000000,-13.000000,-20.000000,-80.000000,-49.000000
1306240.970443,126.000000,2.000000,127.000000,127.000000,127.000000,80.000000,26.000000,-9.000000
1306240.970451,30.000000,-1.000000,7.000000,93.000000,16.000000,22.000000,109.000000,70.000000
1306240.971142,-15.000000,0.000000,-5.000000,-53.000000,4.000000,0.000000,-10.000000,-17.000000
1306240.971150,-47.000000,6.000000,-19.000000,4.000000,62.000000,-53.000000,-128.000000,-83.000000
1306240.976457,-14.000000,-9.000000,63.000000,-128.000000,-61.000000,110.000000,127.000000,12.000000
1306240.976468,127.000000,2.000000,127.000000,127.000000,127.000000,77.000000,127.000000,127.000000
1306240.991280,-128.000000,-4.000000,-128.000000,-107.000000,-45.000000,-47.000000,-125.000000,-77.000000
1306240.991303,-23.000000,1.000000,-115.000000,-101.000000,-50.000000,-83.000000,-128.000000,-128.000000
1306241.014077,127.000000,-3.000000,127.000000,-128.000000,-112.000000,85.000000,127.000000,127.000000
1306241.014090,68.000000,1.000000,-128.000000,-33.000000,-32.000000,-32.000000,-128.000000,38.000000
1306241.014539,-5.000000,-4.000000,121.000000,-9.000000,-38.000000,-2.000000,-41.000000,-72.000000
1306241.014549,-90.000000,-9.000000,-44.000000,-42.000000,1.000000,-9.000000,-39.000000,-50.000000
1306241.016061,-8.000000,-2.000000,-38.000000,-29.000000,6.000000,-6.000000,-21.000000,-34.000000
1306241.016075,15.000000,0.000000,-33.000000,-126.000000,-81.000000,-46.000000,5.000000,-23.000000
1306241.029226,47.000000,0.000000,127.000000,127.000000,127.000000,123.000000,61.000000,46.000000
1306241.029260,-59.000000,10.000000,122.000000,-74.000000,9.000000,12.000000,35.000000,33.000000
1306241.043816,15.000000,-4.000000,-49.000000,-89.000000,-38.000000,-12.000000,-16.000000,-34.000000
1306241.043837,-34.000000,-11.000000,-41.000000,-2.000000,-10.000000,-10.000000,-6.000000,-1.000000
1306241.051328,56.000000,-4.000000,-23.000000,43.000000,23.000000,25.000000,25.000000,19.000000
1306241.051346,-33.000000,5.000000,41.000000,45.000000,15.000000,-1.000000,-42.000000,-29.000000
1306241.089335,-69.000000,-3.000000,-28.000000,88.000000,-19.000000,-2.000000,-110.000000,-100.000000
1306241.089384,98.000000,2.000000,118.000000,-70.000000,37.000000,75.000000,127.000000,127.000000
1306241.111608,25.000000,2.000000,-48.000000,27.000000,-6.000000,11.000000,-128.000000,-10.000000
1306241.111619,-116.000000,1.000000,-70.000000,-86.000000,-34.000000,-78.000000,-128.000000,-128.000000
1306241.126905,-124.000000,2.000000,120.000000,114.000000,100.000000,69.000000,-108.000000,-66.000000
1306241.126918,127.000000,-7.000000,39.000000,127.000000,73.000000,26.000000,127.000000,127.000000
1306241.127439,76.000000,5.000000,-63.000000,0.000000,-18.000000,-34.000000,-128.000000,101.000000
1306241.127458,-94.000000,1.000000,56.000000,-119.000000,12.000000,16.000000,-79.000000,-119.000000
1306241.128720,34.000000,3.000000,-82.000000,-31.000000,38.000000,17.000000,116.000000,34.000000
1306241.128750,-23.000000,-2.000000,127.000000,76.000000,-39.000000,-25.000000,-19.000000,-51.000000
1306241.129247,-18.000000,-1.000000,-128.000000,-128.000000,-52.000000,-17.000000,-15.000000,-32.000000
1306241.129256,-36.000000,0.000000,-35.000000,-32.000000,28.000000,71.000000,-83.000000,-128.000000
1306241.130253,-39.000000,1.000000,41.000000,-14.000000,-6.000000,-3.000000,-128.000000,-66.000000
1306241.130269,82.000000,2.000000,-10.000000,38.000000,-34.000000,-37.000000,127.000000,59.000000
1306241.149194,-17.000000,6.000000,-29.000000,-49.000000,-9.000000,-3.000000,-28.000000,74.000000
1306241.149224,95.000000,-3.000000,96.000000,-128.000000,-43.000000,17.000000,2.000000,21.000000
1306241.171964,-122.000000,3.000000,-126.000000,-54.000000,-37.000000,-10.000000,-128.000000,-121.000000
1306241.172017,119.000000,1.000000,127.000000,-41.000000,-36.000000,59.000000,127.000000,121.000000
1306241.186459,-8.000000,-5.000000,-77.000000,127.000000,82.000000,22.000000,127.000000,74.000000
1306241.186474,60.000000,-1.000000,11.000000,-1.000000,55.000000,15.000000,-128.000000,17.000000
1306241.194375,-99.000000,2.000000,-82.000000,-43.000000,-5.000000,-63.000000,-128.000000,-128.000000
1306241.194398,-34.000000,-3.000000,27.000000,-128.000000,-123.000000,15.000000,54.000000,-26.000000
1306241.209041,127.000000,5.000000,-11.000000,127.000000,127.000000,37.000000,115.000000,127.000000
1306241.209053,-46.000000,-6.000000,67.000000,-107.000000,-32.000000,-17.000000,-6.000000,-59.000000
1306241.209384,-32.000000,4.000000,-73.000000,-85.000000,-6.000000,-64.000000,-128.000000,-104.000000
1306241.209403,1.000000,-1.000000,-53.000000,-128.000000,-9.000000,49.000000,127.000000,19.000000
1306241.210690,75.000000,8.000000,127.000000,127.000000,127.000000,78.000000,43.000000,109.000000
1306241.210700,28.000000,9.000000,-128.000000,-128.000000,-29.000000,-50.000000,-114.000000,-38.000000
1306241.211230,-70.000000,-5.000000,127.000000,27.000000,-5.000000,-10.000000,-109.000000,-93.000000
1306241.211258,16.000000,0.000000,-15.000000,4.000000,7.000000,25.000000,43.000000,13.000000
1306241.231713,8.000000,-3.000000,-65.000000,28.000000,-57.000000,-34.000000,-26.000000,-19.000000
1306241.231729,-59.000000,-5.000000,12.000000,-67.000000,-72.000000,-30.000000,-55.000000,-43.000000
1306241.232056,56.000000,4.000000,30.000000,-60.000000,69.000000,41.000000,59.000000,11.000000
1306241.232063,61.000000,-9.000000,11.000000,127.000000,93.000000,38.000000,101.000000,13.000000
1306241.239181,18.000000,4.000000,74.000000,-128.000000,-59.000000,-41.000000,103.000000,127.000000
1306241.239201,27.000000,-4.000000,34.000000,-18.000000,-31.000000,-27.000000,-94.000000,-24.000000
1306241.246797,-92.000000,7.000000,-128.000000,-63.000000,-111.000000,-42.000000,-113.000000,-122.000000
1306241.246808,113.000000,-7.000000,65.000000,115.000000,46.000000,-19.000000,-9.000000,16.000000
1306241.269311,-8.000000,-2.000000,-31.000000,-128.000000,-22.000000,18.000000,0.000000,17.000000
1306241.269347,31.000000,-3.000000,127.000000,-82.000000,-49.000000,5.000000,-9.000000,-51.000000
1306241.291289,-37.000000,4.000000,-82.000000,-30.000000,13.000000,-24.000000,-114.000000,-3.000000
1306241.291299,12.000000,-3.000000,-81.000000,-26.000000,-64.000000,-31.000000,127.000000,-18.000000
1306241.313845,19.000000,-8.000000,-94.000000,15.000000,6.000000,-76.000000,-128.000000,-60.000000
1306241.313869,-59.000000,-3.000000,71.000000,-128.000000,-108.000000,15.000000,127.000000,-13.000000
1306241.329041,57.000000,-9.000000,-64.000000,127.000000,85.000000,37.000000,-16.000000,92.000000
1306241.329058,61.000000,-1.000000,127.000000,61.000000,32.000000,12.000000,79.000000,52.000000
1306241.351758,-53.000000,0.000000,-29.000000,-22.000000,37.000000,59.000000,-69.000000,-41.000000
1306241.351767,-58.000000,-7.000000,31.000000,-15.000000,-34.000000,-36.000000,14.000000,-10.000000
1306241.352496,-56.000000,-3.000000,-57.000000,-43.000000,5.000000,9.000000,-54.000000,-32.000000
1306241.352504,63.000000,-1.000000,47.000000,127.000000,73.000000,41.000000,-28.000000,41.000000
1306241.354001,-56.000000,7.000000,-128.000000,-23.000000,16.000000,-24.000000,-31.000000,-56.000000
1306241.354011,-103.000000,0.000000,21.000000,-128.000000,-128.000000,-24.000000,-62.000000,-128.000000
1306241.354446,127.000000,-1.000000,73.000000,127.000000,65.000000,30.000000,127.000000,127.000000
1306241.354454,-35.000000,-3.000000,-79.000000,-128.000000,-105.000000,-64.000000,-128.000000,-85.000000
1306241.355388,-24.000000,2.000000,37.000000,15.000000,-1.000000,-23.000000,21.000000,101.000000
1306241.355487,-40.000000,2.000000,-84.000000,-75.000000,-61.000000,-6.000000,-37.000000,-36.000000
1306241.366538,98.000000,-8.000000,69.000000,127.000000,95.000000,33.000000,48.000000,42.000000
1306241.366588,39.000000,-3.000000,-74.000000,-58.000000,-11.000000,3.000000,100.000000,57.000000
1306241.367061,72.000000,-9.000000,93.000000,0.000000,16.000000,39.000000,33.000000,66.000000
1306241.367076,14.000000,2.000000,25.000000,127.000000,43.000000,-6.000000,-41.000000,-54.000000
1306241.404274,-57.000000,-2.000000,-128.000000,-128.000000,-51.000000,-31.000000,-128.000000,-128.000000
1306241.404284,122.000000,-5.000000,127.000000,127.000000,127.000000,101.000000,127.000000,127.000000
1306241.411350,3.000000,-4.000000,-15.000000,-103.000000,-21.000000,-37.000000,-128.000000,-67.000000
1306241.411359,1.000000,-6.000000,-25.000000,-79.000000,-18.000000,-26.000000,8.000000,-34.000000
1306241.433936,-26.000000,-5.000000,-117.000000,-88.000000,-5.000000,51.000000,70.000000,2.000000
1306241.433947,-10.000000,3.000000,81.000000,121.000000,18.000000,-19.000000,-26.000000,-17.000000
1306241.449403,-29.000000,-5.000000,83.000000,76.000000,44.000000,-15.000000,-65.000000,-49.000000
1306241.449424,11.000000,-2.000000,60.000000,20.000000,70.000000,34.000000,26.000000,-39.000000
1306241.471234,34.000000,-1.000000,14.000000,52.000000,-51.000000,5.000000,98.000000,105.000000
1306241.471244,17.000000,-9.000000,-118.000000,24.000000,-69.000000,-17.000000,86.000000,97.000000
1306241.471805,-26.000000,3.000000,6.000000,-21.000000,41.000000,23.000000,-100.000000,-1.000000
1306241.471813,-63.000000,-1.000000,26.000000,-77.000000,9.000000,-34.000000,-128.000000,-39.000000
1306241.473069,-50.000000,1.000000,-28.000000,-123.000000,-10.000000,-36.000000,-23.000000,-41.000000
1306241.473081,51.000000,10.000000,-75.000000,127.000000,127.000000,31.000000,-89.000000,3.000000
1306241.473819,0.000000,0.000000,31.000000,127.000000,36.000000,18.000000,127.000000,7.000000
1306241.473827,58.000000,2.000000,35.000000,78.000000,-7.000000,-57.000000,-82.000000,11.000000
1306241.474560,-45.000000,0.000000,-98.000000,-128.000000,-64.000000,-21.000000,-91.000000,-86.000000
1306241.474569,-21.000000,-10.000000,127.000000,127.000000,82.000000,34.000000,127.000000,75.000000
1306241.486525,76.000000,2.000000,127.000000,52.000000,20.000000,-3.000000,-34.000000,-28.000000
1306241.486538,-102.000000,-3.000000,-128.000000,-110.000000,-48.000000,18.000000,60.000000,-20.000000
1306241.487222,-43.000000,-6.000000,39.000000,17.000000,59.000000,19.000000,-128.000000,-92.000000
1306241.487230,-12.000000,3.000000,124.000000,60.000000,27.000000,4.000000,121.000000,24.000000
1306241.524103,23.000000,2.000000,-128.000000,-22.000000,-58.000000,-17.000000,-27.000000,15.000000
1306241.524115,19.000000,-1.000000,79.000000,14.000000,-3.000000,-1.000000,-31.000000,-38.000000
1306241.531632,-125.000000,2.000000,-128.000000,32.000000,-128.000000,22.000000,-128.000000,-128.000000
1306241.531643,69.000000,-8.000000,5.000000,127.000000,69.000000,1.000000,127.000000,127.000000
1306241.569068,-6.000000,4.000000,-5.000000,-87.000000,-3.000000,-15.000000,-128.000000,10.000000
1306241.569081,-128.000000,3.000000,-51.000000,-58.000000,25.000000,-37.000000,-128.000000,-128.000000
1306241.569478,127.000000,4.000000,-53.000000,-128.000000,-40.000000,46.000000,127.000000,127.000000
1306241.569488,4.000000,4.000000,127.000000,127.000000,127.000000,70.000000,-14.000000,15.000000
1306241.570542,-42.000000,6.000000,-128.000000,-119.000000,1.000000,-82.000000,-128.000000,-87.000000
1306241.570552,-21.000000,-1.000000,27.000000,-128.000000,-18.000000,-18.000000,35.000000,-53.000000
1306241.571238,-16.000000,-6.000000,-97.000000,-128.000000,-34.000000,0.000000,9.000000,17.000000
1306241.571248,37.000000,-3.000000,80.000000,127.000000,127.000000,5.000000,10.000000,9.000000
1306241.573151,-51.000000,-5.000000,3.000000,-21.000000,11.000000,-53.000000,-128.000000,-82.000000
1306241.573163,-12.000000,-8.000000,-105.000000,-46.000000,-45.000000,-25.000000,68.000000,12.000000
1306241.584024,-92.000000,4.000000,-46.000000,-54.000000,17.000000,-6.000000,-128.000000,-128.000000
1306241.584037,127.000000,10.000000,127.000000,127.000000,127.000000,91.000000,127.000000,127.000000
1306241.591293,33.000000,7.000000,-100.000000,-35.000000,-16.000000,-46.000000,-128.000000,127.000000
1306241.591303,-32.000000,1.000000,55.000000,-46.000000,20.000000,17.000000,-85.000000,-81.000000
1306241.599578,-79.000000,-3.000000,-46.000000,-83.000000,-38.000000,-6.000000,25.000000,-52.000000
1306241.599605,18.000000,-4.000000,85.000000,82.000000,54.000000,9.000000,-75.000000,-19.000000
1306241.606385,-23.000000,-5.000000,77.000000,-43.000000,-51.000000,-45.000000,91.000000,-21.000000
1306241.606401,7.000000,-7.000000,-128.000000,-128.000000,-10.000000,14.000000,-38.000000,10.000000
1306241.644152,-32.000000,-1.000000,104.000000,-51.000000,-45.000000,-17.000000,-55.000000,-27.000000
1306241.644174,36.000000,-4.000000,-49.000000,74.000000,-38.000000,-33.000000,13.000000,-1.000000
1306241.666612,-91.000000,-3.000000,54.000000,-41.000000,-33.000000,10.000000,-41.000000,2.000000
1306241.666624,32.000000,0.000000,-91.000000,66.000000,1.000000,-30.000000,70.000000,47.000000
1306241.681799,-59.000000,-1.000000,43.000000,11.000000,2.000000,-39.000000,-128.000000,-114.000000
1306241.681808,127.000000,-3.000000,103.000000,55.000000,10.000000,56.000000,127.000000,127.000000
1306241.682302,-11.000000,-10.000000,58.000000,127.000000,73.000000,15.000000,-40.000000,-18.000000
1306241.682311,39.000000,-5.000000,20.000000,-35.000000,-22.000000,-26.000000,-19.000000,-7.000000
1306241.683682,-54.000000,-5.000000,-62.000000,-114.000000,22.000000,-32.000000,-67.000000,-99.000000
1306241.683697,93.000000,-1.000000,5.000000,105.000000,48.000000,24.000000,-1.000000,71.000000
1306241.684239,6.000000,3.000000,127.000000,-5.000000,-15.000000,25.000000,59.000000,-38.000000
1306241.684247,2.000000,5.000000,-128.000000,-88.000000,2.000000,-65.000000,-128.000000,-72.000000
1306241.685160,-128.000000,-11.000000,107.000000,-128.000000,-128.000000,62.000000,127.000000,79.000000
1306241.685177,-41.000000,0.000000,-82.000000,-97.000000,-46.000000,-34.000000,-42.000000,-57.000000
1306241.690019,45.000000,5.000000,-20.000000,-128.000000,-97.000000,-23.000000,26.000000,-17.000000
1306241.690049,57.000000,-3.000000,-128.000000,-44.000000,19.000000,0.000000,-20.000000,64.000000
1306241.711382,-7.000000,-1.000000,80.000000,127.000000,93.000000,-21.000000,-128.000000,-113.000000
1306241.711435,5.000000,2.000000,53.000000,-128.000000,-55.000000,48.000000,52.000000,-92.000000
1306241.726719,-50.000000,6.000000,-123.000000,127.000000,98.000000,17.000000,127.000000,127.000000
1306241.726957,53.000000,-1.000000,21.000000,-53.000000,-11.000000,-21.000000,-87.000000,7.000000
1306241.727583,-31.000000,-1.000000,81.000000,60.000000,30.000000,91.000000,12.000000,-13.000000
1306241.727604,-12.000000,8.000000,-115.000000,-32.000000,-53.000000,-31.000000,-84.000000,-56.000000
1306241.728427,-66.000000,1.000000,-22.000000,-92.000000,-34.000000,-52.000000,82.000000,-21.000000
1306241.728434,127.000000,6.000000,7.000000,127.000000,94.000000,47.000000,17.000000,127.000000
1306241.748973,-39.000000,2.000000,-75.000000,-37.000000,34.000000,1.000000,-74.000000,-42.000000
1306241.748994,25.000000,13.000000,123.000000,13.000000,-12.000000,-32.000000,-35.000000,42.000000
1306241.756483,5.000000,1.000000,123.000000,127.000000,127.000000,127.000000,112.000000,-39.000000
1306241.756495,125.000000,-4.000000,-16.000000,26.000000,30.000000,-16.000000,87.000000,127.000000
1306241.786369,-52.000000,-1.000000,-107.000000,-128.000000,-64.000000,-45.000000,-111.000000,-45.000000
1306241.786380,34.000000,-1.000000,-36.000000,5.000000,-31.000000,-3.000000,-45.000000,-50.000000
1306241.786679,-26.000000,0.000000,127.000000,-39.000000,-9.000000,43.000000,33.000000,36.000000
1306241.786687,54.000000,-1.000000,-128.000000,91.000000,26.000000,-11.000000,-32.000000,-33.000000
1306241.788049,-31.000000,3.000000,-128.000000,-53.000000,-110.000000,-42.000000,17.000000,-1.000000
1306241.788059,-41.000000,5.000000,110.000000,-19.000000,-2.000000,7.000000,54.000000,-15.000000
1306241.789048,31.000000,-5.000000,-11.000000,-92.000000,-3.000000,-33.000000,-27.000000,0.000000
1306241.789073,127.000000,0.000000,9.000000,73.000000,22.000000,21.000000,98.000000,54.000000
1306241.801439,-49.000000,-4.000000,43.000000,55.000000,11.000000,-3.000000,106.000000,127.000000
1306241.801469,2.000000,1.000000,6.000000,-19.000000,11.000000,3.000000,-67.000000,-103.000000
1306241.808926,-128.000000,-8.000000,-128.000000,-42.000000,-17.000000,-18.000000,20.000000,-31.000000
1306241.808939,120.000000,-4.000000,6.000000,-59.000000,-59.000000,-30.000000,-100.000000,-23.000000
1306241.824199,-21.000000,-2.000000,127.000000,127.000000,127.000000,90.000000,107.000000,81.000000
1306241.824223,-59.000000,-7.000000,-86.000000,-128.000000,-26.000000,-5.000000,-128.000000,-66.000000
1306241.846313,-32.000000,-1.000000,-44.000000,-34.000000,36.000000,19.000000,69.000000,-13.000000
1306241.846325,33.000000,-4.000000,68.000000,36.000000,20.000000,-32.000000,-7.000000,33.000000
1306241.847280,29.000000,-1.000000,-95.000000,-84.000000,-52.000000,2.000000,-8.000000,-8.000000
1306241.847307,-51.000000,-7.000000,-93.000000,-21.000000,-2.000000,8.000000,4.000000,-15.000000
1306241.848134,-76.000000,-4.000000,75.000000,22.000000,16.000000,18.000000,87.000000,20.000000
1306241.848160,127.000000,-1.000000,-62.000000,-53.000000,-51.000000,-38.000000,-60.000000,2.000000
1306241.868827,24.000000,1.000000,20.000000,-55.000000,41.000000,26.000000,-54.000000,-54.000000
1306241.868841,-68.000000,-2.000000,-17.000000,62.000000,-22.000000,-15.000000,-72.000000,-79.000000
1306241.876499,0.000000,-3.000000,61.000000,42.000000,57.000000,-12.000000,74.000000,39.000000
1306241.876509,40.000000,-4.000000,-70.000000,-53.000000,-61.000000,-2.000000,26.000000,20.000000
1306241.906475,-22.000000,1.000000,-24.000000,-72.000000,4.000000,19.000000,-128.000000,-120.000000
1306241.906485,81.000000,-6.000000,98.000000,127.000000,45.000000,47.000000,127.000000,127.000000
1306241.921792,-12.000000,2.000000,-85.000000,-82.000000,-88.000000,-31.000000,-91.000000,-26.000000
1306241.921814,-9.000000,-3.000000,22.000000,4.000000,15.000000,-2.000000,-43.000000,-21.000000
1306241.922755,-23.000000,4.000000,-20.000000,-61.000000,-6.000000,-5.000000,-36.000000,-33.000000
1306241.922773,16.000000,5.000000,64.000000,-4.000000,-4.000000,-14.000000,-3.000000,-2.000000
1306241.924081,-27.000000,-11.000000,-128.000000,-19.000000,38.000000,-35.000000,-18.000000,-36.000000
1306241.924103,-87.000000,1.000000,-107.000000,-128.000000,-110.000000,-27.000000,-128.000000,-81.000000
1306241.925342,127.000000,3.000000,127.000000,127.000000,102.000000,67.000000,127.000000,127.000000
1306241.925363,47.000000,0.000000,-128.000000,-59.000000,-77.000000,-41.000000,-93.000000,25.000000
1306241.945248,-66.000000,2.000000,-68.000000,-97.000000,-24.000000,-23.000000,-56.000000,-40.000000
1306241.945434,-96.000000,-2.000000,-59.000000,-45.000000,-5.000000,-32.000000,-128.000000,-110.000000
1306241.946496,83.000000,-4.000000,95.000000,-128.000000,-62.000000,47.000000,127.000000,127.000000
1306241.946540,-10.000000,-8.000000,-2.000000,-75.000000,-39.000000,-22.000000,-128.000000,-39.000000
1306241.959513,-3.000000,0.000000,36.000000,17.000000,-2.000000,18.000000,127.000000,35.000000
1306241.959531,-6.000000,-4.000000,-50.000000,-11.000000,-13.000000,-23.000000,-46.000000,-6.000000
1306241.960246,-37.000000,-7.000000,-113.000000,-45.000000,-4.000000,16.000000,36.000000,51.000000
1306241.960300,47.000000,3.000000,97.000000,-1.000000,10.000000,3.000000,-41.000000,-25.000000
1306241.989115,5.000000,-1.000000,-50.000000,4.000000,-14.000000,18.000000,-3.000000,-16.000000
1306241.989129,-29.000000,-3.000000,107.000000,18.000000,-4.000000,-2.000000,98.000000,36.000000
1306242.004264,26.000000,1.000000,-128.000000,-11.000000,-23.000000,-14.000000,-84.000000,-73.000000
1306242.004283,-15.000000,3.000000,127.000000,-128.000000,-76.000000,18.000000,44.000000,58.000000
1306242.026638,-42.000000,5.000000,-91.000000,-128.000000,-60.000000,-33.000000,-44.000000,-56.000000
1306242.026662,77.000000,-10.000000,125.000000,127.000000,127.000000,46.000000,27.000000,38.000000
1306242.033684,-103.000000,5.000000,-71.000000,-112.000000,0.000000,-33.000000,-128.000000,-128.000000
1306242.033694,113.000000,1.000000,67.000000,127.000000,27.000000,45.000000,127.000000,127.000000
1306242.034924,59.000000,0.000000,-79.000000,-26.000000,-15.000000,2.000000,-128.000000,79.000000
1306242.034940,-59.000000,0.000000,-43.000000,-14.000000,0.000000,-25.000000,-83.000000,-56.000000
1306242.035495,-128.000000,6.000000,-128.000000,-9.000000,-128.000000,-34.000000,-41.000000,-128.000000
1306242.035565,119.000000,-1.000000,115.000000,-128.000000,-95.000000,21.000000,119.000000,33.000000
1306242.041798,-54.000000,4.000000,1.000000,-86.000000,-6.000000,-52.000000,-128.000000,-83.000000
1306242.041811,70.000000,4.000000,59.000000,-23.000000,-44.000000,13.000000,127.000000,80.000000
1306242.042627,48.000000,-5.000000,-60.000000,64.000000,18.000000,-13.000000,78.000000,127.000000
1306242.042648,-24.000000,-5.000000,-75.000000,-14.000000,-43.000000,-13.000000,-128.000000,-59.000000
1306242.064172,-32.000000,3.000000,93.000000,10.000000,28.000000,-7.000000,-62.000000,-63.000000
1306242.064209,-27.000000,-1.000000,-26.000000,8.000000,11.000000,-1.000000,-35.000000,-46.000000
1306242.065130,-21.000000,-6.000000,-23.000000,-128.000000,-101.000000,6.000000,16.000000,-35.000000
1306242.065148,-2.000000,-5.000000,1.000000,-7.000000,0.000000,-24.000000,32.000000,24.000000
1306242.079281,-3.000000,-4.000000,11.000000,-30.000000,-25.000000,-19.000000,-7.000000,-7.000000
1306242.079290,-36.000000,-10.000000,-3.000000,-22.000000,-2.000000,-4.000000,28.000000,0.000000
1306242.080048,-19.000000,-5.000000,-91.000000,-5.000000,-11.000000,2.000000,13.000000,6.000000
1306242.080113,31.000000,9.000000,127.000000,127.000000,127.000000,8.000000,-128.000000,-66.000000
1306242.124126,1.000000,-6.000000,116.000000,-128.000000,-128.000000,22.000000,127.000000,76.000000
1306242.124137,70.000000,-1.000000,-128.000000,80.000000,37.000000,-12.000000,33.000000,104.000000
1306242.139005,-88.000000,1.000000,-40.000000,-103.000000,-43.000000,-39.000000,-128.000000,-126.000000
1306242.139023,23.000000,-7.000000,-45.000000,-37.000000,14.000000,-12.000000,127.000000,45.000000
1306242.153961,3.000000,5.000000,15.000000,-22.000000,-61.000000,-1.000000,-100.000000,-16.000000
1306242.153978,-106.000000,-6.000000,73.000000,-6.000000,16.000000,-25.000000,-25.000000,-47.000000
1306242.161407,15.000000,-2.000000,-117.000000,23.000000,23.000000,4.000000,-49.000000,-58.000000
1306242.161460,57.000000,-3.000000,-24.000000,-32.000000,7.000000,15.000000,127.000000,86.000000
1306242.162376,-11.000000,0.000000,-11.000000,7.000000,2.000000,-7.000000,-61.000000,20.000000
1306242.162384,-37.000000,0.000000,2.000000,29.000000,-56.000000,-56.000000,-79.000000,-62.000000
1306242.163780,9.000000,-5.000000,10.000000,-25.000000,71.000000,15.000000,-41.000000,17.000000
1306242.163795,-43.000000,5.000000,-94.000000,-53.000000,-12.000000,-22.000000,-32.000000,-50.000000
1306242.164607,4.000000,-6.000000,88.000000,-58.000000,-48.000000,7.000000,-4.000000,21.000000
1306242.164645,-7.000000,5.000000,-68.000000,-87.000000,-49.000000,-20.000000,39.000000,2.000000
1306242.184438,34.000000,1.000000,2.000000,60.000000,61.000000,4.000000,-77.000000,8.000000
1306242.184447,22.000000,-5.000000,114.000000,9.000000,-63.000000,55.000000,100.000000,-11.000000
1306242.185215,79.000000,0.000000,24.000000,127.000000,117.000000,48.000000,127.000000,127.000000
1306242.185223,-23.000000,-3.000000,-41.000000,-75.000000,-62.000000,-35.000000,-98.000000,-33.000000
1306242.199457,-63.000000,0.000000,-21.000000,-70.000000,25.000000,-16.000000,-96.000000,-77.000000
1306242.199468,-63.000000,5.000000,22.000000,-13.000000,-10.000000,19.000000,-84.000000,-86.000000
1306242.200236,127.000000,2.000000,65.000000,127.000000,40.000000,27.000000,127.000000,127.000000
1306242.200244,-19.000000,-5.000000,-54.000000,16.000000,12.000000,-11.000000,-80.000000,-23.000000
1306242.243983,-30.000000,1.000000,25.000000,4.000000,39.000000,-8.000000,-21.000000,-46.000000
1306242.244012,-15.000000,-4.000000,11.000000,-11.000000,40.000000,-10.000000,-20.000000,4.000000
1306242.259070,3.000000,3.000000,5.000000,-21.000000,-3.000000,2.000000,32.000000,22.000000
1306242.259080,-11.000000,-9.000000,-44.000000,-26.000000,22.000000,-7.000000,-7.000000,-6.000000
1306242.273920,-17.000000,-9.000000,15.000000,-39.000000,7.000000,12.000000,25.000000,8.000000
1306242.273931,23.000000,0.000000,24.000000,116.000000,47.000000,27.000000,26.000000,13.000000
1306242.281603,-23.000000,2.000000,33.000000,-54.000000,-75.000000,-30.000000,-22.000000,-36.000000
1306242.281615,-54.000000,-2.000000,-107.000000,-42.000000,-4.000000,-28.000000,-58.000000,-57.000000
1306242.282449,35.000000,-8.000000,122.000000,-1.000000,-6.000000,41.000000,55.000000,22.000000
1306242.282457,-44.000000,0.000000,-75.000000,-60.000000,-30.000000,4.000000,82.000000,43.000000
1306242.283032,51.000000,-7.000000,4.000000,-128.000000,-49.000000,-23.000000,-89.000000,-20.000000
1306242.283040,-73.000000,0.000000,-46.000000,-68.000000,-49.000000,-39.000000,-24.000000,-76.000000
1306242.284959,-53.000000,0.000000,-119.000000,-85.000000,-86.000000,-34.000000,-72.000000,-83.000000
1306242.284970,80.000000,4.000000,104.000000,127.000000,35.000000,28.000000,127.000000,85.000000
1306242.296424,-62.000000,-1.000000,-46.000000,-35.000000,-30.000000,-11.000000,-70.000000,-53.000000
1306242.296435,62.000000,-7.000000,21.000000,-20.000000,3.000000,-2.000000,55.000000,59.000000
1306242.303860,-53.000000,-3.000000,-27.000000,-46.000000,-128.000000,-30.000000,-40.000000,-56.000000
1306242.303870,6.000000,-1.000000,-62.000000,8.000000,4.000000,-5.000000,-82.000000,-17.000000
1306242.319550,-8.000000,5.000000,33.000000,-128.000000,-70.000000,-11.000000,107.000000,-31.000000
1306242.319560,84.000000,-4.000000,-13.000000,127.000000,127.000000,35.000000,83.000000,127.000000
1306242.320323,-47.000000,7.000000,-21.000000,2.000000,-3.000000,0.000000,-45.000000,-41.000000
1306242.320332,-25.000000,2.000000,-6.000000,-32.000000,-8.000000,-16.000000,-45.000000,-44.000000
1306242.349101,-30.000000,1.000000,-5.000000,-36.000000,15.000000,-17.000000,-35.000000,-51.000000
1306242.349132,84.000000,-11.000000,42.000000,119.000000,45.000000,30.000000,69.000000,73.000000
1306242.357109,3.000000,-2.000000,4.000000,54.000000,22.000000,2.000000,-10.000000,-13.000000
1306242.357171,-54.000000,-2.000000,19.000000,-24.000000,-77.000000,-28.000000,-66.000000,-48.000000
1306242.379210,-24.000000,1.000000,32.000000,32.000000,2.000000,23.000000,55.000000,-16.000000
1306242.379223,34.000000,-6.000000,-33.000000,-8.000000,5.000000,-6.000000,39.000000,39.000000
1306242.401420,-8.000000,-1.000000,-89.000000,-47.000000,5.000000,-11.000000,-51.000000,-26.000000
1306242.401441,-42.000000,-2.000000,84.000000,-128.000000,-128.000000,-27.000000,-31.000000,-29.000000
1306242.423881,15.000000,-3.000000,-9.000000,16.000000,18.000000,3.000000,13.000000,23.000000
1306242.423891,51.000000,-4.000000,23.000000,-29.000000,-4.000000,-1.000000,14.000000,-9.000000
1306242.431411,-38.000000,0.000000,-88.000000,-52.000000,-35.000000,5.000000,15.000000,-11.000000
1306242.431449,21.000000,4.000000,-55.000000,-5.000000,-119.000000,-31.000000,11.000000,47.000000
1306242.439211,0.000000,-4.000000,26.000000,66.000000,38.000000,9.000000,-14.000000,-8.000000
1306242.439221,-15.000000,1.000000,1.000000,-11.000000,27.000000,-27.000000,-55.000000,-35.000000
1306242.439857,4.000000,1.000000,39.000000,-115.000000,-38.000000,-3.000000,-1.000000,-6.000000
1306242.439903,76.000000,2.000000,-12.000000,127.000000,127.000000,35.000000,38.000000,49.000000
1306242.440651,-9.000000,-3.000000,-23.000000,-6.000000,-2.000000,2.000000,11.000000,-1.000000
1306242.440665,-6.000000,-6.000000,-6.000000,-3.000000,7.000000,3.000000,-35.000000,-31.000000
1306242.442115,-20.000000,-4.000000,41.000000,103.000000,49.000000,23.000000,34.000000,24.000000
1306242.442129,-34.000000,-4.000000,-6.000000,-20.000000,5.000000,-6.000000,-5.000000,-58.000000
1306242.476655,2.000000,2.000000,26.000000,26.000000,124.000000,8.000000,-39.000000,3.000000
1306242.476666,-42.000000,9.000000,-13.000000,-128.000000,6.000000,16.000000,-3.000000,-27.000000
1306242.498865,50.000000,-1.000000,40.000000,-53.000000,14.000000,-18.000000,18.000000,20.000000
1306242.498885,-24.000000,-7.000000,-41.000000,-24.000000,-11.000000,-13.000000,-16.000000,-19.000000
1306242.499807,-28.000000,2.000000,-12.000000,-55.000000,-39.000000,-5.000000,-13.000000,-3.000000
1306242.499816,40.000000,-8.000000,-12.000000,102.000000,68.000000,16.000000,19.000000,15.000000
1306242.500564,-4.000000,-6.000000,-45.000000,1.000000,-30.000000,-52.000000,-61.000000,-27.000000
1306242.500572,-8.000000,-4.000000,9.000000,-128.000000,-78.000000,10.000000,31.000000,1.000000
1306242.501817,-12.000000,-5.000000,101.000000,127.000000,121.000000,50.000000,56.000000,34.000000
1306242.501834,11.000000,4.000000,-32.000000,-51.000000,11.000000,-4.000000,-71.000000,0.000000
1306242.502611,-21.000000,2.000000,36.000000,-24.000000,41.000000,9.000000,-5.000000,-25.000000
1306242.502621,25.000000,1.000000,-16.000000,-34.000000,-9.000000,1.000000,28.000000,39.000000
1306242.514355,-6.000000,3.000000,-2.000000,23.000000,-1.000000,-11.000000,5.000000,1.000000
1306242.514364,-2.000000,-1.000000,23.000000,33.000000,9.000000,16.000000,-45.000000,2.000000
1306242.521494,39.000000,6.000000,15.000000,-13.000000,5.000000,-17.000000,21.000000,21.000000
1306242.521505,-36.000000,-8.000000,-33.000000,6.000000,8.000000,7.000000,-43.000000,-19.000000
1306242.543685,-36.000000,-5.000000,28.000000,-73.000000,-12.000000,23.000000,6.000000,-57.000000
1306242.543696,91.000000,1.000000,127.000000,127.000000,127.000000,77.000000,99.000000,99.000000
1306242.551284,8.000000,-1.000000,-91.000000,-86.000000,-6.000000,-20.000000,-119.000000,-59.000000
1306242.551302,82.000000,-4.000000,108.000000,86.000000,33.000000,43.000000,127.000000,91.000000
1306242.559323,-43.000000,0.000000,-62.000000,-24.000000,5.000000,-19.000000,-39.000000,0.000000
1306242.559332,-7.000000,-7.000000,-1.000000,69.000000,33.000000,-14.000000,-82.000000,-38.000000
1306242.560091,-68.000000,-3.000000,-7.000000,-123.000000,-82.000000,-8.000000,-43.000000,-77.000000
1306242.560099,70.000000,-1.000000,3.000000,88.000000,-72.000000,-16.000000,127.000000,73.000000
1306242.581890,9.000000,-3.000000,-6.000000,12.000000,33.000000,3.000000,-27.000000,7.000000
1306242.581914,-20.000000,2.000000,-61.000000,-99.000000,13.000000,-1.000000,-28.000000,-26.000000
1306242.596393,-117.000000,-8.000000,26.000000,127.000000,-99.000000,-16.000000,-39.000000,-91.000000
1306242.596404,111.000000,-9.000000,77.000000,3.000000,27.000000,44.000000,127.000000,127.000000
1306242.619471,10.000000,-5.000000,-50.000000,-2.000000,-5.000000,-19.000000,-37.000000,-24.000000
1306242.619480,-30.000000,-5.000000,-25.000000,-104.000000,-71.000000,-22.000000,-14.000000,-22.000000
1306242.620046,-84.000000,1.000000,-62.000000,26.000000,-73.000000,-32.000000,-115.000000,-84.000000
1306242.620057,26.000000,8.000000,-4.000000,-73.000000,-52.000000,-6.000000,67.000000,-5.000000
1306242.621332,-53.000000,3.000000,-15.000000,47.000000,0.000000,0.000000,2.000000,23.000000
1306242.621342,-14.000000,-2.000000,22.000000,18.000000,-7.000000,-9.000000,1.000000,-7.000000
1306242.622416,20.000000,6.000000,23.000000,127.000000,32.000000,8.000000,17.000000,43.000000
1306242.622424,-24.000000,-6.000000,-14.000000,-110.000000,2.000000,10.000000,18.000000,-15.000000
1306242.634458,6.000000,3.000000,32.000000,96.000000,36.000000,36.000000,-24.000000,-1.000000
1306242.634468,88.000000,1.000000,53.000000,32.000000,46.000000,-26.000000,-4.000000,9.000000
1306242.641518,-45.000000,-5.000000,-23.000000,-64.000000,8.000000,11.000000,-5.000000,-30.000000
1306242.641566,13.000000,-4.000000,23.000000,58.000000,57.000000,9.000000,19.000000,10.000000
1306242.656894,-34.000000,-5.000000,-38.000000,-79.000000,-117.000000,-31.000000,87.000000,19.000000
1306242.656903,-35.000000,5.000000,-51.000000,-73.000000,-97.000000,-25.000000,-39.000000,9.000000
1306242.664122,89.000000,-1.000000,35.000000,78.000000,43.000000,26.000000,-16.000000,24.000000
1306242.664133,-52.000000,-1.000000,-20.000000,-36.000000,11.000000,-15.000000,-89.000000,-54.000000
1306242.679277,-15.000000,9.000000,18.000000,-54.000000,-22.000000,-15.000000,11.000000,-33.000000
1306242.679286,-36.000000,-7.000000,-61.000000,9.000000,-128.000000,-46.000000,13.000000,-17.000000
1306242.680016,-16.000000,-2.000000,-2.000000,-128.000000,20.000000,10.000000,-34.000000,-39.000000
1306242.680024,21.000000,-5.000000,18.000000,43.000000,39.000000,24.000000,75.000000,57.000000
1306242.701480,-2.000000,0.000000,-47.000000,-44.000000,-3.000000,1.000000,17.000000,-15.000000
1306242.701528,-8.000000,3.000000,13.000000,2.000000,9.000000,-20.000000,-42.000000,-15.000000
1306242.716767,-19.000000,-6.000000,19.000000,14.000000,-33.000000,0.000000,0.000000,-14.000000
1306242.716807,-62.000000,7.000000,-121.000000,-15.000000,-85.000000,-26.000000,-117.000000,-108.000000
1306242.754147,76.000000,-6.000000,116.000000,-76.000000,-29.000000,17.000000,127.000000,118.000000
1306242.754158,-6.000000,-5.000000,-50.000000,-89.000000,-34.000000,-12.000000,-36.000000,7.000000
1306242.769040,16.000000,2.000000,-11.000000,-18.000000,-1.000000,-9.000000,-18.000000,-30.000000
1306242.769052,-64.000000,-11.000000,-67.000000,11.000000,-92.000000,-35.000000,-54.000000,-74.000000
1306242.776974,25.000000,-2.000000,61.000000,13.000000,23.000000,6.000000,119.000000,1.000000
1306242.776995,-9.000000,5.000000,-5.000000,113.000000,96.000000,19.000000,-47.000000,1.000000
1306242.777528,-16.000000,2.000000,-31.000000,13.000000,55.000000,-2.000000,-76.000000,-49.000000
1306242.777537,0.000000,0.000000,62.000000,-128.000000,-128.000000,19.000000,23.000000,12.000000
1306242.778707,59.000000,9.000000,29.000000,127.000000,127.000000,37.000000,116.000000,81.000000
1306242.778729,-4.000000,6.000000,16.000000,-94.000000,36.000000,-32.000000,-106.000000,-27.000000
1306242.783776,-30.000000,-1.000000,56.000000,-7.000000,-71.000000,-25.000000,1.000000,-17.000000
1306242.783798,122.000000,-2.000000,40.000000,105.000000,39.000000,39.000000,127.000000,127.000000
1306242.791952,-11.000000,0.000000,-19.000000,-79.000000,-26.000000,-9.000000,-11.000000,-7.000000
1306242.791962,21.000000,0.000000,-9.000000,-30.000000,6.000000,4.000000,33.000000,23.000000
1306242.799173,2.000000,3.000000,17.000000,-59.000000,-22.000000,-13.000000,-128.000000,-46.000000
1306242.799186,-55.000000,-5.000000,4.000000,85.000000,-40.000000,-17.000000,100.000000,-17.000000
1306242.836329,-2.000000,2.000000,-63.000000,15.000000,-11.000000,24.000000,29.000000,73.000000
1306242.836348,9.000000,-6.000000,-13.000000,26.000000,33.000000,12.000000,-53.000000,-4.000000
1306242.851725,3.000000,5.000000,92.000000,-122.000000,-2.000000,2.000000,-13.000000,-18.000000
1306242.851737,-9.000000,-6.000000,-41.000000,-20.000000,-42.000000,-21.000000,-58.000000,-29.000000
1306242.866161,22.000000,1.000000,-41.000000,-49.000000,-126.000000,-5.000000,114.000000,57.000000
1306242.866170,37.000000,0.000000,-42.000000,-128.000000,-22.000000,23.000000,-19.000000,12.000000
1306242.866793,21.000000,-5.000000,68.000000,127.000000,20.000000,11.000000,-74.000000,13.000000
1306242.866801,-9.000000,-1.000000,20.000000,21.000000,16.000000,-2.000000,83.000000,-3.000000
1306242.873824,11.000000,-2.000000,8.000000,-28.000000,-10.000000,6.000000,30.000000,41.000000
1306242.873841,18.000000,2.000000,10.000000,12.000000,9.000000,-18.000000,-26.000000,-4.000000
1306242.874164,-98.000000,-2.000000,-59.000000,-37.000000,-128.000000,-45.000000,-33.000000,-76.000000
1306242.874172,60.000000,-6.000000,5.000000,-80.000000,18.000000,25.000000,120.000000,94.000000
1306242.875772,8.000000,-3.000000,5.000000,-36.000000,2.000000,3.000000,-19.000000,-10.000000
1306242.875781,12.000000,-1.000000,-21.000000,18.000000,-62.000000,-16.000000,-23.000000,-8.000000
1306242.896581,-49.000000,0.000000,-62.000000,-80.000000,-116.000000,-35.000000,-73.000000,-58.000000
1306242.896592,-13.000000,-6.000000,-46.000000,-69.000000,-22.000000,8.000000,64.000000,25.000000
1306242.897631,-3.000000,3.000000,58.000000,127.000000,38.000000,28.000000,-31.000000,6.000000
1306242.897638,60.000000,-4.000000,42.000000,102.000000,49.000000,15.000000,50.000000,49.000000
1306242.904331,-10.000000,-6.000000,2.000000,109.000000,67.000000,0.000000,-56.000000,4.000000
1306242.904341,-15.000000,1.000000,-9.000000,-32.000000,2.000000,4.000000,12.000000,-8.000000
1306242.911932,15.000000,-7.000000,39.000000,-97.000000,-60.000000,19.000000,-13.000000,-8.000000
1306242.911941,-80.000000,1.000000,-36.000000,-24.000000,-4.000000,13.000000,-63.000000,-60.000000
1306242.918878,30.000000,-1.000000,22.000000,18.000000,22.000000,18.000000,127.000000,49.000000
1306242.918906,-5.000000,-3.000000,-65.000000,34.000000,33.000000,-3.000000,-42.000000,3.000000
1306242.956458,-19.000000,3.000000,55.000000,-13.000000,-7.000000,-14.000000,-38.000000,-18.000000
1306242.956468,-81.000000,2.000000,-51.000000,25.000000,2.000000,-14.000000,-58.000000,-66.000000
1306242.971473,89.000000,-2.000000,-40.000000,-6.000000,-32.000000,-17.000000,-27.000000,26.000000
1306242.971483,-26.000000,0.000000,21.000000,-31.000000,38.000000,12.000000,14.000000,-20.000000
1306242.994017,22.000000,-5.000000,15.000000,12.000000,34.000000,5.000000,39.000000,46.000000
1306242.994027,67.000000,-8.000000,28.000000,72.000000,-7.000000,9.000000,0.000000,20.000000
1306243.016456,-2.000000,4.000000,14.000000,34.000000,38.000000,10.000000,27.000000,16.000000
1306243.016468,-12.000000,-2.000000,-4.000000,-6.000000,-27.000000,-15.000000,-54.000000,-35.000000
1306243.031993,-42.000000,-6.000000,-15.000000,-51.000000,-18.000000,-1.000000,-28.000000,-36.000000
1306243.032003,32.000000,1.000000,29.000000,127.000000,85.000000,22.000000,54.000000,40.000000
1306243.032548,-27.000000,8.000000,-25.000000,-69.000000,-11.000000,-12.000000,-21.000000,-22.000000
1306243.032559,-9.000000,0.000000,-39.000000,-22.000000,21.000000,-15.000000,-64.000000,-43.000000
1306243.033729,2.000000,-1.000000,13.000000,-59.000000,-62.000000,-16.000000,32.000000,-7.000000
1306243.033737,-20.000000,1.000000,-25.000000,-94.000000,-46.000000,-7.000000,23.000000,25.000000
1306243.069005,4.000000,1.000000,69.000000,20.000000,29.000000,8.000000,12.000000,-3.000000
1306243.069038,-21.000000,-5.000000,-44.000000,48.000000,-26.000000,-11.000000,-34.000000,-25.000000
1306243.091436,-14.000000,-7.000000,18.000000,-128.000000,-32.000000,20.000000,-46.000000,-51.000000
1306243.091497,49.000000,-2.000000,-19.000000,-5.000000,5.000000,-19.000000,127.000000,72.000000
1306243.113932,-6.000000,-7.000000,-13.000000,-128.000000,-71.000000,-22.000000,-58.000000,-26.000000
1306243.113949,-28.000000,6.000000,8.000000,-3.000000,8.000000,-3.000000,-37.000000,-27.000000
1306243.114822,-25.000000,-3.000000,-29.000000,59.000000,7.000000,2.000000,-32.000000,-24.000000
1306243.114850,3.000000,-7.000000,5.000000,19.000000,25.000000,-7.000000,-31.000000,-11.000000
1306243.115517,-25.000000,-1.000000,11.000000,-128.000000,-68.000000,-15.000000,20.000000,-19.000000
1306243.115544,33.000000,-2.000000,-34.000000,115.000000,53.000000,9.000000,11.000000,53.000000
1306243.117058,-8.000000,-7.000000,34.000000,-29.000000,-38.000000,-29.000000,-6.000000,-18.000000
1306243.117075,-106.000000,-2.000000,-17.000000,-38.000000,-104.000000,-49.000000,-88.000000,-87.000000
1306243.121510,6.000000,1.000000,12.000000,47.000000,23.000000,-8.000000,-23.000000,14.000000
1306243.121543,-21.000000,4.000000,-31.000000,-53.000000,-32.000000,-41.000000,-41.000000,-31.000000
1306243.136521,8.000000,0.000000,21.000000,4.000000,-18.000000,24.000000,-8.000000,-9.000000
1306243.136531,-8.000000,0.000000,-24.000000,-128.000000,-83.000000,-27.000000,-2.000000,-8.000000
1306243.144013,14.000000,8.000000,-26.000000,46.000000,47.000000,6.000000,1.000000,6.000000
1306243.144035,-27.000000,2.000000,-2.000000,-29.000000,-17.000000,-25.000000,-29.000000,-26.000000
1306243.151923,-40.000000,-1.000000,-5.000000,11.000000,-14.000000,13.000000,53.000000,-20.000000
1306243.151933,28.000000,-10.000000,-37.000000,-16.000000,-41.000000,9.000000,44.000000,38.000000
1306243.174115,-13.000000,2.000000,41.000000,59.000000,17.000000,1.000000,-21.000000,-14.000000
1306243.174126,75.000000,2.000000,59.000000,112.000000,112.000000,46.000000,7.000000,51.000000
1306243.196296,-24.000000,-7.000000,-61.000000,-71.000000,-54.000000,15.000000,24.000000,-18.000000
1306243.196307,-5.000000,3.000000,42.000000,-13.000000,18.000000,15.000000,64.000000,24.000000
1306243.211265,47.000000,-4.000000,2.000000,11.000000,40.000000,5.000000,-51.000000,-24.000000
1306243.211294,-32.000000,2.000000,-28.000000,-67.000000,-16.000000,-25.000000,8.000000,18.000000
1306243.212336,-4.000000,6.000000,-58.000000,29.000000,10.000000,-20.000000,22.000000,18.000000
1306243.212362,-21.000000,-3.000000,13.000000,10.000000,-21.000000,-18.000000,-67.000000,-25.000000
1306243.212908,-13.000000,-9.000000,15.000000,48.000000,10.000000,-2.000000,-4.000000,-16.000000
1306243.212935,43.000000,-8.000000,-9.000000,-27.000000,28.000000,18.000000,50.000000,40.000000
1306243.214462,4.000000,-5.000000,37.000000,49.000000,3.000000,25.000000,1.000000,19.000000
1306243.214488,-13.000000,4.000000,46.000000,23.000000,1.000000,1.000000,-28.000000,-34.000000
1306243.234249,26.000000,5.000000,-18.000000,-5.000000,-1.000000,-15.000000,72.000000,53.000000
1306243.234275,3.000000,2.000000,-25.000000,-4.000000,29.000000,4.000000,-45.000000,-18.000000
1306243.235386,-29.000000,1.000000,45.000000,25.000000,45.000000,-10.000000,-87.000000,-55.000000
1306243.235398,-57.000000,0.000000,-50.000000,-81.000000,-16.000000,-15.000000,46.000000,-32.000000
1306243.248766,59.000000,1.000000,34.000000,116.000000,66.000000,39.000000,78.000000,99.000000
1306243.248786,-27.000000,-10.000000,1.000000,-54.000000,2.000000,-10.000000,-63.000000,-27.000000
1306243.256404,-5.000000,-1.000000,-4.000000,61.000000,28.000000,-11.000000,-1.000000,-4.000000
1306243.256429,-1.000000,-2.000000,-57.000000,-41.000000,-40.000000,-11.000000,-18.000000,-11.000000
1306243.263839,1.000000,8.000000,49.000000,8.000000,2.000000,-4.000000,24.000000,-14.000000
1306243.263875,-12.000000,-6.000000,-39.000000,-8.000000,3.000000,-1.000000,-12.000000,9.000000
1306243.294313,-2.000000,-1.000000,5.000000,-54.000000,22.000000,24.000000,-41.000000,-17.000000
1306243.294336,72.000000,0.000000,65.000000,105.000000,-14.000000,10.000000,61.000000,77.000000
1306243.308954,-18.000000,-5.000000,10.000000,24.000000,3.000000,-12.000000,37.000000,19.000000
1306243.308977,47.000000,1.000000,-13.000000,1.000000,-2.000000,-29.000000,-67.000000,-7.000000
1306243.332059,-43.000000,10.000000,-53.000000,-77.000000,-40.000000,-19.000000,8.000000,-46.000000
1306243.332069,26.000000,0.000000,-27.000000,38.000000,26.000000,-10.000000,25.000000,61.000000
1306243.332438,-75.000000,-4.000000,-49.000000,-91.000000,-60.000000,-22.000000,-68.000000,-46.000000
1306243.332446,-26.000000,3.000000,11.000000,-121.000000,-65.000000,3.000000,-56.000000,-61.000000
1306243.334214,11.000000,2.000000,39.000000,127.000000,19.000000,10.000000,48.000000,7.000000
1306243.334232,-7.000000,-6.000000,-4.000000,-46.000000,-7.000000,-15.000000,1.000000,2.000000
1306243.334618,5.000000,1.000000,-99.000000,-58.000000,-14.000000,20.000000,35.000000,18.000000
1306243.334633,13.000000,-1.000000,56.000000,100.000000,40.000000,8.000000,-28.000000,-5.000000
1306243.346660,11.000000,1.000000,-12.000000,-35.000000,12.000000,8.000000,5.000000,2.000000
1306243.346690,-61.000000,6.000000,-5.000000,-24.000000,2.000000,13.000000,-47.000000,-68.000000
1306243.354283,26.000000,-6.000000,4.000000,-23.000000,-27.000000,-20.000000,83.000000,59.000000
1306243.354302,-6.000000,6.000000,-11.000000,-12.000000,-10.000000,-7.000000,-75.000000,-37.000000
1306243.369120,-56.000000,-10.000000,13.000000,9.000000,8.000000,9.000000,22.000000,-26.000000
1306243.369152,20.000000,11.000000,-8.000000,-9.000000,0.000000,2.000000,-29.000000,-17.000000
1306243.383989,6.000000,-2.000000,-7.000000,-8.000000,2.000000,-5.000000,-10.000000,2.000000
1306243.384010,15.000000,4.000000,-3.000000,-18.000000,-10.000000,-1.000000,23.000000,30.000000
1306243.384733,-1.000000,2.000000,44.000000,56.000000,52.000000,6.000000,-25.000000,2.000000
1306243.384779,9.000000,0.000000,14.000000,92.000000,-34.000000,5.000000,79.000000,32.000000
1306243.399044,10.000000,-6.000000,-55.000000,-34.000000,-48.000000,-14.000000,26.000000,29.000000
1306243.399061,-21.000000,8.000000,33.000000,-32.000000,45.000000,27.000000,-94.000000,-56.000000
1306243.406478,-8.000000,1.000000,8.000000,85.000000,8.000000,-30.000000,30.000000,-7.000000
1306243.406506,-7.000000,0.000000,6.000000,40.000000,21.000000,2.000000,22.000000,3.000000
1306243.421878,47.000000,-3.000000,14.000000,-88.000000,-48.000000,8.000000,39.000000,83.000000
1306243.421903,-27.000000,4.000000,-17.000000,-28.000000,11.000000,0.000000,-51.000000,-38.000000
1306243.429230,-49.000000,-4.000000,13.000000,-64.000000,-69.000000,-35.000000,-42.000000,-40.000000
1306243.429250,10.000000,1.000000,37.000000,83.000000,59.000000,9.000000,31.000000,-1.000000
1306243.451691,19.000000,5.000000,26.000000,1.000000,12.000000,-6.000000,-30.000000,-2.000000
1306243.451718,25.000000,-2.000000,6.000000,-38.000000,-7.000000,17.000000,35.000000,31.000000
1306243.452348,-14.000000,4.000000,-22.000000,8.000000,21.000000,-8.000000,1.000000,9.000000
1306243.452356,14.000000,2.000000,21.000000,-30.000000,-30.000000,-36.000000,-64.000000,-14.000000
1306243.453995,-43.000000,-4.000000,-45.000000,-29.000000,-128.000000,-41.000000,-23.000000,-53.000000
1306243.454007,33.000000,-6.000000,-12.000000,27.000000,14.000000,15.000000,127.000000,104.000000
1306243.466692,-19.000000,-9.000000,-8.000000,-1.000000,13.000000,-11.000000,-63.000000,-13.000000
1306243.466710,1.000000,-3.000000,15.000000,-5.000000,-22.000000,-4.000000,-1.000000,-14.000000
1306243.474276,36.000000,-4.000000,3.000000,-42.000000,7.000000,4.000000,-21.000000,24.000000
1306243.474300,-69.000000,4.000000,10.000000,-17.000000,-9.000000,-6.000000,17.000000,-36.000000
1306243.488865,44.000000,-3.000000,15.000000,87.000000,18.000000,5.000000,-16.000000,20.000000
1306243.488875,-9.000000,5.000000,22.000000,13.000000,-6.000000,-15.000000,-20.000000,-31.000000
1306243.496415,-12.000000,-1.000000,-54.000000,-77.000000,-38.000000,-10.000000,25.000000,19.000000
1306243.496425,-6.000000,1.000000,41.000000,-24.000000,-43.000000,20.000000,94.000000,61.000000
1306243.511893,-47.000000,-14.000000,-60.000000,-76.000000,-2.000000,-18.000000,-86.000000,-46.000000
1306243.511903,21.000000,-5.000000,8.000000,11.000000,-19.000000,5.000000,45.000000,-6.000000
1306243.533819,9.000000,8.000000,-44.000000,-13.000000,2.000000,7.000000,-106.000000,-12.000000
1306243.533829,4.000000,-4.000000,49.000000,-43.000000,-20.000000,-9.000000,61.000000,8.000000
1306243.549115,-35.000000,0.000000,-37.000000,3.000000,8.000000,16.000000,-45.000000,-11.000000
1306243.549126,3.000000,0.000000,6.000000,45.000000,16.000000,7.000000,4.000000,1.000000
1306243.571777,-11.000000,2.000000,41.000000,-6.000000,-2.000000,0.000000,-12.000000,7.000000
1306243.571787,-14.000000,-7.000000,-20.000000,-70.000000,-3.000000,10.000000,0.000000,-21.000000
1306243.572342,20.000000,4.000000,15.000000,127.000000,56.000000,9.000000,-11.000000,15.000000
1306243.572351,-14.000000,1.000000,-28.000000,-22.000000,4.000000,-11.000000,-75.000000,-53.000000
1306243.573720,28.000000,-14.000000,73.000000,42.000000,-27.000000,17.000000,109.000000,63.000000
1306243.573736,-61.000000,-2.000000,-54.000000,-23.000000,-18.000000,-29.000000,-65.000000,-32.000000
1306243.574279,44.000000,1.000000,15.000000,-14.000000,-39.000000,14.000000,15.000000,19.000000
1306243.574295,5.000000,-3.000000,3.000000,-7.000000,30.000000,16.000000,-1.000000,-1.000000
1306243.586643,-31.000000,-2.000000,-29.000000,22.000000,-36.000000,-1.000000,-28.000000,-12.000000
1306243.586674,1.000000,-3.000000,-5.000000,-23.000000,2.000000,-4.000000,12.000000,-10.000000
1306243.609538,-15.000000,-1.000000,54.000000,42.000000,23.000000,19.000000,-12.000000,-12.000000
1306243.609549,-12.000000,9.000000,-12.000000,-48.000000,-25.000000,-13.000000,4.000000,-2.000000
1306243.616314,-4.000000,5.000000,-58.000000,-63.000000,-14.000000,-14.000000,-31.000000,-13.000000
1306243.616333,-31.000000,0.000000,3.000000,-7.000000,-74.000000,-18.000000,-26.000000,-30.000000
1306243.631347,27.000000,1.000000,-22.000000,-24.000000,-15.000000,23.000000,37.000000,41.000000
1306243.631363,-13.000000,-1.000000,-9.000000,-22.000000,-39.000000,-16.000000,0.000000,5.000000
1306243.646410,-19.000000,6.000000,-35.000000,-46.000000,-4.000000,-16.000000,-27.000000,-10.000000
1306243.646420,-13.000000,-1.000000,-10.000000,-8.000000,-1.000000,-4.000000,-41.000000,-27.000000
1306243.668898,-28.000000,2.000000,29.000000,22.000000,14.000000,11.000000,69.000000,12.000000
1306243.668907,70.000000,-8.000000,-13.000000,-22.000000,0.000000,15.000000,-38.000000,18.000000
1306243.684118,-12.000000,-1.000000,48.000000,97.000000,21.000000,14.000000,105.000000,36.000000
1306243.684129,1.000000,-5.000000,-10.000000,-37.000000,-17.000000,-4.000000,-50.000000,8.000000
1306243.728869,-12.000000,3.000000,-5.000000,3.000000,-38.000000,29.000000,11.000000,-13.000000
1306243.728898,-23.000000,-4.000000,-34.000000,-3.000000,24.000000,-7.000000,0.000000,-8.000000
1306243.729316,6.000000,-2.000000,88.000000,121.000000,51.000000,15.000000,38.000000,21.000000
1306243.729326,-24.000000,-7.000000,-48.000000,-109.000000,-29.000000,-5.000000,-27.000000,-38.000000
1306243.730539,20.000000,-12.000000,38.000000,13.000000,4.000000,6.000000,30.000000,35.000000
1306243.730547,15.000000,0.000000,-19.000000,-10.000000,4.000000,-6.000000,-10.000000,-11.000000
1306243.731299,-4.000000,-6.000000,5.000000,3.000000,37.000000,-18.000000,-44.000000,-24.000000
1306243.731310,-16.000000,7.000000,2.000000,-128.000000,-62.000000,3.000000,32.000000,-12.000000
1306243.731801,-24.000000,1.000000,-87.000000,-16.000000,-22.000000,-41.000000,-128.000000,-33.000000
1306243.731809,-25.000000,1.000000,66.000000,29.000000,30.000000,10.000000,24.000000,-1.000000
1306243.736787,-16.000000,1.000000,-17.000000,30.000000,21.000000,-8.000000,-65.000000,-22.000000
1306243.736797,-50.000000,2.000000,-16.000000,4.000000,23.000000,-1.000000,-60.000000,-43.000000
1306243.744083,76.000000,7.000000,17.000000,-13.000000,-11.000000,10.000000,101.000000,60.000000
1306243.744094,-17.000000,-16.000000,13.000000,46.000000,18.000000,-3.000000,-27.000000,8.000000
1306243.766320,-14.000000,7.000000,-3.000000,4.000000,14.000000,4.000000,-39.000000,-41.000000
1306243.766332,49.000000,-9.000000,-13.000000,29.000000,-15.000000,9.000000,89.000000,46.000000
1306243.773975,-3.000000,4.000000,4.000000,-51.000000,-22.000000,0.000000,-26.000000,-8.000000
1306243.773984,-60.000000,-7.000000,-28.000000,-58.000000,-37.000000,-26.000000,-30.000000,-44.000000
1306243.803841,87.000000,3.000000,10.000000,127.000000,48.000000,9.000000,-14.000000,38.000000
1306243.803859,-15.000000,3.000000,-5.000000,-29.000000,2.000000,14.000000,17.000000,-2.000000
1306243.804282,30.000000,7.000000,19.000000,-6.000000,-1.000000,-7.000000,45.000000,26.000000
1306243.804302,-26.000000,-3.000000,-35.000000,-59.000000,-43.000000,-20.000000,-52.000000,-36.000000
1306243.805457,4.000000,-5.000000,5.000000,4.000000,21.000000,20.000000,38.000000,18.000000
1306243.805514,5.000000,4.000000,-4.000000,22.000000,-12.000000,3.000000,22.000000,23.000000
1306243.806296,-29.000000,-2.000000,-17.000000,-30.000000,21.000000,-15.000000,-128.000000,-73.000000
1306243.806304,-22.000000,2.000000,4.000000,109.000000,-66.000000,-10.000000,111.000000,9.000000
1306243.811935,46.000000,0.000000,-21.000000,44.000000,36.000000,20.000000,87.000000,112.000000
1306243.811945,7.000000,0.000000,11.000000,-24.000000,-6.000000,-12.000000,-62.000000,-28.000000
1306243.826524,-46.000000,-1.000000,-37.000000,-12.000000,-4.000000,-8.000000,-48.000000,-44.000000
1306243.826536,-23.000000,-1.000000,6.000000,-88.000000,-20.000000,-20.000000,-40.000000,-32.000000
1306243.848868,10.000000,2.000000,20.000000,-16.000000,4.000000,9.000000,40.000000,15.000000
1306243.848880,9.000000,2.000000,-1.000000,7.000000,27.000000,17.000000,-6.000000,29.000000
1306243.849208,21.000000,-2.000000,22.000000,-22.000000,2.000000,-20.000000,16.000000,-14.000000
1306243.849216,-7.000000,-3.000000,-46.000000,-56.000000,-11.000000,10.000000,6.000000,22.000000
1306243.856303,-6.000000,3.000000,8.000000,70.000000,4.000000,-5.000000,-37.000000,-18.000000
1306243.856313,-57.000000,-4.000000,-3.000000,-12.000000,-3.000000,12.000000,-34.000000,-45.000000
1306243.863854,36.000000,-4.000000,9.000000,41.000000,46.000000,-14.000000,63.000000,29.000000
1306243.863864,-13.000000,0.000000,-34.000000,-64.000000,-56.000000,-23.000000,36.000000,12.000000
1306243.901561,17.000000,4.000000,25.000000,127.000000,98.000000,3.000000,-58.000000,2.000000
1306243.901579,-13.000000,0.000000,-4.000000,-18.000000,13.000000,0.000000,-74.000000,-43.000000
1306243.924370,-31.000000,-6.000000,1.000000,-125.000000,-42.000000,6.000000,10.000000,-51.000000
1306243.924383,36.000000,-2.000000,29.000000,127.000000,48.000000,32.000000,118.000000,106.000000
1306243.961584,-1.000000,4.000000,-10.000000,-45.000000,-5.000000,-15.000000,-48.000000,-17.000000
1306243.961596,-26.000000,3.000000,-17.000000,9.000000,24.000000,-10.000000,-59.000000,-46.000000
1306243.962026,-5.000000,-1.000000,-23.000000,-128.000000,-74.000000,0.000000,-1.000000,8.000000
1306243.962034,18.000000,3.000000,2.000000,85.000000,32.000000,-5.000000,26.000000,0.000000
1306243.962984,-8.000000,-4.000000,-2.000000,-117.000000,-73.000000,-13.000000,-1.000000,-22.000000
1306243.962991,35.000000,4.000000,33.000000,127.000000,55.000000,12.000000,92.000000,56.000000
1306243.964363,-27.000000,-14.000000,-2.000000,-9.000000,4.000000,3.000000,-99.000000,-85.000000
1306243.964371,21.000000,-1.000000,36.000000,-56.000000,-31.000000,-28.000000,98.000000,27.000000
1306243.984069,8.000000,-10.000000,-63.000000,-3.000000,-8.000000,-21.000000,-47.000000,14.000000
1306243.984087,-34.000000,4.000000,-45.000000,-79.000000,-79.000000,-21.000000,-114.000000,-79.000000
1306243.998986,35.000000,3.000000,127.000000,127.000000,121.000000,44.000000,95.000000,50.000000
1306243.999035,1.000000,3.000000,-8.000000,-56.000000,-12.000000,-17.000000,-31.000000,10.000000
1306244.014125,-18.000000,-5.000000,-24.000000,-32.000000,-14.000000,-11.000000,-62.000000,-44.000000
1306244.014136,-12.000000,-8.000000,-30.000000,-36.000000,-25.000000,19.000000,36.000000,-4.000000
1306244.021539,40.000000,-9.000000,35.000000,127.000000,51.000000,17.000000,60.000000,65.000000
1306244.021549,-13.000000,1.000000,-31.000000,5.000000,10.000000,-10.000000,-30.000000,-24.000000
1306244.059143,16.000000,6.000000,20.000000,-8.000000,-6.000000,-10.000000,-27.000000,-12.000000
1306244.059162,1.000000,-5.000000,-12.000000,-17.000000,-9.000000,-9.000000,30.000000,-6.000000
1306244.066402,1.000000,-7.000000,-20.000000,12.000000,0.000000,3.000000,30.000000,12.000000
1306244.066419,-25.000000,-2.000000,11.000000,-46.000000,-13.000000,-3.000000,-55.000000,-34.000000
1306244.089230,23.000000,1.000000,28.000000,32.000000,16.000000,17.000000,4.000000,2.000000
1306244.089244,7.000000,-7.000000,-9.000000,3.000000,16.000000,3.000000,27.000000,17.000000
1306244.096393,-27.000000,-6.000000,-49.000000,-59.000000,-25.000000,-13.000000,-38.000000,-37.000000
1306244.096409,34.000000,0.000000,106.000000,127.000000,40.000000,34.000000,49.000000,44.000000
1306244.126517,-28.000000,0.000000,-18.000000,-41.000000,0.000000,11.000000,58.000000,-4.000000
1306244.126537,19.000000,-3.000000,-15.000000,17.000000,-1.000000,-22.000000,-104.000000,-14.000000
1306244.163998,3.000000,-3.000000,-9.000000,-15.000000,-8.000000,-24.000000,-44.000000,-8.000000
1306244.164027,-35.000000,-1.000000,-4.000000,-33.000000,-1.000000,-12.000000,-73.000000,-63.000000
1306244.164404,-6.000000,-5.000000,-30.000000,-23.000000,5.000000,-11.000000,-6.000000,20.000000
1306244.164412,10.000000,0.000000,28.000000,-57.000000,-3.000000,6.000000,25.000000,14.000000
1306244.164960,10.000000,-6.000000,44.000000,127.000000,95.000000,24.000000,38.000000,27.000000
1306244.164968,-16.000000,0.000000,-16.000000,-20.000000,-9.000000,-10.000000,-13.000000,-20.000000
1306244.166174,17.000000,10.000000,-4.000000,-9.000000,15.000000,0.000000,34.000000,10.000000
1306244.166183,-10.000000,-2.000000,-52.000000,-31.000000,-32.000000,-18.000000,-29.000000,-20.000000
1306244.166755,-28.000000,0.000000,-21.000000,-33.000000,-8.000000,-20.000000,-6.000000,-25.000000
1306244.166762,-20.000000,0.000000,-22.000000,-27.000000,-34.000000,5.000000,-6.000000,-12.000000
1306244.168115,48.000000,8.000000,36.000000,127.000000,-7.000000,-6.000000,58.000000,59.000000
1306244.168125,10.000000,6.000000,-46.000000,-55.000000,-16.000000,-4.000000,10.000000,-1.000000
1306244.179695,29.000000,-3.000000,-2.000000,109.000000,36.000000,-12.000000,51.000000,39.000000
1306244.179704,14.000000,0.000000,-21.000000,-19.000000,12.000000,-18.000000,-61.000000,-8.000000
1306244.186334,-47.000000,-1.000000,-17.000000,-29.000000,-7.000000,-6.000000,-14.000000,-45.000000
1306244.186345,14.000000,-7.000000,-5.000000,-6.000000,-2.000000,-7.000000,-23.000000,5.000000
1306244.193765,-6.000000,-7.000000,8.000000,-25.000000,19.000000,-9.000000,-11.000000,-19.000000
1306244.193773,-11.000000,-8.000000,57.000000,71.000000,40.000000,26.000000,10.000000,-8.000000
1306244.208751,49.000000,2.000000,23.000000,127.000000,66.000000,40.000000,127.000000,93.000000
1306244.208780,-31.000000,-6.000000,-42.000000,-57.000000,0.000000,-34.000000,-103.000000,-47.000000
1306244.224115,-7.000000,-1.000000,2.000000,0.000000,-77.000000,-1.000000,10.000000,-26.000000
1306244.224126,38.000000,-4.000000,57.000000,123.000000,40.000000,17.000000,69.000000,71.000000
1306244.238849,-19.000000,-1.000000,-65.000000,-30.000000,-9.000000,-37.000000,-73.000000,-46.000000
1306244.238872,-37.000000,2.000000,-6.000000,-29.000000,-40.000000,-26.000000,-91.000000,-53.000000
1306244.240273,13.000000,-4.000000,45.000000,-61.000000,-51.000000,17.000000,93.000000,12.000000
1306244.240285,3.000000,-3.000000,-45.000000,-35.000000,6.000000,-21.000000,-20.000000,24.000000
1306244.246478,3.000000,-3.000000,22.000000,-22.000000,-8.000000,-10.000000,-23.000000,-11.000000
1306244.246487,-10.000000,0.000000,9.000000,-10.000000,8.000000,0.000000,-27.000000,-11.000000
1306244.276434,4.000000,-2.000000,7.000000,19.000000,-1.000000,8.000000,13.000000,-9.000000
1306244.276445,1.000000,-5.000000,10.000000,-21.000000,0.000000,11.000000,70.000000,29.000000
1306244.283964,-23.000000,2.000000,-22.000000,80.000000,-40.000000,-13.000000,-75.000000,-31.000000
1306244.283974,-12.000000,-4.000000,8.000000,-15.000000,20.000000,5.000000,31.000000,-8.000000
1306244.321251,-8.000000,-2.000000,11.000000,11.000000,-3.000000,1.000000,-79.000000,-32.000000
1306244.321278,27.000000,6.000000,-60.000000,-53.000000,-31.000000,-5.000000,98.000000,31.000000
1306244.321751,14.000000,0.000000,28.000000,13.000000,0.000000,2.000000,-28.000000,39.000000
1306244.321759,-11.000000,-2.000000,-5.000000,1.000000,-17.000000,5.000000,8.000000,-12.000000
1306244.322898,-19.000000,3.000000,26.000000,34.000000,18.000000,-5.000000,-71.000000,-30.000000
1306244.322907,17.000000,8.000000,-29.000000,-68.000000,-6.000000,-8.000000,41.000000,-14.000000
1306244.323658,13.000000,1.000000,-35.000000,33.000000,7.000000,12.000000,38.000000,37.000000
1306244.323674,-27.000000,-2.000000,17.000000,54.000000,52.000000,15.000000,-90.000000,-35.000000
1306244.328701,-26.000000,3.000000,8.000000,44.000000,20.000000,-3.000000,-45.000000,-32.000000
1306244.328712,-6.000000,-7.000000,0.000000,-87.000000,-36.000000,0.000000,-46.000000,-34.000000
1306244.343866,27.000000,8.000000,9.000000,102.000000,48.000000,5.000000,37.000000,28.000000
1306244.343895,-9.000000,-2.000000,-3.000000,-113.000000,-20.000000,9.000000,45.000000,12.000000
1306244.359375,43.000000,6.000000,31.000000,127.000000,67.000000,11.000000,39.000000,48.000000
1306244.359389,7.000000,13.000000,5.000000,64.000000,17.000000,-5.000000,-47.000000,-37.000000
1306244.373991,-25.000000,-2.000000,-26.000000,-14.000000,-3.000000,-5.000000,0.000000,2.000000
1306244.374001,-12.000000,-7.000000,-14.000000,-34.000000,-4.000000,2.000000,-10.000000,-6.000000
1306244.403966,6.000000,1.000000,28.000000,8.000000,10.000000,9.000000,7.000000,-3.000000
1306244.403996,-21.000000,-7.000000,-3.000000,-21.000000,-6.000000,-4.000000,9.000000,9.000000
1306244.404908,1.000000,3.000000,-20.000000,-15.000000,-7.000000,-6.000000,-12.000000,-11.000000
1306244.404916,10.000000,1.000000,8.000000,-19.000000,-12.000000,-5.000000,15.000000,10.000000
1306244.405569,-32.000000,1.000000,-23.000000,11.000000,-3.000000,-12.000000,-41.000000,-30.000000
1306244.405577,25.000000,1.000000,18.000000,-62.000000,-22.000000,11.000000,42.000000,24.000000
1306244.406877,8.000000,3.000000,-2.000000,31.000000,8.000000,-4.000000,8.000000,10.000000
1306244.406886,4.000000,-5.000000,3.000000,-18.000000,-3.000000,-5.000000,6.000000,-4.000000
1306244.407773,-19.000000,3.000000,-54.000000,-48.000000,-44.000000,-14.000000,-45.000000,-19.000000
1306244.407781,-14.000000,4.000000,37.000000,-82.000000,-38.000000,3.000000,8.000000,-3.000000
1306244.441570,54.000000,2.000000,41.000000,121.000000,52.000000,41.000000,127.000000,82.000000
1306244.441580,-29.000000,-2.000000,-32.000000,-34.000000,-21.000000,-18.000000,-88.000000,-32.000000
1306244.441832,-52.000000,-2.000000,-3.000000,4.000000,7.000000,-22.000000,-128.000000,-102.000000
1306244.441842,11.000000,-4.000000,41.000000,-101.000000,-26.000000,24.000000,127.000000,62.000000
1306244.443318,40.000000,-5.000000,6.000000,46.000000,20.000000,-15.000000,1.000000,40.000000
1306244.443335,-18.000000,3.000000,-21.000000,-36.000000,-22.000000,-14.000000,-39.000000,3.000000
1306244.448558,-5.000000,4.000000,11.000000,-6.000000,12.000000,2.000000,-21.000000,-24.000000
1306244.448585,-42.000000,-1.000000,-20.000000,18.000000,-3.000000,-12.000000,-21.000000,-25.000000
1306244.456431,44.000000,-4.000000,39.000000,-89.000000,-45.000000,20.000000,13.000000,35.000000
1306244.456474,39.000000,-4.000000,24.000000,78.000000,36.000000,9.000000,60.000000,35.000000
1306244.463929,-22.000000,-4.000000,-17.000000,-13.000000,-7.000000,-9.000000,-21.000000,-11.000000
1306244.463958,-14.000000,-5.000000,-15.000000,-2.000000,-4.000000,-8.000000,-19.000000,-10.000000
1306244.494113,-14.000000,-10.000000,-6.000000,5.000000,-22.000000,0.000000,-2.000000,-21.000000
1306244.494124,2.000000,3.000000,-39.000000,-69.000000,-38.000000,-3.000000,5.000000,20.000000
1306244.501627,40.000000,3.000000,99.000000,127.000000,46.000000,29.000000,58.000000,45.000000
1306244.501637,8.000000,3.000000,-10.000000,-35.000000,9.000000,9.000000,24.000000,20.000000
1306244.516757,-20.000000,-4.000000,-15.000000,-32.000000,-49.000000,-21.000000,-11.000000,-17.000000
1306244.516767,-18.000000,3.000000,-16.000000,-12.000000,-22.000000,9.000000,-48.000000,-27.000000
1306244.517412,4.000000,-8.000000,9.000000,-101.000000,-26.000000,0.000000,8.000000,4.000000
1306244.517421,11.000000,1.000000,10.000000,59.000000,25.000000,9.000000,27.000000,6.000000
1306244.519048,-2.000000,-3.000000,-4.000000,33.000000,-7.000000,-6.000000,-21.000000,9.000000
1306244.519066,-25.000000,0.000000,-28.000000,-22.000000,1.000000,-3.000000,-35.000000,-54.000000
1306244.531250,22.000000,-5.000000,31.000000,-96.000000,-106.000000,4.000000,111.000000,54.000000
1306244.531259,-21.000000,-7.000000,-48.000000,-16.000000,9.000000,-25.000000,-128.000000,-63.000000
1306244.539477,13.000000,6.000000,21.000000,-56.000000,-8.000000,25.000000,127.000000,24.000000
1306244.539487,2.000000,-3.000000,-19.000000,36.000000,33.000000,-8.000000,14.000000,35.000000
1306244.554633,25.000000,-1.000000,20.000000,-17.000000,-10.000000,-13.000000,-43.000000,6.000000
1306244.554643,-30.000000,3.000000,-8.000000,-3.000000,17.000000,1.000000,-57.000000,-25.000000
1306244.555087,17.000000,-3.000000,-2.000000,-10.000000,-7.000000,-7.000000,9.000000,-3.000000
1306244.555094,4.000000,2.000000,-6.000000,-21.000000,27.000000,3.000000,41.000000,20.000000
1306244.568926,-9.000000,-3.000000,14.000000,24.000000,19.000000,20.000000,-47.000000,-20.000000
1306244.568937,-15.000000,2.000000,-10.000000,75.000000,6.000000,-7.000000,24.000000,7.000000
1306244.576289,8.000000,-1.000000,-1.000000,-14.000000,0.000000,-7.000000,12.000000,11.000000
1306244.576299,-27.000000,-3.000000,-3.000000,-16.000000,5.000000,7.000000,-28.000000,-12.000000
1306244.583758,5.000000,8.000000,11.000000,14.000000,-10.000000,-1.000000,28.000000,13.000000
1306244.583767,-22.000000,-1.000000,-49.000000,-93.000000,-25.000000,-3.000000,-43.000000,-38.000000
1306244.606470,76.000000,-2.000000,60.000000,98.000000,54.000000,11.000000,85.000000,75.000000
1306244.606491,-8.000000,-2.000000,-27.000000,-27.000000,-1.000000,-17.000000,-75.000000,-13.000000
1306244.613865,-10.000000,-4.000000,-19.000000,-56.000000,-35.000000,-17.000000,-41.000000,-31.000000
1306244.613875,-4.000000,-3.000000,28.000000,7.000000,1.000000,7.000000,12.000000,1.000000
1306244.636404,-19.000000,-3.000000,-11.000000,-19.000000,-9.000000,-5.000000,-27.000000,-16.000000
1306244.636417,7.000000,2.000000,8.000000,34.000000,16.000000,-1.000000,54.000000,17.000000
1306244.637086,10.000000,0.000000,4.000000,39.000000,25.000000,5.000000,-13.000000,6.000000
1306244.637096,-12.000000,-5.000000,2.000000,-38.000000,-51.000000,-20.000000,-11.000000,-17.000000
1306244.638499,-4.000000,1.000000,-7.000000,-46.000000,12.000000,4.000000,-24.000000,-10.000000
1306244.638511,-5.000000,-10.000000,-8.000000,11.000000,21.000000,2.000000,-20.000000,-19.000000
1306244.644201,46.000000,7.000000,55.000000,73.000000,33.000000,12.000000,40.000000,47.000000
1306244.644214,-2.000000,-1.000000,-22.000000,-17.000000,-7.000000,10.000000,26.000000,12.000000
1306244.659119,-6.000000,-4.000000,-17.000000,-23.000000,-7.000000,-10.000000,-32.000000,-13.000000
1306244.659170,19.000000,3.000000,-5.000000,-6.000000,-37.000000,-1.000000,-23.000000,-4.000000
1306244.681495,-14.000000,-11.000000,9.000000,2.000000,5.000000,10.000000,-2.000000,-8.000000
1306244.681518,-18.000000,-2.000000,-20.000000,1.000000,-12.000000,-17.000000,19.000000,-5.000000
1306244.682668,7.000000,-4.000000,9.000000,-2.000000,-4.000000,6.000000,-25.000000,-3.000000
1306244.682677,-7.000000,4.000000,30.000000,8.000000,-13.000000,-11.000000,8.000000,-19.000000
1306244.696619,-38.000000,-3.000000,-28.000000,-29.000000,-16.000000,0.000000,0.000000,9.000000
1306244.696630,-2.000000,3.000000,-25.000000,-50.000000,-19.000000,-9.000000,-24.000000,-22.000000
1306244.733958,20.000000,-1.000000,-37.000000,-27.000000,-20.000000,-4.000000,-29.000000,10.000000
1306244.733969,-30.000000,-7.000000,-21.000000,-51.000000,-38.000000,-4.000000,12.000000,5.000000
1306244.741912,13.000000,-9.000000,-1.000000,-6.000000,-22.000000,-7.000000,53.000000,13.000000
1306244.741928,-12.000000,-1.000000,1.000000,-7.000000,18.000000,-1.000000,-63.000000,-19.000000
1306244.778987,-30.000000,-5.000000,84.000000,-24.000000,-50.000000,-19.000000,-81.000000,-26.000000
1306244.778999,20.000000,1.000000,-100.000000,9.000000,1.000000,1.000000,101.000000,24.000000
1306244.779528,-9.000000,-4.000000,18.000000,-7.000000,-3.000000,8.000000,1.000000,10.000000
1306244.779536,19.000000,-1.000000,72.000000,24.000000,43.000000,2.000000,-28.000000,-14.000000
1306244.780515,-3.000000,-10.000000,42.000000,1.000000,-6.000000,-9.000000,56.000000,9.000000
1306244.780523,30.000000,-2.000000,-75.000000,-20.000000,-15.000000,10.000000,7.000000,31.000000
1306244.782140,-39.000000,-4.000000,-27.000000,-5.000000,-32.000000,-29.000000,-43.000000,-41.000000
1306244.782151,-10.000000,11.000000,2.000000,-49.000000,-56.000000,-16.000000,46.000000,-15.000000
1306244.786320,2.000000,0.000000,8.000000,1.000000,36.000000,11.000000,22.000000,13.000000
1306244.786331,26.000000,-3.000000,-5.000000,-15.000000,5.000000,3.000000,15.000000,24.000000
1306244.793968,-40.000000,1.000000,-8.000000,-6.000000,9.000000,-3.000000,-56.000000,-33.000000
1306244.793978,73.000000,-3.000000,54.000000,45.000000,13.000000,24.000000,109.000000,88.000000
1306244.809160,10.000000,-5.000000,1.000000,1.000000,8.000000,-11.000000,-25.000000,-9.000000
1306244.809175,-29.000000,1.000000,-10.000000,-11.000000,-3.000000,-10.000000,-70.000000,-26.000000
1306244.839113,-3.000000,0.000000,8.000000,7.000000,-13.000000,-14.000000,-8.000000,-12.000000
1306244.839142,5.000000,-4.000000,-18.000000,-27.000000,-14.000000,5.000000,27.000000,22.000000
1306244.854384,2.000000,5.000000,-5.000000,-7.000000,8.000000,-3.000000,-1.000000,7.000000
1306244.854404,-12.000000,1.000000,-4.000000,-5.000000,-3.000000,-5.000000,-33.000000,-8.000000
1306244.876282,17.000000,10.000000,-3.000000,2.000000,0.000000,-15.000000,-21.000000,-5.000000
1306244.876298,2.000000,-4.000000,-14.000000,-76.000000,-21.000000,-9.000000,27.000000,13.000000
1306244.876798,17.000000,2.000000,58.000000,55.000000,23.000000,-1.000000,-10.000000,3.000000
1306244.876806,-23.000000,-2.000000,-41.000000,-49.000000,-30.000000,-8.000000,-18.000000,-17.000000
1306244.878112,-7.000000,5.000000,-41.000000,-75.000000,-34.000000,4.000000,0.000000,-4.000000
1306244.878121,32.000000,-2.000000,51.000000,122.000000,59.000000,17.000000,14.000000,13.000000
1306244.878878,-2.000000,-2.000000,9.000000,-35.000000,-3.000000,-7.000000,15.000000,6.000000
1306244.878918,-17.000000,1.000000,-22.000000,-19.000000,11.000000,-22.000000,-83.000000,-31.000000
1306244.880291,-14.000000,-4.000000,-48.000000,-127.000000,-55.000000,5.000000,100.000000,-4.000000
1306244.880300,27.000000,-7.000000,31.000000,127.000000,44.000000,1.000000,-18.000000,43.000000
1306244.884085,-15.000000,-1.000000,-25.000000,-14.000000,-5.000000,-18.000000,-39.000000,-32.000000
1306244.884161,-19.000000,-11.000000,-23.000000,-6.000000,8.000000,6.000000,-26.000000,-24.000000
1306244.899033,27.000000,7.000000,6.000000,-13.000000,-3.000000,3.000000,19.000000,9.000000
1306244.899051,-15.000000,1.000000,14.000000,-4.000000,-4.000000,-2.000000,-11.000000,0.000000
1306244.914124,2.000000,0.000000,15.000000,23.000000,1.000000,-5.000000,-14.000000,-15.000000
1306244.914135,-17.000000,7.000000,-39.000000,-32.000000,-23.000000,-6.000000,-13.000000,-14.000000
1306244.929135,25.000000,7.000000,47.000000,105.000000,34.000000,11.000000,16.000000,16.000000
1306244.929146,3.000000,1.000000,4.000000,23.000000,25.000000,6.000000,22.000000,4.000000
1306244.936686,-6.000000,3.000000,-3.000000,-2.000000,-7.000000,-5.000000,-19.000000,-6.000000
1306244.936703,-10.000000,11.000000,-2.000000,-15.000000,-10.000000,-6.000000,-8.000000,-9.000000
1306244.974101,-20.000000,-10.000000,-3.000000,-49.000000,-39.000000,10.000000,-13.000000,-20.000000
1306244.974113,35.000000,-4.000000,17.000000,127.000000,80.000000,0.000000,-16.000000,12.000000
1306244.996441,-9.000000,7.000000,-23.000000,-67.000000,-23.000000,-16.000000,64.000000,8.000000
1306244.996455,-13.000000,2.000000,-17.000000,60.000000,30.000000,13.000000,-12.000000,22.000000
1306244.997429,16.000000,6.000000,8.000000,-13.000000,8.000000,-14.000000,-36.000000,-19.000000
1306244.997440,-40.000000,5.000000,-37.000000,-68.000000,-27.000000,-1.000000,1.000000,-36.000000
1306244.998041,-8.000000,4.000000,30.000000,19.000000,1.000000,21.000000,15.000000,26.000000
1306244.998067,-3.000000,-3.000000,-13.000000,-31.000000,-1.000000,0.000000,-1.000000,-9.000000
1306244.999323,0.000000,4.000000,9.000000,-19.000000,17.000000,-19.000000,-48.000000,-21.000000
1306244.999339,-6.000000,2.000000,15.000000,-11.000000,-3.000000,6.000000,-77.000000,-29.000000
1306245.011973,4.000000,-6.000000,5.000000,68.000000,15.000000,1.000000,-3.000000,-4.000000
1306245.011982,-35.000000,-6.000000,-30.000000,-60.000000,-33.000000,-10.000000,16.000000,-5.000000
1306245.019183,4.000000,-3.000000,68.000000,127.000000,63.000000,12.000000,-48.000000,-10.000000
1306245.019195,-1.000000,-1.000000,-49.000000,-22.000000,-1.000000,-11.000000,-3.000000,-12.000000
1306245.033777,-2.000000,2.000000,-25.000000,-32.000000,3.000000,-9.000000,25.000000,0.000000
1306245.033787,1.000000,2.000000,34.000000,-66.000000,-30.000000,2.000000,-13.000000,22.000000
1306245.041465,10.000000,2.000000,-7.000000,12.000000,3.000000,-18.000000,-27.000000,-12.000000
1306245.041486,4.000000,4.000000,-1.000000,23.000000,-15.000000,3.000000,54.000000,31.000000
1306245.071441,-2.000000,-4.000000,2.000000,38.000000,65.000000,1.000000,-25.000000,1.000000
1306245.071451,-24.000000,-5.000000,-46.000000,-28.000000,-48.000000,-12.000000,14.000000,-30.000000
1306245.079199,-5.000000,1.000000,12.000000,-5.000000,27.000000,-9.000000,-42.000000,2.000000
1306245.079234,23.000000,-6.000000,7.000000,-59.000000,12.000000,9.000000,30.000000,16.000000
1306245.117057,25.000000,7.000000,47.000000,127.000000,40.000000,23.000000,51.000000,40.000000
1306245.117225,-11.000000,1.000000,-40.000000,-26.000000,-72.000000,-48.000000,-94.000000,-45.000000
1306245.117431,-18.000000,5.000000,-9.000000,-6.000000,-17.000000,8.000000,76.000000,10.000000
1306245.117450,36.000000,-1.000000,24.000000,11.000000,12.000000,5.000000,-1.000000,30.000000
1306245.118116,-11.000000,-5.000000,-6.000000,40.000000,2.000000,-6.000000,-42.000000,-25.000000
1306245.118126,-3.000000,-10.000000,-23.000000,-79.000000,-30.000000,-13.000000,-35.000000,-31.000000
1306245.118828,14.000000,2.000000,15.000000,6.000000,2.000000,-1.000000,63.000000,36.000000
1306245.118839,-1.000000,-5.000000,-2.000000,-2.000000,-15.000000,-12.000000,-23.000000,2.000000
1306245.120997,-16.000000,-9.000000,-60.000000,-32.000000,-19.000000,-22.000000,-51.000000,-36.000000
1306245.121008,-13.000000,-1.000000,59.000000,-40.000000,21.000000,10.000000,17.000000,0.000000
1306245.139335,11.000000,-4.000000,-47.000000,-30.000000,-39.000000,-21.000000,-34.000000,-29.000000
1306245.139345,-4.000000,-1.000000,82.000000,-11.000000,0.000000,-1.000000,-1.000000,1.000000
1306245.140106,-21.000000,3.000000,-62.000000,-23.000000,-1.000000,-14.000000,-39.000000,-34.000000
1306245.140133,11.000000,3.000000,-9.000000,82.000000,37.000000,8.000000,-8.000000,-2.000000
1306245.154485,21.000000,2.000000,19.000000,-34.000000,-11.000000,25.000000,25.000000,31.000000
1306245.154494,-27.000000,1.000000,-16.000000,-50.000000,1.000000,1.000000,-16.000000,-46.000000
1306245.161629,13.000000,-5.000000,26.000000,127.000000,84.000000,13.000000,51.000000,44.000000
1306245.161639,7.000000,-3.000000,-1.000000,-22.000000,-6.000000,-4.000000,-28.000000,-14.000000
1306245.191434,-4.000000,3.000000,11.000000,-8.000000,11.000000,11.000000,-65.000000,-25.000000
1306245.191464,-38.000000,3.000000,-66.000000,-57.000000,-4.000000,-26.000000,-54.000000,-51.000000
1306245.198966,19.000000,11.000000,96.000000,47.000000,13.000000,44.000000,93.000000,41.000000
1306245.198975,35.000000,0.000000,-37.000000,17.000000,37.000000,16.000000,14.000000,64.000000
1306245.207028,-31.000000,-6.000000,24.000000,40.000000,17.000000,-21.000000,-33.000000,-20.000000
1306245.207037,6.000000,0.000000,-23.000000,-49.000000,-21.000000,-8.000000,-25.000000,-29.000000
1306245.214293,-24.000000,-2.000000,-6.000000,-18.000000,-25.000000,-12.000000,-52.000000,-27.000000
1306245.214318,-16.000000,-6.000000,-9.000000,-27.000000,-4.000000,-6.000000,-16.000000,-19.000000
1306245.215266,16.000000,0.000000,-19.000000,-12.000000,-38.000000,8.000000,59.000000,27.000000
1306245.215274,-18.000000,-5.000000,3.000000,83.000000,26.000000,24.000000,15.000000,0.000000
1306245.236384,49.000000,-1.000000,26.000000,-22.000000,0.000000,-13.000000,25.000000,36.000000
1306245.236460,-15.000000,-2.000000,-1.000000,17.000000,25.000000,-1.000000,-35.000000,-34.000000
1306245.237395,-30.000000,-1.000000,22.000000,0.000000,4.000000,1.000000,-20.000000,-18.000000
1306245.237403,10.000000,3.000000,-9.000000,-19.000000,6.000000,12.000000,21.000000,28.000000
1306245.238193,-10.000000,-5.000000,-18.000000,-9.000000,5.000000,-4.000000,-65.000000,-45.000000
1306245.238202,6.000000,-7.000000,3.000000,-35.000000,-14.000000,-5.000000,50.000000,10.000000
1306245.252222,3.000000,-3.000000,34.000000,127.000000,26.000000,26.000000,14.000000,16.000000
1306245.252232,4.000000,-7.000000,-14.000000,-52.000000,-20.000000,-14.000000,17.000000,3.000000
1306245.273981,6.000000,1.000000,-37.000000,-53.000000,-5.000000,-12.000000,-11.000000,7.000000
1306245.273995,-19.000000,3.000000,-11.000000,-37.000000,-22.000000,-4.000000,-16.000000,-25.000000
1306245.275024,6.000000,2.000000,39.000000,71.000000,41.000000,21.000000,33.000000,23.000000
1306245.275033,-19.000000,-4.000000,-28.000000,-32.000000,-70.000000,-1.000000,-24.000000,-12.000000
1306245.289020,-3.000000,-3.000000,-26.000000,-35.000000,-53.000000,-22.000000,-8.000000,-37.000000
1306245.289050,-1.000000,4.000000,0.000000,-27.000000,5.000000,-5.000000,-3.000000,17.000000
1306245.311329,-14.000000,-10.000000,-1.000000,-10.000000,7.000000,-3.000000,-16.000000,-18.000000
1306245.311339,24.000000,8.000000,14.000000,49.000000,17.000000,14.000000,8.000000,15.000000
1306245.326455,-8.000000,2.000000,-11.000000,-23.000000,-17.000000,-8.000000,16.000000,-13.000000
1306245.326466,-2.000000,5.000000,0.000000,14.000000,-36.000000,-6.000000,-60.000000,-18.000000
1306245.349114,-7.000000,-4.000000,-11.000000,-42.000000,-1.000000,1.000000,54.000000,18.000000
1306245.349125,-30.000000,3.000000,-5.000000,39.000000,29.000000,-2.000000,-15.000000,-16.000000
1306245.356731,35.000000,-8.000000,-25.000000,-31.000000,7.000000,0.000000,-33.000000,-1.000000
1306245.356755,43.000000,-3.000000,79.000000,9.000000,4.000000,47.000000,81.000000,55.000000
1306245.371885,-19.000000,4.000000,-3.000000,58.000000,3.000000,-24.000000,-72.000000,-32.000000
1306245.371900,-9.000000,6.000000,1.000000,-68.000000,-19.000000,-10.000000,18.000000,-1.000000
1306245.372352,36.000000,-5.000000,-55.000000,27.000000,17.000000,3.000000,-10.000000,23.000000
1306245.372360,-30.000000,3.000000,16.000000,-25.000000,21.000000,-5.000000,-11.000000,-28.000000
1306245.373606,-27.000000,2.000000,10.000000,-1.000000,-14.000000,3.000000,-5.000000,-13.000000
1306245.373615,15.000000,-6.000000,-11.000000,17.000000,5.000000,2.000000,-6.000000,8.000000
1306245.375202,13.000000,-5.000000,-10.000000,-19.000000,-6.000000,-8.000000,-32.000000,-16.000000
1306245.375216,-7.000000,-9.000000,2.000000,-24.000000,-7.000000,-13.000000,-61.000000,-28.000000
1306245.378862,-8.000000,-1.000000,-1.000000,-28.000000,-3.000000,16.000000,60.000000,3.000000
1306245.378891,30.000000,-5.000000,11.000000,22.000000,19.000000,-3.000000,18.000000,50.000000
1306245.394798,-5.000000,-8.000000,-4.000000,-5.000000,4.000000,5.000000,-30.000000,-26.000000
1306245.394808,-11.000000,6.000000,-10.000000,-30.000000,-20.000000,-11.000000,-52.000000,-49.000000
1306245.401751,7.000000,5.000000,32.000000,-12.000000,3.000000,9.000000,25.000000,15.000000
1306245.401767,1.000000,-2.000000,9.000000,7.000000,2.000000,-1.000000,6.000000,15.000000
1306245.416221,-8.000000,4.000000,-16.000000,-26.000000,-11.000000,-2.000000,-28.000000,-23.000000
1306245.416269,-2.000000,-1.000000,-22.000000,-74.000000,-19.000000,-13.000000,49.000000,15.000000
1306245.431618,-2.000000,-12.000000,61.000000,127.000000,28.000000,18.000000,-26.000000,-12.000000
1306245.431629,-1.000000,1.000000,-27.000000,-32.000000,-3.000000,-11.000000,33.000000,19.000000
1306245.454880,6.000000,-4.000000,-21.000000,-26.000000,2.000000,-6.000000,-33.000000,-21.000000
1306245.454909,-55.000000,0.000000,-39.000000,-128.000000,-43.000000,-25.000000,-58.000000,-50.000000
1306245.455169,37.000000,2.000000,90.000000,127.000000,57.000000,38.000000,12.000000,25.000000
1306245.455182,-16.000000,2.000000,-13.000000,15.000000,-30.000000,-21.000000,-8.000000,-19.000000
1306245.456749,1.000000,3.000000,-5.000000,-52.000000,-5.000000,14.000000,-18.000000,8.000000
1306245.456769,-7.000000,-7.000000,-14.000000,-20.000000,10.000000,-12.000000,2.000000,-22.000000
1306245.469121,-1.000000,-3.000000,-11.000000,2.000000,-6.000000,3.000000,19.000000,17.000000
1306245.469135,3.000000,7.000000,19.000000,0.000000,-12.000000,-10.000000,8.000000,-5.000000
1306245.470387,-6.000000,-5.000000,-21.000000,26.000000,-48.000000,-21.000000,-32.000000,-11.000000
1306245.470409,6.000000,-8.000000,0.000000,-7.000000,-7.000000,9.000000,27.000000,4.000000
1306245.476695,0.000000,-5.000000,7.000000,3.000000,7.000000,7.000000,1.000000,-2.000000
1306245.476728,-3.000000,-5.000000,13.000000,23.000000,5.000000,1.000000,-36.000000,-19.000000
1306245.492132,-10.000000,-7.000000,-10.000000,-13.000000,-6.000000,-3.000000,17.000000,-3.000000
1306245.492142,-16.000000,-12.000000,3.000000,43.000000,26.000000,10.000000,-10.000000,-1.000000
1306245.513938,2.000000,-3.000000,-8.000000,-123.000000,-15.000000,-5.000000,-10.000000,2.000000
1306245.513957,22.000000,4.000000,68.000000,127.000000,111.000000,37.000000,14.000000,6.000000
1306245.515287,4.000000,-11.000000,-27.000000,-46.000000,-5.000000,-10.000000,11.000000,24.000000
1306245.515315,0.000000,-1.000000,4.000000,-39.000000,-9.000000,-15.000000,-32.000000,-17.000000
1306245.528961,-41.000000,0.000000,-6.000000,-37.000000,25.000000,-3.000000,-50.000000,-34.000000
1306245.528969,39.000000,-9.000000,-22.000000,-8.000000,-21.000000,-8.000000,63.000000,43.000000
1306245.551669,26.000000,-1.000000,11.000000,102.000000,34.000000,7.000000,4.000000,20.000000
1306245.551688,-11.000000,-6.000000,7.000000,-32.000000,-5.000000,-6.000000,-26.000000,-20.000000
1306245.566463,-7.000000,-3.000000,-24.000000,-1.000000,10.000000,10.000000,-9.000000,-7.000000
1306245.566473,-10.000000,-4.000000,12.000000,-35.000000,-5.000000,-13.000000,3.000000,0.000000
1306245.589409,-10.000000,-2.000000,7.000000,39.000000,10.000000,-3.000000,-5.000000,-5.000000
1306245.589419,-13.000000,-17.000000,-27.000000,-5.000000,-21.000000,-3.000000,8.000000,-14.000000
1306245.611417,-2.000000,-3.000000,1.000000,-20.000000,0.000000,11.000000,-9.000000,-11.000000
1306245.611428,11.000000,-3.000000,20.000000,21.000000,41.000000,19.000000,0.000000,8.000000
1306245.626783,-11.000000,0.000000,-18.000000,-21.000000,3.000000,-6.000000,-23.000000,-23.000000
1306245.626794,14.000000,-11.000000,-25.000000,-7.000000,1.000000,-24.000000,45.000000,-1.000000
1306245.627454,-28.000000,-8.000000,-2.000000,-128.000000,-51.000000,15.000000,-17.000000,26.000000
1306245.627464,38.000000,-18.000000,42.000000,89.000000,48.000000,16.000000,26.000000,25.000000
1306245.628811,-18.000000,-1.000000,-40.000000,-64.000000,-27.000000,-15.000000,-37.000000,-30.000000
1306245.628821,-6.000000,8.000000,-22.000000,-31.000000,-29.000000,-11.000000,-34.000000,-24.000000
1306245.649047,0.000000,2.000000,25.000000,9.000000,7.000000,7.000000,-29.000000,-13.000000
1306245.649066,27.000000,-5.000000,17.000000,35.000000,-12.000000,6.000000,125.000000,47.000000
1306245.686492,12.000000,-7.000000,-8.000000,15.000000,17.000000,2.000000,-40.000000,16.000000
1306245.686509,-26.000000,0.000000,1.000000,-11.000000,-2.000000,-3.000000,-47.000000,-44.000000
1306245.686969,15.000000,-3.000000,-8.000000,5.000000,7.000000,3.000000,8.000000,5.000000
1306245.686986,-7.000000,1.000000,-28.000000,-57.000000,-17.000000,-8.000000,-23.000000,-16.000000
1306245.687966,27.000000,0.000000,74.000000,34.000000,4.000000,20.000000,58.000000,31.000000
1306245.687974,2.000000,-10.000000,-20.000000,0.000000,0.000000,-4.000000,-11.000000,9.000000
1306245.688760,-21.000000,-3.000000,-42.000000,-76.000000,-37.000000,-18.000000,-42.000000,-42.000000
1306245.688768,22.000000,3.000000,23.000000,-8.000000,-16.000000,19.000000,46.000000,-6.000000
1306245.691121,-1.000000,-2.000000,-29.000000,-41.000000,-16.000000,-16.000000,-47.000000,4.000000
1306245.691136,-1.000000,0.000000,6.000000,-37.000000,5.000000,11.000000,20.000000,-15.000000
1306245.708983,-11.000000,-8.000000,-19.000000,-20.000000,-21.000000,-12.000000,-64.000000,-24.000000
1306245.708996,19.000000,0.000000,-30.000000,-90.000000,-59.000000,-14.000000,60.000000,16.000000
1306245.710330,5.000000,1.000000,-12.000000,33.000000,2.000000,-6.000000,24.000000,47.000000
1306245.710358,-20.000000,-4.000000,11.000000,-11.000000,-1.000000,-8.000000,-74.000000,-43.000000
1306245.724078,-28.000000,4.000000,-23.000000,7.000000,-14.000000,-4.000000,-28.000000,-48.000000
1306245.724092,-2.000000,0.000000,-62.000000,-49.000000,-34.000000,-9.000000,28.000000,9.000000
1306245.731904,14.000000,4.000000,34.000000,-5.000000,-4.000000,-1.000000,5.000000,29.000000
1306245.731921,13.000000,-4.000000,99.000000,29.000000,2.000000,4.000000,-10.000000,-6.000000
1306245.746404,-45.000000,-5.000000,-95.000000,-63.000000,-23.000000,-6.000000,-29.000000,-25.000000
1306245.746421,12.000000,7.000000,5.000000,-45.000000,-27.000000,-8.000000,-7.000000,-14.000000
1306245.747580,20.000000,9.000000,41.000000,18.000000,-17.000000,9.000000,-2.000000,6.000000
1306245.747598,-7.000000,9.000000,10.000000,36.000000,25.000000,-8.000000,-4.000000,-11.000000
1306245.791535,-24.000000,-2.000000,-32.000000,-59.000000,-39.000000,-17.000000,-44.000000,-29.000000
1306245.791546,-3.000000,2.000000,-4.000000,-18.000000,-23.000000,-10.000000,55.000000,-14.000000
1306245.814117,29.000000,-1.000000,4.000000,15.000000,-16.000000,5.000000,71.000000,44.000000
1306245.814128,-23.000000,-3.000000,-42.000000,-20.000000,-26.000000,-20.000000,-46.000000,-3.000000
1306245.829395,1.000000,1.000000,56.000000,-51.000000,-11.000000,-12.000000,-46.000000,-29.000000
1306245.829411,-57.000000,5.000000,-104.000000,-67.000000,-53.000000,-25.000000,-24.000000,-49.000000
1306245.830602,37.000000,4.000000,79.000000,127.000000,69.000000,34.000000,38.000000,36.000000
1306245.830624,-3.000000,-16.000000,-25.000000,-72.000000,-37.000000,-18.000000,-59.000000,-21.000000
1306245.831189,-11.000000,4.000000,-1.000000,-37.000000,-10.000000,-5.000000,33.000000,-9.000000
1306245.831197,-20.000000,1.000000,-22.000000,-50.000000,-2.000000,18.000000,36.000000,27.000000
1306245.831821,-14.000000,6.000000,-6.000000,-13.000000,-8.000000,-3.000000,-41.000000,-37.000000
1306245.831830,0.000000,-4.000000,17.000000,11.000000,-1.000000,-6.000000,75.000000,11.000000
1306245.833487,16.000000,-2.000000,-20.000000,-19.000000,-23.000000,-10.000000,-40.000000,16.000000
1306245.833498,-30.000000,3.000000,-9.000000,-48.000000,-4.000000,-5.000000,-73.000000,-66.000000
1306245.844218,25.000000,2.000000,63.000000,127.000000,71.000000,24.000000,115.000000,47.000000
1306245.844228,5.000000,-1.000000,-85.000000,-84.000000,-57.000000,-23.000000,-41.000000,5.000000
1306245.851992,-31.000000,1.000000,-6.000000,-12.000000,-71.000000,-22.000000,-86.000000,-44.000000
1306245.852031,11.000000,1.000000,68.000000,33.000000,50.000000,1.000000,40.000000,-26.000000
1306245.866284,-4.000000,-3.000000,-50.000000,-36.000000,12.000000,1.000000,4.000000,9.000000
1306245.866313,-30.000000,-7.000000,-20.000000,-86.000000,-14.000000,-10.000000,-31.000000,-23.000000
1306245.867623,25.000000,7.000000,76.000000,127.000000,17.000000,24.000000,19.000000,28.000000
1306245.867631,1.000000,-10.000000,-37.000000,-83.000000,-7.000000,-10.000000,-10.000000,-14.000000
1306245.888957,-18.000000,-2.000000,-25.000000,-58.000000,-11.000000,-13.000000,-10.000000,-4.000000
1306245.888968,-17.000000,-3.000000,1.000000,-94.000000,-62.000000,-2.000000,-18.000000,-27.000000
1306245.911498,-11.000000,-7.000000,-8.000000,9.000000,-3.000000,2.000000,22.000000,0.000000
1306245.911510,26.000000,3.000000,8.000000,1.000000,33.000000,13.000000,54.000000,49.000000
1306245.926260,4.000000,8.000000,10.000000,91.000000,11.000000,1.000000,-11.000000,-4.000000
1306245.926290,-10.000000,-6.000000,-11.000000,-17.000000,-8.000000,0.000000,2.000000,-20.000000
1306245.927464,-5.000000,-1.000000,-12.000000,-77.000000,-26.000000,7.000000,33.000000,-16.000000
1306245.927494,-3.000000,-6.000000,28.000000,127.000000,42.000000,18.000000,40.000000,26.000000
1306245.928093,15.000000,-6.000000,-24.000000,-19.000000,-2.000000,-9.000000,-16.000000,10.000000
1306245.928110,-10.000000,2.000000,-21.000000,-46.000000,-23.000000,-15.000000,-33.000000,-28.000000
1306245.949001,-9.000000,-1.000000,22.000000,108.000000,75.000000,34.000000,9.000000,-7.000000
1306245.949013,-4.000000,-9.000000,-11.000000,-45.000000,-14.000000,-11.000000,-6.000000,-6.000000
1306245.949570,3.000000,-6.000000,14.000000,35.000000,1.000000,1.000000,14.000000,-8.000000
1306245.949585,22.000000,4.000000,-23.000000,-41.000000,5.000000,-6.000000,44.000000,31.000000
1306245.951017,5.000000,-1.000000,-27.000000,-63.000000,-54.000000,-9.000000,-11.000000,-7.000000
1306245.951058,-4.000000,-9.000000,41.000000,127.000000,23.000000,-5.000000,-68.000000,-11.000000
1306245.964487,-25.000000,4.000000,-29.000000,-31.000000,49.000000,5.000000,29.000000,-17.000000
1306245.964498,29.000000,-6.000000,-3.000000,20.000000,-11.000000,2.000000,9.000000,40.000000
1306245.972137,-13.000000,3.000000,-2.000000,-9.000000,10.000000,0.000000,-25.000000,-14.000000
1306245.972166,-11.000000,-7.000000,-35.000000,2.000000,4.000000,5.000000,-19.000000,-32.000000
1306245.986295,25.000000,3.000000,3.000000,-79.000000,-19.000000,10.000000,100.000000,57.000000
1306245.986305,3.000000,-1.000000,28.000000,63.000000,-6.000000,-4.000000,-28.000000,6.000000
1306246.009375,-45.000000,-7.000000,-1.000000,54.000000,18.000000,-14.000000,-94.000000,-44.000000
1306246.009394,21.000000,-7.000000,8.000000,-69.000000,-23.000000,-10.000000,68.000000,-2.000000
1306246.016306,38.000000,-5.000000,57.000000,127.000000,42.000000,24.000000,56.000000,62.000000
1306246.016325,-16.000000,-8.000000,-38.000000,-32.000000,-7.000000,-18.000000,-48.000000,-15.000000
1306246.031263,-41.000000,-5.000000,-23.000000,-32.000000,-43.000000,-6.000000,-97.000000,-79.000000
1306246.031274,13.000000,-1.000000,26.000000,45.000000,25.000000,15.000000,126.000000,68.000000
1306246.039011,9.000000,-4.000000,-17.000000,-10.000000,1.000000,-3.000000,-25.000000,25.000000
1306246.039022,-28.000000,-6.000000,-41.000000,-27.000000,-1.000000,-19.000000,-57.000000,-40.000000
1306246.069252,-12.000000,6.000000,38.000000,-3.000000,-54.000000,-2.000000,-14.000000,-19.000000
1306246.069262,51.000000,-7.000000,48.000000,127.000000,117.000000,28.000000,51.000000,61.000000
1306246.069804,-19.000000,-5.000000,-66.000000,-61.000000,-14.000000,-18.000000,-28.000000,-21.000000
1306246.069812,-27.000000,1.000000,-36.000000,-24.000000,18.000000,8.000000,-18.000000,-12.000000
1306246.071239,-2.000000,5.000000,48.000000,-20.000000,-18.000000,-1.000000,10.000000,-12.000000
1306246.071299,22.000000,2.000000,-2.000000,-2.000000,2.000000,2.000000,2.000000,14.000000
1306246.071960,-28.000000,-1.000000,-12.000000,42.000000,11.000000,-15.000000,-81.000000,-63.000000
1306246.071979,9.000000,6.000000,49.000000,-112.000000,-72.000000,10.000000,127.000000,38.000000
1306246.083940,-28.000000,-3.000000,5.000000,-36.000000,2.000000,-2.000000,-57.000000,-41.000000
1306246.083968,-2.000000,2.000000,2.000000,86.000000,23.000000,4.000000,35.000000,0.000000
1306246.114095,8.000000,-5.000000,-3.000000,-21.000000,-12.000000,3.000000,15.000000,33.000000
1306246.114112,-18.000000,-1.000000,-20.000000,11.000000,30.000000,2.000000,-4.000000,-29.000000
1306246.121412,-14.000000,-5.000000,34.000000,70.000000,13.000000,1.000000,12.000000,5.000000
1306246.121442,-31.000000,3.000000,-62.000000,-80.000000,-27.000000,-3.000000,3.000000,-27.000000
1306246.144512,3.000000,0.000000,21.000000,15.000000,-18.000000,-3.000000,64.000000,1.000000
1306246.144522,-11.000000,2.000000,1.000000,98.000000,16.000000,5.000000,-28.000000,22.000000
1306246.166514,-9.000000,5.000000,-72.000000,-66.000000,-31.000000,-24.000000,-113.000000,-44.000000
1306246.166525,-1.000000,3.000000,0.000000,-28.000000,-11.000000,-6.000000,69.000000,-6.000000
1306246.189118,0.000000,3.000000,-1.000000,-7.000000,7.000000,-5.000000,-43.000000,10.000000
1306246.189129,7.000000,1.000000,5.000000,-39.000000,-18.000000,-7.000000,-7.000000,-36.000000
1306246.204011,-10.000000,-4.000000,-2.000000,-32.000000,-33.000000,4.000000,28.000000,37.000000
1306246.204028,-14.000000,-2.000000,7.000000,127.000000,36.000000,-7.000000,4.000000,-13.000000
1306246.234187,-4.000000,2.000000,15.000000,-122.000000,-41.000000,7.000000,5.000000,-21.000000
1306246.234198,17.000000,5.000000,-28.000000,21.000000,8.000000,-6.000000,37.000000,15.000000
1306246.241551,-1.000000,10.000000,-2.000000,-30.000000,2.000000,-4.000000,-28.000000,-7.000000
1306246.241568,-15.000000,1.000000,8.000000,-27.000000,-3.000000,-6.000000,-46.000000,-33.000000
1306246.248936,6.000000,-2.000000,5.000000,86.000000,25.000000,3.000000,-10.000000,43.000000
1306246.248954,-2.000000,-2.000000,8.000000,13.000000,-9.000000,-8.000000,-24.000000,-12.000000
1306246.265104,-4.000000,1.000000,15.000000,-4.000000,-5.000000,-2.000000,-29.000000,16.000000
1306246.265114,28.000000,2.000000,35.000000,59.000000,36.000000,10.000000,31.000000,-13.000000
1306246.286990,35.000000,5.000000,103.000000,89.000000,-64.000000,12.000000,68.000000,74.000000
1306246.287004,-14.000000,-4.000000,-71.000000,-60.000000,-11.000000,-17.000000,-71.000000,-23.000000
1306246.287549,10.000000,6.000000,-6.000000,0.000000,-2.000000,3.000000,5.000000,18.000000
1306246.287561,-6.000000,-3.000000,27.000000,6.000000,-2.000000,-4.000000,-3.000000,-4.000000
1306246.288876,13.000000,-3.000000,6.000000,16.000000,-20.000000,10.000000,76.000000,49.000000
1306246.288933,-2.000000,-1.000000,9.000000,20.000000,-7.000000,-6.000000,-30.000000,-11.000000
1306246.290496,15.000000,6.000000,96.000000,127.000000,-3.000000,22.000000,63.000000,40.000000
1306246.290524,6.000000,-1.000000,-36.000000,-98.000000,-22.000000,20.000000,60.000000,22.000000
1306246.294035,13.000000,-3.000000,-37.000000,5.000000,6.000000,-10.000000,-44.000000,-4.000000
1306246.294046,-37.000000,4.000000,20.000000,-33.000000,6.000000,-7.000000,-24.000000,-12.000000
1306246.301432,5.000000,1.000000,-40.000000,-35.000000,1.000000,5.000000,-20.000000,-23.000000
1306246.301467,27.000000,-1.000000,41.000000,-119.000000,-24.000000,-4.000000,19.000000,37.000000
1306246.309568,-3.000000,-1.000000,-3.000000,127.000000,104.000000,23.000000,1.000000,-3.000000
1306246.309579,-14.000000,3.000000,73.000000,-44.000000,-7.000000,10.000000,-103.000000,-65.000000
1306246.324126,17.000000,6.000000,-59.000000,-62.000000,-8.000000,-5.000000,126.000000,64.000000
1306246.324137,10.000000,2.000000,-11.000000,27.000000,16.000000,8.000000,-46.000000,29.000000
1306246.361545,5.000000,0.000000,1.000000,19.000000,2.000000,-3.000000,3.000000,-40.000000
1306246.361567,-23.000000,5.000000,5.000000,-1.000000,-6.000000,2.000000,-93.000000,-9.000000
1306246.384149,7.000000,-10.000000,9.000000,5.000000,4.000000,3.000000,63.000000,25.000000
1306246.384179,14.000000,4.000000,-14.000000,3.000000,12.000000,-4.000000,-15.000000,33.000000
1306246.406380,-12.000000,-1.000000,-3.000000,3.000000,-1.000000,-19.000000,-57.000000,-22.000000
1306246.406398,17.000000,-10.000000,3.000000,8.000000,6.000000,5.000000,28.000000,12.000000
1306246.421588,22.000000,9.000000,4.000000,-45.000000,-8.000000,8.000000,5.000000,24.000000
1306246.421599,-6.000000,5.000000,29.000000,119.000000,40.000000,9.000000,-45.000000,-26.000000
1306246.422467,-1.000000,1.000000,24.000000,-25.000000,25.000000,9.000000,59.000000,20.000000
1306246.422477,-54.000000,-10.000000,-82.000000,-67.000000,-20.000000,-16.000000,-50.000000,-6.000000
1306246.423230,31.000000,-2.000000,-2.000000,-93.000000,-16.000000,2.000000,32.000000,0.000000
1306246.423238,23.000000,2.000000,37.000000,69.000000,-2.000000,20.000000,2.000000,41.000000
1306246.423924,24.000000,3.000000,42.000000,95.000000,31.000000,10.000000,-17.000000,30.000000
1306246.423967,-10.000000,0.000000,-22.000000,-37.000000,-16.000000,-20.000000,-8.000000,-35.000000
1306246.424393,-8.000000,-11.000000,-24.000000,-45.000000,-2.000000,5.000000,-33.000000,-10.000000
1306246.424402,16.000000,1.000000,34.000000,60.000000,45.000000,14.000000,46.000000,23.000000
1306246.425230,4.000000,-4.000000,-28.000000,-25.000000,-23.000000,-15.000000,-33.000000,-15.000000
1306246.425238,-20.000000,-9.000000,-20.000000,-1.000000,-23.000000,-15.000000,-11.000000,5.000000
1306246.444372,44.000000,0.000000,-1.000000,-64.000000,-44.000000,-6.000000,16.000000,11.000000
1306246.444390,-5.000000,-23.000000,61.000000,127.000000,64.000000,27.000000,4.000000,34.000000
1306246.445227,-5.000000,-3.000000,50.000000,-8.000000,16.000000,-6.000000,-18.000000,-17.000000
1306246.445243,-8.000000,3.000000,-128.000000,-114.000000,-14.000000,-5.000000,3.000000,-26.000000
1306246.459162,-16.000000,7.000000,47.000000,-5.000000,14.000000,2.000000,28.000000,10.000000
1306246.459171,-28.000000,1.000000,-87.000000,-103.000000,-16.000000,-28.000000,-60.000000,-19.000000
1306246.460337,20.000000,7.000000,78.000000,-12.000000,-61.000000,35.000000,55.000000,-4.000000
1306246.460347,53.000000,-15.000000,2.000000,127.000000,81.000000,23.000000,89.000000,81.000000
1306246.474170,-21.000000,-1.000000,-2.000000,-128.000000,-21.000000,-20.000000,-48.000000,-23.000000
1306246.474180,-36.000000,8.000000,-18.000000,-82.000000,10.000000,0.000000,-32.000000,-35.000000
1306246.481233,20.000000,-4.000000,41.000000,85.000000,-1.000000,-8.000000,-9.000000,-1.000000
1306246.481243,3.000000,4.000000,-54.000000,2.000000,-20.000000,-13.000000,51.000000,10.000000
1306246.519510,23.000000,-9.000000,20.000000,11.000000,6.000000,9.000000,12.000000,28.000000
1306246.519530,-28.000000,5.000000,-12.000000,-16.000000,-6.000000,-13.000000,-4.000000,-16.000000
1306246.519645,18.000000,-4.000000,-12.000000,4.000000,2.000000,3.000000,-21.000000,10.000000
1306246.519655,-13.000000,-6.000000,-2.000000,85.000000,-11.000000,-13.000000,-28.000000,-32.000000
1306246.520635,42.000000,-4.000000,105.000000,8.000000,32.000000,1.000000,-4.000000,39.000000
1306246.520643,-14.000000,1.000000,2.000000,-1.000000,-15.000000,10.000000,78.000000,17.000000
1306246.521506,-1.000000,-18.000000,-53.000000,-37.000000,-17.000000,-21.000000,-9.000000,9.000000
1306246.521515,0.000000,2.000000,60.000000,-128.000000,-67.000000,2.000000,-37.000000,-32.000000
1306246.534037,0.000000,-17.000000,-18.000000,33.000000,23.000000,6.000000,-8.000000,8.000000
1306246.534081,-24.000000,-15.000000,-29.000000,-88.000000,-14.000000,-10.000000,0.000000,-3.000000
1306246.541291,-3.000000,-7.000000,-5.000000,9.000000,-6.000000,-15.000000,-45.000000,-23.000000
1306246.541302,-5.000000,15.000000,-25.000000,-128.000000,-7.000000,8.000000,48.000000,-42.000000
1306246.564082,46.000000,-8.000000,69.000000,127.000000,127.000000,67.000000,115.000000,120.000000
1306246.564096,1.000000,-9.000000,16.000000,-110.000000,-28.000000,-23.000000,-47.000000,-11.000000
1306246.564689,-35.000000,4.000000,-44.000000,-43.000000,-13.000000,-16.000000,-71.000000,-65.000000
1306246.564699,-10.000000,7.000000,10.000000,-9.000000,-12.000000,3.000000,-5.000000,-21.000000
1306246.586711,41.000000,2.000000,18.000000,21.000000,10.000000,11.000000,76.000000,63.000000
1306246.586744,21.000000,11.000000,14.000000,15.000000,16.000000,17.000000,-2.000000,9.000000
1306246.601261,-4.000000,-4.000000,-9.000000,93.000000,26.000000,7.000000,-12.000000,0.000000
1306246.601272,3.000000,-3.000000,28.000000,31.000000,15.000000,-3.000000,-26.000000,-15.000000
1306246.624494,-13.000000,-12.000000,-36.000000,-41.000000,-17.000000,-11.000000,-1.000000,-9.000000
1306246.624524,7.000000,-9.000000,-48.000000,-50.000000,-17.000000,-12.000000,-20.000000,-12.000000
1306246.625165,2.000000,-8.000000,95.000000,127.000000,-2.000000,8.000000,48.000000,32.000000
1306246.625192,-15.000000,-26.000000,-17.000000,-14.000000,-36.000000,-17.000000,5.000000,42.000000
1306246.626232,-7.000000,-8.000000,-37.000000,-13.000000,16.000000,-7.000000,-45.000000,-31.000000
1306246.626240,-15.000000,-18.000000,-37.000000,-128.000000,-39.000000,-4.000000,-26.000000,-21.000000
1306246.627085,25.000000,-19.000000,11.000000,-26.000000,-65.000000,4.000000,31.000000,19.000000
1306246.627093,-39.000000,-37.000000,-79.000000,-44.000000,16.000000,-26.000000,-14.000000,-15.000000
1306246.661616,-10.000000,-10.000000,-12.000000,-128.000000,-22.000000,-14.000000,-37.000000,-33.000000
1306246.661626,11.000000,6.000000,-6.000000,38.000000,5.000000,10.000000,46.000000,65.000000
1306246.676602,3.000000,12.000000,-13.000000,-22.000000,-14.000000,-6.000000,-37.000000,8.000000
1306246.676612,-31.000000,30.000000,31.000000,65.000000,24.000000,11.000000,63.000000,-12.000000
1306246.677750,-12.000000,26.000000,-7.000000,37.000000,27.000000,7.000000,-72.000000,-18.000000
1306246.677830,13.000000,-2.000000,-93.000000,-128.000000,-48.000000,-24.000000,81.000000,12.000000
1306246.678372,8.000000,-3.000000,127.000000,127.000000,119.000000,42.000000,-8.000000,27.000000
1306246.678394,-12.000000,-4.000000,-52.000000,-65.000000,-16.000000,-2.000000,-55.000000,-36.000000
1306246.679594,-39.000000,-9.000000,-19.000000,-42.000000,-14.000000,-10.000000,6.000000,-23.000000
1306246.679602,5.000000,-5.000000,2.000000,15.000000,-50.000000,-7.000000,12.000000,-21.000000
1306246.684036,-17.000000,-1.000000,-26.000000,-44.000000,-23.000000,-10.000000,-1.000000,7.000000
1306246.684059,12.000000,-7.000000,-5.000000,-24.000000,-12.000000,-10.000000,-28.000000,-14.000000
1306246.706363,21.000000,-2.000000,-7.000000,47.000000,37.000000,13.000000,23.000000,16.000000
1306246.706374,-9.000000,-3.000000,25.000000,38.000000,6.000000,1.000000,-36.000000,-15.000000
1306246.721561,-24.000000,-3.000000,-30.000000,-96.000000,-36.000000,-16.000000,-10.000000,-27.000000
1306246.721571,10.000000,1.000000,-74.000000,-26.000000,-44.000000,-21.000000,6.000000,-18.000000
1306246.743844,19.000000,-2.000000,5.000000,-5.000000,-12.000000,17.000000,38.000000,78.000000
1306246.743862,43.000000,0.000000,56.000000,127.000000,42.000000,17.000000,-3.000000,18.000000
1306246.759080,-24.000000,-1.000000,-28.000000,-44.000000,18.000000,-15.000000,-31.000000,-17.000000
1306246.759093,-33.000000,-4.000000,5.000000,-30.000000,-19.000000,-18.000000,-36.000000,-42.000000
1306246.760026,-7.000000,0.000000,-11.000000,-110.000000,-87.000000,5.000000,1.000000,-20.000000
1306246.760041,9.000000,2.000000,-34.000000,-5.000000,-18.000000,-21.000000,51.000000,34.000000
1306246.760557,-4.000000,1.000000,49.000000,-33.000000,10.000000,-11.000000,-31.000000,-11.000000
1306246.760567,-2.000000,-2.000000,-32.000000,-30.000000,-4.000000,0.000000,-37.000000,-21.000000
1306246.761889,-38.000000,7.000000,-36.000000,24.000000,35.000000,0.000000,-94.000000,-58.000000
1306246.761899,19.000000,1.000000,36.000000,-44.000000,-55.000000,19.000000,98.000000,61.000000
1306246.762729,21.000000,-2.000000,31.000000,127.000000,127.000000,22.000000,35.000000,35.000000
1306246.762738,15.000000,-6.000000,-5.000000,7.000000,-14.000000,-14.000000,-60.000000,-7.000000
1306246.781903,-33.000000,-4.000000,-74.000000,-47.000000,-63.000000,-11.000000,18.000000,-50.000000
1306246.781923,63.000000,-2.000000,55.000000,5.000000,0.000000,18.000000,35.000000,69.000000
1306246.782699,-20.000000,-1.000000,29.000000,-62.000000,-19.000000,0.000000,28.000000,9.000000
1306246.782713,-28.000000,-4.000000,-43.000000,3.000000,-22.000000,-20.000000,-35.000000,-42.000000
1306246.797109,1.000000,0.000000,17.000000,-2.000000,-32.000000,-7.000000,-4.000000,-1.000000
1306246.797119,5.000000,0.000000,-50.000000,127.000000,51.000000,12.000000,0.000000,-3.000000
1306246.804099,-34.000000,8.000000,27.000000,7.000000,-17.000000,-22.000000,-21.000000,-14.000000
1306246.804110,22.000000,-6.000000,5.000000,-33.000000,28.000000,4.000000,-17.000000,-21.000000
1306246.841524,-5.000000,-6.000000,30.000000,97.000000,58.000000,25.000000,40.000000,5.000000
1306246.841545,1.000000,-10.000000,3.000000,-25.000000,21.000000,-8.000000,31.000000,23.000000
1306246.856691,-5.000000,-1.000000,-17.000000,-9.000000,16.000000,0.000000,1.000000,-37.000000
1306246.856703,2.000000,2.000000,-21.000000,-10.000000,8.000000,12.000000,-7.000000,34.000000
1306246.878941,3.000000,0.000000,43.000000,2.000000,-56.000000,-26.000000,-5.000000,-22.000000
1306246.878952,-15.000000,5.000000,-33.000000,-10.000000,-1.000000,11.000000,23.000000,4.000000
1306246.901527,-30.000000,2.000000,-12.000000,4.000000,0.000000,-12.000000,-47.000000,-40.000000
1306246.901540,-3.000000,-11.000000,-8.000000,-14.000000,-69.000000,-19.000000,-48.000000,-3.000000
1306246.902463,6.000000,-9.000000,-18.000000,-119.000000,-26.000000,0.000000,96.000000,14.000000
1306246.902476,16.000000,-4.000000,39.000000,127.000000,49.000000,29.000000,-4.000000,37.000000
1306246.903082,1.000000,3.000000,-7.000000,-75.000000,-24.000000,-17.000000,-27.000000,-20.000000
1306246.903091,-5.000000,0.000000,-7.000000,-31.000000,-24.000000,-10.000000,-9.000000,-19.000000
1306246.904443,30.000000,-2.000000,81.000000,127.000000,84.000000,41.000000,127.000000,83.000000
1306246.904453,17.000000,-9.000000,10.000000,41.000000,-2.000000,-20.000000,-45.000000,-12.000000
1306246.905241,-12.000000,-1.000000,-8.000000,-39.000000,-10.000000,-6.000000,-14.000000,13.000000
1306246.905251,-21.000000,5.000000,-18.000000,-52.000000,-12.000000,-12.000000,-68.000000,-49.000000
1306246.916931,-1.000000,0.000000,7.000000,33.000000,18.000000,0.000000,-2.000000,-13.000000
1306246.916940,-18.000000,0.000000,-6.000000,7.000000,-8.000000,-9.000000,-20.000000,-2.000000
1306246.954122,-6.000000,-3.000000,-29.000000,-15.000000,1.000000,2.000000,-3.000000,-17.000000
1306246.954132,4.000000,-4.000000,36.000000,21.000000,14.000000,3.000000,-4.000000,7.000000
1306246.968981,4.000000,-5.000000,30.000000,14.000000,13.000000,6.000000,4.000000,-6.000000
1306246.969013,-10.000000,0.000000,-32.000000,-23.000000,-45.000000,-19.000000,6.000000,-3.000000
1306246.976461,6.000000,-8.000000,-12.000000,1.000000,-43.000000,-9.000000,-9.000000,6.000000
1306246.976471,-14.000000,0.000000,-33.000000,-33.000000,25.000000,-30.000000,-99.000000,-37.000000
1306246.999428,47.000000,-2.000000,97.000000,81.000000,0.000000,14.000000,96.000000,17.000000
1306246.999449,-3.000000,0.000000,-7.000000,51.000000,30.000000,16.000000,63.000000,80.000000
1306247.000008,-16.000000,3.000000,-3.000000,-3.000000,2.000000,-12.000000,-58.000000,-38.000000
1306247.000016,-27.000000,3.000000,-40.000000,-58.000000,-23.000000,-21.000000,-59.000000,-38.000000
1306247.001508,-3.000000,-4.000000,28.000000,-41.000000,-14.000000,1.000000,-7.000000,-17.000000
1306247.001528,6.000000,-2.000000,7.000000,27.000000,-3.000000,-1.000000,36.000000,21.000000
1306247.002192,1.000000,0.000000,-55.000000,-44.000000,-16.000000,-21.000000,-49.000000,2.000000
1306247.002201,-24.000000,6.000000,47.000000,-123.000000,-37.000000,5.000000,8.000000,-15.000000
1306247.013693,0.000000,-9.000000,-6.000000,76.000000,30.000000,-4.000000,4.000000,-29.000000
1306247.013707,-1.000000,0.000000,-28.000000,-47.000000,-35.000000,1.000000,-8.000000,2.000000
1306247.015084,-23.000000,-5.000000,18.000000,77.000000,-8.000000,-14.000000,-7.000000,0.000000
1306247.015105,-5.000000,-1.000000,32.000000,-10.000000,17.000000,31.000000,-3.000000,-14.000000
1306247.021267,19.000000,1.000000,-2.000000,-1.000000,0.000000,6.000000,41.000000,37.000000
1306247.021277,-12.000000,-4.000000,-20.000000,-1.000000,10.000000,-11.000000,-32.000000,-12.000000
1306247.036875,2.000000,1.000000,-5.000000,-31.000000,-7.000000,7.000000,-52.000000,-32.000000
1306247.036903,-36.000000,-2.000000,19.000000,-69.000000,-45.000000,-16.000000,83.000000,-10.000000
1306247.059066,29.000000,4.000000,12.000000,127.000000,48.000000,5.000000,24.000000,50.000000
1306247.059091,-7.000000,10.000000,0.000000,-89.000000,-9.000000,-11.000000,-36.000000,-27.000000
1306247.074039,-17.000000,-2.000000,-2.000000,-28.000000,-55.000000,-12.000000,-28.000000,-28.000000
1306247.074058,-14.000000,3.000000,-39.000000,-10.000000,2.000000,1.000000,-7.000000,-16.000000
1306247.081251,-8.000000,-7.000000,-27.000000,-28.000000,-7.000000,-7.000000,20.000000,-13.000000
1306247.081280,14.000000,-4.000000,10.000000,-18.000000,-11.000000,0.000000,9.000000,22.000000
1306247.118646,3.000000,2.000000,91.000000,96.000000,11.000000,8.000000,-9.000000,-32.000000
1306247.118659,-29.000000,-2.000000,-33.000000,38.000000,17.000000,18.000000,24.000000,-9.000000
1306247.119161,70.000000,-5.000000,8.000000,14.000000,-2.000000,-3.000000,25.000000,23.000000
1306247.119169,-20.000000,-5.000000,-27.000000,-57.000000,17.000000,-16.000000,-32.000000,21.000000
1306247.120500,-4.000000,-1.000000,20.000000,-65.000000,14.000000,-8.000000,-41.000000,-32.000000
1306247.120514,9.000000,5.000000,19.000000,127.000000,66.000000,19.000000,10.000000,0.000000
1306247.121156,14.000000,10.000000,-26.000000,-22.000000,-17.000000,-1.000000,76.000000,63.000000
1306247.121170,-15.000000,-4.000000,-5.000000,-14.000000,-14.000000,-14.000000,-50.000000,-39.000000
1306247.141636,-11.000000,-8.000000,-25.000000,-19.000000,-1.000000,-8.000000,10.000000,-24.000000
1306247.141660,25.000000,-11.000000,-27.000000,-128.000000,-26.000000,-20.000000,0.000000,1.000000
1306247.142679,2.000000,0.000000,19.000000,127.000000,66.000000,26.000000,26.000000,43.000000
1306247.142692,-5.000000,-7.000000,38.000000,-29.000000,18.000000,-8.000000,-21.000000,-8.000000
1306247.143357,-8.000000,3.000000,-9.000000,-54.000000,-3.000000,-11.000000,-20.000000,-19.000000
1306247.143367,2.000000,0.000000,5.000000,-20.000000,-7.000000,-1.000000,-19.000000,-15.000000
1306247.157081,-9.000000,8.000000,-43.000000,-47.000000,-57.000000,-9.000000,13.000000,8.000000
1306247.157091,-7.000000,-4.000000,-36.000000,-76.000000,-43.000000,1.000000,20.000000,-1.000000
1306247.178846,13.000000,2.000000,46.000000,47.000000,3.000000,-6.000000,-15.000000,9.000000
1306247.178870,-7.000000,-9.000000,-6.000000,-55.000000,-16.000000,-11.000000,-15.000000,9.000000
1306247.201521,-10.000000,-4.000000,-9.000000,-13.000000,3.000000,-6.000000,2.000000,-6.000000
1306247.201545,-5.000000,0.000000,-9.000000,8.000000,-28.000000,-17.000000,-22.000000,-27.000000
1306247.216299,9.000000,4.000000,1.000000,-13.000000,-8.000000,3.000000,-47.000000,-7.000000
1306247.216324,37.000000,-7.000000,-15.000000,-6.000000,-6.000000,-3.000000,36.000000,33.000000
1306247.231605,-16.000000,2.000000,-13.000000,-10.000000,2.000000,-4.000000,9.000000,-7.000000
1306247.231616,-8.000000,9.000000,1.000000,23.000000,9.000000,1.000000,-43.000000,-6.000000
1306247.238784,-2.000000,-3.000000,17.000000,34.000000,-49.000000,-11.000000,-20.000000,-22.000000
1306247.238813,-7.000000,-4.000000,-4.000000,-1.000000,-26.000000,-9.000000,12.000000,1.000000
1306247.240031,13.000000,4.000000,-33.000000,-34.000000,14.000000,1.000000,-16.000000,-21.000000
1306247.240059,-12.000000,-5.000000,9.000000,34.000000,-31.000000,9.000000,12.000000,6.000000
1306247.240587,30.000000,-9.000000,31.000000,110.000000,33.000000,12.000000,32.000000,35.000000
1306247.240595,0.000000,-2.000000,-67.000000,-55.000000,-15.000000,-11.000000,-5.000000,9.000000
1306247.241719,3.000000,7.000000,23.000000,-4.000000,49.000000,14.000000,-37.000000,-19.000000
1306247.241739,-22.000000,-9.000000,21.000000,1.000000,-39.000000,9.000000,4.000000,-6.000000
1306247.253868,5.000000,-5.000000,-11.000000,109.000000,43.000000,0.000000,34.000000,32.000000
1306247.253880,-26.000000,7.000000,-43.000000,-55.000000,-15.000000,-18.000000,-49.000000,-36.000000
1306247.255050,-40.000000,2.000000,-10.000000,-25.000000,21.000000,25.000000,-48.000000,-64.000000
1306247.255059,43.000000,-1.000000,10.000000,-114.000000,-48.000000,1.000000,127.000000,78.000000
1306247.268773,18.000000,-6.000000,9.000000,41.000000,41.000000,-7.000000,-13.000000,46.000000
1306247.268783,-25.000000,0.000000,6.000000,20.000000,-15.000000,-4.000000,-42.000000,-31.000000
1306247.284135,-3.000000,6.000000,7.000000,-1.000000,-4.000000,3.000000,33.000000,5.000000
1306247.284158,5.000000,-5.000000,13.000000,-11.000000,-12.000000,-14.000000,-39.000000,-16.000000
1306247.284600,1.000000,-3.000000,-18.000000,-4.000000,6.000000,-9.000000,2.000000,3.000000
1306247.284635,3.000000,4.000000,2.000000,-15.000000,-1.000000,20.000000,31.000000,-4.000000
1306247.299115,13.000000,-1.000000,12.000000,20.000000,23.000000,8.000000,26.000000,35.000000
1306247.299131,-8.000000,-5.000000,-8.000000,65.000000,-2.000000,1.000000,-17.000000,-3.000000
1306247.306443,-2.000000,2.000000,28.000000,-15.000000,-5.000000,5.000000,-13.000000,-16.000000
