# participant_id: P6
# gesture: hard
# trial_number: 2
# stream_name: Myo_EMG
# stream_type: emg
# timestamp: 20260420_145345
# samples: 5310
# duration_sec: 30.622
# nominal_sample_rate: 200.0
# effective_sample_rate: 173.37
#
timestamp,emg_1,emg_2,emg_3,emg_4,emg_5,emg_6,emg_7,emg_8
1301517.222306,74.000000,-6.000000,68.000000,59.000000,12.000000,38.000000,127.000000,99.000000
1301517.222341,-98.000000,6.000000,-75.000000,-65.000000,-27.000000,-40.000000,-49.000000,-90.000000
1301517.236820,5.000000,24.000000,-16.000000,-18.000000,9.000000,13.000000,8.000000,-52.000000
1301517.236861,1.000000,-4.000000,52.000000,21.000000,43.000000,27.000000,105.000000,-33.000000
1301517.259124,-51.000000,3.000000,-36.000000,29.000000,-89.000000,-128.000000,127.000000,115.000000
1301517.259179,-128.000000,8.000000,34.000000,-41.000000,21.000000,22.000000,-128.000000,4.000000
1301517.259651,127.000000,5.000000,127.000000,117.000000,90.000000,98.000000,-20.000000,20.000000
1301517.259668,-48.000000,10.000000,-128.000000,-13.000000,-74.000000,-123.000000,127.000000,-19.000000
1301517.261195,78.000000,9.000000,-128.000000,7.000000,15.000000,9.000000,-120.000000,5.000000
1301517.261209,39.000000,9.000000,-128.000000,-51.000000,-69.000000,-128.000000,-128.000000,-23.000000
1301517.262102,-128.000000,-5.000000,-47.000000,-62.000000,-55.000000,-11.000000,-128.000000,15.000000
1301517.262230,-28.000000,-6.000000,-32.000000,37.000000,49.000000,39.000000,-128.000000,-22.000000
1301517.281295,-11.000000,5.000000,-128.000000,33.000000,10.000000,20.000000,4.000000,-11.000000
1301517.281305,-4.000000,5.000000,127.000000,-15.000000,9.000000,17.000000,-39.000000,9.000000
1301517.282579,-121.000000,-7.000000,-11.000000,127.000000,85.000000,-21.000000,-79.000000,-11.000000
1301517.282588,-96.000000,1.000000,127.000000,-68.000000,-34.000000,25.000000,127.000000,-13.000000
1301517.283397,10.000000,-1.000000,49.000000,-41.000000,-2.000000,-1.000000,-128.000000,-10.000000
1301517.283414,-9.000000,15.000000,125.000000,127.000000,101.000000,109.000000,127.000000,65.000000
1301517.305007,-76.000000,1.000000,127.000000,5.000000,-58.000000,24.000000,127.000000,127.000000
1301517.305017,-35.000000,2.000000,-63.000000,-27.000000,21.000000,17.000000,-87.000000,32.000000
1301517.305593,37.000000,-5.000000,-43.000000,28.000000,39.000000,24.000000,59.000000,31.000000
1301517.305610,10.000000,-9.000000,7.000000,55.000000,68.000000,52.000000,4.000000,19.000000
1301517.341724,42.000000,-13.000000,0.000000,-108.000000,-23.000000,20.000000,-28.000000,20.000000
1301517.341734,2.000000,-1.000000,-128.000000,127.000000,30.000000,-6.000000,65.000000,-14.000000
1301517.349156,5.000000,3.000000,22.000000,-65.000000,-24.000000,-7.000000,-60.000000,15.000000
1301517.349166,68.000000,-11.000000,22.000000,-37.000000,-25.000000,-20.000000,63.000000,60.000000
1301517.364140,2.000000,-6.000000,-2.000000,-29.000000,41.000000,62.000000,-60.000000,-52.000000
1301517.364154,52.000000,1.000000,127.000000,127.000000,38.000000,-5.000000,-128.000000,34.000000
1301517.379639,46.000000,17.000000,38.000000,99.000000,-12.000000,-55.000000,127.000000,16.000000
1301517.379679,-107.000000,10.000000,-4.000000,-124.000000,-61.000000,-109.000000,-128.000000,-128.000000
1301517.402054,-48.000000,6.000000,-128.000000,-42.000000,-74.000000,-86.000000,48.000000,-40.000000
1301517.402104,26.000000,5.000000,-68.000000,-116.000000,-21.000000,6.000000,-128.000000,22.000000
1301517.402686,17.000000,9.000000,50.000000,56.000000,10.000000,10.000000,-43.000000,16.000000
1301517.402711,34.000000,12.000000,-128.000000,-32.000000,-8.000000,-7.000000,-54.000000,-98.000000
1301517.403837,8.000000,12.000000,-79.000000,9.000000,17.000000,24.000000,-71.000000,30.000000
1301517.403850,11.000000,14.000000,-128.000000,-52.000000,-70.000000,9.000000,18.000000,-128.000000
1301517.404576,10.000000,-7.000000,-36.000000,-37.000000,1.000000,4.000000,-36.000000,37.000000
1301517.404594,5.000000,-9.000000,94.000000,-25.000000,21.000000,59.000000,-128.000000,-5.000000
1301517.417168,-51.000000,14.000000,34.000000,-44.000000,-56.000000,-81.000000,117.000000,-29.000000
1301517.417176,19.000000,9.000000,-23.000000,-40.000000,0.000000,-1.000000,-58.000000,-30.000000
1301517.424011,22.000000,23.000000,40.000000,-115.000000,-36.000000,-37.000000,127.000000,47.000000
1301517.424028,-85.000000,3.000000,-33.000000,127.000000,38.000000,3.000000,-56.000000,-60.000000
1301517.439017,-51.000000,12.000000,-128.000000,-14.000000,38.000000,70.000000,-128.000000,-10.000000
1301517.439070,72.000000,0.000000,16.000000,-33.000000,-9.000000,-62.000000,127.000000,35.000000
1301517.461799,59.000000,-21.000000,101.000000,62.000000,30.000000,26.000000,-128.000000,25.000000
1301517.461820,-77.000000,-14.000000,-44.000000,-82.000000,-62.000000,-10.000000,10.000000,-25.000000
1301517.498877,2.000000,12.000000,-128.000000,25.000000,39.000000,35.000000,-5.000000,-17.000000
1301517.498907,15.000000,-4.000000,127.000000,-13.000000,-10.000000,8.000000,-128.000000,-7.000000
1301517.499453,-28.000000,9.000000,-128.000000,-61.000000,-60.000000,-128.000000,127.000000,-7.000000
1301517.499461,50.000000,-4.000000,127.000000,6.000000,-3.000000,-14.000000,-128.000000,-26.000000
1301517.500693,-62.000000,-12.000000,13.000000,-32.000000,47.000000,83.000000,-62.000000,1.000000
1301517.500710,-36.000000,11.000000,-44.000000,127.000000,45.000000,31.000000,79.000000,-31.000000
1301517.501252,4.000000,9.000000,68.000000,-11.000000,34.000000,24.000000,44.000000,-22.000000
1301517.501269,36.000000,2.000000,58.000000,32.000000,51.000000,105.000000,42.000000,38.000000
1301517.502895,6.000000,11.000000,-103.000000,-9.000000,-12.000000,-10.000000,127.000000,46.000000
1301517.502912,-100.000000,10.000000,-9.000000,-25.000000,-17.000000,-3.000000,-128.000000,-78.000000
1301517.514021,48.000000,-4.000000,25.000000,54.000000,54.000000,83.000000,61.000000,1.000000
1301517.514059,47.000000,-4.000000,-30.000000,-38.000000,8.000000,-22.000000,39.000000,22.000000
1301517.515238,-45.000000,-13.000000,40.000000,127.000000,-20.000000,-87.000000,-114.000000,22.000000
1301517.515278,16.000000,9.000000,13.000000,-16.000000,-7.000000,17.000000,-28.000000,-61.000000
1301517.522393,-29.000000,-1.000000,2.000000,20.000000,27.000000,40.000000,127.000000,13.000000
1301517.522432,42.000000,-7.000000,22.000000,49.000000,21.000000,26.000000,-32.000000,58.000000
1301517.537052,-124.000000,-5.000000,62.000000,-128.000000,-11.000000,20.000000,-18.000000,-70.000000
1301517.537062,-37.000000,2.000000,-128.000000,32.000000,-15.000000,49.000000,54.000000,20.000000
1301517.566942,-11.000000,-14.000000,127.000000,-12.000000,0.000000,9.000000,-93.000000,10.000000
1301517.566967,3.000000,-20.000000,2.000000,-35.000000,9.000000,29.000000,-96.000000,-6.000000
1301517.581707,14.000000,5.000000,-49.000000,-66.000000,-24.000000,-46.000000,96.000000,-4.000000
1301517.581718,10.000000,11.000000,-53.000000,65.000000,34.000000,35.000000,-2.000000,42.000000
1301517.596424,-106.000000,-15.000000,-45.000000,-68.000000,-46.000000,-49.000000,-85.000000,-62.000000
1301517.596439,16.000000,4.000000,63.000000,-19.000000,-11.000000,-24.000000,-117.000000,-21.000000
1301517.619473,-21.000000,-4.000000,-73.000000,3.000000,-78.000000,-128.000000,-128.000000,-23.000000
1301517.619502,127.000000,-5.000000,11.000000,-48.000000,-26.000000,45.000000,-56.000000,32.000000
1301517.620156,-104.000000,11.000000,-44.000000,-48.000000,-10.000000,18.000000,-128.000000,-61.000000
1301517.620165,-34.000000,-5.000000,-128.000000,8.000000,-17.000000,-41.000000,-48.000000,41.000000
1301517.621432,55.000000,2.000000,118.000000,48.000000,-5.000000,-31.000000,-69.000000,-88.000000
1301517.621468,30.000000,-10.000000,-40.000000,-42.000000,2.000000,7.000000,17.000000,38.000000
1301517.622029,31.000000,0.000000,44.000000,-7.000000,11.000000,44.000000,-56.000000,29.000000
1301517.622049,13.000000,2.000000,127.000000,56.000000,-15.000000,-53.000000,127.000000,-2.000000
1301517.634115,-4.000000,-7.000000,-3.000000,-34.000000,34.000000,32.000000,90.000000,1.000000
1301517.634127,20.000000,-4.000000,104.000000,13.000000,-16.000000,-33.000000,-57.000000,10.000000
1301517.635228,-50.000000,-10.000000,-40.000000,-45.000000,-17.000000,-54.000000,75.000000,-28.000000
1301517.635249,-7.000000,-4.000000,17.000000,-15.000000,1.000000,16.000000,-90.000000,-7.000000
1301517.641339,-71.000000,-3.000000,-48.000000,21.000000,7.000000,97.000000,127.000000,-21.000000
1301517.641348,-1.000000,15.000000,35.000000,-15.000000,-10.000000,-13.000000,127.000000,54.000000
1301517.657125,-5.000000,11.000000,-54.000000,54.000000,39.000000,52.000000,8.000000,17.000000
1301517.657145,29.000000,-2.000000,3.000000,-48.000000,-29.000000,-7.000000,16.000000,-59.000000
1301517.671634,-69.000000,-13.000000,-128.000000,9.000000,15.000000,14.000000,-18.000000,-23.000000
1301517.671655,37.000000,-20.000000,73.000000,-23.000000,-12.000000,1.000000,-128.000000,44.000000
1301517.686442,-39.000000,-22.000000,-105.000000,-51.000000,19.000000,68.000000,107.000000,5.000000
1301517.686459,34.000000,-13.000000,12.000000,-22.000000,16.000000,31.000000,74.000000,13.000000
1301517.694010,46.000000,13.000000,-128.000000,127.000000,6.000000,-68.000000,41.000000,24.000000
1301517.694027,-100.000000,7.000000,19.000000,-92.000000,-15.000000,-23.000000,-128.000000,-37.000000
1301517.716776,13.000000,-7.000000,-51.000000,-45.000000,-7.000000,-10.000000,127.000000,-3.000000
1301517.716806,-21.000000,-9.000000,-128.000000,-97.000000,-36.000000,-32.000000,-20.000000,12.000000
1301517.739010,-14.000000,12.000000,81.000000,92.000000,29.000000,13.000000,-107.000000,-19.000000
1301517.739021,-60.000000,2.000000,-9.000000,-45.000000,3.000000,-8.000000,-13.000000,-60.000000
1301517.739998,104.000000,-6.000000,-128.000000,24.000000,-35.000000,-128.000000,28.000000,36.000000
1301517.740016,-57.000000,3.000000,-12.000000,-45.000000,6.000000,15.000000,-128.000000,-15.000000
1301517.740669,1.000000,-2.000000,-6.000000,16.000000,27.000000,30.000000,-128.000000,-23.000000
1301517.740687,25.000000,-15.000000,-16.000000,-3.000000,-2.000000,-6.000000,-118.000000,30.000000
1301517.743176,-23.000000,-3.000000,-11.000000,-5.000000,12.000000,32.000000,127.000000,14.000000
1301517.743195,-5.000000,-7.000000,-14.000000,-10.000000,1.000000,12.000000,-20.000000,-35.000000
1301517.754124,80.000000,-6.000000,-50.000000,-44.000000,-13.000000,29.000000,84.000000,73.000000
1301517.754144,24.000000,-2.000000,127.000000,107.000000,35.000000,4.000000,-1.000000,-11.000000
1301517.792411,-72.000000,8.000000,-5.000000,19.000000,14.000000,5.000000,-82.000000,-32.000000
1301517.792451,-2.000000,6.000000,-2.000000,-128.000000,-11.000000,2.000000,-28.000000,1.000000
1301517.799866,42.000000,-1.000000,125.000000,127.000000,42.000000,-15.000000,-11.000000,3.000000
1301517.799904,-7.000000,1.000000,80.000000,-1.000000,26.000000,-6.000000,-128.000000,-15.000000
1301517.836319,-6.000000,7.000000,-14.000000,-83.000000,-45.000000,-19.000000,-109.000000,-24.000000
1301517.836331,48.000000,-15.000000,-3.000000,-30.000000,15.000000,16.000000,-128.000000,50.000000
1301517.836993,-28.000000,20.000000,-48.000000,18.000000,-54.000000,-62.000000,43.000000,-38.000000
1301517.837001,-99.000000,15.000000,-6.000000,6.000000,24.000000,18.000000,-100.000000,-39.000000
1301517.838408,16.000000,2.000000,7.000000,24.000000,11.000000,12.000000,-128.000000,4.000000
1301517.838417,0.000000,5.000000,-41.000000,-57.000000,-64.000000,-75.000000,119.000000,35.000000
1301517.839232,-17.000000,6.000000,37.000000,45.000000,42.000000,83.000000,-59.000000,26.000000
1301517.839250,-9.000000,2.000000,-17.000000,22.000000,24.000000,49.000000,105.000000,-15.000000
1301517.852247,-28.000000,0.000000,15.000000,52.000000,17.000000,27.000000,-16.000000,17.000000
1301517.852257,-25.000000,-1.000000,91.000000,-51.000000,-19.000000,6.000000,-58.000000,-7.000000
1301517.859088,-86.000000,-9.000000,-2.000000,101.000000,-7.000000,-7.000000,-66.000000,-103.000000
1301517.859098,-8.000000,9.000000,-20.000000,-58.000000,-45.000000,-5.000000,-12.000000,3.000000
1301517.897390,-1.000000,9.000000,-33.000000,-27.000000,27.000000,79.000000,-58.000000,-19.000000
1301517.897430,44.000000,-2.000000,5.000000,7.000000,10.000000,-10.000000,107.000000,73.000000
1301517.911839,-51.000000,-10.000000,-47.000000,-46.000000,-5.000000,0.000000,-128.000000,-43.000000
1301517.911863,39.000000,13.000000,13.000000,39.000000,20.000000,77.000000,127.000000,4.000000
1301517.912597,-20.000000,0.000000,-14.000000,24.000000,1.000000,-70.000000,27.000000,20.000000
1301517.912613,28.000000,-10.000000,-7.000000,-16.000000,-9.000000,-31.000000,-9.000000,30.000000
1301517.913564,-6.000000,4.000000,34.000000,-22.000000,9.000000,24.000000,-50.000000,-1.000000
1301517.913582,21.000000,-7.000000,19.000000,66.000000,15.000000,18.000000,-79.000000,-9.000000
1301517.914491,-36.000000,5.000000,25.000000,-18.000000,-17.000000,3.000000,41.000000,2.000000
1301517.914508,35.000000,-4.000000,50.000000,-26.000000,-2.000000,44.000000,98.000000,-14.000000
1301517.918943,-2.000000,-3.000000,-9.000000,-5.000000,25.000000,6.000000,-128.000000,-1.000000
1301517.918962,-10.000000,-12.000000,-128.000000,-116.000000,-43.000000,-50.000000,127.000000,11.000000
1301517.933883,45.000000,6.000000,-8.000000,58.000000,23.000000,13.000000,-51.000000,-10.000000
1301517.933901,-35.000000,10.000000,57.000000,-24.000000,-9.000000,14.000000,-25.000000,-10.000000
1301517.935265,5.000000,11.000000,0.000000,38.000000,21.000000,21.000000,-30.000000,12.000000
1301517.935275,3.000000,-7.000000,3.000000,-19.000000,-16.000000,-54.000000,-71.000000,-9.000000
1301517.949674,-14.000000,-4.000000,-20.000000,-39.000000,-37.000000,-33.000000,46.000000,35.000000
1301517.949686,-31.000000,9.000000,-55.000000,-65.000000,-27.000000,0.000000,-52.000000,18.000000
1301517.957447,47.000000,10.000000,75.000000,86.000000,7.000000,-13.000000,-16.000000,10.000000
1301517.957473,-7.000000,1.000000,-18.000000,-5.000000,0.000000,4.000000,-45.000000,-16.000000
1301517.971512,-14.000000,-4.000000,31.000000,-39.000000,-10.000000,12.000000,-2.000000,-4.000000
1301517.971537,18.000000,0.000000,44.000000,41.000000,1.000000,-5.000000,-10.000000,-26.000000
1301517.978863,0.000000,10.000000,127.000000,102.000000,34.000000,20.000000,-4.000000,37.000000
1301517.978879,-22.000000,-7.000000,9.000000,-36.000000,-19.000000,-4.000000,70.000000,4.000000
1301517.994566,32.000000,-4.000000,63.000000,24.000000,43.000000,47.000000,-93.000000,27.000000
1301517.994725,-10.000000,-8.000000,-128.000000,-64.000000,-66.000000,-81.000000,-59.000000,-34.000000
1301517.995409,19.000000,4.000000,-12.000000,-92.000000,-59.000000,-63.000000,-64.000000,-3.000000
1301517.995418,-20.000000,0.000000,-33.000000,-39.000000,-16.000000,-19.000000,-128.000000,-18.000000
1301518.016779,3.000000,-10.000000,-30.000000,20.000000,7.000000,28.000000,99.000000,28.000000
1301518.016797,12.000000,-6.000000,105.000000,-12.000000,-18.000000,8.000000,-58.000000,1.000000
1301518.053935,-16.000000,-2.000000,19.000000,-19.000000,-5.000000,-10.000000,69.000000,9.000000
1301518.053945,33.000000,-4.000000,1.000000,14.000000,16.000000,12.000000,-128.000000,12.000000
1301518.061526,36.000000,2.000000,70.000000,28.000000,13.000000,29.000000,-128.000000,9.000000
1301518.061544,-35.000000,-6.000000,-94.000000,-102.000000,-109.000000,-128.000000,127.000000,-41.000000
1301518.076613,42.000000,5.000000,86.000000,30.000000,13.000000,30.000000,-128.000000,42.000000
1301518.076654,-16.000000,5.000000,-10.000000,-13.000000,-1.000000,3.000000,-98.000000,-33.000000
1301518.077312,-24.000000,-19.000000,-67.000000,14.000000,26.000000,50.000000,-128.000000,-16.000000
1301518.077340,-26.000000,11.000000,-71.000000,-106.000000,-79.000000,-128.000000,-26.000000,9.000000
1301518.078662,38.000000,0.000000,46.000000,66.000000,2.000000,3.000000,-104.000000,-36.000000
1301518.078744,-9.000000,7.000000,9.000000,-61.000000,-14.000000,0.000000,-25.000000,-3.000000
1301518.079017,35.000000,-9.000000,127.000000,-47.000000,-21.000000,-11.000000,41.000000,1.000000
1301518.079032,-47.000000,-4.000000,127.000000,96.000000,61.000000,27.000000,20.000000,-8.000000
1301518.079695,3.000000,8.000000,32.000000,-9.000000,8.000000,-16.000000,-5.000000,10.000000
1301518.079712,-57.000000,2.000000,-79.000000,-59.000000,-57.000000,-73.000000,9.000000,-26.000000
1301518.091856,59.000000,-5.000000,-15.000000,-48.000000,-32.000000,-17.000000,-65.000000,-11.000000
1301518.091914,1.000000,-6.000000,101.000000,109.000000,69.000000,64.000000,17.000000,27.000000
1301518.114042,-9.000000,-6.000000,-61.000000,-28.000000,-35.000000,-104.000000,-89.000000,-30.000000
1301518.114059,6.000000,0.000000,-16.000000,-23.000000,-7.000000,31.000000,24.000000,24.000000
1301518.114421,-4.000000,-1.000000,28.000000,27.000000,16.000000,19.000000,-88.000000,-32.000000
1301518.114466,-4.000000,-2.000000,-48.000000,10.000000,7.000000,20.000000,-29.000000,-26.000000
1301518.115939,11.000000,-3.000000,-70.000000,-117.000000,-78.000000,-75.000000,127.000000,87.000000
1301518.115959,-29.000000,-3.000000,-16.000000,41.000000,12.000000,7.000000,-128.000000,-32.000000
1301518.129726,7.000000,-7.000000,-32.000000,-18.000000,4.000000,-17.000000,-63.000000,-16.000000
1301518.129766,9.000000,-4.000000,107.000000,-55.000000,-5.000000,23.000000,32.000000,-9.000000
1301518.174843,-6.000000,2.000000,127.000000,76.000000,14.000000,-39.000000,-66.000000,-32.000000
1301518.174882,-8.000000,-32.000000,127.000000,127.000000,12.000000,4.000000,-21.000000,14.000000
1301518.189087,-24.000000,-13.000000,14.000000,-25.000000,11.000000,10.000000,-24.000000,-7.000000
1301518.189161,10.000000,-5.000000,-13.000000,5.000000,6.000000,-7.000000,53.000000,29.000000
1301518.196984,-36.000000,3.000000,-51.000000,21.000000,20.000000,4.000000,-86.000000,-20.000000
1301518.197021,18.000000,-2.000000,15.000000,-62.000000,-37.000000,-9.000000,-24.000000,17.000000
1301518.197552,25.000000,1.000000,54.000000,-18.000000,-21.000000,-31.000000,-46.000000,32.000000
1301518.197562,18.000000,-3.000000,33.000000,-11.000000,23.000000,44.000000,-72.000000,18.000000
1301518.199231,-29.000000,10.000000,59.000000,31.000000,-16.000000,-7.000000,-108.000000,-70.000000
1301518.199259,-2.000000,-5.000000,-19.000000,-19.000000,-7.000000,-40.000000,25.000000,-10.000000
1301518.199855,14.000000,19.000000,-6.000000,-11.000000,-13.000000,4.000000,44.000000,42.000000
1301518.199873,7.000000,-5.000000,54.000000,-24.000000,2.000000,24.000000,71.000000,31.000000
1301518.211722,-3.000000,0.000000,-128.000000,-12.000000,-17.000000,-50.000000,-32.000000,-5.000000
1301518.211740,43.000000,-1.000000,50.000000,-44.000000,-32.000000,-33.000000,6.000000,26.000000
1301518.234140,-80.000000,-2.000000,-12.000000,8.000000,8.000000,-4.000000,23.000000,-26.000000
1301518.234220,8.000000,7.000000,-34.000000,-15.000000,-3.000000,14.000000,-14.000000,-3.000000
1301518.234411,-23.000000,-5.000000,48.000000,-22.000000,5.000000,3.000000,-31.000000,-7.000000
1301518.234420,-30.000000,2.000000,-54.000000,-46.000000,-10.000000,-8.000000,-85.000000,-19.000000
1301518.236145,73.000000,4.000000,127.000000,108.000000,29.000000,-18.000000,12.000000,-14.000000
1301518.236169,3.000000,8.000000,35.000000,13.000000,13.000000,13.000000,-101.000000,13.000000
1301518.249356,-15.000000,-4.000000,-41.000000,-40.000000,-22.000000,-36.000000,127.000000,-12.000000
1301518.249389,-15.000000,1.000000,-10.000000,27.000000,31.000000,64.000000,31.000000,-4.000000
1301518.264178,25.000000,5.000000,-53.000000,-19.000000,-45.000000,-122.000000,-1.000000,56.000000
1301518.264200,-14.000000,12.000000,-23.000000,-73.000000,-41.000000,-1.000000,27.000000,-54.000000
1301518.294588,11.000000,-17.000000,-48.000000,32.000000,33.000000,41.000000,-93.000000,-13.000000
1301518.294608,-5.000000,-4.000000,-106.000000,1.000000,33.000000,22.000000,51.000000,-2.000000
1301518.309742,21.000000,-4.000000,127.000000,1.000000,-41.000000,-62.000000,-31.000000,18.000000
1301518.309758,-18.000000,-1.000000,19.000000,28.000000,27.000000,16.000000,-24.000000,-2.000000
1301518.310151,-7.000000,3.000000,-32.000000,-8.000000,-8.000000,19.000000,-76.000000,15.000000
1301518.310170,-20.000000,-8.000000,-12.000000,-14.000000,3.000000,16.000000,55.000000,-21.000000
1301518.311342,32.000000,7.000000,9.000000,-73.000000,-27.000000,-34.000000,44.000000,1.000000
1301518.311359,15.000000,-7.000000,-128.000000,58.000000,46.000000,54.000000,-106.000000,24.000000
1301518.312266,24.000000,-2.000000,44.000000,2.000000,9.000000,35.000000,60.000000,45.000000
1301518.312285,7.000000,-9.000000,-18.000000,-17.000000,0.000000,39.000000,127.000000,-38.000000
1301518.324634,-18.000000,-9.000000,-8.000000,-37.000000,-15.000000,9.000000,-57.000000,-7.000000
1301518.324646,50.000000,-4.000000,-128.000000,-42.000000,20.000000,17.000000,-34.000000,14.000000
1301518.331294,10.000000,2.000000,127.000000,119.000000,-47.000000,-59.000000,-62.000000,24.000000
1301518.331304,-82.000000,-1.000000,5.000000,-31.000000,17.000000,24.000000,-55.000000,-41.000000
1301518.346384,28.000000,-8.000000,-20.000000,15.000000,9.000000,15.000000,37.000000,6.000000
1301518.346395,11.000000,8.000000,24.000000,-37.000000,-50.000000,-103.000000,13.000000,7.000000
1301518.347101,16.000000,7.000000,16.000000,76.000000,40.000000,64.000000,7.000000,31.000000
1301518.347120,-16.000000,-14.000000,-48.000000,-7.000000,17.000000,2.000000,-3.000000,-6.000000
1301518.355141,30.000000,8.000000,37.000000,-21.000000,-9.000000,-23.000000,124.000000,32.000000
1301518.355180,-57.000000,2.000000,-128.000000,-3.000000,8.000000,32.000000,-26.000000,-27.000000
1301518.369289,-10.000000,5.000000,-128.000000,18.000000,8.000000,-10.000000,-120.000000,2.000000
1301518.369311,32.000000,-2.000000,32.000000,-26.000000,18.000000,82.000000,122.000000,72.000000
1301518.391909,3.000000,-15.000000,-14.000000,-58.000000,1.000000,11.000000,-106.000000,-5.000000
1301518.391924,14.000000,2.000000,84.000000,96.000000,11.000000,-6.000000,-23.000000,-10.000000
1301518.392607,-61.000000,4.000000,-19.000000,-79.000000,-31.000000,-8.000000,-18.000000,-17.000000
1301518.392619,-11.000000,-3.000000,127.000000,127.000000,45.000000,5.000000,16.000000,6.000000
1301518.398821,14.000000,1.000000,76.000000,67.000000,14.000000,28.000000,-111.000000,-8.000000
1301518.398857,50.000000,-3.000000,78.000000,-101.000000,-55.000000,-82.000000,127.000000,24.000000
1301518.407345,-67.000000,-8.000000,82.000000,106.000000,13.000000,3.000000,-33.000000,-3.000000
1301518.407383,33.000000,-8.000000,37.000000,27.000000,-7.000000,0.000000,-101.000000,38.000000
1301518.421830,19.000000,-11.000000,-27.000000,-46.000000,-28.000000,33.000000,127.000000,67.000000
1301518.421857,-30.000000,16.000000,-26.000000,-26.000000,-2.000000,12.000000,-91.000000,-47.000000
1301518.429049,57.000000,9.000000,-105.000000,18.000000,30.000000,35.000000,-19.000000,20.000000
1301518.429077,21.000000,-5.000000,65.000000,55.000000,5.000000,23.000000,109.000000,65.000000
1301518.466638,7.000000,9.000000,8.000000,-4.000000,9.000000,17.000000,-72.000000,-14.000000
1301518.466650,6.000000,-8.000000,-83.000000,-21.000000,-4.000000,6.000000,60.000000,19.000000
1301518.473873,2.000000,-4.000000,-24.000000,-28.000000,17.000000,35.000000,-92.000000,-21.000000
1301518.473887,21.000000,15.000000,-128.000000,-26.000000,-42.000000,-105.000000,-13.000000,-3.000000
1301518.474939,-46.000000,6.000000,29.000000,-35.000000,-18.000000,6.000000,4.000000,12.000000
1301518.474955,7.000000,-9.000000,-41.000000,-11.000000,9.000000,27.000000,-46.000000,-18.000000
1301518.475648,-3.000000,-11.000000,5.000000,-24.000000,-15.000000,-28.000000,-66.000000,-21.000000
1301518.475656,9.000000,-3.000000,23.000000,38.000000,12.000000,3.000000,-1.000000,12.000000
1301518.477345,-10.000000,11.000000,-32.000000,-44.000000,-28.000000,-48.000000,-89.000000,-52.000000
1301518.477355,34.000000,7.000000,-75.000000,-18.000000,-21.000000,-12.000000,11.000000,22.000000
1301518.489005,-54.000000,-7.000000,-128.000000,15.000000,44.000000,97.000000,-15.000000,-28.000000
1301518.489016,51.000000,-1.000000,-29.000000,-95.000000,-128.000000,-128.000000,127.000000,-5.000000
1301518.534758,-22.000000,-8.000000,-49.000000,-39.000000,4.000000,37.000000,-110.000000,-48.000000
1301518.534878,0.000000,6.000000,44.000000,27.000000,44.000000,53.000000,-13.000000,-11.000000
1301518.542083,-20.000000,-10.000000,1.000000,-49.000000,-78.000000,-115.000000,-17.000000,-9.000000
1301518.542122,37.000000,-3.000000,57.000000,7.000000,-1.000000,17.000000,25.000000,19.000000
1301518.550185,-21.000000,5.000000,-8.000000,16.000000,22.000000,12.000000,-33.000000,-40.000000
1301518.550237,4.000000,4.000000,59.000000,-13.000000,-14.000000,-59.000000,-104.000000,7.000000
1301518.550981,23.000000,2.000000,-128.000000,-17.000000,-4.000000,8.000000,23.000000,18.000000
1301518.551022,14.000000,-11.000000,127.000000,59.000000,0.000000,-10.000000,-20.000000,-4.000000
1301518.552456,22.000000,-4.000000,4.000000,-10.000000,11.000000,20.000000,42.000000,57.000000
1301518.552495,-31.000000,8.000000,-128.000000,-16.000000,-14.000000,12.000000,-45.000000,-60.000000
1301518.573039,27.000000,-9.000000,-128.000000,-93.000000,-83.000000,-42.000000,30.000000,12.000000
1301518.573288,-65.000000,-18.000000,-40.000000,-62.000000,-27.000000,-33.000000,-56.000000,-24.000000
1301518.573729,35.000000,-11.000000,36.000000,21.000000,17.000000,9.000000,-105.000000,10.000000
1301518.573751,-40.000000,3.000000,88.000000,-22.000000,9.000000,45.000000,-64.000000,-12.000000
1301518.587056,38.000000,-6.000000,-128.000000,-10.000000,-29.000000,-78.000000,70.000000,-5.000000
1301518.587085,-6.000000,3.000000,11.000000,-35.000000,-9.000000,-7.000000,-32.000000,13.000000
1301518.587721,10.000000,-1.000000,-6.000000,2.000000,12.000000,23.000000,-41.000000,-8.000000
1301518.587739,7.000000,1.000000,40.000000,18.000000,13.000000,15.000000,-95.000000,9.000000
1301518.617307,31.000000,-6.000000,7.000000,-56.000000,-31.000000,21.000000,127.000000,48.000000
1301518.617346,-52.000000,5.000000,-86.000000,52.000000,40.000000,35.000000,-89.000000,-35.000000
1301518.647120,6.000000,-6.000000,3.000000,-14.000000,-4.000000,0.000000,-100.000000,-15.000000
1301518.647273,17.000000,-3.000000,-37.000000,2.000000,20.000000,9.000000,-27.000000,-18.000000
1301518.649007,-28.000000,-8.000000,69.000000,-78.000000,-41.000000,-58.000000,-27.000000,19.000000
1301518.649049,-15.000000,10.000000,127.000000,108.000000,9.000000,19.000000,-71.000000,3.000000
1301518.649246,-8.000000,14.000000,-29.000000,-34.000000,-30.000000,-61.000000,101.000000,25.000000
1301518.649290,11.000000,-6.000000,-128.000000,-88.000000,-25.000000,-24.000000,-64.000000,-106.000000
1301518.650849,-22.000000,-3.000000,30.000000,20.000000,24.000000,38.000000,-36.000000,-4.000000
1301518.651083,65.000000,5.000000,26.000000,-54.000000,-58.000000,-32.000000,95.000000,30.000000
1301518.651416,-42.000000,6.000000,-18.000000,-4.000000,13.000000,-3.000000,-55.000000,-18.000000
1301518.651432,20.000000,-8.000000,-19.000000,4.000000,21.000000,58.000000,-55.000000,8.000000
1301518.669611,19.000000,-9.000000,-48.000000,-39.000000,-47.000000,-71.000000,-3.000000,17.000000
1301518.669657,3.000000,5.000000,21.000000,24.000000,10.000000,28.000000,36.000000,23.000000
1301518.670253,-19.000000,6.000000,5.000000,19.000000,11.000000,9.000000,-40.000000,-24.000000
1301518.670271,-17.000000,-6.000000,8.000000,19.000000,-3.000000,-7.000000,1.000000,-3.000000
1301518.678080,30.000000,-1.000000,-38.000000,-14.000000,-13.000000,-35.000000,-67.000000,-1.000000
1301518.678106,-8.000000,-1.000000,31.000000,2.000000,-1.000000,4.000000,25.000000,-50.000000
1301518.692252,10.000000,-7.000000,-43.000000,-45.000000,-8.000000,33.000000,-95.000000,9.000000
1301518.692288,-10.000000,-4.000000,127.000000,12.000000,-8.000000,-24.000000,28.000000,31.000000
1301518.707235,18.000000,-10.000000,-69.000000,-35.000000,5.000000,34.000000,10.000000,24.000000
1301518.707397,0.000000,1.000000,71.000000,-16.000000,-9.000000,-2.000000,-55.000000,-19.000000
1301518.707803,1.000000,-4.000000,96.000000,-85.000000,-32.000000,-16.000000,-52.000000,-10.000000
1301518.707820,-20.000000,1.000000,83.000000,120.000000,46.000000,19.000000,32.000000,34.000000
1301518.737113,21.000000,9.000000,40.000000,55.000000,8.000000,-5.000000,8.000000,-21.000000
1301518.737133,-35.000000,-3.000000,-2.000000,7.000000,11.000000,13.000000,17.000000,-20.000000
1301518.744729,43.000000,-5.000000,-12.000000,29.000000,44.000000,61.000000,68.000000,61.000000
1301518.744749,28.000000,1.000000,-12.000000,-29.000000,-36.000000,-65.000000,108.000000,29.000000
1301518.767225,44.000000,1.000000,-2.000000,-8.000000,-1.000000,23.000000,-65.000000,6.000000
1301518.767265,-12.000000,1.000000,-13.000000,8.000000,5.000000,-7.000000,-70.000000,-36.000000
1301518.793169,9.000000,-1.000000,0.000000,36.000000,36.000000,51.000000,127.000000,34.000000
1301518.793224,47.000000,-2.000000,95.000000,-18.000000,-70.000000,-63.000000,-16.000000,29.000000
1301518.793370,-25.000000,-6.000000,-33.000000,-33.000000,-12.000000,-8.000000,-82.000000,-13.000000
1301518.793408,-46.000000,6.000000,15.000000,20.000000,41.000000,35.000000,-30.000000,-9.000000
1301518.793688,0.000000,8.000000,-2.000000,-28.000000,7.000000,40.000000,-5.000000,-12.000000
1301518.793706,-5.000000,6.000000,21.000000,-13.000000,8.000000,-8.000000,-118.000000,-17.000000
1301518.794842,2.000000,-8.000000,27.000000,19.000000,-5.000000,23.000000,119.000000,18.000000
1301518.794880,-16.000000,5.000000,22.000000,-39.000000,-31.000000,-42.000000,-97.000000,-19.000000
1301518.795067,76.000000,12.000000,45.000000,-91.000000,-64.000000,-72.000000,-93.000000,-20.000000
1301518.795094,-38.000000,1.000000,127.000000,127.000000,38.000000,28.000000,127.000000,46.000000
1301518.804505,-15.000000,11.000000,-3.000000,11.000000,30.000000,19.000000,-39.000000,3.000000
1301518.804526,0.000000,-9.000000,-77.000000,-52.000000,1.000000,-4.000000,-128.000000,-18.000000
1301518.812051,42.000000,3.000000,-128.000000,14.000000,-23.000000,4.000000,112.000000,17.000000
1301518.812079,7.000000,7.000000,47.000000,2.000000,35.000000,39.000000,-62.000000,26.000000
1301518.819491,14.000000,-8.000000,-20.000000,-18.000000,-15.000000,13.000000,99.000000,-8.000000
1301518.819511,10.000000,-4.000000,-74.000000,-76.000000,-51.000000,-71.000000,-45.000000,4.000000
1301518.827405,3.000000,-2.000000,-22.000000,2.000000,17.000000,30.000000,41.000000,5.000000
1301518.827444,-2.000000,16.000000,63.000000,6.000000,-19.000000,-12.000000,-55.000000,-30.000000
1301518.864664,-20.000000,-24.000000,-101.000000,-120.000000,-42.000000,-14.000000,-45.000000,-30.000000
1301518.864698,-10.000000,-2.000000,24.000000,99.000000,37.000000,2.000000,-24.000000,1.000000
1301518.887172,25.000000,5.000000,-24.000000,-37.000000,2.000000,8.000000,51.000000,53.000000
1301518.887212,-25.000000,-18.000000,-72.000000,-36.000000,-3.000000,0.000000,-64.000000,-25.000000
1301518.909697,-32.000000,-18.000000,14.000000,-8.000000,28.000000,31.000000,-16.000000,-33.000000
1301518.909737,1.000000,-3.000000,-89.000000,-59.000000,-5.000000,-17.000000,-54.000000,9.000000
1301518.925012,21.000000,18.000000,127.000000,122.000000,-34.000000,-79.000000,42.000000,46.000000
1301518.925059,-72.000000,6.000000,-62.000000,-57.000000,-6.000000,14.000000,-110.000000,-23.000000
1301518.926616,-29.000000,-8.000000,-34.000000,-14.000000,1.000000,1.000000,-57.000000,-31.000000
1301518.926980,5.000000,6.000000,-1.000000,-3.000000,-2.000000,3.000000,98.000000,1.000000
1301518.928182,-44.000000,21.000000,16.000000,42.000000,35.000000,42.000000,-21.000000,-10.000000
1301518.928214,38.000000,-1.000000,2.000000,3.000000,13.000000,58.000000,127.000000,39.000000
1301518.928390,16.000000,-4.000000,-2.000000,-37.000000,25.000000,29.000000,-81.000000,1.000000
1301518.928420,-33.000000,-10.000000,65.000000,3.000000,-41.000000,-24.000000,127.000000,30.000000
1301518.931863,-25.000000,-8.000000,-47.000000,-1.000000,19.000000,17.000000,-49.000000,-33.000000
1301518.931903,-7.000000,-4.000000,-72.000000,-33.000000,10.000000,21.000000,-14.000000,-20.000000
1301518.947634,26.000000,-3.000000,-26.000000,-20.000000,-31.000000,-9.000000,-15.000000,48.000000
1301518.947654,13.000000,1.000000,-6.000000,-52.000000,-10.000000,-22.000000,-34.000000,-15.000000
1301518.948343,53.000000,-10.000000,-24.000000,-43.000000,-23.000000,-52.000000,114.000000,22.000000
1301518.948381,16.000000,1.000000,-84.000000,45.000000,31.000000,34.000000,-24.000000,19.000000
1301518.962115,20.000000,-11.000000,2.000000,4.000000,7.000000,-14.000000,-22.000000,8.000000
1301518.962141,-2.000000,8.000000,0.000000,-11.000000,-6.000000,-12.000000,-31.000000,-7.000000
1301518.969726,24.000000,11.000000,-4.000000,7.000000,1.000000,19.000000,20.000000,4.000000
1301518.969766,-18.000000,-4.000000,-44.000000,-84.000000,-7.000000,17.000000,53.000000,-28.000000
1301519.015011,-9.000000,-7.000000,-67.000000,100.000000,26.000000,-2.000000,-104.000000,39.000000
1301519.015051,-77.000000,9.000000,41.000000,4.000000,-19.000000,46.000000,87.000000,-59.000000
1301519.015365,30.000000,0.000000,-34.000000,5.000000,29.000000,39.000000,-69.000000,7.000000
1301519.015394,-20.000000,-1.000000,17.000000,-40.000000,-43.000000,-37.000000,-63.000000,-15.000000
1301519.029621,25.000000,-1.000000,-111.000000,34.000000,30.000000,35.000000,-21.000000,22.000000
1301519.029650,-18.000000,8.000000,112.000000,-128.000000,-38.000000,-66.000000,66.000000,-15.000000
1301519.030878,14.000000,-5.000000,101.000000,127.000000,15.000000,-39.000000,-36.000000,27.000000
1301519.031219,-10.000000,-5.000000,13.000000,-16.000000,9.000000,6.000000,35.000000,-18.000000
1301519.032287,1.000000,-5.000000,-24.000000,-28.000000,-9.000000,11.000000,-10.000000,-10.000000
1301519.032547,28.000000,-1.000000,28.000000,-20.000000,-22.000000,-25.000000,-128.000000,-18.000000
1301519.033037,57.000000,15.000000,-70.000000,-80.000000,-62.000000,-32.000000,127.000000,9.000000
1301519.033059,-6.000000,-3.000000,110.000000,49.000000,38.000000,44.000000,-128.000000,-17.000000
1301519.044423,-19.000000,11.000000,-36.000000,5.000000,-1.000000,15.000000,41.000000,-36.000000
1301519.044505,31.000000,6.000000,-29.000000,-35.000000,-24.000000,-22.000000,-8.000000,50.000000
1301519.067108,9.000000,2.000000,-69.000000,-31.000000,-13.000000,8.000000,-9.000000,-62.000000
1301519.067147,15.000000,6.000000,1.000000,10.000000,5.000000,15.000000,22.000000,25.000000
1301519.089959,-37.000000,-6.000000,30.000000,4.000000,-15.000000,-21.000000,-34.000000,-67.000000
1301519.090002,17.000000,4.000000,44.000000,22.000000,29.000000,45.000000,-83.000000,9.000000
1301519.104605,17.000000,-2.000000,-11.000000,-18.000000,-25.000000,-53.000000,78.000000,25.000000
1301519.104644,4.000000,3.000000,-27.000000,8.000000,16.000000,18.000000,-45.000000,0.000000
1301519.142121,36.000000,8.000000,-33.000000,-46.000000,-5.000000,51.000000,52.000000,20.000000
1301519.142240,1.000000,4.000000,127.000000,50.000000,-10.000000,-31.000000,88.000000,45.000000
1301519.164704,-31.000000,-4.000000,-8.000000,-69.000000,-23.000000,-44.000000,-111.000000,-44.000000
1301519.164724,19.000000,0.000000,-29.000000,-10.000000,0.000000,22.000000,-13.000000,7.000000
1301519.187589,12.000000,0.000000,33.000000,-56.000000,47.000000,72.000000,-102.000000,6.000000
1301519.187666,-3.000000,8.000000,33.000000,127.000000,-8.000000,-103.000000,5.000000,10.000000
1301519.188648,-25.000000,2.000000,-45.000000,-100.000000,-30.000000,-32.000000,-82.000000,-27.000000
1301519.188667,16.000000,-3.000000,-6.000000,15.000000,26.000000,36.000000,-100.000000,-29.000000
1301519.188900,5.000000,-3.000000,-8.000000,-29.000000,-50.000000,-106.000000,-24.000000,2.000000
1301519.188920,27.000000,-6.000000,-128.000000,-30.000000,-17.000000,24.000000,-66.000000,9.000000
1301519.224610,12.000000,-2.000000,-17.000000,-8.000000,-11.000000,-24.000000,-100.000000,-19.000000
1301519.224651,-22.000000,0.000000,70.000000,29.000000,7.000000,7.000000,127.000000,12.000000
1301519.232242,0.000000,-7.000000,43.000000,-39.000000,20.000000,16.000000,52.000000,20.000000
1301519.232282,46.000000,-3.000000,69.000000,30.000000,5.000000,47.000000,-20.000000,-21.000000
1301519.239742,27.000000,-10.000000,-66.000000,19.000000,11.000000,-47.000000,127.000000,26.000000
1301519.239766,-14.000000,-5.000000,-6.000000,-18.000000,3.000000,-20.000000,-28.000000,-10.000000
1301519.255067,23.000000,-1.000000,14.000000,15.000000,8.000000,5.000000,-4.000000,4.000000
1301519.255117,-15.000000,4.000000,-38.000000,-79.000000,-18.000000,1.000000,21.000000,0.000000
1301519.262408,9.000000,4.000000,17.000000,127.000000,26.000000,-1.000000,-12.000000,-4.000000
1301519.262443,-10.000000,7.000000,-47.000000,-60.000000,-11.000000,1.000000,-21.000000,18.000000
1301519.286257,18.000000,0.000000,59.000000,-1.000000,-30.000000,-43.000000,38.000000,-8.000000
1301519.286294,-114.000000,3.000000,-16.000000,9.000000,4.000000,-3.000000,-19.000000,-42.000000
1301519.287217,36.000000,-13.000000,-2.000000,-27.000000,16.000000,16.000000,-25.000000,18.000000
1301519.287520,-37.000000,-11.000000,-113.000000,6.000000,-20.000000,-17.000000,-42.000000,-3.000000
1301519.289019,21.000000,3.000000,-64.000000,-75.000000,-17.000000,-15.000000,-128.000000,-17.000000
1301519.289058,-94.000000,-4.000000,127.000000,76.000000,-17.000000,-20.000000,127.000000,-50.000000
1301519.289266,8.000000,-3.000000,54.000000,-2.000000,41.000000,55.000000,-47.000000,17.000000
1301519.289298,14.000000,0.000000,17.000000,8.000000,-14.000000,0.000000,-8.000000,-3.000000
1301519.289698,-51.000000,4.000000,-6.000000,-8.000000,-12.000000,-14.000000,-32.000000,-14.000000
1301519.289735,33.000000,-7.000000,59.000000,-68.000000,16.000000,46.000000,107.000000,-12.000000
1301519.299867,-10.000000,-2.000000,127.000000,127.000000,18.000000,-82.000000,-43.000000,39.000000
1301519.300187,34.000000,-17.000000,-52.000000,-73.000000,-23.000000,-7.000000,-4.000000,-40.000000
1301519.301286,21.000000,-13.000000,21.000000,-23.000000,16.000000,34.000000,-10.000000,12.000000
1301519.301315,5.000000,-7.000000,-86.000000,0.000000,-13.000000,-37.000000,0.000000,-13.000000
1301519.307230,5.000000,-8.000000,-29.000000,13.000000,-6.000000,-29.000000,-61.000000,11.000000
1301519.307276,-8.000000,5.000000,5.000000,12.000000,-15.000000,16.000000,-97.000000,51.000000
1301519.337397,14.000000,1.000000,-16.000000,-48.000000,-26.000000,-23.000000,127.000000,-51.000000
1301519.337440,-51.000000,0.000000,48.000000,57.000000,69.000000,81.000000,-73.000000,-1.000000
1301519.359846,40.000000,-4.000000,127.000000,90.000000,7.000000,-13.000000,-74.000000,49.000000
1301519.359885,-41.000000,1.000000,-21.000000,25.000000,6.000000,6.000000,-51.000000,11.000000
1301519.374691,33.000000,-9.000000,-27.000000,-26.000000,-24.000000,-35.000000,101.000000,35.000000
1301519.374981,8.000000,-18.000000,-51.000000,-22.000000,13.000000,24.000000,-10.000000,5.000000
1301519.375587,10.000000,2.000000,62.000000,70.000000,20.000000,11.000000,13.000000,12.000000
1301519.375907,-16.000000,5.000000,-29.000000,-24.000000,-11.000000,4.000000,-33.000000,-12.000000
1301519.377306,2.000000,-2.000000,-128.000000,9.000000,22.000000,-3.000000,-66.000000,-2.000000
1301519.377345,5.000000,-8.000000,-9.000000,-20.000000,-11.000000,26.000000,82.000000,12.000000
1301519.381849,-5.000000,7.000000,104.000000,60.000000,37.000000,18.000000,-50.000000,1.000000
1301519.381885,46.000000,7.000000,-95.000000,-24.000000,-38.000000,-42.000000,127.000000,1.000000
1301519.383398,-117.000000,2.000000,-50.000000,-37.000000,-13.000000,-3.000000,7.000000,-83.000000
1301519.383444,-22.000000,-1.000000,67.000000,7.000000,-21.000000,-21.000000,49.000000,22.000000
1301519.404795,23.000000,-6.000000,-73.000000,-23.000000,-15.000000,8.000000,-44.000000,-23.000000
1301519.404840,-13.000000,13.000000,9.000000,-31.000000,-24.000000,-14.000000,-128.000000,-39.000000
1301519.406265,15.000000,-4.000000,-52.000000,25.000000,-21.000000,5.000000,60.000000,34.000000
1301519.406284,-20.000000,12.000000,-4.000000,3.000000,25.000000,42.000000,-84.000000,-39.000000
1301519.412493,-16.000000,-8.000000,-46.000000,-43.000000,-38.000000,-93.000000,-36.000000,0.000000
1301519.412532,13.000000,-2.000000,-47.000000,-66.000000,-15.000000,-2.000000,-126.000000,9.000000
1301519.420736,24.000000,5.000000,-11.000000,57.000000,13.000000,9.000000,127.000000,19.000000
1301519.420756,-54.000000,2.000000,-12.000000,-24.000000,-11.000000,-1.000000,-100.000000,-24.000000
1301519.442115,13.000000,-2.000000,57.000000,-79.000000,4.000000,10.000000,-6.000000,-18.000000
1301519.442137,3.000000,-2.000000,125.000000,127.000000,17.000000,-4.000000,78.000000,12.000000
1301519.457393,10.000000,2.000000,-17.000000,-24.000000,-3.000000,-8.000000,-35.000000,7.000000
1301519.457490,-3.000000,-1.000000,-17.000000,-21.000000,-6.000000,12.000000,-43.000000,-14.000000
1301519.465003,-5.000000,-6.000000,25.000000,-48.000000,-6.000000,39.000000,35.000000,7.000000
1301519.465049,22.000000,0.000000,-128.000000,30.000000,-25.000000,-67.000000,26.000000,-7.000000
1301519.509717,-47.000000,-3.000000,16.000000,-33.000000,-12.000000,-30.000000,14.000000,17.000000
1301519.509958,20.000000,0.000000,-1.000000,-34.000000,6.000000,49.000000,-92.000000,-14.000000
1301519.510397,22.000000,11.000000,-71.000000,8.000000,-21.000000,-54.000000,30.000000,3.000000
1301519.510421,-25.000000,-10.000000,37.000000,-8.000000,-20.000000,7.000000,127.000000,20.000000
1301519.511629,-44.000000,-4.000000,15.000000,-9.000000,-6.000000,-3.000000,-64.000000,-38.000000
1301519.511672,41.000000,1.000000,-52.000000,20.000000,14.000000,3.000000,-40.000000,9.000000
1301519.512555,20.000000,-1.000000,65.000000,24.000000,4.000000,-4.000000,47.000000,49.000000
1301519.512810,-18.000000,4.000000,-88.000000,-42.000000,-28.000000,2.000000,3.000000,-15.000000
1301519.517198,-8.000000,5.000000,-80.000000,-42.000000,16.000000,24.000000,-10.000000,-25.000000
1301519.517240,-6.000000,-1.000000,-50.000000,39.000000,-14.000000,-54.000000,-41.000000,3.000000
1301519.532303,-47.000000,-3.000000,9.000000,-25.000000,-17.000000,5.000000,-73.000000,-48.000000
1301519.532345,58.000000,4.000000,-7.000000,62.000000,27.000000,14.000000,89.000000,15.000000
1301519.539561,-17.000000,3.000000,6.000000,-35.000000,-12.000000,-1.000000,-61.000000,-9.000000
1301519.539582,49.000000,-4.000000,-43.000000,-1.000000,5.000000,1.000000,-9.000000,12.000000
1301519.547362,-24.000000,-5.000000,1.000000,-18.000000,-16.000000,5.000000,-58.000000,-14.000000
1301519.547474,1.000000,0.000000,34.000000,11.000000,16.000000,28.000000,117.000000,-4.000000
1301519.569611,15.000000,-3.000000,0.000000,-10.000000,-33.000000,-71.000000,-26.000000,25.000000
1301519.569663,1.000000,-62.000000,-10.000000,-16.000000,-6.000000,3.000000,-3.000000,21.000000
1301519.577370,17.000000,-17.000000,19.000000,-9.000000,-1.000000,4.000000,-29.000000,-23.000000
1301519.577391,-83.000000,-3.000000,-128.000000,12.000000,9.000000,14.000000,-30.000000,-43.000000
1301519.599878,34.000000,6.000000,45.000000,38.000000,9.000000,14.000000,-30.000000,16.000000
1301519.599910,3.000000,-6.000000,12.000000,20.000000,16.000000,21.000000,-50.000000,4.000000
1301519.622059,23.000000,-9.000000,-17.000000,-71.000000,-24.000000,-5.000000,40.000000,19.000000
1301519.622107,16.000000,1.000000,32.000000,56.000000,5.000000,8.000000,15.000000,44.000000
1301519.623588,-13.000000,0.000000,88.000000,31.000000,-14.000000,2.000000,-53.000000,-72.000000
1301519.623882,-69.000000,-13.000000,19.000000,-54.000000,-5.000000,5.000000,-13.000000,-1.000000
1301519.624595,1.000000,1.000000,-42.000000,5.000000,-6.000000,-6.000000,16.000000,25.000000
1301519.624627,52.000000,2.000000,-9.000000,-16.000000,-14.000000,1.000000,88.000000,31.000000
1301519.625586,-1.000000,3.000000,3.000000,7.000000,19.000000,4.000000,-58.000000,-7.000000
1301519.625625,4.000000,1.000000,18.000000,28.000000,15.000000,34.000000,-39.000000,4.000000
1301519.636912,2.000000,3.000000,47.000000,-38.000000,-18.000000,-44.000000,111.000000,10.000000
1301519.636951,-5.000000,1.000000,44.000000,15.000000,-17.000000,-13.000000,101.000000,-6.000000
1301519.644327,-5.000000,2.000000,29.000000,13.000000,7.000000,-1.000000,38.000000,11.000000
1301519.644347,-18.000000,0.000000,1.000000,24.000000,29.000000,52.000000,-3.000000,-25.000000
1301519.652059,-34.000000,-7.000000,72.000000,-61.000000,-35.000000,-97.000000,-128.000000,-26.000000
1301519.652093,49.000000,3.000000,26.000000,127.000000,36.000000,30.000000,127.000000,52.000000
1301519.682153,-13.000000,6.000000,-77.000000,-95.000000,-27.000000,2.000000,-47.000000,-12.000000
1301519.682194,-71.000000,4.000000,-109.000000,-14.000000,-12.000000,-15.000000,-3.000000,-22.000000
1301519.697263,17.000000,-2.000000,46.000000,18.000000,26.000000,24.000000,-5.000000,-4.000000
1301519.697304,1.000000,1.000000,-59.000000,-20.000000,-6.000000,-15.000000,-60.000000,-8.000000
1301519.720000,11.000000,-6.000000,24.000000,-5.000000,3.000000,27.000000,106.000000,28.000000
1301519.720022,0.000000,-3.000000,-7.000000,1.000000,7.000000,-9.000000,25.000000,2.000000
1301519.727215,6.000000,-4.000000,12.000000,29.000000,38.000000,38.000000,-81.000000,7.000000
1301519.727236,-20.000000,0.000000,-100.000000,-16.000000,-4.000000,-5.000000,-54.000000,-8.000000
1301519.742278,-31.000000,-2.000000,-79.000000,-71.000000,-32.000000,-31.000000,76.000000,42.000000
1301519.742320,-14.000000,1.000000,127.000000,30.000000,-8.000000,-10.000000,37.000000,-33.000000
1301519.758514,41.000000,-1.000000,-70.000000,-25.000000,-17.000000,24.000000,16.000000,9.000000
1301519.758545,-26.000000,-2.000000,-12.000000,18.000000,14.000000,-10.000000,-128.000000,-6.000000
1301519.759535,-2.000000,-4.000000,3.000000,-6.000000,6.000000,20.000000,9.000000,-8.000000
1301519.759557,3.000000,3.000000,14.000000,-13.000000,-1.000000,-45.000000,-67.000000,-4.000000
1301519.760490,-43.000000,1.000000,-94.000000,-62.000000,-14.000000,-17.000000,-43.000000,-56.000000
1301519.760510,0.000000,-2.000000,-18.000000,-7.000000,14.000000,28.000000,-54.000000,0.000000
1301519.764650,28.000000,3.000000,-19.000000,-51.000000,-28.000000,-30.000000,70.000000,21.000000
1301519.764689,2.000000,-7.000000,3.000000,-17.000000,0.000000,2.000000,-53.000000,-18.000000
1301519.772967,-5.000000,-4.000000,27.000000,14.000000,22.000000,55.000000,-21.000000,-19.000000
1301519.773005,4.000000,5.000000,-16.000000,-9.000000,-11.000000,-73.000000,-99.000000,-25.000000
1301519.779476,17.000000,0.000000,-2.000000,-58.000000,-43.000000,-55.000000,51.000000,33.000000
1301519.779515,-8.000000,8.000000,-18.000000,44.000000,4.000000,25.000000,-17.000000,-13.000000
1301519.839586,6.000000,7.000000,-5.000000,11.000000,18.000000,21.000000,-104.000000,-10.000000
1301519.839771,-68.000000,3.000000,-36.000000,-54.000000,-38.000000,-1.000000,127.000000,-37.000000
1301519.840278,-5.000000,0.000000,-54.000000,-35.000000,-26.000000,-76.000000,39.000000,-5.000000
1301519.840322,11.000000,-9.000000,2.000000,-10.000000,2.000000,16.000000,-91.000000,10.000000
1301519.842657,23.000000,-4.000000,-75.000000,23.000000,5.000000,14.000000,1.000000,-1.000000
1301519.843030,-8.000000,4.000000,118.000000,36.000000,8.000000,8.000000,-27.000000,16.000000
1301519.843271,4.000000,2.000000,67.000000,-36.000000,-1.000000,-15.000000,-6.000000,-15.000000
1301519.843378,4.000000,-3.000000,112.000000,96.000000,21.000000,9.000000,6.000000,-1.000000
1301519.844323,-10.000000,-2.000000,-73.000000,-29.000000,-15.000000,9.000000,19.000000,1.000000
1301519.844340,12.000000,4.000000,29.000000,16.000000,7.000000,-26.000000,-12.000000,-3.000000
1301519.855250,-20.000000,-12.000000,-41.000000,44.000000,25.000000,60.000000,-50.000000,0.000000
1301519.855273,32.000000,1.000000,59.000000,9.000000,-8.000000,-46.000000,-98.000000,-9.000000
1301519.862193,-55.000000,-3.000000,2.000000,16.000000,21.000000,29.000000,-8.000000,-14.000000
1301519.862230,25.000000,-8.000000,-37.000000,-23.000000,-8.000000,5.000000,18.000000,6.000000
1301519.877864,-1.000000,1.000000,19.000000,-1.000000,-3.000000,-35.000000,81.000000,6.000000
1301519.877884,29.000000,3.000000,77.000000,48.000000,9.000000,3.000000,-21.000000,25.000000
1301519.892119,-24.000000,1.000000,-19.000000,-17.000000,1.000000,-1.000000,4.000000,-10.000000
1301519.892140,4.000000,3.000000,46.000000,0.000000,9.000000,2.000000,-3.000000,2.000000
1301519.907220,2.000000,6.000000,115.000000,-33.000000,-2.000000,10.000000,-45.000000,-17.000000
1301519.907239,15.000000,-8.000000,127.000000,125.000000,7.000000,-29.000000,52.000000,27.000000
1301519.914552,30.000000,-2.000000,-52.000000,-27.000000,-11.000000,19.000000,-8.000000,15.000000
1301519.914589,-50.000000,1.000000,-44.000000,-33.000000,-23.000000,-85.000000,-44.000000,-43.000000
1301519.929578,6.000000,3.000000,-11.000000,-37.000000,-13.000000,-12.000000,-22.000000,-6.000000
1301519.929616,72.000000,-2.000000,95.000000,-13.000000,-10.000000,16.000000,-9.000000,-5.000000
1301519.936916,-16.000000,6.000000,92.000000,125.000000,46.000000,-10.000000,-43.000000,-1.000000
1301519.936956,-3.000000,-1.000000,18.000000,8.000000,15.000000,38.000000,59.000000,2.000000
1301519.961343,17.000000,-8.000000,19.000000,-39.000000,-16.000000,-14.000000,-128.000000,8.000000
1301519.961381,-5.000000,6.000000,-128.000000,19.000000,-2.000000,-3.000000,127.000000,40.000000
1301519.961962,-18.000000,-8.000000,22.000000,-33.000000,-2.000000,-10.000000,-115.000000,-26.000000
1301519.962065,-24.000000,2.000000,0.000000,-10.000000,-10.000000,2.000000,-27.000000,-6.000000
1301519.962790,4.000000,8.000000,-44.000000,-8.000000,7.000000,-4.000000,3.000000,12.000000
1301519.962809,18.000000,-6.000000,1.000000,4.000000,13.000000,12.000000,4.000000,-7.000000
1301519.962928,11.000000,-4.000000,-47.000000,-4.000000,8.000000,17.000000,2.000000,13.000000
1301519.962938,-20.000000,0.000000,-3.000000,-15.000000,-20.000000,-20.000000,29.000000,4.000000
1301519.989793,-16.000000,13.000000,-60.000000,-4.000000,5.000000,-12.000000,-71.000000,-11.000000
1301519.989834,9.000000,2.000000,26.000000,-12.000000,-1.000000,-7.000000,17.000000,-6.000000
1301519.997331,-26.000000,-5.000000,-101.000000,17.000000,15.000000,18.000000,70.000000,15.000000
1301519.997360,31.000000,6.000000,-40.000000,-58.000000,-48.000000,-38.000000,-128.000000,43.000000
1301519.998805,12.000000,0.000000,-128.000000,-9.000000,-2.000000,32.000000,55.000000,-36.000000
1301519.998849,-30.000000,-9.000000,-30.000000,-26.000000,8.000000,35.000000,-39.000000,-7.000000
1301520.012127,26.000000,4.000000,-6.000000,-47.000000,-12.000000,-15.000000,-69.000000,6.000000
1301520.012152,-11.000000,5.000000,-128.000000,5.000000,19.000000,56.000000,127.000000,27.000000
1301520.013615,5.000000,8.000000,4.000000,-15.000000,-8.000000,-2.000000,-54.000000,28.000000
1301520.013671,-37.000000,-2.000000,-5.000000,-12.000000,-8.000000,-8.000000,31.000000,3.000000
1301520.019359,32.000000,1.000000,2.000000,3.000000,14.000000,4.000000,-66.000000,13.000000
1301520.019379,33.000000,-6.000000,32.000000,6.000000,10.000000,44.000000,87.000000,19.000000
1301520.042575,-50.000000,-4.000000,-43.000000,-20.000000,-24.000000,-51.000000,102.000000,8.000000
1301520.042629,33.000000,2.000000,75.000000,51.000000,28.000000,15.000000,0.000000,2.000000
1301520.049691,-13.000000,-3.000000,16.000000,4.000000,29.000000,39.000000,-18.000000,0.000000
1301520.049792,9.000000,9.000000,-52.000000,22.000000,-8.000000,12.000000,6.000000,12.000000
1301520.064663,30.000000,3.000000,18.000000,9.000000,-14.000000,-56.000000,-9.000000,40.000000
1301520.064702,17.000000,0.000000,19.000000,-21.000000,0.000000,9.000000,-93.000000,5.000000
1301520.072654,-81.000000,-7.000000,105.000000,8.000000,28.000000,79.000000,-32.000000,-40.000000
1301520.072847,67.000000,-8.000000,-45.000000,-86.000000,-54.000000,-40.000000,127.000000,47.000000
1301520.080586,-43.000000,-5.000000,-23.000000,52.000000,31.000000,33.000000,-128.000000,7.000000
1301520.080625,16.000000,2.000000,46.000000,-3.000000,16.000000,17.000000,-1.000000,-62.000000
1301520.081415,-5.000000,-1.000000,-55.000000,-1.000000,-12.000000,-27.000000,-26.000000,8.000000
1301520.081456,-7.000000,1.000000,-31.000000,24.000000,29.000000,13.000000,-38.000000,5.000000
1301520.095223,15.000000,13.000000,127.000000,100.000000,13.000000,-9.000000,127.000000,13.000000
1301520.095261,19.000000,3.000000,-6.000000,-39.000000,-14.000000,6.000000,11.000000,0.000000
1301520.117417,-19.000000,-7.000000,-128.000000,-55.000000,-12.000000,-10.000000,-59.000000,-9.000000
1301520.117649,-2.000000,8.000000,6.000000,40.000000,27.000000,38.000000,32.000000,-25.000000
1301520.118685,19.000000,-1.000000,-22.000000,-62.000000,-45.000000,-45.000000,-67.000000,-33.000000
1301520.118722,-26.000000,-7.000000,-5.000000,-32.000000,-21.000000,5.000000,-48.000000,2.000000
1301520.124507,-9.000000,10.000000,-25.000000,30.000000,30.000000,53.000000,46.000000,28.000000
1301520.124549,2.000000,-2.000000,-6.000000,-24.000000,-3.000000,-48.000000,127.000000,-16.000000
1301520.133225,32.000000,2.000000,-2.000000,-22.000000,-34.000000,-62.000000,-101.000000,11.000000
1301520.133245,-50.000000,-4.000000,1.000000,-16.000000,-4.000000,-14.000000,-88.000000,-11.000000
1301520.147350,0.000000,-6.000000,24.000000,14.000000,36.000000,63.000000,-68.000000,30.000000
1301520.147370,-50.000000,-5.000000,-128.000000,-42.000000,-49.000000,-12.000000,127.000000,-31.000000
1301520.177250,-52.000000,5.000000,24.000000,7.000000,24.000000,26.000000,20.000000,13.000000
1301520.177282,31.000000,0.000000,-36.000000,-16.000000,13.000000,0.000000,-128.000000,7.000000
1301520.192630,20.000000,-2.000000,-26.000000,-6.000000,-2.000000,15.000000,127.000000,17.000000
1301520.192683,-29.000000,-6.000000,8.000000,-10.000000,-8.000000,-24.000000,-82.000000,-11.000000
1301520.200638,6.000000,1.000000,22.000000,8.000000,5.000000,-13.000000,-55.000000,4.000000
1301520.200937,4.000000,-2.000000,-127.000000,-23.000000,5.000000,13.000000,10.000000,2.000000
1301520.201452,10.000000,3.000000,-56.000000,28.000000,30.000000,76.000000,121.000000,22.000000
1301520.201495,-59.000000,-9.000000,70.000000,-3.000000,-24.000000,-108.000000,121.000000,-20.000000
1301520.202560,57.000000,1.000000,29.000000,-25.000000,-14.000000,-22.000000,-67.000000,5.000000
1301520.202579,-42.000000,0.000000,89.000000,83.000000,10.000000,9.000000,-56.000000,-20.000000
1301520.203242,32.000000,-1.000000,3.000000,-10.000000,5.000000,13.000000,44.000000,25.000000
1301520.203260,5.000000,-3.000000,-22.000000,-27.000000,-12.000000,-55.000000,-36.000000,-3.000000
1301520.215635,2.000000,-3.000000,26.000000,8.000000,-3.000000,26.000000,-9.000000,-6.000000
1301520.215676,12.000000,4.000000,-88.000000,-48.000000,-24.000000,-38.000000,-67.000000,2.000000
1301520.237512,-33.000000,0.000000,-83.000000,-38.000000,-22.000000,-2.000000,127.000000,4.000000
1301520.237531,6.000000,-8.000000,-49.000000,16.000000,17.000000,48.000000,-57.000000,-36.000000
1301520.238935,-12.000000,-12.000000,63.000000,0.000000,-29.000000,-72.000000,-3.000000,6.000000
1301520.238975,-103.000000,4.000000,-49.000000,-53.000000,-14.000000,-14.000000,-33.000000,-84.000000
1301520.244659,-12.000000,-9.000000,11.000000,31.000000,27.000000,31.000000,1.000000,29.000000
1301520.244709,18.000000,-6.000000,20.000000,-3.000000,-12.000000,-6.000000,-21.000000,9.000000
1301520.274926,8.000000,1.000000,68.000000,-5.000000,13.000000,32.000000,-71.000000,-3.000000
1301520.274950,9.000000,1.000000,56.000000,24.000000,-10.000000,-60.000000,127.000000,16.000000
1301520.289759,-5.000000,-2.000000,53.000000,7.000000,11.000000,46.000000,-128.000000,-9.000000
1301520.289779,-50.000000,-7.000000,-10.000000,-51.000000,-55.000000,-79.000000,127.000000,-29.000000
1301520.312138,-29.000000,-1.000000,-24.000000,-10.000000,2.000000,22.000000,2.000000,-19.000000
1301520.312179,-6.000000,3.000000,59.000000,8.000000,47.000000,57.000000,-44.000000,3.000000
1301520.334727,11.000000,-9.000000,116.000000,54.000000,-36.000000,-14.000000,127.000000,28.000000
1301520.334885,33.000000,6.000000,-57.000000,-29.000000,11.000000,8.000000,-29.000000,-19.000000
1301520.349452,12.000000,10.000000,23.000000,30.000000,30.000000,26.000000,-38.000000,-7.000000
1301520.349629,9.000000,-5.000000,-121.000000,-41.000000,-17.000000,14.000000,-40.000000,28.000000
1301520.350131,42.000000,-4.000000,127.000000,35.000000,4.000000,22.000000,127.000000,23.000000
1301520.350165,-15.000000,3.000000,4.000000,14.000000,27.000000,26.000000,-19.000000,-11.000000
1301520.351682,-24.000000,-3.000000,60.000000,33.000000,0.000000,14.000000,-59.000000,-13.000000
1301520.351707,20.000000,-4.000000,-43.000000,-104.000000,-50.000000,-74.000000,11.000000,0.000000
1301520.365185,14.000000,-13.000000,-128.000000,19.000000,-17.000000,-77.000000,127.000000,18.000000
1301520.365225,38.000000,4.000000,-96.000000,-69.000000,-35.000000,-21.000000,-33.000000,14.000000
1301520.394723,14.000000,6.000000,-67.000000,18.000000,44.000000,96.000000,65.000000,-19.000000
1301520.394764,-9.000000,-3.000000,15.000000,-76.000000,-55.000000,-128.000000,23.000000,-34.000000
1301520.410345,-22.000000,2.000000,-37.000000,-25.000000,-21.000000,-1.000000,-69.000000,11.000000
1301520.410398,31.000000,4.000000,15.000000,-8.000000,16.000000,14.000000,-109.000000,11.000000
1301520.432211,-14.000000,5.000000,16.000000,39.000000,26.000000,17.000000,106.000000,-23.000000
1301520.432249,34.000000,3.000000,27.000000,28.000000,18.000000,67.000000,38.000000,45.000000
1301520.439601,-2.000000,3.000000,-18.000000,-67.000000,-64.000000,-32.000000,127.000000,-17.000000
1301520.439641,31.000000,3.000000,21.000000,43.000000,40.000000,43.000000,2.000000,-3.000000
1301520.454650,-10.000000,10.000000,93.000000,92.000000,84.000000,127.000000,60.000000,-5.000000
1301520.454702,13.000000,-14.000000,65.000000,-87.000000,-122.000000,-128.000000,127.000000,2.000000
1301520.455446,-43.000000,10.000000,101.000000,94.000000,28.000000,6.000000,-128.000000,-63.000000
1301520.455489,34.000000,9.000000,6.000000,30.000000,33.000000,84.000000,127.000000,38.000000
1301520.457528,49.000000,-1.000000,87.000000,27.000000,10.000000,0.000000,43.000000,-10.000000
1301520.457546,-6.000000,0.000000,-37.000000,-15.000000,-14.000000,-30.000000,-34.000000,2.000000
1301520.458390,-12.000000,6.000000,-82.000000,11.000000,19.000000,-4.000000,-17.000000,4.000000
1301520.458418,12.000000,-3.000000,34.000000,24.000000,6.000000,13.000000,127.000000,15.000000
1301520.469486,23.000000,1.000000,8.000000,-29.000000,-21.000000,-19.000000,-128.000000,22.000000
1301520.469647,-41.000000,2.000000,-65.000000,-49.000000,-53.000000,-100.000000,127.000000,-36.000000
1301520.470810,16.000000,3.000000,-13.000000,10.000000,20.000000,0.000000,44.000000,19.000000
1301520.470850,13.000000,0.000000,-28.000000,16.000000,20.000000,50.000000,-56.000000,2.000000
1301520.492484,-14.000000,-17.000000,25.000000,-32.000000,-53.000000,-57.000000,42.000000,-18.000000
1301520.492593,44.000000,5.000000,1.000000,5.000000,-1.000000,-11.000000,-53.000000,36.000000
1301520.529557,-11.000000,-6.000000,-12.000000,10.000000,28.000000,62.000000,67.000000,-12.000000
1301520.529578,-7.000000,-1.000000,79.000000,38.000000,-21.000000,-47.000000,45.000000,35.000000
1301520.552138,0.000000,4.000000,5.000000,-52.000000,-41.000000,-68.000000,-23.000000,-85.000000
1301520.552177,-14.000000,-3.000000,-10.000000,46.000000,53.000000,21.000000,-128.000000,-8.000000
1301520.574864,5.000000,-10.000000,-128.000000,-31.000000,-53.000000,-36.000000,127.000000,-5.000000
1301520.574886,11.000000,3.000000,71.000000,37.000000,-12.000000,-73.000000,-128.000000,11.000000
1301520.590001,15.000000,-5.000000,16.000000,-24.000000,-8.000000,40.000000,-38.000000,31.000000
1301520.590236,-16.000000,-9.000000,48.000000,-9.000000,8.000000,41.000000,-128.000000,-16.000000
1301520.592136,5.000000,2.000000,-8.000000,-13.000000,-8.000000,-16.000000,67.000000,-7.000000
1301520.592491,15.000000,-9.000000,39.000000,11.000000,-7.000000,-3.000000,-99.000000,-4.000000
1301520.593762,19.000000,-7.000000,-36.000000,-24.000000,-23.000000,-1.000000,127.000000,34.000000
1301520.593778,-6.000000,2.000000,20.000000,-44.000000,-20.000000,-40.000000,-64.000000,-7.000000
1301520.604495,9.000000,-11.000000,20.000000,4.000000,8.000000,4.000000,17.000000,1.000000
1301520.604532,7.000000,2.000000,40.000000,13.000000,10.000000,27.000000,-26.000000,6.000000
1301520.619969,0.000000,-7.000000,-104.000000,11.000000,-17.000000,10.000000,94.000000,-8.000000
1301520.619989,1.000000,4.000000,0.000000,-13.000000,-6.000000,3.000000,-46.000000,-13.000000
1301520.627790,-10.000000,2.000000,-55.000000,-14.000000,10.000000,24.000000,115.000000,16.000000
1301520.627825,-16.000000,-6.000000,-128.000000,12.000000,7.000000,25.000000,-70.000000,-4.000000
1301520.649892,-9.000000,-3.000000,49.000000,13.000000,3.000000,-7.000000,-3.000000,30.000000
1301520.649972,55.000000,7.000000,2.000000,-12.000000,4.000000,64.000000,88.000000,30.000000
1301520.672277,-11.000000,5.000000,-58.000000,13.000000,23.000000,1.000000,-84.000000,-5.000000
1301520.672554,-20.000000,-12.000000,11.000000,-56.000000,-76.000000,-128.000000,-128.000000,-14.000000
1301520.674332,-9.000000,10.000000,64.000000,15.000000,13.000000,12.000000,-39.000000,9.000000
1301520.674417,-19.000000,-5.000000,-26.000000,23.000000,36.000000,94.000000,107.000000,-18.000000
1301520.674812,15.000000,-6.000000,-13.000000,-19.000000,-13.000000,-96.000000,5.000000,27.000000
1301520.675043,16.000000,6.000000,34.000000,8.000000,-1.000000,-10.000000,9.000000,30.000000
1301520.676272,-11.000000,5.000000,-4.000000,11.000000,16.000000,21.000000,75.000000,-6.000000
1301520.676296,-7.000000,2.000000,60.000000,-29.000000,-10.000000,-2.000000,-128.000000,-27.000000
1301520.687826,-8.000000,-3.000000,-12.000000,-8.000000,-23.000000,-19.000000,127.000000,14.000000
1301520.687891,6.000000,8.000000,17.000000,5.000000,6.000000,-2.000000,-128.000000,-1.000000
1301520.695800,22.000000,-2.000000,-99.000000,-44.000000,5.000000,40.000000,53.000000,1.000000
1301520.695843,-11.000000,-6.000000,9.000000,59.000000,-15.000000,-32.000000,9.000000,15.000000
1301520.709936,15.000000,5.000000,66.000000,108.000000,19.000000,22.000000,0.000000,-4.000000
1301520.709976,2.000000,1.000000,-5.000000,-21.000000,1.000000,-1.000000,22.000000,5.000000
1301520.732433,-35.000000,-9.000000,-73.000000,-30.000000,-15.000000,-11.000000,13.000000,-13.000000
1301520.732454,-28.000000,2.000000,2.000000,-16.000000,-14.000000,-7.000000,-43.000000,2.000000
1301520.747356,15.000000,10.000000,37.000000,35.000000,28.000000,42.000000,63.000000,8.000000
1301520.747396,12.000000,-7.000000,-71.000000,-20.000000,1.000000,12.000000,64.000000,33.000000
1301520.769919,21.000000,-8.000000,-11.000000,-43.000000,-35.000000,-23.000000,127.000000,-23.000000
1301520.769998,-48.000000,8.000000,6.000000,23.000000,15.000000,-6.000000,-99.000000,-27.000000
1301520.784917,-5.000000,-3.000000,9.000000,25.000000,21.000000,8.000000,-23.000000,-7.000000
1301520.784955,38.000000,-11.000000,25.000000,29.000000,22.000000,39.000000,16.000000,12.000000
1301520.793592,-34.000000,-4.000000,-10.000000,-44.000000,-24.000000,-73.000000,18.000000,-20.000000
1301520.793886,29.000000,-3.000000,-99.000000,72.000000,-23.000000,-31.000000,9.000000,9.000000
1301520.794510,10.000000,1.000000,72.000000,13.000000,-7.000000,-11.000000,-45.000000,-50.000000
1301520.794612,36.000000,2.000000,-29.000000,-5.000000,15.000000,7.000000,-128.000000,34.000000
1301520.795554,10.000000,5.000000,16.000000,-54.000000,-19.000000,51.000000,127.000000,37.000000
1301520.795823,-38.000000,-4.000000,26.000000,23.000000,30.000000,16.000000,-100.000000,-3.000000
1301520.796116,-7.000000,-9.000000,3.000000,2.000000,2.000000,12.000000,-40.000000,12.000000
1301520.796155,31.000000,7.000000,-20.000000,-36.000000,-6.000000,-19.000000,127.000000,-8.000000
1301520.807469,-13.000000,1.000000,-10.000000,-1.000000,2.000000,-19.000000,-1.000000,-6.000000
1301520.807509,26.000000,4.000000,9.000000,-13.000000,8.000000,12.000000,20.000000,22.000000
1301520.831512,-8.000000,-2.000000,26.000000,27.000000,1.000000,11.000000,-49.000000,-18.000000
1301520.831551,-13.000000,-5.000000,15.000000,29.000000,4.000000,-11.000000,2.000000,-4.000000
1301520.831749,25.000000,2.000000,-11.000000,1.000000,15.000000,12.000000,12.000000,2.000000
1301520.831788,-20.000000,-3.000000,-7.000000,-56.000000,-20.000000,9.000000,-24.000000,-24.000000
1301520.844841,-49.000000,2.000000,-13.000000,-8.000000,-26.000000,-52.000000,4.000000,-16.000000
1301520.844861,-15.000000,5.000000,94.000000,58.000000,5.000000,-12.000000,-32.000000,-8.000000
1301520.852335,-11.000000,16.000000,6.000000,21.000000,29.000000,11.000000,-128.000000,-6.000000
1301520.852381,36.000000,3.000000,-55.000000,-55.000000,-49.000000,-33.000000,31.000000,26.000000
1301520.867311,-77.000000,5.000000,56.000000,43.000000,17.000000,-10.000000,-128.000000,-46.000000
1301520.867372,11.000000,2.000000,-13.000000,-15.000000,8.000000,43.000000,61.000000,31.000000
1301520.890432,26.000000,-2.000000,-54.000000,-38.000000,-10.000000,10.000000,17.000000,18.000000
1301520.890482,-22.000000,-2.000000,-62.000000,-25.000000,-13.000000,-41.000000,-51.000000,-56.000000
1301520.904807,-66.000000,3.000000,38.000000,12.000000,2.000000,1.000000,-13.000000,-44.000000
1301520.904836,-14.000000,5.000000,-8.000000,15.000000,19.000000,45.000000,-26.000000,8.000000
1301520.905575,22.000000,-4.000000,-75.000000,-41.000000,-38.000000,-90.000000,-113.000000,-4.000000
1301520.905612,-5.000000,8.000000,-11.000000,-10.000000,10.000000,19.000000,-63.000000,4.000000
1301520.906855,4.000000,2.000000,-1.000000,-6.000000,-1.000000,-30.000000,48.000000,-30.000000
1301520.907229,2.000000,3.000000,-33.000000,-58.000000,-23.000000,-18.000000,-73.000000,31.000000
1301520.907630,0.000000,1.000000,127.000000,36.000000,31.000000,16.000000,-28.000000,-26.000000
1301520.907659,-17.000000,2.000000,13.000000,67.000000,22.000000,18.000000,31.000000,-4.000000
1301520.913125,19.000000,1.000000,-8.000000,-58.000000,-26.000000,-1.000000,-64.000000,-54.000000
1301520.913203,-19.000000,7.000000,-128.000000,-19.000000,-1.000000,-8.000000,-128.000000,30.000000
1301520.927550,17.000000,-3.000000,15.000000,-19.000000,-7.000000,38.000000,127.000000,26.000000
1301520.927588,-11.000000,6.000000,26.000000,-21.000000,2.000000,16.000000,-128.000000,-9.000000
1301520.949832,32.000000,1.000000,11.000000,51.000000,6.000000,-3.000000,-66.000000,9.000000
1301520.950162,-9.000000,-1.000000,22.000000,0.000000,-3.000000,8.000000,79.000000,-2.000000
1301520.950747,16.000000,0.000000,-19.000000,-7.000000,13.000000,29.000000,45.000000,-7.000000
1301520.950788,-30.000000,-5.000000,-44.000000,-21.000000,-27.000000,-24.000000,29.000000,3.000000
1301520.964668,40.000000,10.000000,58.000000,21.000000,14.000000,5.000000,-1.000000,22.000000
1301520.964689,35.000000,-1.000000,59.000000,45.000000,12.000000,21.000000,-21.000000,1.000000
1301520.972475,-27.000000,-6.000000,-2.000000,0.000000,8.000000,21.000000,-20.000000,8.000000
1301520.972495,18.000000,2.000000,-128.000000,-27.000000,3.000000,-11.000000,-34.000000,0.000000
1301520.995076,30.000000,-4.000000,64.000000,78.000000,12.000000,15.000000,-6.000000,27.000000
1301520.995190,-22.000000,-11.000000,18.000000,13.000000,7.000000,53.000000,127.000000,18.000000
1301521.002444,-1.000000,0.000000,-46.000000,-48.000000,-22.000000,-36.000000,-98.000000,-12.000000
1301521.002515,-3.000000,2.000000,-77.000000,-27.000000,4.000000,21.000000,-25.000000,-3.000000
1301521.039785,-18.000000,3.000000,92.000000,62.000000,28.000000,36.000000,13.000000,-15.000000
1301521.039808,12.000000,-6.000000,0.000000,19.000000,21.000000,12.000000,-13.000000,33.000000
1301521.047105,23.000000,-2.000000,2.000000,-15.000000,6.000000,12.000000,24.000000,-2.000000
1301521.047129,-58.000000,-3.000000,-58.000000,1.000000,-1.000000,0.000000,23.000000,-21.000000
1301521.048654,6.000000,-3.000000,-27.000000,-44.000000,-39.000000,-22.000000,1.000000,7.000000
1301521.048751,-12.000000,4.000000,68.000000,32.000000,15.000000,13.000000,33.000000,-17.000000
1301521.049016,-3.000000,-1.000000,-9.000000,12.000000,19.000000,40.000000,-73.000000,9.000000
1301521.049056,16.000000,-10.000000,5.000000,-30.000000,-16.000000,-12.000000,97.000000,13.000000
1301521.050253,18.000000,-1.000000,57.000000,55.000000,23.000000,15.000000,-64.000000,10.000000
1301521.050292,-25.000000,-10.000000,-54.000000,-49.000000,-37.000000,-38.000000,13.000000,-27.000000
1301521.070336,13.000000,-4.000000,49.000000,-8.000000,-6.000000,-31.000000,-90.000000,8.000000
1301521.070383,32.000000,8.000000,-15.000000,6.000000,4.000000,28.000000,38.000000,21.000000
1301521.071062,14.000000,8.000000,-8.000000,-24.000000,1.000000,0.000000,-91.000000,-10.000000
1301521.071103,-16.000000,-3.000000,-11.000000,25.000000,17.000000,34.000000,39.000000,-3.000000
1301521.085167,-40.000000,9.000000,16.000000,-30.000000,-51.000000,-120.000000,79.000000,-44.000000
1301521.085213,4.000000,0.000000,25.000000,-27.000000,9.000000,4.000000,31.000000,-42.000000
1301521.107477,4.000000,-10.000000,-12.000000,15.000000,-53.000000,-97.000000,127.000000,10.000000
1301521.107531,32.000000,7.000000,-3.000000,-22.000000,18.000000,24.000000,-59.000000,-14.000000
1301521.129708,-48.000000,4.000000,-31.000000,-9.000000,17.000000,12.000000,-22.000000,-83.000000
1301521.129736,56.000000,-5.000000,5.000000,15.000000,-1.000000,2.000000,2.000000,23.000000
1301521.144846,30.000000,11.000000,-27.000000,-5.000000,6.000000,0.000000,25.000000,29.000000
1301521.144885,-8.000000,-2.000000,96.000000,67.000000,33.000000,23.000000,-26.000000,4.000000
1301521.168173,21.000000,2.000000,-5.000000,-10.000000,-9.000000,-5.000000,45.000000,6.000000
1301521.168207,17.000000,-8.000000,0.000000,-43.000000,-11.000000,-17.000000,34.000000,10.000000
1301521.168539,-3.000000,4.000000,127.000000,104.000000,17.000000,19.000000,-38.000000,9.000000
1301521.168582,4.000000,-3.000000,-21.000000,-26.000000,-4.000000,-21.000000,-128.000000,-23.000000
1301521.169787,12.000000,-8.000000,-29.000000,-32.000000,-29.000000,-10.000000,127.000000,29.000000
1301521.169808,2.000000,-6.000000,-88.000000,8.000000,24.000000,67.000000,14.000000,-9.000000
1301521.170725,35.000000,2.000000,96.000000,48.000000,10.000000,-19.000000,-59.000000,39.000000
1301521.170766,12.000000,-2.000000,1.000000,-26.000000,-10.000000,-2.000000,60.000000,-7.000000
1301521.171361,-4.000000,5.000000,-12.000000,-39.000000,-5.000000,-28.000000,-21.000000,15.000000
1301521.171400,-20.000000,-4.000000,-128.000000,-12.000000,11.000000,38.000000,2.000000,-24.000000
1301521.176336,-9.000000,2.000000,28.000000,3.000000,-5.000000,-10.000000,50.000000,1.000000
1301521.176378,19.000000,-1.000000,5.000000,9.000000,17.000000,33.000000,-16.000000,17.000000
1301521.182280,-10.000000,-7.000000,-24.000000,-44.000000,-44.000000,-82.000000,-65.000000,-18.000000
1301521.182325,8.000000,-4.000000,39.000000,-11.000000,-11.000000,-19.000000,-128.000000,12.000000
1301521.219938,-29.000000,9.000000,50.000000,-32.000000,-7.000000,14.000000,24.000000,-11.000000
1301521.219968,-14.000000,-5.000000,127.000000,117.000000,14.000000,2.000000,31.000000,7.000000
1301521.227257,9.000000,3.000000,-41.000000,-20.000000,13.000000,17.000000,-3.000000,5.000000
1301521.227278,-19.000000,-7.000000,-76.000000,-49.000000,-30.000000,-45.000000,1.000000,-26.000000
1301521.242327,11.000000,-4.000000,57.000000,9.000000,-15.000000,-9.000000,-10.000000,1.000000
1301521.242375,-17.000000,-4.000000,39.000000,29.000000,22.000000,27.000000,-25.000000,11.000000
1301521.249854,-21.000000,30.000000,-13.000000,37.000000,30.000000,14.000000,24.000000,11.000000
1301521.249895,-9.000000,-18.000000,55.000000,-17.000000,-28.000000,-15.000000,97.000000,-7.000000
1301521.266011,-52.000000,-7.000000,-69.000000,-65.000000,-54.000000,-102.000000,-120.000000,-40.000000
1301521.266237,6.000000,1.000000,20.000000,51.000000,27.000000,49.000000,-80.000000,4.000000
1301521.266775,2.000000,-7.000000,36.000000,15.000000,-4.000000,-35.000000,-103.000000,-20.000000
1301521.266823,-5.000000,-8.000000,-23.000000,-51.000000,-17.000000,-9.000000,53.000000,26.000000
1301521.267772,11.000000,2.000000,5.000000,13.000000,22.000000,30.000000,-2.000000,6.000000
1301521.267814,6.000000,2.000000,16.000000,20.000000,16.000000,27.000000,-23.000000,-9.000000
1301521.268422,10.000000,-2.000000,-5.000000,5.000000,-2.000000,-39.000000,42.000000,-26.000000
1301521.268439,12.000000,-5.000000,-13.000000,-4.000000,2.000000,1.000000,-48.000000,-6.000000
1301521.280173,-24.000000,5.000000,42.000000,-9.000000,6.000000,13.000000,83.000000,4.000000
1301521.280211,36.000000,-4.000000,41.000000,-20.000000,-7.000000,3.000000,-17.000000,-9.000000
1301521.286988,21.000000,9.000000,127.000000,111.000000,34.000000,37.000000,-9.000000,17.000000
1301521.287028,-5.000000,2.000000,74.000000,99.000000,25.000000,-1.000000,127.000000,-10.000000
1301521.302919,-30.000000,0.000000,-18.000000,-27.000000,-12.000000,-18.000000,-48.000000,-16.000000
1301521.303119,29.000000,-4.000000,-25.000000,-20.000000,12.000000,-9.000000,-128.000000,14.000000
1301521.303512,51.000000,0.000000,18.000000,-4.000000,15.000000,89.000000,116.000000,44.000000
1301521.303613,-36.000000,2.000000,-16.000000,-16.000000,-22.000000,-36.000000,-59.000000,-6.000000
1301521.324843,14.000000,-9.000000,-7.000000,-6.000000,-4.000000,8.000000,-54.000000,1.000000
1301521.324880,8.000000,-10.000000,52.000000,89.000000,58.000000,80.000000,-7.000000,15.000000
1301521.347449,1.000000,-6.000000,72.000000,-19.000000,11.000000,2.000000,127.000000,36.000000
1301521.347493,11.000000,3.000000,-84.000000,19.000000,-1.000000,-4.000000,-39.000000,-8.000000
1301521.377384,-4.000000,8.000000,-1.000000,-24.000000,-6.000000,12.000000,-22.000000,-5.000000
1301521.377415,-7.000000,-1.000000,70.000000,22.000000,3.000000,5.000000,3.000000,-1.000000
1301521.384852,-45.000000,6.000000,-33.000000,-52.000000,-15.000000,-52.000000,-5.000000,-30.000000
1301521.384955,28.000000,-8.000000,47.000000,48.000000,13.000000,7.000000,10.000000,17.000000
1301521.386555,12.000000,8.000000,21.000000,50.000000,38.000000,62.000000,-19.000000,2.000000
1301521.386787,1.000000,-1.000000,-41.000000,-54.000000,-54.000000,-107.000000,127.000000,15.000000
1301521.387498,-1.000000,3.000000,42.000000,36.000000,19.000000,22.000000,-34.000000,16.000000
1301521.387516,-29.000000,1.000000,-2.000000,-6.000000,-5.000000,-14.000000,-63.000000,-15.000000
1301521.388137,-6.000000,-17.000000,-3.000000,8.000000,0.000000,15.000000,-56.000000,-4.000000
1301521.388156,18.000000,2.000000,-21.000000,-16.000000,-7.000000,4.000000,-1.000000,9.000000
1301521.400496,-18.000000,1.000000,30.000000,-1.000000,14.000000,17.000000,-18.000000,-32.000000
1301521.400532,9.000000,3.000000,-115.000000,-28.000000,-19.000000,1.000000,28.000000,13.000000
1301521.407330,-25.000000,2.000000,100.000000,16.000000,-7.000000,-17.000000,-67.000000,-27.000000
1301521.407365,-21.000000,-3.000000,1.000000,0.000000,3.000000,19.000000,-78.000000,-5.000000
1301521.423126,-13.000000,-11.000000,-24.000000,-50.000000,-50.000000,-82.000000,29.000000,-32.000000
1301521.423158,24.000000,-8.000000,-44.000000,8.000000,5.000000,6.000000,16.000000,20.000000
1301521.423894,-16.000000,4.000000,-3.000000,-3.000000,-2.000000,20.000000,-43.000000,-7.000000
1301521.423935,0.000000,-7.000000,2.000000,9.000000,0.000000,-11.000000,-50.000000,-11.000000
1301521.451920,19.000000,3.000000,-60.000000,-46.000000,1.000000,-7.000000,42.000000,29.000000
1301521.451940,2.000000,-4.000000,90.000000,60.000000,20.000000,16.000000,-13.000000,-3.000000
1301521.459620,-16.000000,4.000000,14.000000,-24.000000,-5.000000,6.000000,9.000000,6.000000
1301521.459640,-53.000000,0.000000,-91.000000,-5.000000,-25.000000,-21.000000,-7.000000,-40.000000
1301521.482133,-11.000000,4.000000,22.000000,18.000000,12.000000,14.000000,-13.000000,-2.000000
1301521.482172,4.000000,2.000000,-6.000000,-3.000000,8.000000,-25.000000,-36.000000,4.000000
1301521.505020,21.000000,7.000000,26.000000,-32.000000,-17.000000,20.000000,5.000000,21.000000
1301521.505330,16.000000,-19.000000,-109.000000,15.000000,-7.000000,-3.000000,89.000000,6.000000
1301521.505819,-21.000000,-6.000000,74.000000,3.000000,1.000000,29.000000,16.000000,-1.000000
1301521.505858,19.000000,-8.000000,-11.000000,-12.000000,2.000000,1.000000,-19.000000,-3.000000
1301521.506985,17.000000,7.000000,-5.000000,-1.000000,3.000000,-7.000000,16.000000,6.000000
1301521.507209,-18.000000,2.000000,1.000000,3.000000,-9.000000,-5.000000,-28.000000,-17.000000
1301521.508971,21.000000,-5.000000,9.000000,8.000000,13.000000,13.000000,-45.000000,12.000000
1301521.508990,-11.000000,0.000000,-17.000000,4.000000,-2.000000,2.000000,51.000000,4.000000
1301521.509416,-13.000000,10.000000,-90.000000,13.000000,1.000000,-4.000000,-29.000000,-21.000000
1301521.509456,4.000000,-2.000000,2.000000,10.000000,-2.000000,3.000000,-61.000000,-2.000000
1301521.519668,-2.000000,-12.000000,16.000000,26.000000,28.000000,25.000000,49.000000,14.000000
1301521.519688,38.000000,6.000000,22.000000,-61.000000,-9.000000,-5.000000,127.000000,37.000000
1301521.527199,-5.000000,8.000000,108.000000,113.000000,48.000000,44.000000,-74.000000,-12.000000
1301521.527338,-21.000000,-9.000000,-2.000000,-1.000000,-6.000000,-39.000000,-7.000000,-6.000000
1301521.542757,14.000000,8.000000,-70.000000,-69.000000,-17.000000,-2.000000,-74.000000,-19.000000
1301521.542928,-10.000000,-4.000000,49.000000,40.000000,21.000000,10.000000,70.000000,-7.000000
1301521.557350,13.000000,-3.000000,-27.000000,-18.000000,-7.000000,5.000000,-28.000000,1.000000
1301521.557372,-4.000000,-5.000000,52.000000,-35.000000,-17.000000,-21.000000,78.000000,4.000000
1301521.580587,2.000000,12.000000,-68.000000,2.000000,-12.000000,-38.000000,-42.000000,-1.000000
1301521.580633,29.000000,2.000000,25.000000,-4.000000,3.000000,5.000000,-28.000000,5.000000
1301521.595448,-17.000000,-2.000000,-1.000000,-2.000000,6.000000,4.000000,-12.000000,-12.000000
1301521.595475,28.000000,8.000000,-44.000000,12.000000,6.000000,1.000000,-3.000000,-7.000000
1301521.625241,0.000000,4.000000,70.000000,13.000000,17.000000,16.000000,-56.000000,3.000000
1301521.625287,6.000000,-6.000000,-83.000000,-43.000000,-21.000000,-13.000000,94.000000,6.000000
1301521.640472,-26.000000,-4.000000,66.000000,25.000000,20.000000,8.000000,-12.000000,-12.000000
1301521.640527,19.000000,11.000000,-128.000000,-28.000000,3.000000,23.000000,-88.000000,-3.000000
1301521.664875,-7.000000,-16.000000,99.000000,91.000000,-3.000000,-13.000000,127.000000,20.000000
1301521.665200,-31.000000,-9.000000,-29.000000,-87.000000,-53.000000,-45.000000,-64.000000,-24.000000
1301521.665623,7.000000,2.000000,-55.000000,-4.000000,13.000000,16.000000,-38.000000,-7.000000
1301521.665665,-11.000000,-4.000000,2.000000,7.000000,-4.000000,10.000000,-7.000000,5.000000
1301521.667038,3.000000,-5.000000,8.000000,-6.000000,7.000000,5.000000,-36.000000,-19.000000
1301521.667085,20.000000,2.000000,-2.000000,28.000000,12.000000,9.000000,-75.000000,-11.000000
1301521.667507,-14.000000,-3.000000,11.000000,-31.000000,7.000000,27.000000,7.000000,-15.000000
1301521.667559,-1.000000,-11.000000,-1.000000,61.000000,5.000000,9.000000,92.000000,35.000000
1301521.668127,-10.000000,11.000000,-15.000000,-15.000000,-2.000000,-34.000000,-13.000000,-12.000000
1301521.668154,-1.000000,11.000000,10.000000,-5.000000,-3.000000,5.000000,-122.000000,-15.000000
1301521.670076,-6.000000,-10.000000,14.000000,-49.000000,-24.000000,-44.000000,-128.000000,-14.000000
1301521.670132,6.000000,-5.000000,-82.000000,-21.000000,-9.000000,19.000000,85.000000,27.000000
1301521.685343,-21.000000,4.000000,38.000000,37.000000,13.000000,-7.000000,-48.000000,12.000000
1301521.685371,0.000000,5.000000,86.000000,25.000000,11.000000,10.000000,2.000000,-2.000000
1301521.700554,-3.000000,6.000000,-58.000000,9.000000,5.000000,4.000000,-55.000000,-4.000000
1301521.700611,-11.000000,7.000000,-76.000000,5.000000,-4.000000,-14.000000,0.000000,-15.000000
1301521.723315,12.000000,-13.000000,-39.000000,-45.000000,-28.000000,-23.000000,9.000000,24.000000
1301521.723379,-1.000000,2.000000,9.000000,-13.000000,3.000000,10.000000,-8.000000,10.000000
1301521.730411,11.000000,2.000000,14.000000,25.000000,24.000000,40.000000,-7.000000,5.000000
1301521.730462,16.000000,-10.000000,3.000000,-2.000000,-8.000000,-70.000000,-59.000000,6.000000
1301521.739333,-5.000000,-2.000000,17.000000,-12.000000,3.000000,12.000000,52.000000,5.000000
1301521.739385,6.000000,6.000000,30.000000,41.000000,19.000000,28.000000,-64.000000,-9.000000
1301521.739647,-32.000000,-9.000000,41.000000,-24.000000,-25.000000,-57.000000,127.000000,-15.000000
1301521.739755,5.000000,-4.000000,43.000000,30.000000,-6.000000,-9.000000,-77.000000,-5.000000
1301521.741599,-3.000000,-7.000000,-28.000000,-19.000000,5.000000,24.000000,-47.000000,-15.000000
1301521.741727,6.000000,-9.000000,-17.000000,7.000000,9.000000,49.000000,83.000000,5.000000
1301521.745359,9.000000,-3.000000,-10.000000,0.000000,-6.000000,-19.000000,54.000000,17.000000
1301521.745408,-14.000000,5.000000,-31.000000,-37.000000,-7.000000,27.000000,-44.000000,-41.000000
1301521.760543,-5.000000,-1.000000,26.000000,54.000000,12.000000,-22.000000,40.000000,10.000000
1301521.760572,-15.000000,-3.000000,12.000000,6.000000,-4.000000,9.000000,-6.000000,-25.000000
1301521.782888,8.000000,-7.000000,-59.000000,-21.000000,-11.000000,-17.000000,12.000000,5.000000
1301521.782940,-19.000000,-2.000000,-14.000000,3.000000,2.000000,1.000000,26.000000,23.000000
1301521.797442,5.000000,2.000000,-22.000000,1.000000,-17.000000,-29.000000,-11.000000,-6.000000
1301521.797497,-8.000000,5.000000,-8.000000,7.000000,13.000000,48.000000,-112.000000,-15.000000
1301521.805405,16.000000,-6.000000,-29.000000,-6.000000,8.000000,-33.000000,127.000000,22.000000
1301521.805458,10.000000,-6.000000,-11.000000,-7.000000,-3.000000,6.000000,20.000000,9.000000
1301521.842864,-26.000000,-1.000000,-20.000000,4.000000,1.000000,-40.000000,57.000000,-5.000000
1301521.842916,3.000000,-10.000000,19.000000,25.000000,27.000000,46.000000,-128.000000,-11.000000
1301521.858228,-2.000000,0.000000,44.000000,24.000000,-17.000000,-65.000000,123.000000,35.000000
1301521.858256,-3.000000,0.000000,127.000000,52.000000,5.000000,13.000000,0.000000,1.000000
1301521.868019,-6.000000,1.000000,-7.000000,-8.000000,12.000000,-3.000000,-69.000000,1.000000
1301521.868068,31.000000,3.000000,-12.000000,-2.000000,-4.000000,18.000000,7.000000,1.000000
1301521.868317,-12.000000,-6.000000,9.000000,-18.000000,12.000000,3.000000,91.000000,18.000000
1301521.868378,17.000000,-1.000000,-12.000000,-20.000000,-14.000000,22.000000,40.000000,-12.000000
1301521.869203,-41.000000,8.000000,127.000000,121.000000,51.000000,25.000000,29.000000,23.000000
1301521.869244,1.000000,-4.000000,-51.000000,-12.000000,1.000000,-6.000000,-104.000000,2.000000
1301521.870098,4.000000,-4.000000,-54.000000,-9.000000,-17.000000,-21.000000,9.000000,-11.000000
1301521.870154,13.000000,-3.000000,-34.000000,-28.000000,0.000000,23.000000,-24.000000,0.000000
1301521.880234,-20.000000,-3.000000,-27.000000,-33.000000,-11.000000,3.000000,97.000000,-9.000000
1301521.880263,5.000000,-2.000000,-72.000000,19.000000,25.000000,31.000000,-106.000000,-4.000000
1301521.903305,-3.000000,-3.000000,127.000000,69.000000,25.000000,22.000000,-128.000000,-15.000000
1301521.903340,-5.000000,-16.000000,-31.000000,-19.000000,10.000000,10.000000,127.000000,11.000000
1301521.904906,32.000000,2.000000,24.000000,19.000000,-4.000000,22.000000,29.000000,34.000000
1301521.904962,-46.000000,-2.000000,-100.000000,-64.000000,-7.000000,1.000000,-67.000000,-42.000000
1301521.918139,23.000000,2.000000,-128.000000,-120.000000,-44.000000,-15.000000,51.000000,15.000000
1301521.918180,6.000000,-8.000000,-105.000000,111.000000,26.000000,27.000000,9.000000,16.000000
1301521.955558,9.000000,17.000000,-61.000000,-31.000000,-4.000000,-12.000000,120.000000,3.000000
1301521.955608,-20.000000,0.000000,-3.000000,-17.000000,2.000000,7.000000,-30.000000,-21.000000
1301521.963077,13.000000,-7.000000,-3.000000,-7.000000,-12.000000,-63.000000,77.000000,16.000000
1301521.963127,35.000000,9.000000,-20.000000,-23.000000,4.000000,5.000000,-24.000000,-2.000000
1301522.000515,-57.000000,-1.000000,-13.000000,10.000000,-11.000000,2.000000,73.000000,-8.000000
1301522.000824,26.000000,-11.000000,3.000000,-22.000000,-16.000000,-42.000000,-94.000000,-42.000000
1301522.002120,-3.000000,2.000000,-7.000000,8.000000,12.000000,35.000000,-13.000000,-14.000000
1301522.002192,33.000000,-6.000000,73.000000,62.000000,50.000000,36.000000,127.000000,-18.000000
1301522.003451,-13.000000,-11.000000,127.000000,65.000000,31.000000,-15.000000,-20.000000,-17.000000
1301522.003509,-13.000000,0.000000,15.000000,-50.000000,-41.000000,-34.000000,-77.000000,-27.000000
1301522.004693,3.000000,16.000000,-34.000000,81.000000,56.000000,77.000000,-64.000000,-8.000000
1301522.004749,-11.000000,-7.000000,-64.000000,-98.000000,-63.000000,-118.000000,14.000000,-30.000000
1301522.007645,24.000000,-4.000000,52.000000,-35.000000,-22.000000,-30.000000,127.000000,13.000000
1301522.007900,15.000000,-6.000000,114.000000,54.000000,5.000000,18.000000,-53.000000,11.000000
1301522.014832,1.000000,0.000000,28.000000,-1.000000,9.000000,-15.000000,-128.000000,-28.000000
1301522.014859,-11.000000,-2.000000,-105.000000,12.000000,-11.000000,-37.000000,28.000000,-21.000000
1301522.060501,-24.000000,1.000000,127.000000,-110.000000,-42.000000,-14.000000,-85.000000,17.000000
1301522.060534,-17.000000,-5.000000,127.000000,127.000000,14.000000,-12.000000,-34.000000,-55.000000
1301522.082534,-18.000000,11.000000,-14.000000,111.000000,42.000000,18.000000,-61.000000,17.000000
1301522.082587,17.000000,5.000000,-41.000000,-26.000000,-1.000000,15.000000,3.000000,-9.000000
1301522.098905,0.000000,0.000000,-15.000000,-10.000000,2.000000,-19.000000,-9.000000,11.000000
1301522.098956,2.000000,-3.000000,-20.000000,-19.000000,-19.000000,9.000000,96.000000,6.000000
1301522.100731,44.000000,0.000000,-9.000000,-5.000000,10.000000,-1.000000,-56.000000,22.000000
1301522.101307,-14.000000,-7.000000,35.000000,-3.000000,11.000000,15.000000,-24.000000,-7.000000
1301522.102106,11.000000,3.000000,17.000000,25.000000,20.000000,23.000000,-128.000000,-10.000000
1301522.102165,10.000000,-6.000000,-65.000000,1.000000,-21.000000,-4.000000,127.000000,14.000000
1301522.102376,-18.000000,-5.000000,18.000000,-28.000000,-26.000000,-73.000000,-102.000000,-20.000000
1301522.102725,-1.000000,-10.000000,-56.000000,-51.000000,-11.000000,24.000000,-14.000000,25.000000
1301522.103314,15.000000,5.000000,117.000000,29.000000,31.000000,13.000000,-96.000000,-20.000000
1301522.103361,-20.000000,9.000000,41.000000,63.000000,22.000000,46.000000,-22.000000,9.000000
1301522.103827,-13.000000,-9.000000,87.000000,-36.000000,-45.000000,-128.000000,-113.000000,-50.000000
1301522.103880,26.000000,-6.000000,-55.000000,-9.000000,5.000000,18.000000,-90.000000,31.000000
1301522.112567,-21.000000,-6.000000,-25.000000,-11.000000,10.000000,17.000000,41.000000,-34.000000
1301522.112976,-12.000000,-12.000000,59.000000,-26.000000,-18.000000,-12.000000,-54.000000,-21.000000
1301522.120085,-21.000000,-1.000000,93.000000,40.000000,2.000000,6.000000,-41.000000,21.000000
1301522.120112,38.000000,0.000000,15.000000,-31.000000,5.000000,48.000000,127.000000,15.000000
1301522.135128,15.000000,-5.000000,41.000000,12.000000,-9.000000,-12.000000,-1.000000,-13.000000
1301522.135237,-5.000000,-1.000000,56.000000,8.000000,3.000000,0.000000,6.000000,-1.000000
1301522.136733,17.000000,-3.000000,-18.000000,3.000000,11.000000,9.000000,9.000000,2.000000
1301522.136778,-21.000000,-1.000000,-14.000000,-11.000000,6.000000,-2.000000,1.000000,-7.000000
1301522.157409,21.000000,-2.000000,-29.000000,-20.000000,-6.000000,-8.000000,7.000000,5.000000
1301522.157435,-8.000000,7.000000,49.000000,35.000000,1.000000,0.000000,-17.000000,-9.000000
1301522.187976,-15.000000,3.000000,-7.000000,-9.000000,5.000000,5.000000,-62.000000,-29.000000
1301522.188006,-13.000000,0.000000,-24.000000,-18.000000,-3.000000,24.000000,84.000000,32.000000
1301522.195170,21.000000,-12.000000,-13.000000,-16.000000,-2.000000,-55.000000,127.000000,11.000000
1301522.195198,2.000000,-3.000000,10.000000,-12.000000,-10.000000,0.000000,-128.000000,-19.000000
1301522.235455,2.000000,-2.000000,31.000000,17.000000,11.000000,17.000000,16.000000,5.000000
1301522.235855,-6.000000,-9.000000,20.000000,3.000000,6.000000,10.000000,12.000000,-1.000000
1301522.236301,-8.000000,5.000000,37.000000,40.000000,24.000000,5.000000,-51.000000,-4.000000
1301522.236354,8.000000,-11.000000,10.000000,29.000000,15.000000,20.000000,57.000000,22.000000
1301522.237149,7.000000,4.000000,45.000000,-4.000000,6.000000,-2.000000,-77.000000,-14.000000
1301522.237192,-15.000000,0.000000,-11.000000,-17.000000,-4.000000,-3.000000,-32.000000,-6.000000
1301522.237563,-34.000000,-6.000000,46.000000,0.000000,-14.000000,7.000000,-32.000000,-27.000000
1301522.237614,13.000000,0.000000,-86.000000,-6.000000,-9.000000,-61.000000,127.000000,13.000000
1301522.277429,-39.000000,1.000000,11.000000,13.000000,30.000000,73.000000,-128.000000,-15.000000
1301522.277480,19.000000,-4.000000,-76.000000,-70.000000,-66.000000,-83.000000,127.000000,41.000000
1301522.285090,7.000000,6.000000,-18.000000,-23.000000,6.000000,17.000000,-67.000000,-23.000000
1301522.285145,-69.000000,1.000000,-7.000000,28.000000,23.000000,11.000000,29.000000,-22.000000
1301522.299932,20.000000,6.000000,-1.000000,-5.000000,-6.000000,9.000000,-117.000000,0.000000
1301522.299962,-3.000000,3.000000,-17.000000,-5.000000,-14.000000,-12.000000,3.000000,-1.000000
1301522.315220,-42.000000,-12.000000,-33.000000,-32.000000,-19.000000,-4.000000,103.000000,-11.000000
1301522.315246,-14.000000,5.000000,55.000000,2.000000,9.000000,-2.000000,-1.000000,8.000000
1301522.352563,-15.000000,2.000000,-122.000000,14.000000,4.000000,-12.000000,-22.000000,-1.000000
1301522.352780,-4.000000,-4.000000,30.000000,-46.000000,13.000000,52.000000,-128.000000,-11.000000
1301522.354106,-7.000000,0.000000,-16.000000,-11.000000,17.000000,17.000000,-63.000000,-21.000000
1301522.354148,9.000000,-7.000000,-30.000000,14.000000,-1.000000,-22.000000,-26.000000,-9.000000
1301522.355861,3.000000,1.000000,-5.000000,-41.000000,-30.000000,-16.000000,39.000000,10.000000
1301522.355899,23.000000,3.000000,-9.000000,-3.000000,13.000000,18.000000,-9.000000,-14.000000
1301522.356143,-19.000000,-1.000000,39.000000,9.000000,-24.000000,-97.000000,-128.000000,-35.000000
1301522.356163,-45.000000,-2.000000,-17.000000,-15.000000,-22.000000,-26.000000,3.000000,-1.000000
1301522.360082,-3.000000,2.000000,0.000000,11.000000,-11.000000,-3.000000,3.000000,10.000000
1301522.360118,8.000000,0.000000,-20.000000,-33.000000,0.000000,-21.000000,-37.000000,-8.000000
1301522.374951,21.000000,0.000000,-24.000000,17.000000,6.000000,19.000000,-54.000000,9.000000
1301522.375023,-5.000000,-4.000000,-6.000000,-5.000000,-4.000000,-26.000000,17.000000,10.000000
1301522.377050,22.000000,0.000000,127.000000,30.000000,-7.000000,-11.000000,127.000000,-1.000000
1301522.377078,12.000000,-3.000000,-8.000000,-17.000000,2.000000,9.000000,-37.000000,8.000000
1301522.412612,-19.000000,-7.000000,3.000000,-32.000000,-22.000000,-17.000000,-40.000000,-18.000000
1301522.412637,-20.000000,10.000000,20.000000,51.000000,32.000000,32.000000,-10.000000,-3.000000
1301522.435232,12.000000,-17.000000,38.000000,5.000000,5.000000,36.000000,127.000000,36.000000
1301522.435271,0.000000,5.000000,-24.000000,-30.000000,-17.000000,-30.000000,-128.000000,-18.000000
1301522.458085,-3.000000,-7.000000,-21.000000,-16.000000,0.000000,2.000000,24.000000,-5.000000
1301522.458385,9.000000,4.000000,-27.000000,2.000000,-3.000000,-3.000000,-82.000000,-7.000000
1301522.459488,28.000000,5.000000,-10.000000,21.000000,19.000000,22.000000,125.000000,23.000000
1301522.459539,-40.000000,3.000000,28.000000,8.000000,5.000000,25.000000,-100.000000,-1.000000
1301522.461412,-6.000000,2.000000,28.000000,8.000000,7.000000,-13.000000,93.000000,2.000000
1301522.461536,-6.000000,8.000000,-128.000000,-33.000000,-28.000000,-51.000000,-57.000000,-10.000000
1301522.461927,-5.000000,2.000000,-27.000000,-29.000000,-19.000000,-22.000000,87.000000,25.000000
1301522.461951,-1.000000,6.000000,-88.000000,-16.000000,10.000000,13.000000,-50.000000,13.000000
1301522.464869,-5.000000,-1.000000,118.000000,9.000000,8.000000,18.000000,29.000000,-9.000000
1301522.464893,-2.000000,1.000000,-128.000000,-15.000000,-23.000000,-9.000000,127.000000,26.000000
1301522.480047,10.000000,0.000000,20.000000,-6.000000,15.000000,35.000000,-128.000000,-14.000000
1301522.480097,-33.000000,-8.000000,-17.000000,-37.000000,-44.000000,-115.000000,-6.000000,-18.000000
1301522.487282,25.000000,3.000000,-30.000000,-40.000000,6.000000,46.000000,36.000000,15.000000
1301522.487333,-17.000000,-6.000000,-35.000000,3.000000,-16.000000,-37.000000,104.000000,4.000000
1301522.510021,-5.000000,6.000000,-7.000000,-6.000000,-9.000000,-11.000000,-46.000000,-17.000000
1301522.510075,1.000000,4.000000,-5.000000,17.000000,20.000000,26.000000,-5.000000,-10.000000
1301522.517436,8.000000,-3.000000,-25.000000,-21.000000,-5.000000,-31.000000,-128.000000,-26.000000
1301522.517486,-10.000000,-6.000000,40.000000,37.000000,-9.000000,-51.000000,127.000000,26.000000
1301522.563294,3.000000,-7.000000,-6.000000,-27.000000,-2.000000,6.000000,29.000000,-12.000000
1301522.563663,-18.000000,10.000000,15.000000,15.000000,10.000000,22.000000,-109.000000,-30.000000
1301522.564288,-9.000000,0.000000,18.000000,5.000000,-11.000000,-43.000000,-128.000000,-24.000000
1301522.564664,16.000000,-14.000000,-29.000000,-59.000000,-34.000000,-15.000000,90.000000,55.000000
1301522.565918,19.000000,-4.000000,73.000000,35.000000,8.000000,16.000000,-70.000000,-15.000000
1301522.566156,-22.000000,4.000000,-5.000000,8.000000,8.000000,15.000000,3.000000,-22.000000
1301522.566440,24.000000,0.000000,-18.000000,-15.000000,-6.000000,-20.000000,-41.000000,4.000000
1301522.566495,-7.000000,0.000000,-26.000000,-9.000000,6.000000,12.000000,-14.000000,-5.000000
1301522.567038,-12.000000,4.000000,43.000000,24.000000,-5.000000,-30.000000,108.000000,21.000000
1301522.567078,18.000000,7.000000,8.000000,-21.000000,1.000000,33.000000,19.000000,20.000000
1301522.569815,6.000000,-5.000000,-2.000000,-9.000000,-5.000000,-21.000000,-15.000000,-9.000000
1301522.569934,3.000000,1.000000,59.000000,-14.000000,-3.000000,11.000000,40.000000,4.000000
1301522.577420,-40.000000,2.000000,-44.000000,7.000000,2.000000,0.000000,0.000000,-1.000000
1301522.577463,14.000000,-7.000000,69.000000,28.000000,7.000000,11.000000,-35.000000,13.000000
1301522.592774,-7.000000,-6.000000,-8.000000,-17.000000,-5.000000,-1.000000,36.000000,4.000000
1301522.592833,-3.000000,4.000000,29.000000,1.000000,24.000000,15.000000,-128.000000,-13.000000
1301522.622646,7.000000,-14.000000,-61.000000,-18.000000,-36.000000,-43.000000,-75.000000,-2.000000
1301522.622699,-18.000000,-6.000000,13.000000,-54.000000,-37.000000,-15.000000,25.000000,43.000000
1301522.630178,-7.000000,-4.000000,-17.000000,-1.000000,19.000000,24.000000,-107.000000,-7.000000
1301522.630232,18.000000,-7.000000,-35.000000,23.000000,32.000000,43.000000,-14.000000,-9.000000
1301522.652785,-3.000000,-6.000000,-75.000000,4.000000,-24.000000,-67.000000,11.000000,10.000000
1301522.652820,29.000000,2.000000,1.000000,-15.000000,-1.000000,-7.000000,-26.000000,-26.000000
1301522.667561,-3.000000,4.000000,-2.000000,0.000000,-4.000000,14.000000,-10.000000,5.000000
1301522.667592,-6.000000,-10.000000,-11.000000,-11.000000,-5.000000,11.000000,42.000000,4.000000
1301522.676897,0.000000,5.000000,-30.000000,-20.000000,7.000000,8.000000,16.000000,-1.000000
1301522.677516,-7.000000,-3.000000,15.000000,44.000000,17.000000,11.000000,-109.000000,1.000000
1301522.678616,22.000000,4.000000,-54.000000,-56.000000,-22.000000,0.000000,127.000000,4.000000
1301522.678669,-6.000000,1.000000,95.000000,28.000000,16.000000,25.000000,-23.000000,9.000000
1301522.679266,3.000000,-3.000000,-58.000000,-9.000000,16.000000,-6.000000,-56.000000,17.000000
1301522.679318,-4.000000,-8.000000,-11.000000,14.000000,1.000000,7.000000,104.000000,23.000000
1301522.679608,-5.000000,7.000000,101.000000,-15.000000,-18.000000,2.000000,-47.000000,-29.000000
1301522.679652,34.000000,6.000000,-113.000000,-34.000000,16.000000,11.000000,8.000000,1.000000
1301522.690510,-30.000000,-8.000000,96.000000,83.000000,9.000000,-29.000000,127.000000,-10.000000
1301522.690820,22.000000,-4.000000,-16.000000,-42.000000,-19.000000,-7.000000,-72.000000,-33.000000
1301522.692303,-13.000000,1.000000,-19.000000,-13.000000,11.000000,21.000000,-27.000000,2.000000
1301522.692401,-6.000000,4.000000,-6.000000,14.000000,11.000000,17.000000,26.000000,-8.000000
1301522.697506,11.000000,3.000000,7.000000,18.000000,10.000000,5.000000,33.000000,21.000000
1301522.697544,-9.000000,-2.000000,18.000000,-18.000000,-13.000000,-12.000000,28.000000,-22.000000
1301522.713449,-12.000000,2.000000,8.000000,42.000000,26.000000,39.000000,-15.000000,-12.000000
1301522.713497,-5.000000,2.000000,-43.000000,-12.000000,-11.000000,-33.000000,49.000000,2.000000
1301522.735836,-7.000000,-8.000000,75.000000,-20.000000,-14.000000,-10.000000,-81.000000,-9.000000
1301522.735896,-3.000000,3.000000,-128.000000,-34.000000,-11.000000,3.000000,-118.000000,-10.000000
1301522.750242,6.000000,-10.000000,-100.000000,-22.000000,-24.000000,18.000000,127.000000,7.000000
1301522.750293,-22.000000,-3.000000,38.000000,-25.000000,-19.000000,-82.000000,-128.000000,-27.000000
1301522.772904,32.000000,2.000000,-4.000000,-5.000000,-4.000000,20.000000,8.000000,7.000000
1301522.772953,-16.000000,4.000000,-39.000000,-5.000000,7.000000,19.000000,92.000000,0.000000
1301522.794987,8.000000,-4.000000,97.000000,-24.000000,16.000000,35.000000,-60.000000,8.000000
1301522.795044,25.000000,-2.000000,8.000000,66.000000,7.000000,-29.000000,72.000000,30.000000
1301522.810863,-19.000000,-8.000000,29.000000,22.000000,13.000000,12.000000,-24.000000,12.000000
1301522.810906,6.000000,7.000000,-10.000000,8.000000,22.000000,22.000000,7.000000,9.000000
1301522.813181,0.000000,1.000000,28.000000,92.000000,37.000000,41.000000,-34.000000,9.000000
1301522.813638,-4.000000,-8.000000,-31.000000,-81.000000,-80.000000,-128.000000,-47.000000,-15.000000
1301522.813903,-4.000000,-4.000000,-20.000000,-12.000000,-8.000000,4.000000,-4.000000,0.000000
1301522.814315,-37.000000,-9.000000,16.000000,-31.000000,-10.000000,-17.000000,-59.000000,-26.000000
1301522.815133,-20.000000,-16.000000,-79.000000,26.000000,22.000000,-14.000000,48.000000,-18.000000
1301522.815156,6.000000,-1.000000,85.000000,8.000000,6.000000,12.000000,-66.000000,2.000000
1301522.817087,-4.000000,6.000000,-50.000000,16.000000,13.000000,8.000000,-7.000000,-9.000000
1301522.817138,0.000000,8.000000,12.000000,-17.000000,-10.000000,-10.000000,-4.000000,-10.000000
1301522.833519,-5.000000,2.000000,-79.000000,5.000000,18.000000,43.000000,59.000000,3.000000
1301522.833686,18.000000,-2.000000,-4.000000,-24.000000,-19.000000,-52.000000,127.000000,15.000000
1301522.840029,-32.000000,7.000000,20.000000,32.000000,41.000000,102.000000,66.000000,17.000000
1301522.840085,70.000000,-15.000000,-128.000000,-60.000000,-39.000000,-66.000000,85.000000,31.000000
1301522.848387,-104.000000,0.000000,61.000000,-3.000000,5.000000,14.000000,-40.000000,-2.000000
1301522.848434,3.000000,0.000000,-27.000000,12.000000,32.000000,27.000000,-48.000000,-12.000000
1301522.870229,32.000000,3.000000,4.000000,15.000000,21.000000,44.000000,-62.000000,-8.000000
1301522.870282,1.000000,1.000000,-85.000000,-13.000000,-2.000000,-33.000000,99.000000,10.000000
1301522.907478,15.000000,6.000000,71.000000,51.000000,26.000000,8.000000,-53.000000,2.000000
1301522.907529,-1.000000,9.000000,18.000000,5.000000,4.000000,55.000000,-39.000000,-2.000000
1301522.915009,-14.000000,-20.000000,-49.000000,-37.000000,-69.000000,-128.000000,-128.000000,-48.000000
1301522.915053,15.000000,1.000000,-5.000000,-11.000000,10.000000,44.000000,2.000000,32.000000
1301522.952530,-37.000000,0.000000,-53.000000,-25.000000,-11.000000,17.000000,127.000000,-66.000000
1301522.952587,30.000000,21.000000,43.000000,27.000000,-2.000000,-16.000000,-105.000000,-16.000000
1301522.967215,-57.000000,-8.000000,8.000000,-13.000000,-13.000000,2.000000,75.000000,-25.000000
1301522.967256,-4.000000,2.000000,-109.000000,3.000000,16.000000,17.000000,-128.000000,-12.000000
1301522.968843,8.000000,-9.000000,59.000000,-54.000000,-64.000000,-100.000000,-81.000000,11.000000
1301522.968892,0.000000,4.000000,-8.000000,-13.000000,5.000000,32.000000,-128.000000,-17.000000
1301522.975004,-1.000000,-5.000000,-50.000000,-31.000000,1.000000,7.000000,83.000000,3.000000
1301522.975053,24.000000,11.000000,0.000000,81.000000,13.000000,-16.000000,-30.000000,4.000000
1301523.027192,-23.000000,0.000000,-10.000000,-7.000000,2.000000,31.000000,-29.000000,-49.000000
1301523.027236,4.000000,4.000000,-71.000000,-24.000000,7.000000,-23.000000,-78.000000,9.000000
1301523.052295,8.000000,-7.000000,49.000000,15.000000,21.000000,15.000000,18.000000,6.000000
1301523.053421,-10.000000,-6.000000,-1.000000,37.000000,7.000000,-8.000000,31.000000,-6.000000
1301523.053732,13.000000,0.000000,127.000000,89.000000,-2.000000,-5.000000,127.000000,59.000000
1301523.053758,-22.000000,5.000000,26.000000,-16.000000,3.000000,-11.000000,-118.000000,-46.000000
1301523.055226,-2.000000,6.000000,22.000000,21.000000,24.000000,-27.000000,-47.000000,0.000000
1301523.055250,1.000000,-5.000000,-13.000000,0.000000,6.000000,18.000000,42.000000,13.000000
1301523.065105,18.000000,-3.000000,-27.000000,-33.000000,-15.000000,-14.000000,-68.000000,-10.000000
1301523.065140,-11.000000,-3.000000,-11.000000,1.000000,5.000000,8.000000,106.000000,0.000000
1301523.087509,31.000000,7.000000,-3.000000,8.000000,21.000000,26.000000,-67.000000,-4.000000
1301523.087641,-9.000000,-4.000000,-6.000000,-84.000000,-51.000000,-87.000000,-99.000000,-34.000000
1301523.103319,8.000000,-5.000000,55.000000,49.000000,7.000000,6.000000,-51.000000,43.000000
1301523.103368,20.000000,-3.000000,-6.000000,-10.000000,2.000000,11.000000,-12.000000,-15.000000
1301523.117609,17.000000,2.000000,1.000000,21.000000,15.000000,30.000000,-128.000000,-25.000000
1301523.117662,-57.000000,-8.000000,-66.000000,-105.000000,-79.000000,-97.000000,127.000000,-44.000000
1301523.125598,-11.000000,-3.000000,-93.000000,23.000000,20.000000,7.000000,-49.000000,1.000000
1301523.125628,2.000000,9.000000,50.000000,-4.000000,2.000000,7.000000,-34.000000,-11.000000
1301523.140364,13.000000,5.000000,-40.000000,-5.000000,-15.000000,-17.000000,-12.000000,5.000000
1301523.140411,-40.000000,-1.000000,54.000000,-1.000000,-9.000000,-10.000000,30.000000,-9.000000
1301523.147703,21.000000,1.000000,-13.000000,-7.000000,10.000000,-5.000000,-47.000000,-1.000000
1301523.147756,5.000000,-7.000000,-11.000000,17.000000,19.000000,24.000000,-128.000000,-9.000000
1301523.185407,7.000000,-7.000000,69.000000,39.000000,-18.000000,-39.000000,127.000000,36.000000
1301523.185462,-19.000000,-7.000000,-1.000000,-36.000000,-8.000000,-7.000000,-128.000000,-38.000000
1301523.186198,-30.000000,4.000000,-19.000000,28.000000,24.000000,38.000000,127.000000,-8.000000
1301523.186235,1.000000,-1.000000,10.000000,-35.000000,-24.000000,-40.000000,30.000000,11.000000
1301523.187405,0.000000,-1.000000,56.000000,31.000000,3.000000,2.000000,-74.000000,5.000000
1301523.187456,-15.000000,4.000000,-42.000000,-8.000000,5.000000,-1.000000,-109.000000,-35.000000
1301523.188816,9.000000,-3.000000,-47.000000,-28.000000,-28.000000,-73.000000,12.000000,1.000000
1301523.188870,18.000000,-8.000000,-1.000000,-39.000000,-23.000000,-6.000000,-15.000000,17.000000
1301523.193477,-8.000000,-1.000000,47.000000,42.000000,15.000000,15.000000,10.000000,2.000000
1301523.193530,16.000000,3.000000,59.000000,33.000000,16.000000,15.000000,-6.000000,11.000000
1301523.207841,-10.000000,-10.000000,1.000000,-40.000000,-18.000000,-17.000000,-46.000000,-9.000000
1301523.207896,0.000000,-6.000000,83.000000,23.000000,9.000000,4.000000,-40.000000,-5.000000
1301523.245045,2.000000,-3.000000,-24.000000,-7.000000,-6.000000,-5.000000,43.000000,16.000000
1301523.245075,-12.000000,-5.000000,-15.000000,-23.000000,-5.000000,2.000000,-39.000000,-1.000000
1301523.252399,25.000000,-1.000000,21.000000,18.000000,20.000000,35.000000,127.000000,21.000000
1301523.252448,-36.000000,-3.000000,-78.000000,-47.000000,-58.000000,-73.000000,-128.000000,29.000000
1301523.267448,20.000000,5.000000,31.000000,18.000000,14.000000,32.000000,-46.000000,-3.000000
1301523.267519,11.000000,-2.000000,-4.000000,11.000000,15.000000,35.000000,-25.000000,-10.000000
1301523.290152,3.000000,4.000000,37.000000,-6.000000,-3.000000,-4.000000,123.000000,-9.000000
1301523.290204,0.000000,-7.000000,-31.000000,5.000000,0.000000,-21.000000,50.000000,17.000000
1301523.293740,-23.000000,-5.000000,-29.000000,1.000000,-5.000000,14.000000,69.000000,-6.000000
1301523.293764,-25.000000,12.000000,18.000000,22.000000,16.000000,18.000000,-35.000000,-25.000000
1301523.294463,-14.000000,1.000000,-36.000000,-27.000000,-17.000000,-39.000000,45.000000,-32.000000
1301523.294513,42.000000,2.000000,41.000000,20.000000,-17.000000,-9.000000,104.000000,37.000000
1301523.294746,4.000000,2.000000,119.000000,64.000000,-11.000000,-78.000000,11.000000,-10.000000
1301523.294768,4.000000,-6.000000,-101.000000,-56.000000,-29.000000,5.000000,35.000000,14.000000
1301523.304972,10.000000,-4.000000,92.000000,-39.000000,-8.000000,10.000000,43.000000,-14.000000
1301523.305029,-40.000000,0.000000,81.000000,84.000000,2.000000,-33.000000,127.000000,-8.000000
1301523.327678,6.000000,6.000000,-9.000000,-17.000000,5.000000,0.000000,-5.000000,-12.000000
1301523.327717,7.000000,-5.000000,-1.000000,2.000000,19.000000,25.000000,-9.000000,2.000000
1301523.343122,20.000000,-4.000000,-97.000000,-52.000000,-8.000000,10.000000,8.000000,-13.000000
1301523.343224,3.000000,-5.000000,-45.000000,25.000000,-11.000000,-63.000000,5.000000,21.000000
1301523.387740,20.000000,-1.000000,27.000000,-13.000000,-7.000000,-5.000000,58.000000,15.000000
1301523.387791,-11.000000,0.000000,17.000000,3.000000,18.000000,38.000000,-128.000000,-3.000000
1301523.394835,16.000000,-8.000000,-103.000000,-13.000000,-15.000000,33.000000,127.000000,4.000000
1301523.395115,-29.000000,0.000000,0.000000,-19.000000,-8.000000,-51.000000,-72.000000,-5.000000
1301523.396526,9.000000,-4.000000,-18.000000,-21.000000,-9.000000,-7.000000,-17.000000,7.000000
1301523.396584,9.000000,5.000000,-56.000000,10.000000,13.000000,27.000000,-25.000000,-4.000000
1301523.397984,-15.000000,1.000000,-21.000000,-26.000000,-18.000000,-30.000000,-27.000000,3.000000
1301523.398214,33.000000,0.000000,29.000000,28.000000,11.000000,50.000000,4.000000,7.000000
1301523.399060,-15.000000,-5.000000,28.000000,63.000000,-18.000000,-69.000000,-67.000000,-3.000000
1301523.399121,20.000000,-5.000000,16.000000,-33.000000,-21.000000,-31.000000,-9.000000,19.000000
1301523.403083,10.000000,-12.000000,45.000000,-38.000000,-53.000000,-69.000000,127.000000,31.000000
1301523.403123,-25.000000,1.000000,80.000000,93.000000,35.000000,34.000000,-27.000000,3.000000
1301523.410908,-5.000000,0.000000,-16.000000,-9.000000,-3.000000,0.000000,-78.000000,-13.000000
1301523.410935,30.000000,2.000000,25.000000,70.000000,55.000000,86.000000,84.000000,21.000000
1301523.425059,-6.000000,1.000000,-45.000000,-58.000000,-60.000000,-108.000000,127.000000,-26.000000
1301523.425127,-45.000000,0.000000,16.000000,10.000000,12.000000,0.000000,-30.000000,-22.000000
1301523.469834,8.000000,-3.000000,16.000000,3.000000,6.000000,8.000000,-36.000000,7.000000
1301523.469860,-15.000000,14.000000,-41.000000,13.000000,21.000000,49.000000,35.000000,-28.000000
1301523.492332,-29.000000,-6.000000,75.000000,-13.000000,-27.000000,-119.000000,-22.000000,-52.000000
1301523.492382,39.000000,-4.000000,66.000000,23.000000,-3.000000,18.000000,41.000000,98.000000
1301523.501390,-7.000000,9.000000,-2.000000,-3.000000,18.000000,12.000000,-128.000000,-35.000000
1301523.501436,-18.000000,-4.000000,-9.000000,-2.000000,5.000000,-21.000000,-128.000000,-24.000000
1301523.501776,3.000000,3.000000,96.000000,14.000000,-12.000000,-8.000000,3.000000,4.000000
1301523.501824,8.000000,-8.000000,9.000000,6.000000,2.000000,0.000000,-23.000000,-6.000000
1301523.508847,-10.000000,-1.000000,2.000000,-6.000000,-8.000000,-22.000000,65.000000,-2.000000
1301523.508880,15.000000,-3.000000,-12.000000,4.000000,5.000000,-4.000000,-10.000000,5.000000
1301523.510428,7.000000,-13.000000,25.000000,-39.000000,-51.000000,-75.000000,127.000000,-2.000000
1301523.510550,-42.000000,-4.000000,-53.000000,-20.000000,-7.000000,40.000000,87.000000,-3.000000
1301523.515012,24.000000,6.000000,24.000000,42.000000,34.000000,37.000000,-128.000000,-23.000000
1301523.515062,53.000000,-4.000000,42.000000,-13.000000,-9.000000,-5.000000,127.000000,41.000000
1301523.522466,-22.000000,-1.000000,-103.000000,6.000000,17.000000,30.000000,1.000000,5.000000
1301523.522512,-5.000000,1.000000,48.000000,-12.000000,3.000000,7.000000,-57.000000,-28.000000
1301523.545231,3.000000,-3.000000,-55.000000,-3.000000,0.000000,-22.000000,11.000000,22.000000
1301523.545281,-19.000000,-7.000000,17.000000,31.000000,21.000000,54.000000,-65.000000,-23.000000
1301523.567530,-1.000000,4.000000,-53.000000,-35.000000,-16.000000,1.000000,127.000000,31.000000
1301523.567596,3.000000,-6.000000,99.000000,29.000000,4.000000,23.000000,-74.000000,-8.000000
1301523.605624,3.000000,0.000000,-5.000000,2.000000,-4.000000,-17.000000,105.000000,-6.000000
1301523.605679,6.000000,-3.000000,45.000000,0.000000,-2.000000,19.000000,7.000000,13.000000
1301523.612602,3.000000,-6.000000,16.000000,-3.000000,29.000000,24.000000,-128.000000,-16.000000
1301523.612735,-7.000000,0.000000,37.000000,56.000000,-8.000000,-17.000000,57.000000,22.000000
1301523.623515,-2.000000,9.000000,-128.000000,-40.000000,-26.000000,-46.000000,59.000000,-2.000000
1301523.623569,-9.000000,4.000000,82.000000,-34.000000,7.000000,-2.000000,34.000000,-12.000000
1301523.623831,15.000000,5.000000,-44.000000,32.000000,-15.000000,-38.000000,-128.000000,7.000000
1301523.623858,-36.000000,-5.000000,44.000000,-8.000000,-7.000000,30.000000,-52.000000,-6.000000
1301523.624733,11.000000,-2.000000,-21.000000,-32.000000,-5.000000,2.000000,-50.000000,3.000000
1301523.624791,11.000000,13.000000,35.000000,17.000000,18.000000,21.000000,-46.000000,-2.000000
1301523.625124,30.000000,2.000000,28.000000,-17.000000,16.000000,24.000000,-6.000000,14.000000
1301523.625173,-17.000000,2.000000,7.000000,47.000000,4.000000,26.000000,17.000000,-1.000000
1301523.642520,4.000000,-5.000000,-67.000000,-47.000000,-6.000000,11.000000,-22.000000,-4.000000
1301523.642547,-9.000000,0.000000,46.000000,7.000000,-5.000000,-17.000000,39.000000,22.000000
1301523.665247,13.000000,-1.000000,-72.000000,-14.000000,-19.000000,-29.000000,-102.000000,0.000000
1301523.665558,18.000000,1.000000,12.000000,9.000000,16.000000,-5.000000,2.000000,-10.000000
1301523.666660,-2.000000,-8.000000,-32.000000,3.000000,-5.000000,33.000000,-52.000000,-6.000000
1301523.666685,-41.000000,-6.000000,-60.000000,-67.000000,-56.000000,-80.000000,127.000000,-23.000000
1301523.667709,36.000000,3.000000,18.000000,11.000000,12.000000,9.000000,-34.000000,-33.000000
1301523.667758,4.000000,1.000000,-16.000000,11.000000,9.000000,21.000000,-26.000000,-6.000000
1301523.674066,-22.000000,1.000000,-46.000000,4.000000,5.000000,18.000000,-120.000000,8.000000
1301523.674113,7.000000,-4.000000,68.000000,3.000000,-1.000000,-21.000000,20.000000,-3.000000
1301523.679922,-48.000000,1.000000,-72.000000,-18.000000,-2.000000,-11.000000,-21.000000,-7.000000
1301523.679974,25.000000,9.000000,-54.000000,-13.000000,9.000000,28.000000,-1.000000,-1.000000
1301523.702846,5.000000,4.000000,94.000000,41.000000,22.000000,-6.000000,-18.000000,2.000000
1301523.702930,6.000000,-2.000000,-108.000000,-62.000000,-44.000000,-9.000000,-7.000000,-9.000000
1301523.725037,33.000000,-6.000000,87.000000,-10.000000,-17.000000,-20.000000,119.000000,56.000000
1301523.725065,-33.000000,8.000000,-35.000000,2.000000,14.000000,25.000000,-21.000000,-10.000000
1301523.740879,31.000000,4.000000,71.000000,-1.000000,11.000000,32.000000,-128.000000,5.000000
1301523.740928,-6.000000,-1.000000,-109.000000,-38.000000,-33.000000,-34.000000,127.000000,5.000000
1301523.742669,-9.000000,0.000000,29.000000,2.000000,13.000000,32.000000,10.000000,30.000000
1301523.743013,-40.000000,-11.000000,-1.000000,-5.000000,6.000000,12.000000,-90.000000,-24.000000
1301523.743552,32.000000,-4.000000,-18.000000,7.000000,7.000000,2.000000,3.000000,0.000000
1301523.743590,1.000000,-1.000000,6.000000,-3.000000,-10.000000,-7.000000,-14.000000,-7.000000
1301523.744117,11.000000,1.000000,58.000000,-23.000000,-3.000000,-3.000000,-90.000000,-7.000000
1301523.744142,-1.000000,-1.000000,-79.000000,33.000000,4.000000,-1.000000,64.000000,8.000000
1301523.762420,-6.000000,2.000000,22.000000,9.000000,3.000000,20.000000,-88.000000,3.000000
1301523.762635,-23.000000,-6.000000,4.000000,-25.000000,-14.000000,-43.000000,37.000000,-17.000000
1301523.763160,37.000000,2.000000,-44.000000,-49.000000,-33.000000,-16.000000,23.000000,-3.000000
1301523.763208,-48.000000,4.000000,3.000000,46.000000,17.000000,11.000000,29.000000,17.000000
1301523.786484,-1.000000,-1.000000,-26.000000,-27.000000,1.000000,12.000000,-79.000000,-25.000000
1301523.786514,11.000000,-1.000000,25.000000,6.000000,11.000000,4.000000,-9.000000,-1.000000
1301523.786914,8.000000,0.000000,57.000000,21.000000,-18.000000,-1.000000,45.000000,-2.000000
1301523.787099,23.000000,0.000000,-3.000000,5.000000,19.000000,15.000000,18.000000,15.000000
1301523.807485,-6.000000,0.000000,-18.000000,-11.000000,0.000000,-3.000000,-119.000000,5.000000
1301523.807626,-9.000000,-3.000000,-14.000000,19.000000,0.000000,16.000000,-5.000000,6.000000
1301523.822653,10.000000,6.000000,127.000000,14.000000,37.000000,89.000000,-21.000000,-17.000000
1301523.822695,-33.000000,-2.000000,-21.000000,-21.000000,-48.000000,-77.000000,127.000000,8.000000
1301523.859950,19.000000,1.000000,22.000000,-20.000000,4.000000,10.000000,-63.000000,-11.000000
1301523.860012,6.000000,9.000000,2.000000,21.000000,17.000000,33.000000,-40.000000,1.000000
1301523.861468,1.000000,7.000000,15.000000,42.000000,48.000000,48.000000,-62.000000,-5.000000
1301523.861496,-11.000000,-1.000000,9.000000,-22.000000,-38.000000,-76.000000,127.000000,9.000000
1301523.863511,-14.000000,-9.000000,-24.000000,-56.000000,-18.000000,-4.000000,-72.000000,-19.000000
1301523.863534,2.000000,2.000000,6.000000,92.000000,52.000000,52.000000,-76.000000,-3.000000
1301523.863654,6.000000,0.000000,14.000000,-18.000000,-7.000000,-15.000000,127.000000,24.000000
1301523.863671,-22.000000,-7.000000,-33.000000,-37.000000,-37.000000,-35.000000,-78.000000,-52.000000
1301523.864587,7.000000,6.000000,125.000000,52.000000,0.000000,15.000000,38.000000,-7.000000
1301523.864635,-14.000000,-4.000000,-113.000000,-21.000000,-11.000000,-54.000000,-54.000000,-35.000000
1301523.884001,-6.000000,0.000000,-23.000000,-39.000000,-13.000000,-9.000000,42.000000,21.000000
1301523.884054,-16.000000,-2.000000,4.000000,-24.000000,2.000000,16.000000,-27.000000,-26.000000
1301523.884364,6.000000,1.000000,71.000000,48.000000,5.000000,-7.000000,-128.000000,5.000000
1301523.884388,8.000000,1.000000,-14.000000,-12.000000,-15.000000,11.000000,127.000000,10.000000
1301523.897702,-33.000000,-1.000000,-88.000000,-21.000000,13.000000,4.000000,-22.000000,32.000000
1301523.897726,28.000000,-4.000000,79.000000,26.000000,20.000000,41.000000,-71.000000,-19.000000
1301523.920528,-16.000000,-6.000000,-15.000000,-5.000000,-13.000000,-46.000000,-14.000000,14.000000
1301523.920580,9.000000,0.000000,-39.000000,-25.000000,-23.000000,-46.000000,93.000000,15.000000
1301523.942710,6.000000,-5.000000,46.000000,-6.000000,3.000000,19.000000,83.000000,19.000000
1301523.942763,-7.000000,-3.000000,-9.000000,7.000000,6.000000,-3.000000,-128.000000,-31.000000
1301523.950070,11.000000,-3.000000,46.000000,15.000000,15.000000,15.000000,5.000000,-3.000000
1301523.950140,-2.000000,-3.000000,-61.000000,-25.000000,-16.000000,-15.000000,-64.000000,4.000000
1301523.980017,-16.000000,2.000000,-32.000000,-9.000000,15.000000,12.000000,119.000000,-1.000000
1301523.980074,12.000000,-10.000000,86.000000,4.000000,-22.000000,-6.000000,4.000000,4.000000
1301523.995126,-26.000000,5.000000,-1.000000,-6.000000,6.000000,-9.000000,-10.000000,-5.000000
1301523.995175,26.000000,2.000000,-29.000000,-12.000000,4.000000,-6.000000,-23.000000,3.000000
1301524.004753,-26.000000,-3.000000,0.000000,4.000000,3.000000,-6.000000,68.000000,-16.000000
1301524.004798,8.000000,-3.000000,6.000000,-4.000000,-8.000000,-6.000000,-37.000000,16.000000
1301524.006086,-26.000000,-6.000000,-18.000000,-8.000000,-3.000000,-28.000000,-87.000000,-6.000000
1301524.006392,9.000000,-4.000000,12.000000,-8.000000,1.000000,14.000000,23.000000,17.000000
1301524.007271,-20.000000,-5.000000,-58.000000,49.000000,-7.000000,-26.000000,112.000000,-5.000000
1301524.007321,8.000000,-11.000000,9.000000,-47.000000,-18.000000,-8.000000,11.000000,14.000000
1301524.007646,16.000000,-3.000000,-23.000000,-55.000000,-25.000000,-48.000000,-83.000000,41.000000
1301524.007699,-4.000000,3.000000,58.000000,-4.000000,7.000000,33.000000,-128.000000,-27.000000
1301524.008058,2.000000,-4.000000,-35.000000,-14.000000,-1.000000,-1.000000,-5.000000,-1.000000
1301524.008108,-9.000000,-8.000000,-6.000000,-3.000000,6.000000,13.000000,24.000000,-17.000000
1301524.018784,11.000000,2.000000,25.000000,-19.000000,-10.000000,4.000000,7.000000,21.000000
1301524.018810,8.000000,-1.000000,11.000000,17.000000,15.000000,0.000000,-9.000000,-7.000000
1301524.025242,-13.000000,0.000000,-34.000000,-11.000000,3.000000,0.000000,-108.000000,-17.000000
1301524.025290,19.000000,-9.000000,-10.000000,-9.000000,-20.000000,-1.000000,127.000000,50.000000
1301524.063085,-6.000000,2.000000,8.000000,-29.000000,-4.000000,13.000000,-110.000000,-24.000000
1301524.063124,0.000000,-3.000000,43.000000,-12.000000,-24.000000,-30.000000,-30.000000,-34.000000
1301524.078185,12.000000,-1.000000,-34.000000,1.000000,7.000000,16.000000,127.000000,11.000000
1301524.078309,-5.000000,-4.000000,-23.000000,-21.000000,-5.000000,11.000000,-128.000000,14.000000
1301524.100691,0.000000,6.000000,25.000000,-5.000000,-8.000000,34.000000,127.000000,10.000000
1301524.100754,-32.000000,7.000000,13.000000,3.000000,13.000000,8.000000,-66.000000,-2.000000
1301524.101668,4.000000,3.000000,-2.000000,5.000000,15.000000,18.000000,-18.000000,-10.000000
1301524.101716,1.000000,-6.000000,43.000000,2.000000,-8.000000,-30.000000,-128.000000,-9.000000
1301524.103674,-22.000000,-2.000000,-17.000000,-8.000000,-10.000000,23.000000,105.000000,22.000000
1301524.104347,13.000000,5.000000,-7.000000,8.000000,15.000000,16.000000,-11.000000,-7.000000
1301524.104660,17.000000,-6.000000,-9.000000,-24.000000,12.000000,24.000000,-39.000000,-20.000000
1301524.104697,-15.000000,-3.000000,102.000000,63.000000,-4.000000,-9.000000,113.000000,5.000000
1301524.105798,-18.000000,-5.000000,20.000000,5.000000,16.000000,58.000000,20.000000,-4.000000
1301524.105826,21.000000,-3.000000,-33.000000,-7.000000,-14.000000,-54.000000,127.000000,-4.000000
1301524.124973,-8.000000,-1.000000,-66.000000,-52.000000,-43.000000,-67.000000,-10.000000,-18.000000
1301524.125001,20.000000,-5.000000,53.000000,0.000000,-6.000000,11.000000,16.000000,0.000000
1301524.125241,-27.000000,5.000000,-14.000000,12.000000,16.000000,26.000000,-128.000000,-24.000000
1301524.125275,29.000000,2.000000,-21.000000,-34.000000,-25.000000,-42.000000,-51.000000,-35.000000
1301524.138393,19.000000,0.000000,84.000000,48.000000,-11.000000,-10.000000,127.000000,59.000000
1301524.138427,-78.000000,4.000000,2.000000,-37.000000,-5.000000,2.000000,-86.000000,-37.000000
