# participant_id: P6
# gesture: hard
# trial_number: 1
# stream_name: Myo_EMG
# stream_type: emg
# timestamp: 20260420_141813
# samples: 5548
# duration_sec: 30.848
# nominal_sample_rate: 200.0
# effective_sample_rate: 179.82
#
timestamp,emg_1,emg_2,emg_3,emg_4,emg_5,emg_6,emg_7,emg_8
1299384.630535,-9.000000,-18.000000,112.000000,34.000000,-18.000000,-2.000000,-22.000000,113.000000
1299384.630571,30.000000,10.000000,-95.000000,-21.000000,35.000000,-7.000000,-18.000000,105.000000
1299384.653072,22.000000,-10.000000,31.000000,45.000000,-6.000000,1.000000,-10.000000,37.000000
1299384.653122,2.000000,-14.000000,61.000000,-10.000000,-1.000000,-2.000000,93.000000,9.000000
1299384.661096,18.000000,-14.000000,-18.000000,-98.000000,-42.000000,-11.000000,37.000000,-69.000000
1299384.661533,-28.000000,-10.000000,-85.000000,-10.000000,65.000000,39.000000,-20.000000,37.000000
1299384.662948,-30.000000,-5.000000,105.000000,-7.000000,-9.000000,-46.000000,-104.000000,-37.000000
1299384.663001,7.000000,-27.000000,-18.000000,-3.000000,14.000000,14.000000,11.000000,-20.000000
1299384.664260,36.000000,68.000000,-74.000000,-29.000000,-20.000000,12.000000,4.000000,-7.000000
1299384.664286,74.000000,27.000000,14.000000,106.000000,-5.000000,19.000000,16.000000,-75.000000
1299384.667796,-11.000000,-116.000000,127.000000,-14.000000,32.000000,-55.000000,-56.000000,28.000000
1299384.667829,69.000000,14.000000,-104.000000,-10.000000,-2.000000,4.000000,19.000000,-64.000000
1299384.668584,79.000000,-37.000000,17.000000,5.000000,-6.000000,40.000000,15.000000,127.000000
1299384.668641,-32.000000,-11.000000,29.000000,-90.000000,-8.000000,-27.000000,-28.000000,-71.000000
1299384.691327,-58.000000,-11.000000,45.000000,-57.000000,29.000000,13.000000,6.000000,-13.000000
1299384.691382,127.000000,6.000000,-89.000000,88.000000,-18.000000,54.000000,127.000000,127.000000
1299384.698799,-50.000000,-63.000000,124.000000,-9.000000,-14.000000,-49.000000,-128.000000,-105.000000
1299384.698846,-128.000000,-61.000000,46.000000,-6.000000,11.000000,-15.000000,-25.000000,-128.000000
1299384.700290,47.000000,85.000000,-128.000000,26.000000,-5.000000,26.000000,39.000000,96.000000
1299384.700402,125.000000,-24.000000,-15.000000,-111.000000,-23.000000,26.000000,127.000000,99.000000
1299384.705732,-113.000000,-28.000000,65.000000,19.000000,18.000000,-7.000000,-14.000000,127.000000
1299384.705784,-33.000000,-58.000000,-16.000000,-57.000000,-16.000000,-23.000000,-18.000000,-51.000000
1299384.744551,107.000000,3.000000,-50.000000,-4.000000,-4.000000,32.000000,104.000000,63.000000
1299384.744616,47.000000,25.000000,39.000000,-16.000000,-14.000000,-5.000000,36.000000,-42.000000
1299384.751044,39.000000,-1.000000,-57.000000,-80.000000,67.000000,50.000000,72.000000,-89.000000
1299384.751094,-67.000000,-80.000000,47.000000,-128.000000,-37.000000,-26.000000,-127.000000,-128.000000
1299384.787659,91.000000,4.000000,53.000000,8.000000,-13.000000,4.000000,15.000000,25.000000
1299384.787678,68.000000,83.000000,-128.000000,-19.000000,-11.000000,35.000000,127.000000,101.000000
1299384.788248,-45.000000,25.000000,-69.000000,-119.000000,9.000000,-56.000000,-128.000000,-106.000000
1299384.788273,-116.000000,-57.000000,125.000000,-36.000000,-10.000000,2.000000,-65.000000,-33.000000
1299384.789557,-46.000000,-37.000000,9.000000,15.000000,-8.000000,-19.000000,-19.000000,-44.000000
1299384.789855,48.000000,63.000000,-117.000000,1.000000,8.000000,50.000000,127.000000,127.000000
1299384.790285,-11.000000,12.000000,-8.000000,-57.000000,-15.000000,-20.000000,-19.000000,-89.000000
1299384.790307,27.000000,-15.000000,118.000000,80.000000,12.000000,-66.000000,-128.000000,-128.000000
1299384.795742,-110.000000,-54.000000,-33.000000,-69.000000,16.000000,8.000000,-8.000000,-49.000000
1299384.795788,45.000000,-23.000000,69.000000,23.000000,-14.000000,13.000000,0.000000,-14.000000
1299384.817538,-11.000000,37.000000,-12.000000,-23.000000,4.000000,-14.000000,-7.000000,-128.000000
1299384.817744,127.000000,103.000000,-36.000000,127.000000,-25.000000,-14.000000,-48.000000,-128.000000
1299384.818867,-128.000000,-64.000000,96.000000,24.000000,28.000000,14.000000,0.000000,108.000000
1299384.818899,44.000000,-54.000000,118.000000,-10.000000,-29.000000,-44.000000,-26.000000,100.000000
1299384.825018,39.000000,111.000000,-128.000000,25.000000,4.000000,40.000000,69.000000,-55.000000
1299384.825050,87.000000,40.000000,-21.000000,-4.000000,-5.000000,9.000000,20.000000,18.000000
1299384.862648,-83.000000,-71.000000,81.000000,-86.000000,-9.000000,-27.000000,-76.000000,0.000000
1299384.862777,-128.000000,-30.000000,72.000000,-98.000000,-8.000000,-13.000000,-50.000000,-128.000000
1299384.870070,50.000000,1.000000,3.000000,10.000000,-1.000000,36.000000,19.000000,-128.000000
1299384.870102,-11.000000,-4.000000,59.000000,3.000000,0.000000,3.000000,26.000000,-42.000000
1299384.909984,58.000000,-17.000000,46.000000,-27.000000,-15.000000,-44.000000,28.000000,-128.000000
1299384.910014,-128.000000,-18.000000,24.000000,-11.000000,11.000000,-19.000000,-128.000000,-6.000000
1299384.911351,47.000000,49.000000,-57.000000,-8.000000,-3.000000,14.000000,83.000000,6.000000
1299384.911399,14.000000,29.000000,-5.000000,-71.000000,-16.000000,8.000000,97.000000,-11.000000
1299384.911945,-33.000000,63.000000,-13.000000,88.000000,-29.000000,-25.000000,-128.000000,-81.000000
1299384.911994,16.000000,-34.000000,13.000000,115.000000,75.000000,-14.000000,-48.000000,105.000000
1299384.913003,28.000000,15.000000,22.000000,-73.000000,-15.000000,7.000000,29.000000,-58.000000
1299384.913208,22.000000,56.000000,-12.000000,6.000000,-12.000000,10.000000,9.000000,-43.000000
1299384.938471,12.000000,-39.000000,24.000000,3.000000,-10.000000,-8.000000,-6.000000,108.000000
1299384.938530,127.000000,34.000000,-54.000000,15.000000,2.000000,17.000000,115.000000,127.000000
1299384.939656,-128.000000,17.000000,-85.000000,29.000000,0.000000,-38.000000,-118.000000,-128.000000
1299384.939721,40.000000,-50.000000,42.000000,43.000000,33.000000,6.000000,51.000000,127.000000
1299384.940728,42.000000,33.000000,15.000000,11.000000,-4.000000,-11.000000,20.000000,37.000000
1299384.940857,26.000000,42.000000,-22.000000,27.000000,-10.000000,7.000000,0.000000,-128.000000
1299384.945506,-112.000000,-27.000000,-72.000000,34.000000,23.000000,38.000000,60.000000,127.000000
1299384.945569,21.000000,9.000000,48.000000,20.000000,-10.000000,-26.000000,-128.000000,-66.000000
1299384.983236,-18.000000,-14.000000,9.000000,71.000000,23.000000,13.000000,65.000000,0.000000
1299384.983271,104.000000,72.000000,-128.000000,-50.000000,20.000000,26.000000,-11.000000,74.000000
1299384.990630,-126.000000,-80.000000,88.000000,-128.000000,18.000000,-23.000000,-98.000000,-128.000000
1299384.990655,9.000000,6.000000,58.000000,-115.000000,-15.000000,5.000000,22.000000,-1.000000
1299385.050641,31.000000,59.000000,-93.000000,47.000000,-7.000000,-5.000000,-10.000000,10.000000
1299385.050696,16.000000,35.000000,-90.000000,-43.000000,-12.000000,36.000000,72.000000,1.000000
1299385.058019,116.000000,-34.000000,82.000000,42.000000,-14.000000,-57.000000,-98.000000,-22.000000
1299385.058069,-78.000000,-26.000000,-7.000000,9.000000,15.000000,-18.000000,-77.000000,-128.000000
1299385.073266,-94.000000,-6.000000,-63.000000,5.000000,-9.000000,8.000000,11.000000,-49.000000
1299385.073316,127.000000,37.000000,25.000000,6.000000,1.000000,42.000000,127.000000,127.000000
1299385.080348,-128.000000,-58.000000,100.000000,26.000000,3.000000,-71.000000,-58.000000,-128.000000
1299385.080400,36.000000,21.000000,25.000000,-4.000000,-4.000000,-14.000000,-34.000000,-63.000000
1299385.110612,-75.000000,-54.000000,74.000000,79.000000,10.000000,-39.000000,-128.000000,-2.000000
1299385.110641,3.000000,32.000000,4.000000,11.000000,27.000000,23.000000,103.000000,9.000000
1299385.140543,40.000000,19.000000,-67.000000,28.000000,9.000000,16.000000,58.000000,85.000000
1299385.140593,47.000000,-48.000000,89.000000,20.000000,-17.000000,-24.000000,-80.000000,71.000000
1299385.147873,-24.000000,-3.000000,14.000000,-38.000000,5.000000,-4.000000,73.000000,127.000000
1299385.147925,-9.000000,87.000000,-43.000000,4.000000,-9.000000,4.000000,50.000000,108.000000
1299385.178350,105.000000,8.000000,37.000000,-69.000000,-15.000000,6.000000,22.000000,119.000000
1299385.178790,92.000000,22.000000,-115.000000,57.000000,27.000000,29.000000,50.000000,47.000000
1299385.180203,24.000000,76.000000,-120.000000,-13.000000,-10.000000,35.000000,45.000000,44.000000
1299385.180259,31.000000,45.000000,-55.000000,-52.000000,-20.000000,8.000000,53.000000,-106.000000
1299385.181207,98.000000,68.000000,-121.000000,-14.000000,-5.000000,37.000000,51.000000,21.000000
1299385.181719,36.000000,-50.000000,97.000000,11.000000,-4.000000,-1.000000,72.000000,-56.000000
1299385.182278,-73.000000,-37.000000,-5.000000,3.000000,2.000000,7.000000,40.000000,5.000000
1299385.182329,37.000000,20.000000,22.000000,2.000000,-3.000000,0.000000,21.000000,2.000000
1299385.182584,-28.000000,-37.000000,84.000000,2.000000,-3.000000,-1.000000,-28.000000,-61.000000
1299385.182869,8.000000,24.000000,-31.000000,19.000000,5.000000,16.000000,-25.000000,28.000000
1299385.193386,-40.000000,-57.000000,51.000000,-28.000000,-16.000000,-8.000000,35.000000,63.000000
1299385.193414,35.000000,28.000000,-18.000000,-7.000000,0.000000,-2.000000,-14.000000,-14.000000
1299385.215622,49.000000,20.000000,-63.000000,-40.000000,-10.000000,10.000000,5.000000,8.000000
1299385.215658,-40.000000,13.000000,2.000000,-103.000000,-13.000000,14.000000,49.000000,85.000000
1299385.230525,64.000000,-3.000000,16.000000,9.000000,9.000000,-16.000000,-8.000000,47.000000
1299385.230712,-37.000000,41.000000,-37.000000,127.000000,-4.000000,-13.000000,-59.000000,-72.000000
1299385.253306,-8.000000,3.000000,18.000000,-93.000000,-19.000000,4.000000,65.000000,-45.000000
1299385.253362,53.000000,8.000000,6.000000,-17.000000,-3.000000,-9.000000,44.000000,-7.000000
1299385.261099,51.000000,38.000000,-63.000000,24.000000,-5.000000,9.000000,-5.000000,59.000000
1299385.261160,23.000000,-27.000000,-3.000000,-18.000000,11.000000,20.000000,15.000000,-90.000000
1299385.262627,-86.000000,-48.000000,77.000000,-24.000000,-18.000000,9.000000,51.000000,-15.000000
1299385.262673,-31.000000,13.000000,-41.000000,-11.000000,-1.000000,-24.000000,-13.000000,-19.000000
1299385.264245,44.000000,31.000000,-61.000000,-5.000000,-1.000000,36.000000,55.000000,-86.000000
1299385.264294,-72.000000,-23.000000,91.000000,-36.000000,-13.000000,-51.000000,-98.000000,-66.000000
1299385.268106,-128.000000,-80.000000,3.000000,-54.000000,-16.000000,-35.000000,19.000000,-20.000000
1299385.268159,35.000000,59.000000,-118.000000,22.000000,14.000000,36.000000,59.000000,-117.000000
1299385.268948,21.000000,2.000000,11.000000,-45.000000,-7.000000,7.000000,30.000000,25.000000
1299385.268996,-24.000000,-23.000000,11.000000,-22.000000,-4.000000,-7.000000,46.000000,86.000000
1299385.300175,-30.000000,27.000000,-4.000000,-9.000000,7.000000,-22.000000,-128.000000,-111.000000
1299385.300200,127.000000,14.000000,-21.000000,-30.000000,-20.000000,6.000000,20.000000,84.000000
1299385.300831,-21.000000,-51.000000,82.000000,-72.000000,0.000000,-9.000000,55.000000,-128.000000
1299385.300964,19.000000,-9.000000,32.000000,69.000000,20.000000,-10.000000,-69.000000,-52.000000
1299385.305587,-14.000000,57.000000,-50.000000,-38.000000,-11.000000,20.000000,22.000000,60.000000
1299385.305628,-33.000000,-27.000000,32.000000,-37.000000,-18.000000,-19.000000,37.000000,-119.000000
1299385.321011,18.000000,16.000000,35.000000,-104.000000,-14.000000,-9.000000,-66.000000,-81.000000
1299385.321044,16.000000,12.000000,-46.000000,60.000000,32.000000,25.000000,2.000000,50.000000
1299385.343206,-79.000000,-24.000000,-4.000000,-23.000000,-10.000000,-16.000000,-24.000000,-63.000000
1299385.343246,77.000000,3.000000,24.000000,-8.000000,-1.000000,-6.000000,53.000000,50.000000
1299385.350834,-50.000000,-18.000000,-50.000000,5.000000,-1.000000,11.000000,-5.000000,-83.000000
1299385.350916,69.000000,-10.000000,30.000000,-29.000000,1.000000,-2.000000,-21.000000,-68.000000
1299385.365603,49.000000,22.000000,27.000000,-11.000000,-9.000000,2.000000,27.000000,91.000000
1299385.365734,-25.000000,5.000000,-14.000000,-25.000000,5.000000,-8.000000,-59.000000,-76.000000
1299385.373213,118.000000,1.000000,-21.000000,-31.000000,-18.000000,-19.000000,-34.000000,-26.000000
1299385.373239,73.000000,-24.000000,81.000000,10.000000,9.000000,1.000000,46.000000,49.000000
1299385.388481,-16.000000,35.000000,-1.000000,-43.000000,-17.000000,5.000000,-12.000000,-6.000000
1299385.388535,22.000000,27.000000,-103.000000,44.000000,16.000000,39.000000,28.000000,86.000000
1299385.395478,-56.000000,-10.000000,-24.000000,-40.000000,-9.000000,-1.000000,45.000000,6.000000
1299385.395531,-37.000000,1.000000,56.000000,-53.000000,-2.000000,-9.000000,20.000000,-27.000000
1299385.418184,-33.000000,5.000000,-40.000000,-22.000000,1.000000,-10.000000,-53.000000,7.000000
1299385.418213,50.000000,-31.000000,-17.000000,31.000000,15.000000,13.000000,12.000000,27.000000
1299385.419361,-81.000000,-58.000000,16.000000,-76.000000,5.000000,-4.000000,66.000000,112.000000
1299385.419702,31.000000,15.000000,-18.000000,-70.000000,-20.000000,9.000000,-27.000000,40.000000
1299385.420403,-110.000000,-20.000000,-17.000000,1.000000,2.000000,-20.000000,-45.000000,-28.000000
1299385.420445,-19.000000,-18.000000,62.000000,23.000000,4.000000,-6.000000,13.000000,105.000000
1299385.425441,3.000000,16.000000,-63.000000,-16.000000,-7.000000,20.000000,98.000000,-6.000000
1299385.425492,-32.000000,26.000000,-31.000000,-26.000000,-10.000000,-10.000000,-103.000000,-128.000000
1299385.448321,43.000000,9.000000,-76.000000,-35.000000,8.000000,16.000000,33.000000,5.000000
1299385.448361,-27.000000,-21.000000,2.000000,-84.000000,6.000000,7.000000,2.000000,51.000000
1299385.462943,-18.000000,-40.000000,77.000000,-56.000000,13.000000,1.000000,-9.000000,15.000000
1299385.462989,20.000000,24.000000,-21.000000,40.000000,-14.000000,-5.000000,33.000000,19.000000
1299385.471059,-68.000000,-1.000000,-3.000000,30.000000,-17.000000,-18.000000,-128.000000,-76.000000
1299385.471109,127.000000,-41.000000,98.000000,34.000000,-8.000000,15.000000,45.000000,127.000000
1299385.494375,-128.000000,-115.000000,81.000000,-91.000000,-9.000000,-66.000000,-115.000000,-61.000000
1299385.494882,62.000000,58.000000,-91.000000,-21.000000,-14.000000,37.000000,91.000000,54.000000
1299385.495546,31.000000,31.000000,-56.000000,9.000000,-3.000000,21.000000,127.000000,103.000000
1299385.495586,-13.000000,-9.000000,67.000000,-3.000000,-7.000000,-73.000000,-128.000000,-128.000000
1299385.496564,-117.000000,19.000000,-51.000000,-2.000000,4.000000,24.000000,69.000000,71.000000
1299385.496611,18.000000,-19.000000,-21.000000,6.000000,-5.000000,20.000000,49.000000,17.000000
1299385.497007,99.000000,5.000000,-8.000000,3.000000,7.000000,43.000000,127.000000,127.000000
1299385.497057,-128.000000,-7.000000,-17.000000,-2.000000,1.000000,-42.000000,-128.000000,-115.000000
1299385.501468,127.000000,23.000000,-25.000000,13.000000,5.000000,12.000000,33.000000,32.000000
1299385.501520,-1.000000,-16.000000,39.000000,-59.000000,-13.000000,-15.000000,1.000000,-14.000000
1299385.508587,8.000000,20.000000,-48.000000,59.000000,20.000000,41.000000,83.000000,7.000000
1299385.508630,-6.000000,-4.000000,-50.000000,25.000000,-20.000000,-26.000000,-57.000000,-121.000000
1299385.524109,-36.000000,-53.000000,44.000000,-88.000000,-11.000000,-32.000000,-91.000000,-21.000000
1299385.524143,19.000000,38.000000,-4.000000,0.000000,-9.000000,-5.000000,33.000000,-5.000000
1299385.530716,112.000000,29.000000,-82.000000,-3.000000,25.000000,29.000000,31.000000,-30.000000
1299385.530743,-89.000000,-25.000000,-4.000000,63.000000,-3.000000,17.000000,68.000000,127.000000
1299385.545928,-14.000000,-6.000000,75.000000,-27.000000,-7.000000,-28.000000,-50.000000,-80.000000
1299385.545976,127.000000,60.000000,-101.000000,-30.000000,0.000000,39.000000,82.000000,72.000000
1299385.560821,87.000000,10.000000,-22.000000,24.000000,-1.000000,-7.000000,-40.000000,-11.000000
1299385.560849,-57.000000,-38.000000,26.000000,1.000000,14.000000,3.000000,70.000000,-128.000000
1299385.613792,6.000000,14.000000,-6.000000,-15.000000,-3.000000,-10.000000,-16.000000,-45.000000
1299385.613839,-62.000000,-7.000000,-17.000000,-6.000000,-5.000000,15.000000,14.000000,-121.000000
1299385.614522,19.000000,-77.000000,101.000000,-3.000000,-8.000000,3.000000,78.000000,123.000000
1299385.614559,-90.000000,-43.000000,39.000000,23.000000,19.000000,-27.000000,-115.000000,-93.000000
1299385.617228,-30.000000,52.000000,-66.000000,9.000000,4.000000,27.000000,38.000000,64.000000
1299385.617277,26.000000,17.000000,-14.000000,-76.000000,-20.000000,-13.000000,11.000000,-16.000000
1299385.617523,-101.000000,-40.000000,78.000000,48.000000,12.000000,-9.000000,-42.000000,-107.000000
1299385.617569,52.000000,73.000000,-81.000000,-111.000000,18.000000,22.000000,107.000000,127.000000
1299385.618415,-72.000000,-33.000000,7.000000,62.000000,6.000000,13.000000,-99.000000,-128.000000
1299385.618458,-78.000000,-16.000000,27.000000,-29.000000,-10.000000,-16.000000,38.000000,87.000000
1299385.621715,-14.000000,-18.000000,52.000000,-6.000000,10.000000,-5.000000,-37.000000,-11.000000
1299385.621739,57.000000,-17.000000,52.000000,-28.000000,-13.000000,-21.000000,-16.000000,-25.000000
1299385.627988,2.000000,-8.000000,-57.000000,30.000000,2.000000,22.000000,20.000000,56.000000
1299385.628012,-27.000000,-34.000000,29.000000,5.000000,-1.000000,-28.000000,-91.000000,-97.000000
1299385.650979,33.000000,13.000000,11.000000,3.000000,3.000000,27.000000,87.000000,64.000000
1299385.651089,127.000000,58.000000,-64.000000,97.000000,-15.000000,-13.000000,-65.000000,-128.000000
1299385.651461,-128.000000,-48.000000,53.000000,-56.000000,6.000000,-3.000000,-53.000000,-11.000000
1299385.651510,108.000000,11.000000,27.000000,-21.000000,-3.000000,-12.000000,35.000000,-5.000000
1299385.665985,22.000000,34.000000,-35.000000,20.000000,-3.000000,5.000000,21.000000,-24.000000
1299385.666011,49.000000,29.000000,-63.000000,-69.000000,-21.000000,3.000000,33.000000,35.000000
1299385.687968,-22.000000,-64.000000,98.000000,88.000000,36.000000,5.000000,-112.000000,-27.000000
1299385.688019,-71.000000,1.000000,-7.000000,-53.000000,-24.000000,-9.000000,-3.000000,-49.000000
1299385.703151,18.000000,33.000000,-73.000000,-57.000000,-18.000000,3.000000,24.000000,52.000000
1299385.703187,-7.000000,-19.000000,35.000000,15.000000,8.000000,-13.000000,-71.000000,-128.000000
1299385.711666,1.000000,-28.000000,111.000000,-33.000000,-7.000000,-34.000000,-40.000000,127.000000
1299385.711717,-42.000000,61.000000,-59.000000,1.000000,-11.000000,-4.000000,-31.000000,-10.000000
1299385.748427,-4.000000,9.000000,-44.000000,-1.000000,0.000000,15.000000,22.000000,1.000000
1299385.748489,-13.000000,0.000000,26.000000,-4.000000,-3.000000,-18.000000,35.000000,93.000000
1299385.770530,14.000000,13.000000,-25.000000,24.000000,2.000000,-15.000000,-30.000000,14.000000
1299385.770559,-75.000000,1.000000,-106.000000,-28.000000,12.000000,13.000000,27.000000,-80.000000
1299385.785406,52.000000,4.000000,62.000000,-1.000000,0.000000,-4.000000,-78.000000,-35.000000
1299385.785453,-127.000000,-10.000000,28.000000,-12.000000,-6.000000,-12.000000,-8.000000,-61.000000
1299385.800545,111.000000,47.000000,-60.000000,-23.000000,-3.000000,37.000000,71.000000,-106.000000
1299385.800596,94.000000,-40.000000,80.000000,11.000000,1.000000,-18.000000,-79.000000,42.000000
1299385.824039,-26.000000,-16.000000,36.000000,-43.000000,-23.000000,-25.000000,-39.000000,-62.000000
1299385.824181,107.000000,36.000000,-89.000000,9.000000,4.000000,63.000000,118.000000,127.000000
1299385.824488,37.000000,51.000000,-45.000000,44.000000,9.000000,15.000000,49.000000,4.000000
1299385.824520,-34.000000,-30.000000,23.000000,64.000000,8.000000,-20.000000,-128.000000,12.000000
1299385.826206,31.000000,7.000000,-7.000000,-17.000000,-11.000000,-31.000000,-72.000000,-128.000000
1299385.826259,-54.000000,-14.000000,42.000000,27.000000,6.000000,-6.000000,-39.000000,-75.000000
1299385.827628,-128.000000,-68.000000,76.000000,-64.000000,-19.000000,-61.000000,-124.000000,-128.000000
1299385.827658,95.000000,20.000000,40.000000,-10.000000,-14.000000,-23.000000,-6.000000,53.000000
1299385.853992,46.000000,42.000000,-40.000000,1.000000,18.000000,21.000000,-7.000000,30.000000
1299385.854435,68.000000,27.000000,-37.000000,-7.000000,-9.000000,14.000000,28.000000,6.000000
1299385.855561,23.000000,50.000000,-39.000000,110.000000,0.000000,22.000000,127.000000,127.000000
1299385.855667,-52.000000,-16.000000,20.000000,61.000000,29.000000,-34.000000,-128.000000,-128.000000
1299385.856012,-30.000000,-6.000000,12.000000,-23.000000,-8.000000,4.000000,86.000000,-30.000000
1299385.856076,39.000000,20.000000,6.000000,-107.000000,-11.000000,25.000000,112.000000,88.000000
1299385.861002,-45.000000,-5.000000,-17.000000,75.000000,17.000000,-25.000000,-90.000000,-100.000000
1299385.861056,-64.000000,27.000000,-63.000000,-10.000000,-11.000000,-5.000000,-33.000000,13.000000
1299385.891269,-13.000000,-23.000000,52.000000,-19.000000,-11.000000,-9.000000,-12.000000,-4.000000
1299385.891864,-128.000000,-54.000000,27.000000,-4.000000,0.000000,-24.000000,-52.000000,-90.000000
1299385.893272,113.000000,31.000000,-11.000000,-16.000000,2.000000,26.000000,66.000000,33.000000
1299385.893313,48.000000,-30.000000,14.000000,66.000000,22.000000,-23.000000,-97.000000,-128.000000
1299385.893613,-81.000000,-26.000000,44.000000,7.000000,-1.000000,1.000000,-26.000000,43.000000
1299385.893804,-128.000000,22.000000,-56.000000,-2.000000,1.000000,3.000000,5.000000,26.000000
1299385.905723,41.000000,6.000000,-27.000000,16.000000,-1.000000,24.000000,68.000000,48.000000
1299385.905772,2.000000,-13.000000,26.000000,-24.000000,-6.000000,-6.000000,-41.000000,16.000000
1299385.913130,32.000000,-5.000000,-22.000000,-6.000000,-10.000000,5.000000,22.000000,-11.000000
1299385.913186,-88.000000,19.000000,-38.000000,-23.000000,3.000000,0.000000,25.000000,48.000000
1299385.935644,-34.000000,-9.000000,42.000000,-25.000000,-7.000000,3.000000,-14.000000,-123.000000
1299385.935691,17.000000,4.000000,5.000000,-15.000000,-9.000000,-14.000000,-11.000000,-7.000000
1299385.943565,76.000000,47.000000,-52.000000,80.000000,1.000000,12.000000,8.000000,16.000000
1299385.943620,127.000000,-10.000000,12.000000,14.000000,-4.000000,3.000000,50.000000,77.000000
1299385.945240,-128.000000,-89.000000,29.000000,43.000000,31.000000,-12.000000,-53.000000,21.000000
1299385.945267,127.000000,50.000000,-85.000000,-1.000000,-4.000000,21.000000,47.000000,57.000000
1299385.958172,127.000000,37.000000,-100.000000,-42.000000,-3.000000,57.000000,127.000000,127.000000
1299385.958333,-21.000000,-43.000000,104.000000,7.000000,17.000000,-65.000000,-128.000000,-128.000000
1299385.966126,-95.000000,-26.000000,33.000000,-11.000000,-18.000000,-12.000000,88.000000,5.000000
1299385.966183,58.000000,29.000000,-69.000000,7.000000,-1.000000,33.000000,67.000000,25.000000
1299385.972748,-11.000000,2.000000,-40.000000,-16.000000,1.000000,11.000000,56.000000,9.000000
1299385.972773,-55.000000,15.000000,57.000000,22.000000,-14.000000,-46.000000,-128.000000,-128.000000
1299385.981364,3.000000,28.000000,-62.000000,47.000000,9.000000,30.000000,17.000000,45.000000
1299385.981410,3.000000,12.000000,-9.000000,-52.000000,-3.000000,-1.000000,21.000000,16.000000
1299386.003797,35.000000,5.000000,13.000000,42.000000,-10.000000,-7.000000,36.000000,25.000000
1299386.003863,-31.000000,-5.000000,5.000000,12.000000,9.000000,-20.000000,-128.000000,-128.000000
1299386.004852,79.000000,16.000000,-40.000000,-30.000000,-13.000000,20.000000,49.000000,55.000000
1299386.004872,-70.000000,-4.000000,23.000000,-6.000000,-3.000000,6.000000,50.000000,-30.000000
1299386.010530,-25.000000,9.000000,-10.000000,-6.000000,-4.000000,-32.000000,-76.000000,-128.000000
1299386.010580,-92.000000,-22.000000,1.000000,-6.000000,6.000000,-17.000000,17.000000,-25.000000
1299386.040749,34.000000,10.000000,41.000000,2.000000,-16.000000,-7.000000,22.000000,0.000000
1299386.040799,127.000000,23.000000,-31.000000,-7.000000,-8.000000,23.000000,55.000000,6.000000
1299386.047939,-128.000000,19.000000,-51.000000,15.000000,-1.000000,11.000000,8.000000,-12.000000
1299386.047987,51.000000,1.000000,31.000000,2.000000,-2.000000,-4.000000,3.000000,25.000000
1299386.063079,31.000000,-16.000000,33.000000,5.000000,-2.000000,10.000000,1.000000,-4.000000
1299386.063105,11.000000,19.000000,-46.000000,-9.000000,-7.000000,-5.000000,-14.000000,15.000000
1299386.085264,50.000000,-8.000000,23.000000,30.000000,3.000000,15.000000,-6.000000,33.000000
1299386.085288,-128.000000,-47.000000,64.000000,-40.000000,-14.000000,-45.000000,78.000000,-60.000000
1299386.093918,-60.000000,1.000000,-41.000000,66.000000,34.000000,25.000000,76.000000,-37.000000
1299386.093953,127.000000,37.000000,-45.000000,-57.000000,-19.000000,5.000000,35.000000,127.000000
1299386.094699,-128.000000,-68.000000,34.000000,87.000000,14.000000,-34.000000,-53.000000,-73.000000
1299386.094748,34.000000,19.000000,-28.000000,-64.000000,-10.000000,-14.000000,-35.000000,11.000000
1299386.096660,-82.000000,-20.000000,43.000000,33.000000,15.000000,9.000000,110.000000,1.000000
1299386.096708,-4.000000,18.000000,-59.000000,35.000000,15.000000,8.000000,-32.000000,-83.000000
1299386.097097,115.000000,4.000000,-54.000000,6.000000,1.000000,39.000000,78.000000,53.000000
1299386.097144,50.000000,-15.000000,57.000000,-56.000000,-16.000000,-44.000000,-128.000000,17.000000
1299386.102473,42.000000,-27.000000,27.000000,25.000000,2.000000,8.000000,22.000000,109.000000
1299386.102517,-10.000000,-2.000000,37.000000,-14.000000,4.000000,-3.000000,-11.000000,-83.000000
1299386.115475,-23.000000,28.000000,-50.000000,23.000000,0.000000,3.000000,13.000000,78.000000
1299386.115525,-45.000000,-4.000000,-10.000000,-7.000000,0.000000,-28.000000,-52.000000,-73.000000
1299386.138081,127.000000,27.000000,-5.000000,-61.000000,7.000000,40.000000,76.000000,127.000000
1299386.138127,-33.000000,-6.000000,9.000000,110.000000,7.000000,-38.000000,-124.000000,-92.000000
1299386.153320,-128.000000,14.000000,-40.000000,-128.000000,-20.000000,38.000000,52.000000,127.000000
1299386.153358,108.000000,-9.000000,18.000000,76.000000,7.000000,-19.000000,28.000000,-128.000000
1299386.175217,-128.000000,1.000000,28.000000,5.000000,-25.000000,-19.000000,-83.000000,11.000000
1299386.175243,-44.000000,-3.000000,-89.000000,7.000000,32.000000,31.000000,28.000000,36.000000
1299386.182819,50.000000,28.000000,-42.000000,-39.000000,-21.000000,0.000000,9.000000,23.000000
1299386.182865,3.000000,-11.000000,49.000000,-45.000000,-6.000000,-14.000000,-19.000000,-28.000000
1299386.206737,-24.000000,7.000000,-23.000000,73.000000,6.000000,2.000000,-6.000000,13.000000
1299386.207060,-40.000000,-17.000000,-2.000000,-38.000000,-4.000000,-6.000000,-110.000000,-35.000000
1299386.207427,-15.000000,-15.000000,40.000000,-12.000000,-6.000000,-10.000000,-11.000000,-53.000000
1299386.207456,110.000000,0.000000,-15.000000,38.000000,-4.000000,39.000000,127.000000,127.000000
1299386.208734,127.000000,-57.000000,-7.000000,6.000000,39.000000,-12.000000,-47.000000,-30.000000
1299386.208791,-128.000000,-7.000000,-42.000000,-1.000000,-5.000000,7.000000,93.000000,115.000000
1299386.210077,-12.000000,-3.000000,29.000000,23.000000,-3.000000,-6.000000,-50.000000,5.000000
1299386.210121,84.000000,29.000000,-53.000000,-25.000000,0.000000,31.000000,12.000000,95.000000
1299386.212817,30.000000,26.000000,-42.000000,-21.000000,-11.000000,18.000000,52.000000,39.000000
1299386.212840,127.000000,22.000000,-40.000000,-24.000000,-6.000000,37.000000,68.000000,-50.000000
1299386.221194,-128.000000,-95.000000,127.000000,78.000000,7.000000,-52.000000,-33.000000,-60.000000
1299386.221242,52.000000,11.000000,27.000000,-33.000000,-29.000000,-15.000000,-64.000000,-128.000000
1299386.235754,75.000000,12.000000,-78.000000,6.000000,0.000000,26.000000,31.000000,17.000000
1299386.236043,32.000000,25.000000,-18.000000,6.000000,-2.000000,25.000000,123.000000,94.000000
1299386.243188,-76.000000,37.000000,8.000000,79.000000,-5.000000,-45.000000,-128.000000,-128.000000
1299386.243237,-76.000000,-3.000000,16.000000,-22.000000,4.000000,7.000000,90.000000,127.000000
1299386.250657,-94.000000,-7.000000,-34.000000,-11.000000,-15.000000,10.000000,66.000000,-80.000000
1299386.250686,99.000000,1.000000,47.000000,-55.000000,-14.000000,-7.000000,71.000000,127.000000
1299386.273301,-13.000000,29.000000,-32.000000,85.000000,42.000000,10.000000,-90.000000,-128.000000
1299386.273349,-70.000000,-30.000000,0.000000,-28.000000,-13.000000,-10.000000,-113.000000,-30.000000
1299386.288759,75.000000,-19.000000,72.000000,-42.000000,-18.000000,-21.000000,-28.000000,65.000000
1299386.288799,45.000000,10.000000,30.000000,57.000000,12.000000,16.000000,-7.000000,51.000000
1299386.303231,54.000000,37.000000,-89.000000,-22.000000,4.000000,28.000000,39.000000,-13.000000
1299386.303381,-128.000000,-49.000000,45.000000,-5.000000,-2.000000,-4.000000,-36.000000,-94.000000
1299386.318005,45.000000,-26.000000,10.000000,-43.000000,-8.000000,10.000000,127.000000,127.000000
1299386.318032,60.000000,24.000000,-77.000000,49.000000,25.000000,-3.000000,-128.000000,-16.000000
1299386.332957,-86.000000,-11.000000,26.000000,-6.000000,-25.000000,12.000000,-13.000000,-119.000000
1299386.333006,127.000000,48.000000,-12.000000,-20.000000,-5.000000,42.000000,127.000000,127.000000
1299386.340723,-128.000000,13.000000,-29.000000,44.000000,-13.000000,-30.000000,-74.000000,-18.000000
1299386.340753,99.000000,-51.000000,-21.000000,-2.000000,37.000000,9.000000,13.000000,-38.000000
1299386.355684,-67.000000,-18.000000,94.000000,8.000000,-5.000000,-38.000000,-128.000000,-2.000000
1299386.355713,-73.000000,31.000000,-68.000000,-52.000000,-3.000000,12.000000,70.000000,-25.000000
1299386.362795,60.000000,11.000000,-56.000000,-21.000000,0.000000,19.000000,45.000000,127.000000
1299386.362995,1.000000,-51.000000,5.000000,3.000000,14.000000,22.000000,99.000000,115.000000
1299386.365042,-39.000000,-8.000000,51.000000,-26.000000,-4.000000,-71.000000,-128.000000,-128.000000
1299386.365074,7.000000,32.000000,-29.000000,-45.000000,-6.000000,24.000000,80.000000,2.000000
1299386.365409,93.000000,9.000000,-35.000000,9.000000,10.000000,46.000000,51.000000,123.000000
1299386.365451,-71.000000,-8.000000,66.000000,-27.000000,-16.000000,-35.000000,-87.000000,-128.000000
1299386.377890,-128.000000,9.000000,-42.000000,66.000000,2.000000,0.000000,64.000000,-27.000000
1299386.377941,127.000000,-38.000000,19.000000,-61.000000,16.000000,-11.000000,-117.000000,-43.000000
1299386.392997,51.000000,3.000000,-4.000000,-41.000000,-23.000000,-6.000000,56.000000,-98.000000
1299386.393139,60.000000,-4.000000,19.000000,-45.000000,-20.000000,-22.000000,-25.000000,10.000000
1299386.415418,17.000000,25.000000,-123.000000,43.000000,24.000000,61.000000,102.000000,127.000000
1299386.415444,-128.000000,-4.000000,75.000000,-128.000000,-30.000000,-30.000000,-15.000000,-44.000000
1299386.430459,32.000000,13.000000,-24.000000,72.000000,23.000000,2.000000,19.000000,-26.000000
1299386.430508,127.000000,-24.000000,-82.000000,-7.000000,4.000000,58.000000,118.000000,127.000000
1299386.438818,-58.000000,-29.000000,53.000000,-49.000000,-18.000000,-84.000000,-128.000000,-128.000000
1299386.438864,-88.000000,5.000000,95.000000,-26.000000,1.000000,-29.000000,5.000000,51.000000
1299386.445997,23.000000,47.000000,-101.000000,-12.000000,-9.000000,39.000000,70.000000,22.000000
1299386.446354,67.000000,15.000000,-72.000000,-49.000000,8.000000,31.000000,52.000000,83.000000
1299386.447784,-13.000000,-15.000000,57.000000,-17.000000,7.000000,-22.000000,-36.000000,-17.000000
1299386.448120,-45.000000,5.000000,-15.000000,40.000000,2.000000,1.000000,-20.000000,-128.000000
1299386.449006,61.000000,-4.000000,-47.000000,22.000000,13.000000,11.000000,-23.000000,27.000000
1299386.449050,78.000000,-45.000000,87.000000,-5.000000,0.000000,-1.000000,52.000000,75.000000
1299386.449745,-57.000000,-34.000000,16.000000,-128.000000,-33.000000,-32.000000,-87.000000,-125.000000
1299386.449786,127.000000,50.000000,-72.000000,-17.000000,1.000000,48.000000,97.000000,127.000000
1299386.452930,101.000000,3.000000,-23.000000,111.000000,23.000000,-4.000000,84.000000,127.000000
1299386.452969,-27.000000,22.000000,-28.000000,31.000000,-4.000000,23.000000,54.000000,58.000000
1299386.462016,-98.000000,-3.000000,-19.000000,-12.000000,-13.000000,-39.000000,-73.000000,-118.000000
1299386.462041,35.000000,7.000000,-22.000000,92.000000,-36.000000,0.000000,44.000000,-6.000000
1299386.483091,-128.000000,-60.000000,62.000000,-118.000000,14.000000,-68.000000,-128.000000,-128.000000
1299386.483118,29.000000,34.000000,-77.000000,9.000000,1.000000,26.000000,90.000000,53.000000
1299386.505615,50.000000,22.000000,-35.000000,-5.000000,3.000000,0.000000,-76.000000,69.000000
1299386.505697,-37.000000,-21.000000,53.000000,1.000000,-11.000000,-9.000000,21.000000,39.000000
1299386.520552,59.000000,55.000000,-68.000000,28.000000,9.000000,17.000000,43.000000,28.000000
1299386.520600,46.000000,10.000000,-15.000000,-4.000000,-4.000000,-13.000000,-85.000000,29.000000
1299386.535491,5.000000,-16.000000,69.000000,4.000000,-1.000000,-19.000000,5.000000,-128.000000
1299386.535543,11.000000,17.000000,28.000000,-53.000000,-18.000000,2.000000,68.000000,36.000000
1299386.550768,-61.000000,10.000000,-55.000000,16.000000,18.000000,-3.000000,-28.000000,-61.000000
1299386.550795,79.000000,-28.000000,-4.000000,-47.000000,-21.000000,-14.000000,-54.000000,-10.000000
1299386.567201,62.000000,4.000000,-24.000000,70.000000,9.000000,-1.000000,-27.000000,57.000000
1299386.567259,81.000000,6.000000,9.000000,-57.000000,7.000000,15.000000,42.000000,102.000000
1299386.567441,-106.000000,-15.000000,41.000000,45.000000,2.000000,-1.000000,18.000000,49.000000
1299386.567461,29.000000,15.000000,-10.000000,5.000000,-8.000000,-9.000000,-1.000000,-85.000000
1299386.569249,-128.000000,-71.000000,53.000000,12.000000,-1.000000,-26.000000,-12.000000,-110.000000
1299386.569381,74.000000,23.000000,-86.000000,-31.000000,1.000000,17.000000,33.000000,32.000000
1299386.569820,127.000000,-2.000000,24.000000,-39.000000,-18.000000,-16.000000,-128.000000,-78.000000
1299386.569863,-128.000000,-46.000000,127.000000,0.000000,-10.000000,-21.000000,14.000000,-128.000000
1299386.573284,-5.000000,-27.000000,49.000000,-10.000000,2.000000,21.000000,127.000000,127.000000
1299386.573345,26.000000,22.000000,34.000000,39.000000,24.000000,-29.000000,-65.000000,-18.000000
1299386.581229,-8.000000,20.000000,-69.000000,-7.000000,-2.000000,36.000000,75.000000,-2.000000
1299386.581278,3.000000,-8.000000,37.000000,-5.000000,-10.000000,-2.000000,29.000000,-4.000000
1299386.603404,-8.000000,-7.000000,12.000000,21.000000,3.000000,-13.000000,-30.000000,-27.000000
1299386.603431,-12.000000,22.000000,-57.000000,2.000000,-3.000000,18.000000,10.000000,11.000000
1299386.618176,-15.000000,-9.000000,77.000000,-51.000000,-35.000000,-26.000000,-55.000000,10.000000
1299386.618203,-99.000000,-24.000000,69.000000,15.000000,14.000000,-19.000000,-30.000000,-73.000000
1299386.634100,73.000000,26.000000,-52.000000,43.000000,14.000000,20.000000,8.000000,30.000000
1299386.634154,-19.000000,-8.000000,-30.000000,58.000000,3.000000,5.000000,2.000000,17.000000
1299386.640396,43.000000,-2.000000,-17.000000,-37.000000,-13.000000,-2.000000,93.000000,115.000000
1299386.640446,-100.000000,-13.000000,43.000000,46.000000,29.000000,-39.000000,-128.000000,-128.000000
1299386.648288,-27.000000,13.000000,-7.000000,-13.000000,-3.000000,4.000000,19.000000,9.000000
1299386.648370,20.000000,-9.000000,35.000000,17.000000,4.000000,12.000000,75.000000,83.000000
1299386.670821,24.000000,13.000000,-14.000000,7.000000,8.000000,2.000000,9.000000,-104.000000
1299386.670870,127.000000,5.000000,-46.000000,60.000000,-4.000000,27.000000,-53.000000,115.000000
1299386.685661,-128.000000,-37.000000,63.000000,-122.000000,-13.000000,-48.000000,86.000000,19.000000
1299386.685714,-50.000000,-20.000000,46.000000,17.000000,-5.000000,-6.000000,34.000000,-13.000000
1299386.715711,26.000000,29.000000,-128.000000,5.000000,-3.000000,41.000000,66.000000,-72.000000
1299386.715760,-10.000000,2.000000,23.000000,-12.000000,4.000000,-16.000000,-68.000000,7.000000
1299386.723030,-128.000000,-47.000000,125.000000,-9.000000,-7.000000,-42.000000,-50.000000,-112.000000
1299386.723056,42.000000,11.000000,-64.000000,-86.000000,-21.000000,5.000000,57.000000,-19.000000
1299386.738170,75.000000,6.000000,-65.000000,124.000000,36.000000,35.000000,-46.000000,-44.000000
1299386.738196,-121.000000,-15.000000,71.000000,-38.000000,-16.000000,-22.000000,-25.000000,-52.000000
1299386.745514,20.000000,18.000000,34.000000,-69.000000,-17.000000,-49.000000,-71.000000,-2.000000
1299386.745564,46.000000,-9.000000,-75.000000,-62.000000,-6.000000,25.000000,36.000000,26.000000
1299386.769068,-110.000000,-7.000000,-11.000000,18.000000,-3.000000,-13.000000,-16.000000,9.000000
1299386.769287,127.000000,10.000000,-96.000000,-30.000000,-5.000000,64.000000,127.000000,127.000000
1299386.775926,-60.000000,-35.000000,75.000000,36.000000,12.000000,-21.000000,-19.000000,119.000000
1299386.775993,-128.000000,1.000000,41.000000,-20.000000,-5.000000,-12.000000,-128.000000,-128.000000
1299386.800292,-53.000000,-16.000000,71.000000,8.000000,-1.000000,-52.000000,-128.000000,-63.000000
1299386.800427,-22.000000,20.000000,-70.000000,-4.000000,-3.000000,20.000000,49.000000,-12.000000
1299386.801058,-12.000000,7.000000,5.000000,-13.000000,-8.000000,3.000000,24.000000,-9.000000
1299386.801155,20.000000,0.000000,1.000000,-40.000000,-4.000000,15.000000,25.000000,41.000000
1299386.803256,36.000000,-29.000000,62.000000,-128.000000,-26.000000,-35.000000,-128.000000,8.000000
1299386.803316,-128.000000,-8.000000,42.000000,12.000000,-22.000000,-17.000000,-42.000000,-34.000000
1299386.803539,22.000000,-10.000000,7.000000,12.000000,15.000000,22.000000,35.000000,59.000000
1299386.803679,105.000000,20.000000,-12.000000,-24.000000,-13.000000,21.000000,58.000000,10.000000
1299386.806165,-15.000000,-8.000000,52.000000,-47.000000,-3.000000,-8.000000,-25.000000,127.000000
1299386.806211,-87.000000,-15.000000,97.000000,-7.000000,-4.000000,-58.000000,9.000000,15.000000
1299386.813216,-16.000000,34.000000,-128.000000,13.000000,9.000000,48.000000,127.000000,11.000000
1299386.813435,47.000000,-6.000000,-47.000000,1.000000,-2.000000,18.000000,-52.000000,-11.000000
1299386.843133,-19.000000,-26.000000,61.000000,-20.000000,-14.000000,-20.000000,-30.000000,121.000000
1299386.843182,-14.000000,6.000000,-9.000000,-31.000000,3.000000,-15.000000,-10.000000,-116.000000
1299386.850180,8.000000,-2.000000,-30.000000,15.000000,-7.000000,14.000000,34.000000,67.000000
1299386.850204,-67.000000,-15.000000,-4.000000,47.000000,34.000000,17.000000,54.000000,-15.000000
1299386.880520,60.000000,-7.000000,18.000000,4.000000,-9.000000,-5.000000,49.000000,36.000000
1299386.880661,-87.000000,-18.000000,-18.000000,65.000000,5.000000,-17.000000,-65.000000,-51.000000
1299386.887994,87.000000,19.000000,42.000000,-111.000000,-37.000000,-14.000000,-23.000000,-4.000000
1299386.888021,106.000000,12.000000,-30.000000,-87.000000,34.000000,37.000000,114.000000,127.000000
1299386.896494,-91.000000,4.000000,11.000000,-69.000000,-14.000000,-64.000000,-128.000000,-97.000000
1299386.896531,-34.000000,-5.000000,-19.000000,-22.000000,-6.000000,22.000000,20.000000,6.000000
1299386.898097,14.000000,-2.000000,-1.000000,-37.000000,-10.000000,9.000000,95.000000,-17.000000
1299386.898263,56.000000,0.000000,-19.000000,104.000000,19.000000,-4.000000,-117.000000,47.000000
1299386.899758,-1.000000,-13.000000,-49.000000,-30.000000,-27.000000,-2.000000,-57.000000,0.000000
1299386.899794,15.000000,-15.000000,41.000000,9.000000,8.000000,19.000000,58.000000,-10.000000
1299386.899970,-6.000000,3.000000,-18.000000,-7.000000,-8.000000,-6.000000,38.000000,46.000000
1299386.899996,62.000000,40.000000,-80.000000,19.000000,2.000000,18.000000,18.000000,26.000000
1299386.930832,44.000000,2.000000,-41.000000,24.000000,8.000000,2.000000,-46.000000,-40.000000
1299386.930878,107.000000,-3.000000,-16.000000,-65.000000,4.000000,42.000000,105.000000,127.000000
1299386.933859,-128.000000,-16.000000,45.000000,-8.000000,-3.000000,-53.000000,-65.000000,-119.000000
1299386.934138,50.000000,34.000000,-64.000000,26.000000,-30.000000,29.000000,115.000000,127.000000
1299386.937209,-43.000000,-20.000000,58.000000,-30.000000,-14.000000,-25.000000,38.000000,-107.000000
1299386.937259,-46.000000,-11.000000,34.000000,3.000000,1.000000,-42.000000,-116.000000,-109.000000
1299386.937542,120.000000,-6.000000,-25.000000,-59.000000,38.000000,11.000000,-11.000000,23.000000
1299386.937569,-96.000000,-20.000000,122.000000,127.000000,14.000000,-52.000000,-65.000000,-55.000000
1299386.971097,-42.000000,15.000000,-24.000000,-47.000000,-13.000000,1.000000,53.000000,-7.000000
1299386.971127,81.000000,16.000000,-116.000000,-30.000000,-10.000000,28.000000,101.000000,113.000000
1299387.000913,-35.000000,-31.000000,56.000000,-62.000000,9.000000,-15.000000,-24.000000,3.000000
1299387.001044,-7.000000,13.000000,15.000000,9.000000,-15.000000,9.000000,-13.000000,-37.000000
1299387.045486,-128.000000,11.000000,-45.000000,-2.000000,7.000000,8.000000,-45.000000,94.000000
1299387.045516,-26.000000,-23.000000,19.000000,0.000000,-7.000000,-10.000000,-14.000000,-19.000000
1299387.053218,93.000000,-4.000000,47.000000,-7.000000,-6.000000,5.000000,9.000000,21.000000
1299387.053245,-128.000000,-2.000000,-24.000000,0.000000,0.000000,-15.000000,-61.000000,-73.000000
1299387.061211,74.000000,-3.000000,-37.000000,12.000000,4.000000,27.000000,82.000000,28.000000
1299387.061266,-11.000000,-14.000000,35.000000,-9.000000,1.000000,-16.000000,-44.000000,-33.000000
1299387.075255,57.000000,6.000000,-1.000000,13.000000,-2.000000,5.000000,8.000000,100.000000
1299387.075307,52.000000,-21.000000,-9.000000,2.000000,-15.000000,-30.000000,-45.000000,-34.000000
1299387.083024,-76.000000,-8.000000,12.000000,-26.000000,-26.000000,-19.000000,-40.000000,-23.000000
1299387.083076,-23.000000,-5.000000,26.000000,-8.000000,1.000000,0.000000,28.000000,24.000000
1299387.090636,2.000000,-34.000000,127.000000,-7.000000,-22.000000,-44.000000,-128.000000,96.000000
1299387.090691,-10.000000,-26.000000,9.000000,-16.000000,15.000000,3.000000,42.000000,-49.000000
1299387.113017,127.000000,18.000000,-76.000000,-10.000000,0.000000,38.000000,66.000000,57.000000
1299387.113065,-128.000000,-59.000000,84.000000,-33.000000,-20.000000,-41.000000,-50.000000,-84.000000
1299387.120551,127.000000,5.000000,-2.000000,9.000000,4.000000,24.000000,90.000000,81.000000
1299387.120576,53.000000,16.000000,-66.000000,-11.000000,0.000000,-1.000000,-20.000000,-41.000000
1299387.135416,32.000000,19.000000,-36.000000,0.000000,5.000000,22.000000,8.000000,-76.000000
1299387.135445,-30.000000,-26.000000,109.000000,51.000000,-6.000000,-12.000000,29.000000,62.000000
1299387.158796,-76.000000,3.000000,-32.000000,-33.000000,-15.000000,-9.000000,-46.000000,-49.000000
1299387.158825,-72.000000,-4.000000,-28.000000,16.000000,-8.000000,1.000000,77.000000,-24.000000
1299387.160560,63.000000,14.000000,2.000000,38.000000,-15.000000,-3.000000,23.000000,57.000000
1299387.161114,-104.000000,-8.000000,-68.000000,-63.000000,-9.000000,7.000000,-15.000000,-128.000000
1299387.161969,-3.000000,-16.000000,56.000000,-55.000000,-7.000000,15.000000,38.000000,-16.000000
1299387.162019,-127.000000,-18.000000,40.000000,51.000000,-13.000000,-35.000000,-89.000000,10.000000
1299387.162683,79.000000,30.000000,-56.000000,-16.000000,5.000000,4.000000,0.000000,-13.000000
1299387.162730,-26.000000,1.000000,-10.000000,13.000000,-5.000000,-12.000000,0.000000,30.000000
1299387.163015,70.000000,-2.000000,56.000000,-10.000000,-4.000000,-27.000000,-23.000000,127.000000
1299387.163079,-17.000000,7.000000,0.000000,57.000000,5.000000,5.000000,31.000000,-11.000000
1299387.163336,26.000000,-16.000000,41.000000,8.000000,-9.000000,-1.000000,27.000000,-35.000000
1299387.163357,10.000000,1.000000,6.000000,17.000000,25.000000,-22.000000,-39.000000,-33.000000
1299387.165234,71.000000,13.000000,-67.000000,33.000000,5.000000,24.000000,69.000000,21.000000
1299387.165283,23.000000,2.000000,-1.000000,-31.000000,-13.000000,5.000000,-19.000000,-39.000000
1299387.172911,-128.000000,-22.000000,94.000000,17.000000,17.000000,-33.000000,-64.000000,-128.000000
1299387.172946,49.000000,9.000000,-39.000000,-27.000000,12.000000,6.000000,41.000000,103.000000
1299387.196031,36.000000,1.000000,-34.000000,6.000000,-12.000000,23.000000,11.000000,3.000000
1299387.196057,1.000000,0.000000,16.000000,2.000000,-13.000000,27.000000,49.000000,98.000000
1299387.203090,13.000000,-9.000000,9.000000,-15.000000,-5.000000,-36.000000,64.000000,-109.000000
1299387.203141,-50.000000,10.000000,-42.000000,56.000000,26.000000,20.000000,-128.000000,-41.000000
1299387.240576,-18.000000,11.000000,46.000000,-41.000000,-19.000000,1.000000,99.000000,10.000000
1299387.240613,0.000000,-9.000000,17.000000,-17.000000,-8.000000,-12.000000,21.000000,54.000000
1299387.247912,72.000000,28.000000,-100.000000,-4.000000,9.000000,11.000000,95.000000,22.000000
1299387.247964,-128.000000,-36.000000,84.000000,40.000000,15.000000,-34.000000,-128.000000,-128.000000
1299387.264105,-1.000000,-2.000000,51.000000,-7.000000,1.000000,0.000000,29.000000,-15.000000
1299387.264141,77.000000,25.000000,-64.000000,0.000000,3.000000,16.000000,29.000000,21.000000
1299387.264814,-35.000000,4.000000,-73.000000,6.000000,7.000000,26.000000,34.000000,103.000000
1299387.264835,-23.000000,-8.000000,56.000000,39.000000,-2.000000,-7.000000,-14.000000,-36.000000
1299387.279132,6.000000,10.000000,-22.000000,-10.000000,3.000000,-1.000000,-14.000000,-22.000000
1299387.279177,38.000000,9.000000,-45.000000,-33.000000,-3.000000,19.000000,11.000000,41.000000
1299387.279444,-17.000000,-12.000000,44.000000,123.000000,8.000000,-4.000000,26.000000,-53.000000
1299387.279487,-3.000000,-13.000000,62.000000,10.000000,-10.000000,-42.000000,-111.000000,9.000000
1299387.280738,-57.000000,-3.000000,-32.000000,-4.000000,8.000000,23.000000,57.000000,39.000000
1299387.281082,-15.000000,-9.000000,-17.000000,0.000000,-11.000000,5.000000,43.000000,13.000000
1299387.281774,-28.000000,-12.000000,8.000000,11.000000,-9.000000,-13.000000,13.000000,-60.000000
1299387.281797,-42.000000,-1.000000,0.000000,39.000000,-13.000000,-20.000000,-37.000000,-69.000000
1299387.285503,-53.000000,-2.000000,-17.000000,70.000000,44.000000,-1.000000,-89.000000,-11.000000
1299387.285555,-35.000000,-10.000000,31.000000,-35.000000,-16.000000,-6.000000,48.000000,-34.000000
1299387.323075,73.000000,19.000000,-55.000000,-24.000000,3.000000,25.000000,79.000000,27.000000
1299387.323098,4.000000,8.000000,-45.000000,17.000000,4.000000,11.000000,-24.000000,54.000000
1299387.330386,-84.000000,-25.000000,104.000000,67.000000,-15.000000,-66.000000,-105.000000,-67.000000
1299387.330436,53.000000,4.000000,-5.000000,-32.000000,5.000000,14.000000,53.000000,2.000000
1299387.345415,85.000000,31.000000,-89.000000,-3.000000,4.000000,31.000000,51.000000,53.000000
1299387.345439,63.000000,5.000000,4.000000,4.000000,-3.000000,2.000000,-18.000000,-33.000000
1299387.352842,-42.000000,-18.000000,59.000000,-26.000000,7.000000,-13.000000,-5.000000,-17.000000
1299387.352892,38.000000,5.000000,-38.000000,42.000000,11.000000,18.000000,2.000000,29.000000
1299387.368263,17.000000,-3.000000,-38.000000,-40.000000,-9.000000,11.000000,12.000000,4.000000
1299387.368310,11.000000,-7.000000,43.000000,7.000000,-9.000000,-14.000000,102.000000,41.000000
1299387.375478,-87.000000,3.000000,26.000000,-121.000000,-17.000000,-33.000000,-105.000000,-110.000000
1299387.375523,-5.000000,10.000000,28.000000,-56.000000,-14.000000,10.000000,76.000000,-34.000000
1299387.398982,6.000000,-21.000000,-1.000000,39.000000,8.000000,21.000000,11.000000,16.000000
1299387.399034,-36.000000,2.000000,23.000000,-2.000000,-3.000000,-11.000000,4.000000,0.000000
1299387.400406,18.000000,2.000000,-51.000000,-10.000000,-10.000000,-1.000000,-57.000000,-54.000000
1299387.400977,53.000000,-11.000000,21.000000,6.000000,-7.000000,13.000000,34.000000,31.000000
1299387.402020,6.000000,-14.000000,49.000000,44.000000,16.000000,-17.000000,-55.000000,26.000000
1299387.402044,-51.000000,12.000000,-3.000000,-32.000000,-2.000000,-13.000000,-21.000000,17.000000
1299387.402247,35.000000,-16.000000,-23.000000,4.000000,-6.000000,20.000000,27.000000,10.000000
1299387.402301,-69.000000,-18.000000,13.000000,61.000000,17.000000,5.000000,25.000000,-6.000000
1299387.405622,-73.000000,-18.000000,64.000000,-4.000000,1.000000,-4.000000,37.000000,4.000000
1299387.405663,18.000000,10.000000,-17.000000,70.000000,2.000000,5.000000,52.000000,20.000000
1299387.428363,21.000000,6.000000,-86.000000,-97.000000,-9.000000,15.000000,-35.000000,4.000000
1299387.428388,62.000000,4.000000,39.000000,-22.000000,-7.000000,6.000000,-11.000000,-35.000000
1299387.435469,-98.000000,-37.000000,87.000000,-3.000000,-12.000000,-35.000000,-1.000000,-29.000000
1299387.435494,16.000000,16.000000,-56.000000,46.000000,-5.000000,22.000000,22.000000,-12.000000
1299387.450391,41.000000,2.000000,-67.000000,6.000000,16.000000,28.000000,88.000000,76.000000
1299387.450439,-25.000000,4.000000,70.000000,-16.000000,-8.000000,-39.000000,-118.000000,-39.000000
1299387.465285,-28.000000,-11.000000,-7.000000,-14.000000,-10.000000,-12.000000,-1.000000,-41.000000
1299387.465309,23.000000,20.000000,-67.000000,-2.000000,-3.000000,-7.000000,-28.000000,-25.000000
1299387.480366,49.000000,-6.000000,34.000000,-6.000000,5.000000,1.000000,24.000000,-20.000000
1299387.480416,11.000000,2.000000,3.000000,59.000000,-1.000000,-6.000000,-8.000000,-14.000000
1299387.488259,-2.000000,24.000000,-54.000000,-24.000000,2.000000,15.000000,-5.000000,8.000000
1299387.488309,46.000000,-7.000000,-4.000000,89.000000,2.000000,6.000000,32.000000,64.000000
1299387.518257,-90.000000,-9.000000,42.000000,-28.000000,-18.000000,-14.000000,8.000000,-44.000000
1299387.518406,23.000000,13.000000,-40.000000,38.000000,33.000000,14.000000,-10.000000,5.000000
1299387.520767,79.000000,19.000000,-36.000000,46.000000,-1.000000,23.000000,63.000000,48.000000
1299387.520823,-109.000000,-18.000000,65.000000,-41.000000,10.000000,-13.000000,-8.000000,-44.000000
1299387.521758,-8.000000,16.000000,15.000000,-20.000000,-3.000000,-18.000000,-63.000000,29.000000
1299387.522714,83.000000,12.000000,-44.000000,59.000000,6.000000,30.000000,48.000000,34.000000
1299387.523637,-25.000000,5.000000,26.000000,49.000000,4.000000,-7.000000,29.000000,-60.000000
1299387.523661,-128.000000,7.000000,-16.000000,-37.000000,-14.000000,10.000000,97.000000,-40.000000
1299387.523784,-6.000000,28.000000,-20.000000,2.000000,5.000000,10.000000,-49.000000,-16.000000
1299387.523796,86.000000,-19.000000,5.000000,-5.000000,-8.000000,-10.000000,42.000000,30.000000
1299387.525430,-24.000000,-4.000000,21.000000,-7.000000,-2.000000,-11.000000,-6.000000,1.000000
1299387.525455,29.000000,6.000000,-74.000000,-3.000000,4.000000,26.000000,37.000000,38.000000
1299387.541412,-2.000000,-21.000000,22.000000,16.000000,-2.000000,-3.000000,-23.000000,15.000000
1299387.541460,-123.000000,-21.000000,74.000000,7.000000,5.000000,-38.000000,-128.000000,-108.000000
1299387.556007,26.000000,9.000000,-28.000000,6.000000,6.000000,8.000000,37.000000,56.000000
1299387.556240,13.000000,12.000000,-34.000000,-16.000000,-1.000000,5.000000,18.000000,22.000000
1299387.570668,16.000000,-7.000000,46.000000,-22.000000,-11.000000,-11.000000,20.000000,-28.000000
1299387.570707,37.000000,-5.000000,5.000000,23.000000,4.000000,2.000000,-38.000000,-19.000000
1299387.578012,-11.000000,27.000000,-101.000000,12.000000,-5.000000,10.000000,29.000000,119.000000
1299387.578055,-32.000000,-14.000000,60.000000,-22.000000,-1.000000,-19.000000,24.000000,-40.000000
1299387.592924,-77.000000,-7.000000,18.000000,-14.000000,-3.000000,-13.000000,-11.000000,-27.000000
1299387.592973,105.000000,24.000000,-89.000000,32.000000,-7.000000,28.000000,118.000000,88.000000
1299387.601441,-69.000000,0.000000,-16.000000,-36.000000,1.000000,-10.000000,-111.000000,-63.000000
1299387.601733,67.000000,-18.000000,30.000000,1.000000,-6.000000,-26.000000,-29.000000,-59.000000
1299387.602207,94.000000,21.000000,-81.000000,12.000000,6.000000,36.000000,103.000000,127.000000
1299387.602251,13.000000,-4.000000,-12.000000,-7.000000,-7.000000,-17.000000,-70.000000,16.000000
1299387.608095,-28.000000,-6.000000,19.000000,46.000000,1.000000,9.000000,73.000000,-4.000000
1299387.608132,-49.000000,3.000000,-12.000000,38.000000,4.000000,20.000000,-11.000000,10.000000
1299387.630796,-23.000000,10.000000,-41.000000,-19.000000,5.000000,3.000000,-68.000000,-8.000000
1299387.630851,6.000000,-17.000000,44.000000,-1.000000,-8.000000,-3.000000,25.000000,1.000000
1299387.638482,-13.000000,-24.000000,21.000000,9.000000,1.000000,-27.000000,-9.000000,36.000000
1299387.638513,-116.000000,-4.000000,-44.000000,20.000000,-6.000000,10.000000,25.000000,-7.000000
1299387.647283,108.000000,7.000000,-26.000000,6.000000,-6.000000,18.000000,36.000000,127.000000
1299387.647337,-92.000000,-23.000000,57.000000,13.000000,20.000000,-45.000000,-104.000000,-128.000000
1299387.647663,22.000000,14.000000,-24.000000,5.000000,-5.000000,17.000000,41.000000,54.000000
1299387.647731,40.000000,6.000000,-106.000000,22.000000,-3.000000,43.000000,125.000000,88.000000
1299387.683404,-29.000000,7.000000,52.000000,27.000000,-1.000000,-41.000000,-128.000000,-72.000000
1299387.683433,-33.000000,7.000000,-29.000000,-28.000000,10.000000,10.000000,38.000000,4.000000
1299387.690849,17.000000,13.000000,-63.000000,8.000000,0.000000,7.000000,29.000000,24.000000
1299387.690905,32.000000,-20.000000,25.000000,19.000000,4.000000,-1.000000,20.000000,-23.000000
1299387.722639,2.000000,1.000000,38.000000,-14.000000,-8.000000,-12.000000,-7.000000,23.000000
1299387.722734,-18.000000,-26.000000,-27.000000,-44.000000,-6.000000,-5.000000,-36.000000,-104.000000
1299387.725005,9.000000,-11.000000,63.000000,31.000000,-4.000000,-11.000000,-58.000000,-5.000000
1299387.725042,-34.000000,-8.000000,-11.000000,49.000000,8.000000,7.000000,38.000000,-100.000000
1299387.726387,-15.000000,10.000000,-39.000000,-2.000000,-7.000000,17.000000,42.000000,61.000000
1299387.726695,62.000000,-4.000000,-19.000000,-15.000000,-9.000000,-21.000000,-73.000000,-12.000000
1299387.726984,127.000000,0.000000,20.000000,24.000000,4.000000,31.000000,80.000000,127.000000
1299387.727115,-128.000000,-25.000000,48.000000,3.000000,1.000000,-13.000000,4.000000,-35.000000
1299387.728750,116.000000,32.000000,-23.000000,27.000000,-7.000000,0.000000,66.000000,-30.000000
1299387.728807,-77.000000,-4.000000,-66.000000,49.000000,36.000000,16.000000,-11.000000,42.000000
1299387.753131,26.000000,6.000000,2.000000,50.000000,-7.000000,-26.000000,-128.000000,-65.000000
1299387.753167,-128.000000,-7.000000,-5.000000,50.000000,9.000000,7.000000,17.000000,-17.000000
1299387.753349,-49.000000,7.000000,42.000000,-7.000000,-4.000000,2.000000,13.000000,-17.000000
1299387.753370,74.000000,10.000000,1.000000,-22.000000,-4.000000,-3.000000,55.000000,55.000000
1299387.760220,10.000000,-10.000000,27.000000,-37.000000,-7.000000,2.000000,36.000000,13.000000
1299387.760276,-45.000000,-12.000000,10.000000,-14.000000,-4.000000,3.000000,16.000000,16.000000
1299387.765502,25.000000,10.000000,-7.000000,49.000000,2.000000,-3.000000,-15.000000,-45.000000
1299387.765531,11.000000,-18.000000,31.000000,-23.000000,-1.000000,3.000000,48.000000,92.000000
1299387.795895,-69.000000,-5.000000,-9.000000,-39.000000,-6.000000,-35.000000,-88.000000,-128.000000
1299387.795926,96.000000,47.000000,-100.000000,2.000000,-3.000000,50.000000,127.000000,127.000000
1299387.803308,-106.000000,-10.000000,66.000000,-38.000000,-4.000000,-64.000000,-128.000000,-79.000000
1299387.803491,17.000000,-16.000000,67.000000,-19.000000,-12.000000,-34.000000,17.000000,-60.000000
1299387.833262,5.000000,17.000000,-47.000000,-26.000000,-2.000000,32.000000,56.000000,-13.000000
1299387.833294,127.000000,-1.000000,7.000000,21.000000,-6.000000,24.000000,52.000000,89.000000
1299387.841019,-128.000000,-36.000000,54.000000,-56.000000,-12.000000,-31.000000,-80.000000,-85.000000
1299387.841080,-82.000000,0.000000,-37.000000,27.000000,16.000000,13.000000,0.000000,9.000000
1299387.870989,-50.000000,5.000000,-23.000000,-3.000000,-3.000000,17.000000,2.000000,9.000000
1299387.871483,43.000000,-12.000000,30.000000,38.000000,-7.000000,10.000000,0.000000,14.000000
1299387.873083,-74.000000,-21.000000,15.000000,-16.000000,2.000000,-24.000000,-32.000000,-89.000000
1299387.873434,28.000000,8.000000,-66.000000,26.000000,22.000000,21.000000,41.000000,83.000000
1299387.874445,29.000000,-4.000000,-2.000000,-64.000000,-2.000000,-9.000000,-77.000000,-28.000000
1299387.874480,3.000000,1.000000,19.000000,-11.000000,-12.000000,-6.000000,26.000000,14.000000
1299387.874657,9.000000,6.000000,-19.000000,41.000000,-1.000000,5.000000,-28.000000,-39.000000
1299387.874685,17.000000,-6.000000,-1.000000,-35.000000,3.000000,15.000000,4.000000,114.000000
1299387.875492,122.000000,19.000000,-57.000000,-9.000000,-6.000000,3.000000,70.000000,33.000000
1299387.875518,-128.000000,-29.000000,63.000000,-61.000000,19.000000,-6.000000,0.000000,-86.000000
1299387.879348,112.000000,8.000000,18.000000,33.000000,-4.000000,8.000000,37.000000,-11.000000
1299387.879383,-37.000000,9.000000,-36.000000,4.000000,-8.000000,-13.000000,-10.000000,-49.000000
1299387.885885,-10.000000,-13.000000,33.000000,17.000000,-6.000000,-4.000000,-54.000000,-6.000000
1299387.885942,43.000000,0.000000,17.000000,-26.000000,-7.000000,8.000000,29.000000,-1.000000
1299387.915561,-76.000000,-12.000000,-16.000000,21.000000,-12.000000,-24.000000,-4.000000,-24.000000
1299387.915616,34.000000,-10.000000,-36.000000,-22.000000,7.000000,15.000000,26.000000,-38.000000
1299387.923469,-14.000000,-8.000000,67.000000,-128.000000,-25.000000,-8.000000,86.000000,3.000000
1299387.923521,-24.000000,3.000000,9.000000,123.000000,32.000000,-3.000000,-94.000000,-26.000000
1299387.961272,37.000000,6.000000,-33.000000,-22.000000,-5.000000,6.000000,-16.000000,50.000000
1299387.961331,-8.000000,6.000000,31.000000,26.000000,-13.000000,17.000000,118.000000,46.000000
1299387.998442,-81.000000,-9.000000,-28.000000,124.000000,5.000000,-2.000000,-15.000000,5.000000
1299387.998478,-31.000000,1.000000,-17.000000,-23.000000,-7.000000,-22.000000,-119.000000,-23.000000
1299388.006833,127.000000,11.000000,-2.000000,-18.000000,2.000000,10.000000,62.000000,41.000000
1299388.007217,-15.000000,-14.000000,-5.000000,13.000000,-10.000000,0.000000,-1.000000,-17.000000
1299388.007957,87.000000,11.000000,-30.000000,-20.000000,4.000000,18.000000,54.000000,23.000000
1299388.007992,-128.000000,-24.000000,26.000000,39.000000,4.000000,-19.000000,-128.000000,-39.000000
1299388.009261,55.000000,22.000000,-33.000000,-26.000000,-8.000000,0.000000,-128.000000,7.000000
1299388.009481,-18.000000,-17.000000,46.000000,25.000000,4.000000,-1.000000,27.000000,19.000000
1299388.035871,67.000000,-5.000000,-57.000000,24.000000,7.000000,27.000000,51.000000,89.000000
1299388.035917,-17.000000,-16.000000,27.000000,24.000000,-6.000000,-7.000000,15.000000,15.000000
1299388.043231,-72.000000,-15.000000,45.000000,26.000000,0.000000,-36.000000,-128.000000,-91.000000
1299388.043270,-5.000000,7.000000,-47.000000,46.000000,5.000000,10.000000,2.000000,21.000000
1299388.058386,50.000000,-10.000000,-11.000000,-28.000000,-4.000000,12.000000,33.000000,29.000000
1299388.058438,71.000000,-5.000000,-3.000000,-39.000000,-8.000000,7.000000,2.000000,90.000000
1299388.073147,-81.000000,3.000000,-9.000000,-29.000000,-1.000000,-12.000000,5.000000,54.000000
1299388.073200,127.000000,-2.000000,20.000000,-38.000000,-4.000000,-14.000000,-50.000000,-50.000000
1299388.095367,-16.000000,0.000000,18.000000,-35.000000,4.000000,8.000000,43.000000,27.000000
1299388.095717,-20.000000,2.000000,-39.000000,20.000000,33.000000,2.000000,57.000000,36.000000
1299388.096160,28.000000,4.000000,-33.000000,26.000000,-4.000000,-13.000000,-68.000000,-64.000000
1299388.096199,-78.000000,-13.000000,43.000000,-48.000000,-8.000000,-13.000000,13.000000,30.000000
1299388.111849,-71.000000,-1.000000,-4.000000,26.000000,0.000000,3.000000,13.000000,-17.000000
1299388.111916,69.000000,32.000000,-54.000000,19.000000,7.000000,5.000000,-15.000000,20.000000
1299388.112202,-13.000000,-9.000000,-11.000000,-11.000000,5.000000,8.000000,71.000000,12.000000
1299388.112242,-128.000000,-4.000000,11.000000,-20.000000,-15.000000,-8.000000,-40.000000,12.000000
1299388.114088,24.000000,0.000000,10.000000,16.000000,19.000000,-53.000000,-128.000000,-101.000000
1299388.114518,24.000000,0.000000,-23.000000,-6.000000,-12.000000,15.000000,54.000000,49.000000
1299388.115341,84.000000,-3.000000,-10.000000,-45.000000,-6.000000,31.000000,127.000000,-43.000000
1299388.115396,-86.000000,10.000000,37.000000,46.000000,16.000000,-40.000000,-128.000000,46.000000
1299388.119183,-128.000000,-4.000000,-18.000000,48.000000,4.000000,-20.000000,28.000000,-15.000000
1299388.119241,71.000000,-10.000000,18.000000,-27.000000,2.000000,11.000000,74.000000,-28.000000
1299388.125572,78.000000,0.000000,-29.000000,-12.000000,-5.000000,31.000000,74.000000,127.000000
1299388.125600,-59.000000,26.000000,-58.000000,38.000000,11.000000,-18.000000,-101.000000,-48.000000
1299388.148048,38.000000,-9.000000,22.000000,7.000000,5.000000,5.000000,7.000000,5.000000
1299388.148103,-9.000000,14.000000,22.000000,-65.000000,-14.000000,-7.000000,13.000000,-9.000000
1299388.155617,-128.000000,4.000000,-37.000000,-128.000000,-40.000000,-5.000000,-8.000000,-46.000000
1299388.155667,53.000000,-20.000000,-26.000000,127.000000,78.000000,24.000000,20.000000,-31.000000
1299388.185794,-28.000000,-12.000000,83.000000,-45.000000,-24.000000,-21.000000,-24.000000,35.000000
1299388.185840,113.000000,3.000000,-20.000000,-88.000000,-30.000000,-6.000000,11.000000,-74.000000
1299388.193138,56.000000,3.000000,-21.000000,-26.000000,3.000000,-1.000000,69.000000,21.000000
1299388.193163,8.000000,-12.000000,54.000000,16.000000,-12.000000,-6.000000,-96.000000,-93.000000
1299388.208166,-128.000000,9.000000,16.000000,-128.000000,-11.000000,-11.000000,-17.000000,-102.000000
1299388.208216,73.000000,16.000000,-51.000000,-1.000000,-5.000000,0.000000,-2.000000,1.000000
1299388.230696,127.000000,-15.000000,9.000000,14.000000,12.000000,15.000000,108.000000,121.000000
1299388.230721,-128.000000,-19.000000,35.000000,-30.000000,-20.000000,-44.000000,-88.000000,-43.000000
1299388.232676,101.000000,12.000000,-21.000000,-5.000000,2.000000,15.000000,24.000000,-14.000000
1299388.232714,30.000000,0.000000,-56.000000,-7.000000,-1.000000,22.000000,78.000000,49.000000
1299388.233782,-11.000000,-13.000000,56.000000,-10.000000,-6.000000,-6.000000,33.000000,13.000000
1299388.234201,39.000000,2.000000,4.000000,1.000000,-7.000000,-9.000000,-97.000000,-16.000000
1299388.234754,13.000000,4.000000,-27.000000,19.000000,-9.000000,11.000000,-14.000000,23.000000
1299388.234774,-39.000000,-8.000000,27.000000,-63.000000,-6.000000,6.000000,28.000000,-78.000000
1299388.234953,-10.000000,-4.000000,33.000000,71.000000,35.000000,-3.000000,5.000000,45.000000
1299388.234967,7.000000,27.000000,-59.000000,-22.000000,-18.000000,3.000000,7.000000,30.000000
1299388.238578,103.000000,-12.000000,24.000000,29.000000,-7.000000,-3.000000,-15.000000,-40.000000
1299388.238625,-128.000000,-32.000000,28.000000,-128.000000,-53.000000,-38.000000,-36.000000,-92.000000
1299388.245531,114.000000,6.000000,-82.000000,-13.000000,54.000000,43.000000,15.000000,21.000000
1299388.245581,-4.000000,-18.000000,27.000000,-105.000000,-5.000000,-10.000000,-5.000000,32.000000
1299388.275560,3.000000,-19.000000,94.000000,-32.000000,-20.000000,-29.000000,9.000000,-9.000000
1299388.275607,59.000000,30.000000,-73.000000,-1.000000,-12.000000,13.000000,43.000000,-17.000000
1299388.282990,127.000000,1.000000,-66.000000,50.000000,-4.000000,18.000000,48.000000,127.000000
1299388.283022,-49.000000,-33.000000,118.000000,-49.000000,-25.000000,-74.000000,-73.000000,-97.000000
1299388.313058,-49.000000,13.000000,-7.000000,3.000000,1.000000,5.000000,-6.000000,-1.000000
1299388.313085,93.000000,8.000000,-92.000000,18.000000,-2.000000,30.000000,47.000000,37.000000
1299388.320724,-85.000000,-23.000000,34.000000,-7.000000,-1.000000,6.000000,-14.000000,-15.000000
1299388.320750,79.000000,-14.000000,27.000000,-16.000000,-6.000000,-19.000000,-32.000000,-20.000000
1299388.351977,50.000000,8.000000,-68.000000,10.000000,5.000000,34.000000,12.000000,21.000000
1299388.352338,10.000000,0.000000,-4.000000,-30.000000,8.000000,2.000000,24.000000,12.000000
1299388.352740,-128.000000,-7.000000,84.000000,-7.000000,-10.000000,-22.000000,-31.000000,-52.000000
1299388.352790,5.000000,3.000000,-32.000000,-51.000000,-14.000000,4.000000,7.000000,9.000000
1299388.354702,127.000000,2.000000,-52.000000,127.000000,-19.000000,-2.000000,21.000000,42.000000
1299388.354815,-21.000000,-13.000000,-25.000000,121.000000,100.000000,22.000000,54.000000,-50.000000
1299388.355008,-86.000000,-3.000000,12.000000,-57.000000,12.000000,0.000000,-41.000000,71.000000
1299388.355056,-128.000000,4.000000,7.000000,-25.000000,-21.000000,-24.000000,-91.000000,-47.000000
1299388.359114,4.000000,1.000000,53.000000,13.000000,4.000000,-4.000000,31.000000,15.000000
1299388.359165,32.000000,4.000000,-36.000000,23.000000,-5.000000,12.000000,11.000000,4.000000
1299388.373304,-41.000000,-16.000000,-31.000000,-40.000000,1.000000,4.000000,47.000000,-8.000000
1299388.373348,110.000000,2.000000,50.000000,-11.000000,-10.000000,-25.000000,-78.000000,-15.000000
1299388.395796,-20.000000,10.000000,23.000000,28.000000,-3.000000,-9.000000,-5.000000,-4.000000
1299388.395838,49.000000,12.000000,-74.000000,-128.000000,-14.000000,28.000000,61.000000,-31.000000
1299388.402926,127.000000,1.000000,-79.000000,65.000000,26.000000,9.000000,26.000000,127.000000
1299388.402978,-128.000000,-9.000000,74.000000,-21.000000,5.000000,-37.000000,-32.000000,-128.000000
1299388.425775,-7.000000,8.000000,-26.000000,-32.000000,-22.000000,-14.000000,24.000000,13.000000
1299388.425827,69.000000,12.000000,-74.000000,-32.000000,-5.000000,33.000000,110.000000,-18.000000
1299388.433473,34.000000,5.000000,39.000000,-85.000000,-26.000000,1.000000,-48.000000,20.000000
1299388.433498,-56.000000,5.000000,-38.000000,127.000000,81.000000,-21.000000,-78.000000,-30.000000
1299388.434839,43.000000,14.000000,-38.000000,-43.000000,-8.000000,21.000000,23.000000,17.000000
1299388.434910,-8.000000,10.000000,17.000000,-35.000000,-5.000000,-11.000000,17.000000,-17.000000
1299388.435491,-28.000000,-5.000000,15.000000,18.000000,-5.000000,-6.000000,6.000000,18.000000
1299388.435670,-17.000000,-5.000000,-57.000000,11.000000,5.000000,14.000000,11.000000,2.000000
1299388.440655,26.000000,-8.000000,65.000000,-2.000000,-5.000000,-24.000000,-39.000000,-22.000000
1299388.440721,-29.000000,-3.000000,-5.000000,14.000000,2.000000,2.000000,-1.000000,-17.000000
1299388.464913,62.000000,6.000000,-66.000000,7.000000,7.000000,26.000000,42.000000,10.000000
1299388.465416,7.000000,-7.000000,30.000000,13.000000,1.000000,-9.000000,-14.000000,-74.000000
1299388.467042,-2.000000,-15.000000,56.000000,-92.000000,-9.000000,-44.000000,-80.000000,91.000000
1299388.467090,127.000000,8.000000,-119.000000,-9.000000,11.000000,50.000000,127.000000,11.000000
1299388.471398,-128.000000,-7.000000,83.000000,-12.000000,-1.000000,-57.000000,-128.000000,-30.000000
1299388.471435,68.000000,-4.000000,24.000000,-75.000000,-14.000000,5.000000,54.000000,31.000000
1299388.479599,20.000000,3.000000,-24.000000,35.000000,-6.000000,10.000000,0.000000,-17.000000
1299388.479657,67.000000,1.000000,-66.000000,-128.000000,-14.000000,34.000000,83.000000,21.000000
1299388.508595,4.000000,-18.000000,43.000000,127.000000,24.000000,-25.000000,-90.000000,-3.000000
1299388.508625,74.000000,7.000000,15.000000,-44.000000,-2.000000,-20.000000,-22.000000,-7.000000
1299388.545747,-72.000000,8.000000,-42.000000,-43.000000,-18.000000,4.000000,-20.000000,-22.000000
1299388.545773,-116.000000,1.000000,-11.000000,-7.000000,17.000000,-3.000000,15.000000,33.000000
1299388.553194,52.000000,2.000000,30.000000,-11.000000,-18.000000,4.000000,8.000000,93.000000
1299388.553221,57.000000,11.000000,18.000000,-32.000000,5.000000,-39.000000,-120.000000,-100.000000
1299388.575926,33.000000,6.000000,11.000000,19.000000,6.000000,4.000000,17.000000,37.000000
1299388.576226,78.000000,-3.000000,-10.000000,-11.000000,-13.000000,34.000000,127.000000,81.000000
1299388.576596,-128.000000,-6.000000,39.000000,55.000000,18.000000,-55.000000,-128.000000,-22.000000
1299388.576644,127.000000,6.000000,-26.000000,-37.000000,-10.000000,14.000000,81.000000,69.000000
1299388.583182,-128.000000,-2.000000,54.000000,-34.000000,-15.000000,-24.000000,-1.000000,-66.000000
1299388.583437,95.000000,4.000000,-35.000000,6.000000,4.000000,26.000000,53.000000,74.000000
1299388.584379,-21.000000,0.000000,35.000000,-13.000000,-7.000000,-5.000000,86.000000,15.000000
1299388.584421,127.000000,-1.000000,-79.000000,44.000000,-2.000000,20.000000,72.000000,22.000000
1299388.584710,-128.000000,0.000000,-14.000000,3.000000,0.000000,7.000000,-31.000000,-8.000000
1299388.584759,127.000000,-5.000000,53.000000,41.000000,-12.000000,-17.000000,-43.000000,3.000000
1299388.590876,-29.000000,-11.000000,41.000000,-59.000000,-21.000000,-23.000000,12.000000,-21.000000
1299388.590922,-128.000000,-3.000000,48.000000,-9.000000,-2.000000,-22.000000,-21.000000,-14.000000
1299388.598913,11.000000,8.000000,-77.000000,22.000000,-1.000000,20.000000,67.000000,38.000000
1299388.598937,26.000000,0.000000,-7.000000,-6.000000,6.000000,-6.000000,-112.000000,26.000000
1299388.628203,14.000000,-3.000000,37.000000,5.000000,-3.000000,-2.000000,41.000000,42.000000
1299388.628257,-119.000000,-7.000000,-29.000000,-14.000000,6.000000,-7.000000,-30.000000,-128.000000
1299388.650600,5.000000,-3.000000,27.000000,0.000000,-5.000000,6.000000,-32.000000,-18.000000
1299388.650656,34.000000,-11.000000,23.000000,2.000000,-9.000000,-6.000000,19.000000,29.000000
1299388.666344,5.000000,11.000000,-2.000000,9.000000,4.000000,-19.000000,-42.000000,-30.000000
1299388.666527,21.000000,9.000000,-34.000000,-1.000000,-6.000000,11.000000,13.000000,14.000000
1299388.667746,89.000000,-3.000000,28.000000,16.000000,-7.000000,-1.000000,2.000000,-9.000000
1299388.667792,-124.000000,-12.000000,47.000000,127.000000,41.000000,4.000000,0.000000,34.000000
1299388.668829,25.000000,5.000000,-77.000000,-128.000000,-4.000000,19.000000,-128.000000,-16.000000
1299388.668878,0.000000,-4.000000,-4.000000,-9.000000,-7.000000,-20.000000,-37.000000,12.000000
1299388.669673,24.000000,-4.000000,66.000000,-6.000000,-29.000000,-9.000000,26.000000,-31.000000
1299388.669699,-97.000000,-1.000000,-23.000000,36.000000,19.000000,-9.000000,5.000000,-39.000000
1299388.680375,-12.000000,3.000000,-24.000000,-10.000000,7.000000,13.000000,20.000000,-30.000000
1299388.680428,77.000000,10.000000,-45.000000,-24.000000,-2.000000,9.000000,5.000000,-20.000000
1299388.704104,-11.000000,-8.000000,41.000000,-40.000000,2.000000,0.000000,-16.000000,2.000000
1299388.704155,27.000000,-4.000000,-8.000000,9.000000,0.000000,9.000000,29.000000,58.000000
1299388.705383,-22.000000,8.000000,-40.000000,3.000000,-4.000000,-11.000000,17.000000,-21.000000
1299388.705414,58.000000,-6.000000,7.000000,-6.000000,3.000000,-17.000000,-112.000000,-42.000000
1299388.711104,29.000000,3.000000,32.000000,14.000000,8.000000,18.000000,21.000000,69.000000
1299388.711133,-32.000000,4.000000,-37.000000,-46.000000,-4.000000,7.000000,86.000000,56.000000
1299388.719380,-122.000000,-5.000000,12.000000,40.000000,6.000000,-9.000000,-128.000000,24.000000
1299388.719429,13.000000,-11.000000,44.000000,-35.000000,0.000000,-10.000000,6.000000,-13.000000
1299388.725932,16.000000,-2.000000,-28.000000,33.000000,-10.000000,3.000000,30.000000,15.000000
1299388.725961,48.000000,8.000000,-45.000000,-37.000000,-4.000000,4.000000,7.000000,-29.000000
1299388.747590,-64.000000,2.000000,45.000000,-22.000000,-14.000000,-12.000000,-14.000000,-21.000000
1299388.747616,81.000000,-5.000000,13.000000,6.000000,2.000000,5.000000,3.000000,14.000000
1299388.755339,-128.000000,7.000000,-87.000000,30.000000,-2.000000,14.000000,85.000000,36.000000
1299388.755383,38.000000,0.000000,30.000000,-8.000000,-12.000000,-26.000000,-128.000000,-57.000000
1299388.792760,-66.000000,3.000000,71.000000,0.000000,-9.000000,-22.000000,-1.000000,-7.000000
1299388.792786,1.000000,8.000000,-50.000000,-21.000000,-1.000000,14.000000,17.000000,-3.000000
1299388.815163,55.000000,-8.000000,-19.000000,28.000000,-7.000000,11.000000,16.000000,46.000000
1299388.815188,-9.000000,-4.000000,-24.000000,-44.000000,-7.000000,2.000000,90.000000,127.000000
1299388.823537,-38.000000,8.000000,45.000000,52.000000,-4.000000,-19.000000,-81.000000,-57.000000
1299388.823807,108.000000,7.000000,-83.000000,-11.000000,9.000000,36.000000,61.000000,-77.000000
1299388.824296,-24.000000,-11.000000,80.000000,-63.000000,-21.000000,-30.000000,-7.000000,49.000000
1299388.824314,20.000000,-5.000000,51.000000,22.000000,2.000000,-25.000000,-18.000000,-10.000000
1299388.825038,16.000000,6.000000,-94.000000,10.000000,-2.000000,25.000000,63.000000,33.000000
1299388.825064,60.000000,1.000000,-10.000000,1.000000,1.000000,13.000000,50.000000,24.000000
1299388.825869,-80.000000,-8.000000,15.000000,-19.000000,14.000000,7.000000,7.000000,36.000000
1299388.825886,-40.000000,8.000000,3.000000,-62.000000,-3.000000,-22.000000,-13.000000,-51.000000
1299388.830529,7.000000,8.000000,-25.000000,106.000000,-3.000000,-2.000000,16.000000,35.000000
1299388.830564,-8.000000,1.000000,-52.000000,119.000000,50.000000,9.000000,-49.000000,20.000000
1299388.838249,33.000000,-7.000000,103.000000,-76.000000,-11.000000,-29.000000,-59.000000,-46.000000
1299388.838283,2.000000,-2.000000,-10.000000,-5.000000,-7.000000,5.000000,39.000000,5.000000
1299388.860129,110.000000,6.000000,-105.000000,2.000000,-2.000000,48.000000,117.000000,127.000000
1299388.860164,-40.000000,-5.000000,8.000000,44.000000,1.000000,-46.000000,-94.000000,-41.000000
1299388.875228,-89.000000,4.000000,17.000000,-25.000000,6.000000,17.000000,28.000000,-25.000000
1299388.875246,55.000000,10.000000,-66.000000,13.000000,-5.000000,23.000000,48.000000,51.000000
1299388.890049,-2.000000,-10.000000,-15.000000,-17.000000,-1.000000,-9.000000,-39.000000,-25.000000
1299388.890080,9.000000,-13.000000,34.000000,7.000000,1.000000,-1.000000,70.000000,54.000000
1299388.912546,-34.000000,2.000000,10.000000,-35.000000,-3.000000,-24.000000,-104.000000,-109.000000
1299388.912583,71.000000,17.000000,-44.000000,50.000000,9.000000,14.000000,34.000000,31.000000
1299388.927633,-17.000000,-14.000000,44.000000,-21.000000,-9.000000,13.000000,21.000000,-60.000000
1299388.927666,9.000000,6.000000,24.000000,124.000000,-4.000000,1.000000,55.000000,90.000000
1299388.949795,-128.000000,6.000000,-29.000000,-45.000000,8.000000,-13.000000,-89.000000,-40.000000
1299388.949811,56.000000,0.000000,0.000000,-4.000000,-16.000000,-1.000000,33.000000,27.000000
1299388.957574,59.000000,-8.000000,0.000000,0.000000,1.000000,9.000000,29.000000,-71.000000
1299388.957617,-72.000000,8.000000,-19.000000,-128.000000,-26.000000,4.000000,59.000000,127.000000
1299388.980705,-75.000000,-1.000000,43.000000,127.000000,62.000000,-52.000000,-99.000000,-82.000000
1299388.980927,51.000000,6.000000,30.000000,-57.000000,-15.000000,17.000000,127.000000,30.000000
1299388.981405,55.000000,2.000000,-20.000000,27.000000,7.000000,6.000000,-66.000000,14.000000
1299388.981424,15.000000,5.000000,-34.000000,-30.000000,-6.000000,-4.000000,-32.000000,53.000000
1299388.982094,18.000000,-6.000000,39.000000,11.000000,18.000000,4.000000,47.000000,2.000000
1299388.982139,-29.000000,10.000000,-37.000000,-93.000000,-6.000000,7.000000,41.000000,-66.000000
1299388.983324,-60.000000,-1.000000,11.000000,51.000000,9.000000,-5.000000,32.000000,10.000000
1299388.983341,-6.000000,-5.000000,85.000000,-47.000000,-25.000000,-26.000000,-63.000000,-6.000000
1299388.984130,-28.000000,0.000000,-42.000000,-7.000000,-4.000000,12.000000,37.000000,4.000000
1299388.984150,48.000000,-9.000000,-52.000000,-20.000000,-5.000000,6.000000,-2.000000,32.000000
1299388.987625,-16.000000,-5.000000,43.000000,3.000000,5.000000,-3.000000,0.000000,-15.000000
1299388.987665,-7.000000,1.000000,-14.000000,3.000000,-2.000000,1.000000,20.000000,-12.000000
1299389.002859,7.000000,9.000000,-37.000000,-14.000000,6.000000,5.000000,-83.000000,-88.000000
1299389.002885,5.000000,-4.000000,66.000000,-128.000000,-19.000000,-18.000000,-32.000000,1.000000
1299389.017495,-23.000000,-7.000000,41.000000,82.000000,21.000000,11.000000,22.000000,-128.000000
1299389.017514,54.000000,1.000000,-29.000000,-25.000000,-16.000000,17.000000,105.000000,112.000000
1299389.025774,-128.000000,6.000000,28.000000,-58.000000,-14.000000,-40.000000,-128.000000,-52.000000
1299389.025809,113.000000,4.000000,58.000000,1.000000,-12.000000,-14.000000,33.000000,70.000000
1299389.032513,-38.000000,5.000000,-40.000000,32.000000,17.000000,10.000000,4.000000,68.000000
1299389.032553,127.000000,4.000000,-67.000000,0.000000,-17.000000,17.000000,19.000000,40.000000
1299389.040020,4.000000,-12.000000,48.000000,-13.000000,2.000000,-6.000000,-15.000000,-27.000000
1299389.040055,58.000000,18.000000,-16.000000,-3.000000,-6.000000,10.000000,4.000000,3.000000
1299389.055030,127.000000,5.000000,-74.000000,-108.000000,-13.000000,5.000000,46.000000,41.000000
1299389.055049,-128.000000,-19.000000,66.000000,94.000000,18.000000,-12.000000,-128.000000,-5.000000
1299389.062377,67.000000,2.000000,52.000000,-52.000000,-4.000000,-11.000000,16.000000,-35.000000
1299389.062409,84.000000,13.000000,-58.000000,-5.000000,8.000000,11.000000,57.000000,12.000000
1299389.070640,-44.000000,1.000000,-26.000000,3.000000,3.000000,15.000000,56.000000,-41.000000
1299389.070689,-91.000000,-22.000000,61.000000,-28.000000,-11.000000,-30.000000,-51.000000,-25.000000
1299389.085568,87.000000,19.000000,-31.000000,11.000000,5.000000,6.000000,-1.000000,12.000000
1299389.085618,-48.000000,-1.000000,-58.000000,14.000000,-5.000000,31.000000,67.000000,26.000000
1299389.100623,33.000000,-5.000000,41.000000,1.000000,-4.000000,5.000000,-98.000000,80.000000
1299389.100680,-128.000000,2.000000,44.000000,2.000000,-6.000000,-24.000000,-66.000000,-128.000000
1299389.115422,104.000000,15.000000,-61.000000,-35.000000,-6.000000,8.000000,63.000000,48.000000
1299389.115471,109.000000,1.000000,19.000000,62.000000,-8.000000,3.000000,-61.000000,-37.000000
1299389.138245,-37.000000,6.000000,8.000000,-17.000000,-7.000000,2.000000,-31.000000,-6.000000
1299389.138304,22.000000,-6.000000,-13.000000,3.000000,-13.000000,15.000000,-15.000000,0.000000
1299389.147493,8.000000,1.000000,-31.000000,-13.000000,1.000000,14.000000,70.000000,67.000000
1299389.147550,33.000000,-9.000000,32.000000,31.000000,-3.000000,-18.000000,-46.000000,-92.000000
1299389.147772,-40.000000,13.000000,-23.000000,-73.000000,-19.000000,20.000000,36.000000,28.000000
1299389.147806,-128.000000,-31.000000,50.000000,35.000000,11.000000,-45.000000,-118.000000,3.000000
1299389.149138,83.000000,5.000000,41.000000,-10.000000,12.000000,-8.000000,10.000000,-126.000000
1299389.149160,51.000000,11.000000,-31.000000,-29.000000,-6.000000,16.000000,111.000000,47.000000
1299389.153135,-18.000000,1.000000,-58.000000,-128.000000,-42.000000,13.000000,71.000000,97.000000
1299389.153166,-128.000000,-25.000000,115.000000,127.000000,64.000000,-41.000000,-128.000000,-98.000000
1299389.183068,-54.000000,6.000000,-3.000000,-55.000000,-28.000000,-2.000000,39.000000,-15.000000
1299389.183350,127.000000,23.000000,-81.000000,-52.000000,-11.000000,27.000000,60.000000,13.000000
1299389.184481,-102.000000,-12.000000,13.000000,32.000000,17.000000,-9.000000,-14.000000,1.000000
1299389.184554,127.000000,-19.000000,85.000000,-22.000000,-9.000000,-9.000000,-52.000000,-4.000000
1299389.185612,112.000000,9.000000,-78.000000,51.000000,3.000000,44.000000,127.000000,75.000000
1299389.185643,4.000000,4.000000,39.000000,-63.000000,-12.000000,-58.000000,-128.000000,-108.000000
1299389.190464,-49.000000,-11.000000,46.000000,31.000000,5.000000,-8.000000,110.000000,40.000000
1299389.190598,-42.000000,-7.000000,-4.000000,-32.000000,-5.000000,14.000000,41.000000,-1.000000
1299389.220527,-11.000000,6.000000,-83.000000,25.000000,7.000000,24.000000,75.000000,84.000000
1299389.220582,61.000000,-10.000000,61.000000,-105.000000,-15.000000,-10.000000,-20.000000,96.000000
1299389.227982,-128.000000,-22.000000,3.000000,30.000000,-1.000000,-26.000000,-84.000000,-128.000000
1299389.228009,127.000000,14.000000,-60.000000,-72.000000,-8.000000,31.000000,46.000000,23.000000
1299389.258097,-128.000000,-8.000000,25.000000,48.000000,10.000000,-41.000000,-128.000000,-128.000000
1299389.258149,-17.000000,6.000000,30.000000,-22.000000,-2.000000,12.000000,113.000000,127.000000
1299389.265424,-41.000000,13.000000,-106.000000,67.000000,8.000000,29.000000,55.000000,-15.000000
1299389.265475,2.000000,-2.000000,-5.000000,-7.000000,-6.000000,7.000000,67.000000,98.000000
1299389.280559,37.000000,-15.000000,43.000000,-18.000000,1.000000,-28.000000,-93.000000,-76.000000
1299389.280609,127.000000,22.000000,-49.000000,-30.000000,-11.000000,33.000000,127.000000,102.000000
1299389.295716,-128.000000,-14.000000,-28.000000,74.000000,13.000000,-41.000000,-128.000000,-128.000000
1299389.295762,40.000000,-21.000000,121.000000,-4.000000,-27.000000,-12.000000,39.000000,0.000000
1299389.310397,65.000000,-13.000000,-37.000000,20.000000,13.000000,9.000000,38.000000,-56.000000
1299389.310443,2.000000,10.000000,-8.000000,38.000000,-25.000000,2.000000,-23.000000,-21.000000
1299389.333047,66.000000,-8.000000,29.000000,24.000000,19.000000,-15.000000,-128.000000,-66.000000
1299389.333098,11.000000,10.000000,-12.000000,-45.000000,3.000000,20.000000,127.000000,62.000000
1299389.340563,-73.000000,10.000000,1.000000,-38.000000,-23.000000,-41.000000,-128.000000,-128.000000
1299389.340707,43.000000,7.000000,-42.000000,80.000000,-2.000000,9.000000,87.000000,60.000000
1299389.347991,-107.000000,-4.000000,39.000000,-66.000000,-22.000000,-8.000000,39.000000,1.000000
1299389.348043,77.000000,3.000000,-5.000000,50.000000,12.000000,-15.000000,-11.000000,-9.000000
1299389.370697,-128.000000,-14.000000,31.000000,-51.000000,-9.000000,-55.000000,-128.000000,-128.000000
1299389.370748,-3.000000,-9.000000,81.000000,-22.000000,-12.000000,-43.000000,-54.000000,-57.000000
1299389.386824,-128.000000,-10.000000,-42.000000,-2.000000,25.000000,-6.000000,-62.000000,-41.000000
1299389.387326,38.000000,4.000000,-33.000000,-40.000000,-12.000000,11.000000,-4.000000,30.000000
1299389.387670,-128.000000,-16.000000,-67.000000,-3.000000,34.000000,37.000000,110.000000,20.000000
1299389.387719,127.000000,4.000000,78.000000,10.000000,-17.000000,-40.000000,-116.000000,42.000000
1299389.388652,-32.000000,2.000000,32.000000,-16.000000,-26.000000,-17.000000,54.000000,-48.000000
1299389.389035,39.000000,22.000000,-93.000000,-33.000000,-5.000000,29.000000,127.000000,21.000000
1299389.389591,-128.000000,-6.000000,-28.000000,-82.000000,-11.000000,-2.000000,-2.000000,-74.000000
1299389.389613,-113.000000,-18.000000,65.000000,76.000000,17.000000,-32.000000,5.000000,-35.000000
1299389.392869,-35.000000,-13.000000,110.000000,8.000000,4.000000,-16.000000,100.000000,61.000000
1299389.392895,-73.000000,-11.000000,-60.000000,-17.000000,9.000000,20.000000,13.000000,-5.000000
1299389.408107,69.000000,4.000000,-39.000000,32.000000,-4.000000,18.000000,40.000000,93.000000
1299389.408144,1.000000,-4.000000,16.000000,-45.000000,7.000000,8.000000,45.000000,51.000000
1299389.409047,-91.000000,-10.000000,51.000000,-6.000000,-4.000000,-50.000000,-128.000000,-128.000000
1299389.409096,-51.000000,24.000000,-65.000000,-93.000000,-10.000000,12.000000,20.000000,3.000000
1299389.423182,-24.000000,-18.000000,-25.000000,81.000000,34.000000,42.000000,123.000000,118.000000
1299389.423216,127.000000,-5.000000,58.000000,106.000000,0.000000,-76.000000,-128.000000,-70.000000
1299389.445597,-128.000000,-13.000000,-35.000000,-99.000000,-13.000000,-1.000000,7.000000,-47.000000
1299389.445621,127.000000,9.000000,-35.000000,-38.000000,-7.000000,23.000000,-5.000000,-38.000000
1299389.460520,62.000000,-9.000000,28.000000,-76.000000,-9.000000,6.000000,29.000000,15.000000
1299389.460570,-91.000000,-6.000000,27.000000,-3.000000,16.000000,2.000000,-23.000000,-128.000000
1299389.468506,87.000000,13.000000,-50.000000,36.000000,0.000000,1.000000,-128.000000,9.000000
1299389.468629,-51.000000,-6.000000,88.000000,38.000000,7.000000,-16.000000,63.000000,33.000000
1299389.498376,-87.000000,6.000000,3.000000,-18.000000,-2.000000,32.000000,111.000000,27.000000
1299389.498511,126.000000,21.000000,-114.000000,-8.000000,-1.000000,50.000000,127.000000,60.000000
1299389.513559,-128.000000,-28.000000,90.000000,-47.000000,-15.000000,-81.000000,-128.000000,-128.000000
1299389.513605,117.000000,-5.000000,64.000000,17.000000,8.000000,10.000000,2.000000,32.000000
1299389.515467,-83.000000,-21.000000,74.000000,127.000000,66.000000,-18.000000,-128.000000,-128.000000
1299389.515504,-22.000000,-4.000000,22.000000,-48.000000,-10.000000,0.000000,28.000000,42.000000
1299389.515763,39.000000,13.000000,-54.000000,-5.000000,2.000000,9.000000,32.000000,37.000000
1299389.515820,43.000000,15.000000,-81.000000,-71.000000,-32.000000,29.000000,127.000000,19.000000
1299389.516779,-10.000000,9.000000,-43.000000,-28.000000,-9.000000,0.000000,64.000000,69.000000
1299389.516912,-48.000000,-3.000000,-39.000000,1.000000,-1.000000,35.000000,127.000000,100.000000
1299389.520454,11.000000,9.000000,-24.000000,-19.000000,-9.000000,37.000000,86.000000,-27.000000
1299389.520477,118.000000,1.000000,28.000000,-33.000000,-11.000000,10.000000,60.000000,-33.000000
1299389.535397,-128.000000,5.000000,-28.000000,-48.000000,-4.000000,-3.000000,85.000000,51.000000
1299389.535447,44.000000,-21.000000,96.000000,16.000000,2.000000,-84.000000,-48.000000,-66.000000
1299389.550654,-28.000000,2.000000,30.000000,19.000000,-13.000000,3.000000,99.000000,14.000000
1299389.550712,45.000000,11.000000,-84.000000,-9.000000,2.000000,44.000000,127.000000,27.000000
1299389.557973,106.000000,4.000000,-30.000000,-49.000000,-15.000000,-9.000000,-57.000000,7.000000
1299389.557999,-128.000000,-35.000000,35.000000,15.000000,12.000000,-26.000000,-120.000000,-67.000000
1299389.580755,-18.000000,12.000000,14.000000,7.000000,-8.000000,-3.000000,-28.000000,-18.000000
1299389.580784,69.000000,14.000000,-67.000000,-49.000000,-5.000000,10.000000,-1.000000,22.000000
1299389.588335,27.000000,-6.000000,-5.000000,23.000000,-1.000000,-2.000000,13.000000,16.000000
1299389.588488,-46.000000,-5.000000,50.000000,60.000000,2.000000,-8.000000,-18.000000,42.000000
1299389.610757,22.000000,8.000000,-16.000000,-110.000000,-21.000000,8.000000,-19.000000,2.000000
1299389.610786,65.000000,5.000000,-73.000000,-57.000000,-18.000000,27.000000,91.000000,87.000000
1299389.617864,-2.000000,-7.000000,85.000000,-45.000000,-3.000000,-43.000000,19.000000,-128.000000
1299389.617916,-4.000000,6.000000,98.000000,-17.000000,-22.000000,-60.000000,-44.000000,-31.000000
1299389.649027,41.000000,20.000000,-62.000000,-16.000000,-6.000000,36.000000,114.000000,15.000000
1299389.649068,51.000000,5.000000,9.000000,14.000000,-1.000000,8.000000,49.000000,47.000000
1299389.649826,127.000000,-4.000000,-25.000000,-38.000000,5.000000,35.000000,122.000000,15.000000
1299389.649883,-36.000000,-23.000000,50.000000,107.000000,7.000000,-27.000000,-96.000000,-12.000000
1299389.651425,16.000000,18.000000,0.000000,-32.000000,-5.000000,8.000000,4.000000,41.000000
1299389.651480,-12.000000,3.000000,-3.000000,-22.000000,-6.000000,21.000000,73.000000,5.000000
1299389.651750,5.000000,13.000000,-43.000000,-9.000000,0.000000,-4.000000,-57.000000,-111.000000
1299389.651805,16.000000,-10.000000,28.000000,-68.000000,-6.000000,-2.000000,47.000000,51.000000
1299389.653067,17.000000,7.000000,-71.000000,2.000000,-1.000000,35.000000,90.000000,48.000000
1299389.653174,-65.000000,-13.000000,51.000000,-56.000000,-7.000000,-68.000000,-128.000000,-128.000000
1299389.663762,-128.000000,-21.000000,42.000000,-12.000000,-13.000000,-24.000000,6.000000,-67.000000
1299389.663792,112.000000,26.000000,-55.000000,26.000000,-2.000000,18.000000,-4.000000,4.000000
1299389.671108,-61.000000,-10.000000,46.000000,-7.000000,-13.000000,5.000000,19.000000,-11.000000
1299389.671171,-128.000000,11.000000,26.000000,-17.000000,-9.000000,-25.000000,1.000000,12.000000
1299389.685888,124.000000,-3.000000,-60.000000,0.000000,-3.000000,27.000000,69.000000,57.000000
1299389.685919,95.000000,-9.000000,43.000000,-7.000000,-10.000000,-19.000000,-128.000000,-22.000000
1299389.693200,-53.000000,7.000000,-30.000000,9.000000,12.000000,21.000000,127.000000,127.000000
1299389.693254,11.000000,7.000000,-58.000000,10.000000,2.000000,-24.000000,-17.000000,-128.000000
1299389.708456,-60.000000,-3.000000,-14.000000,0.000000,-2.000000,16.000000,70.000000,56.000000
1299389.708489,-24.000000,-2.000000,8.000000,-10.000000,-6.000000,-3.000000,68.000000,38.000000
1299389.723724,-6.000000,-6.000000,-4.000000,54.000000,1.000000,11.000000,-21.000000,21.000000
1299389.723757,-78.000000,-7.000000,-27.000000,-26.000000,-5.000000,-4.000000,-28.000000,-108.000000
1299389.740004,127.000000,38.000000,-101.000000,25.000000,11.000000,50.000000,127.000000,123.000000
1299389.740035,-128.000000,-18.000000,16.000000,-3.000000,-32.000000,-26.000000,-84.000000,-64.000000
1299389.740438,63.000000,-11.000000,71.000000,49.000000,11.000000,0.000000,23.000000,34.000000
1299389.741018,51.000000,-4.000000,35.000000,-81.000000,-1.000000,-15.000000,-84.000000,34.000000
1299389.742303,113.000000,-10.000000,80.000000,93.000000,69.000000,8.000000,11.000000,45.000000
1299389.742355,78.000000,13.000000,-31.000000,-3.000000,-8.000000,11.000000,52.000000,58.000000
1299389.760808,61.000000,21.000000,-103.000000,-51.000000,-21.000000,41.000000,127.000000,74.000000
1299389.761036,-58.000000,-13.000000,61.000000,14.000000,17.000000,-72.000000,-128.000000,-128.000000
1299389.776532,-117.000000,4.000000,12.000000,-65.000000,-14.000000,-12.000000,-49.000000,-17.000000
1299389.776577,111.000000,16.000000,-92.000000,21.000000,5.000000,41.000000,53.000000,95.000000
1299389.777593,-33.000000,-22.000000,14.000000,-41.000000,-3.000000,7.000000,-1.000000,-38.000000
1299389.777616,-81.000000,-3.000000,10.000000,24.000000,-4.000000,-7.000000,-23.000000,16.000000
1299389.782961,47.000000,-3.000000,-63.000000,-7.000000,-4.000000,-6.000000,-41.000000,-58.000000
1299389.783064,58.000000,0.000000,-36.000000,14.000000,0.000000,34.000000,72.000000,69.000000
1299389.790262,-27.000000,4.000000,60.000000,-11.000000,-16.000000,-37.000000,-128.000000,-54.000000
1299389.790307,52.000000,11.000000,-22.000000,-74.000000,-5.000000,8.000000,24.000000,-32.000000
1299389.813233,64.000000,-5.000000,5.000000,75.000000,5.000000,0.000000,-86.000000,23.000000
1299389.813261,-90.000000,-5.000000,27.000000,-41.000000,-18.000000,12.000000,124.000000,12.000000
1299389.820774,4.000000,5.000000,-11.000000,-32.000000,-9.000000,-17.000000,-106.000000,1.000000
1299389.820823,1.000000,-8.000000,-40.000000,40.000000,0.000000,8.000000,-34.000000,-17.000000
1299389.850713,18.000000,-30.000000,73.000000,-94.000000,3.000000,-24.000000,-18.000000,-74.000000
1299389.850860,36.000000,-9.000000,-1.000000,93.000000,9.000000,63.000000,127.000000,103.000000
1299389.858010,-6.000000,9.000000,14.000000,19.000000,-30.000000,-27.000000,-128.000000,61.000000
1299389.858289,86.000000,-9.000000,0.000000,127.000000,85.000000,11.000000,-56.000000,62.000000
1299389.860416,56.000000,-13.000000,65.000000,-39.000000,3.000000,-15.000000,-21.000000,114.000000
1299389.860441,-9.000000,2.000000,-1.000000,31.000000,22.000000,11.000000,103.000000,80.000000
1299389.860768,-16.000000,5.000000,-5.000000,-48.000000,-15.000000,-4.000000,99.000000,-31.000000
1299389.860813,127.000000,21.000000,-47.000000,-42.000000,-10.000000,8.000000,-128.000000,-128.000000
1299389.865605,45.000000,76.000000,-23.000000,-16.000000,-12.000000,-15.000000,-77.000000,-46.000000
1299389.865633,-43.000000,-8.000000,-39.000000,-7.000000,-4.000000,7.000000,6.000000,-11.000000
1299389.888720,-27.000000,-12.000000,27.000000,14.000000,10.000000,5.000000,3.000000,-18.000000
1299389.888945,-21.000000,-10.000000,32.000000,-26.000000,2.000000,-17.000000,-24.000000,-40.000000
1299389.889731,79.000000,12.000000,-110.000000,22.000000,-2.000000,43.000000,127.000000,127.000000
1299389.889773,35.000000,-12.000000,4.000000,56.000000,-3.000000,-47.000000,-128.000000,-128.000000
1299389.895419,41.000000,-3.000000,59.000000,-38.000000,-11.000000,3.000000,80.000000,97.000000
1299389.895461,-128.000000,-11.000000,-70.000000,-20.000000,-6.000000,-1.000000,-82.000000,-92.000000
1299389.903060,122.000000,12.000000,-23.000000,-2.000000,-1.000000,29.000000,127.000000,127.000000
1299389.903110,-69.000000,-1.000000,71.000000,-4.000000,5.000000,-20.000000,-125.000000,-128.000000
1299389.910549,52.000000,-2.000000,7.000000,10.000000,-14.000000,-9.000000,107.000000,28.000000
1299389.910599,67.000000,25.000000,-120.000000,91.000000,13.000000,43.000000,127.000000,68.000000
1299389.933208,-36.000000,-1.000000,45.000000,-36.000000,4.000000,-14.000000,-12.000000,-92.000000
1299389.933234,80.000000,-2.000000,84.000000,106.000000,-21.000000,-47.000000,-104.000000,73.000000
1299389.940740,-36.000000,12.000000,-87.000000,-18.000000,7.000000,19.000000,3.000000,25.000000
1299389.940874,81.000000,-2.000000,-5.000000,-15.000000,-14.000000,14.000000,71.000000,29.000000
1299389.971206,35.000000,-13.000000,31.000000,-6.000000,-3.000000,-3.000000,24.000000,-5.000000
1299389.971525,-37.000000,0.000000,-36.000000,13.000000,-4.000000,-3.000000,-16.000000,-19.000000
1299389.972269,-67.000000,-7.000000,0.000000,23.000000,9.000000,17.000000,-13.000000,-39.000000
1299389.972619,-13.000000,-14.000000,50.000000,-25.000000,-10.000000,-8.000000,-18.000000,3.000000
1299389.973798,127.000000,21.000000,-46.000000,-10.000000,-9.000000,17.000000,113.000000,2.000000
1299389.973835,-128.000000,4.000000,33.000000,-7.000000,-3.000000,-39.000000,-128.000000,-121.000000
1299389.974220,127.000000,12.000000,72.000000,37.000000,16.000000,-12.000000,-24.000000,-13.000000
1299389.974465,51.000000,1.000000,-38.000000,0.000000,0.000000,33.000000,127.000000,28.000000
1299389.985594,127.000000,26.000000,-63.000000,31.000000,5.000000,29.000000,127.000000,127.000000
1299389.985619,-128.000000,-31.000000,103.000000,-43.000000,-11.000000,-99.000000,-128.000000,-87.000000
1299390.015499,20.000000,7.000000,-9.000000,-12.000000,8.000000,29.000000,115.000000,66.000000
1299390.015611,-67.000000,0.000000,-40.000000,50.000000,9.000000,14.000000,51.000000,25.000000
1299390.053180,43.000000,0.000000,-66.000000,52.000000,-8.000000,36.000000,90.000000,24.000000
1299390.053205,-58.000000,-20.000000,53.000000,20.000000,5.000000,-74.000000,-124.000000,-83.000000
1299390.060590,-16.000000,2.000000,29.000000,-107.000000,-4.000000,2.000000,6.000000,-27.000000
1299390.060637,47.000000,-3.000000,-41.000000,26.000000,-1.000000,15.000000,25.000000,12.000000
1299390.075264,-71.000000,-13.000000,47.000000,-26.000000,-7.000000,-3.000000,-46.000000,-2.000000
1299390.075472,-12.000000,-5.000000,38.000000,-71.000000,-20.000000,-5.000000,-14.000000,-46.000000
1299390.075985,-18.000000,-7.000000,-44.000000,127.000000,35.000000,8.000000,-60.000000,25.000000
1299390.076032,-11.000000,-14.000000,-3.000000,-35.000000,-26.000000,-8.000000,-5.000000,-14.000000
1299390.092697,-9.000000,4.000000,30.000000,-17.000000,3.000000,0.000000,97.000000,71.000000
1299390.092745,13.000000,3.000000,3.000000,-11.000000,3.000000,-19.000000,-69.000000,-128.000000
1299390.094590,-52.000000,-6.000000,56.000000,-13.000000,-4.000000,2.000000,31.000000,99.000000
1299390.094941,36.000000,4.000000,-45.000000,-1.000000,-8.000000,18.000000,52.000000,-105.000000
1299390.095407,-51.000000,-2.000000,25.000000,-27.000000,-6.000000,-6.000000,13.000000,5.000000
1299390.095429,-30.000000,10.000000,-24.000000,37.000000,3.000000,2.000000,2.000000,-121.000000
1299390.095727,53.000000,11.000000,-44.000000,-16.000000,-9.000000,12.000000,12.000000,42.000000
1299390.095758,-29.000000,-2.000000,-30.000000,1.000000,-1.000000,11.000000,66.000000,1.000000
1299390.105739,62.000000,-16.000000,33.000000,127.000000,25.000000,-8.000000,-25.000000,72.000000
1299390.105851,-71.000000,-8.000000,10.000000,-62.000000,-41.000000,-12.000000,-14.000000,-49.000000
1299390.128575,-19.000000,6.000000,-26.000000,-37.000000,-9.000000,0.000000,10.000000,-70.000000
1299390.128936,24.000000,1.000000,2.000000,-98.000000,-11.000000,-3.000000,-49.000000,-9.000000
1299390.130234,-29.000000,-16.000000,56.000000,97.000000,16.000000,8.000000,6.000000,28.000000
1299390.130289,-56.000000,2.000000,-18.000000,-46.000000,-15.000000,-1.000000,-47.000000,24.000000
1299390.135896,-60.000000,16.000000,-4.000000,-15.000000,-7.000000,-28.000000,33.000000,-94.000000
1299390.135954,16.000000,-20.000000,0.000000,-16.000000,-10.000000,-7.000000,-6.000000,106.000000
1299390.150800,97.000000,3.000000,3.000000,-29.000000,5.000000,31.000000,100.000000,81.000000
1299390.150879,-85.000000,-25.000000,62.000000,21.000000,4.000000,-64.000000,-128.000000,-128.000000
1299390.165909,55.000000,12.000000,-33.000000,6.000000,0.000000,26.000000,127.000000,49.000000
1299390.165964,-26.000000,-17.000000,22.000000,-20.000000,-2.000000,12.000000,60.000000,-22.000000
1299390.180518,-40.000000,6.000000,-1.000000,-101.000000,-12.000000,-36.000000,-87.000000,12.000000
1299390.180545,64.000000,9.000000,-29.000000,-128.000000,2.000000,-8.000000,-93.000000,1.000000
1299390.188336,-29.000000,-11.000000,41.000000,37.000000,10.000000,-1.000000,-8.000000,-4.000000
1299390.188384,-18.000000,25.000000,8.000000,-53.000000,-31.000000,-5.000000,-16.000000,-19.000000
1299390.202983,89.000000,15.000000,-78.000000,31.000000,-1.000000,24.000000,51.000000,67.000000
1299390.203033,-117.000000,4.000000,-21.000000,127.000000,9.000000,-8.000000,21.000000,-128.000000
1299390.210886,33.000000,-1.000000,19.000000,-48.000000,-18.000000,3.000000,69.000000,-33.000000
1299390.210914,81.000000,12.000000,4.000000,-22.000000,19.000000,-69.000000,-128.000000,-15.000000
1299390.225581,54.000000,15.000000,-58.000000,9.000000,8.000000,32.000000,127.000000,-16.000000
1299390.225607,-128.000000,-44.000000,75.000000,-15.000000,-3.000000,24.000000,48.000000,-86.000000
1299390.233206,32.000000,1.000000,75.000000,92.000000,-17.000000,-50.000000,-128.000000,-19.000000
1299390.233256,9.000000,-7.000000,-69.000000,-5.000000,17.000000,74.000000,127.000000,127.000000
1299390.241371,127.000000,5.000000,-26.000000,-29.000000,-11.000000,-42.000000,-128.000000,-60.000000
1299390.241397,-128.000000,-4.000000,5.000000,-18.000000,-18.000000,-24.000000,-1.000000,28.000000
1299390.243722,100.000000,12.000000,-45.000000,23.000000,1.000000,0.000000,-22.000000,-18.000000
1299390.243770,65.000000,-2.000000,9.000000,-11.000000,-7.000000,11.000000,1.000000,2.000000
1299390.244732,9.000000,6.000000,19.000000,-36.000000,-6.000000,-11.000000,4.000000,-26.000000
1299390.244783,2.000000,10.000000,-58.000000,88.000000,19.000000,23.000000,29.000000,78.000000
1299390.263675,4.000000,-14.000000,-6.000000,87.000000,31.000000,5.000000,-3.000000,13.000000
1299390.263729,-87.000000,-22.000000,79.000000,-14.000000,-9.000000,-27.000000,18.000000,-7.000000
1299390.293221,60.000000,25.000000,-66.000000,-36.000000,-6.000000,21.000000,127.000000,72.000000
1299390.293266,-128.000000,-18.000000,-13.000000,2.000000,-4.000000,-18.000000,-128.000000,-22.000000
1299390.300613,10.000000,-5.000000,78.000000,-15.000000,2.000000,-4.000000,101.000000,69.000000
1299390.300651,97.000000,9.000000,-23.000000,-40.000000,-8.000000,14.000000,76.000000,-35.000000
1299390.332456,56.000000,-12.000000,60.000000,-19.000000,-6.000000,-25.000000,1.000000,38.000000
1299390.332521,57.000000,14.000000,-101.000000,-30.000000,-9.000000,17.000000,-6.000000,-39.000000
1299390.332796,38.000000,-5.000000,16.000000,26.000000,10.000000,-5.000000,16.000000,58.000000
1299390.332828,-128.000000,-16.000000,13.000000,-3.000000,-3.000000,9.000000,-54.000000,-88.000000
1299390.335171,30.000000,1.000000,39.000000,-40.000000,3.000000,-7.000000,16.000000,-15.000000
1299390.335219,32.000000,6.000000,29.000000,6.000000,-5.000000,9.000000,37.000000,-19.000000
1299390.336682,4.000000,4.000000,-32.000000,-32.000000,-5.000000,-4.000000,-10.000000,-24.000000
1299390.336739,34.000000,12.000000,-56.000000,-49.000000,-4.000000,7.000000,3.000000,9.000000
1299390.339186,22.000000,-15.000000,-73.000000,77.000000,50.000000,32.000000,-5.000000,-8.000000
1299390.339241,80.000000,-8.000000,11.000000,-9.000000,-14.000000,9.000000,127.000000,124.000000
1299390.345836,-128.000000,-12.000000,80.000000,-82.000000,-3.000000,-43.000000,-128.000000,-128.000000
1299390.345887,4.000000,-23.000000,-35.000000,86.000000,24.000000,16.000000,-11.000000,-50.000000
1299390.354610,127.000000,23.000000,-97.000000,123.000000,-9.000000,78.000000,127.000000,127.000000
1299390.354638,-128.000000,-40.000000,124.000000,-41.000000,2.000000,-114.000000,-86.000000,-128.000000
1299390.368368,82.000000,43.000000,-49.000000,81.000000,26.000000,23.000000,57.000000,-4.000000
1299390.368414,113.000000,5.000000,-77.000000,-2.000000,-4.000000,38.000000,127.000000,64.000000
1299390.383393,2.000000,-14.000000,-10.000000,-21.000000,-12.000000,-16.000000,-34.000000,-40.000000
1299390.383422,-12.000000,-24.000000,39.000000,-16.000000,1.000000,-9.000000,-38.000000,19.000000
1299390.390915,29.000000,-1.000000,-48.000000,12.000000,-5.000000,8.000000,-6.000000,9.000000
1299390.390963,4.000000,0.000000,6.000000,33.000000,3.000000,8.000000,11.000000,-40.000000
1299390.420740,34.000000,6.000000,50.000000,5.000000,0.000000,-16.000000,55.000000,23.000000
1299390.420799,-54.000000,4.000000,-30.000000,-47.000000,-1.000000,2.000000,-19.000000,-13.000000
1299390.427717,58.000000,8.000000,-35.000000,-15.000000,-7.000000,6.000000,2.000000,5.000000
1299390.427764,3.000000,-19.000000,18.000000,5.000000,-3.000000,14.000000,85.000000,78.000000
1299390.443758,28.000000,-5.000000,-31.000000,12.000000,5.000000,12.000000,127.000000,-20.000000
1299390.443966,-75.000000,-11.000000,38.000000,-14.000000,-24.000000,-58.000000,-24.000000,-7.000000
1299390.444433,-10.000000,11.000000,17.000000,10.000000,26.000000,29.000000,111.000000,-41.000000
1299390.444479,57.000000,11.000000,-8.000000,-35.000000,-16.000000,26.000000,89.000000,-128.000000
1299390.452313,14.000000,-13.000000,47.000000,40.000000,-7.000000,-39.000000,-128.000000,127.000000
1299390.452368,42.000000,-24.000000,50.000000,-17.000000,2.000000,-5.000000,85.000000,82.000000
1299390.452661,112.000000,19.000000,-113.000000,12.000000,12.000000,65.000000,127.000000,127.000000
1299390.452714,-128.000000,17.000000,-89.000000,-31.000000,-17.000000,-59.000000,-128.000000,-128.000000
1299390.459402,79.000000,-11.000000,116.000000,30.000000,3.000000,-17.000000,10.000000,79.000000
1299390.459457,34.000000,7.000000,7.000000,6.000000,-1.000000,15.000000,65.000000,22.000000
1299390.465379,55.000000,21.000000,-76.000000,-5.000000,0.000000,17.000000,15.000000,13.000000
1299390.465433,27.000000,-3.000000,-28.000000,-18.000000,-23.000000,2.000000,-36.000000,-30.000000
1299390.481682,-53.000000,-23.000000,35.000000,58.000000,26.000000,-8.000000,-31.000000,-44.000000
1299390.481731,-47.000000,3.000000,12.000000,-58.000000,-22.000000,-13.000000,-28.000000,-52.000000
1299390.482607,84.000000,16.000000,-97.000000,90.000000,7.000000,54.000000,127.000000,127.000000
1299390.482657,-84.000000,4.000000,62.000000,-52.000000,-7.000000,-69.000000,-128.000000,-128.000000
1299390.525455,-66.000000,-4.000000,88.000000,-48.000000,-15.000000,-26.000000,78.000000,-45.000000
1299390.525504,8.000000,24.000000,-69.000000,1.000000,-6.000000,41.000000,99.000000,57.000000
1299390.532921,29.000000,16.000000,-40.000000,23.000000,-4.000000,14.000000,15.000000,-21.000000
1299390.532946,44.000000,-7.000000,50.000000,-16.000000,-1.000000,-23.000000,-128.000000,-53.000000
1299390.555545,-52.000000,-9.000000,24.000000,2.000000,5.000000,-23.000000,-114.000000,-56.000000
1299390.555594,80.000000,18.000000,-58.000000,17.000000,8.000000,29.000000,29.000000,23.000000
1299390.570594,75.000000,-6.000000,27.000000,-20.000000,0.000000,20.000000,94.000000,63.000000
1299390.570642,6.000000,9.000000,44.000000,-17.000000,-1.000000,-60.000000,-6.000000,127.000000
1299390.593091,-40.000000,-5.000000,-27.000000,1.000000,6.000000,11.000000,108.000000,-17.000000
1299390.593130,31.000000,-20.000000,5.000000,27.000000,25.000000,16.000000,16.000000,25.000000
1299390.608163,-9.000000,0.000000,3.000000,8.000000,0.000000,-3.000000,-2.000000,15.000000
1299390.608214,10.000000,13.000000,-53.000000,-48.000000,6.000000,17.000000,-8.000000,40.000000
1299390.623191,-22.000000,1.000000,-3.000000,-59.000000,-10.000000,-12.000000,-50.000000,-95.000000
1299390.623230,17.000000,-10.000000,35.000000,127.000000,4.000000,-8.000000,4.000000,-18.000000
1299390.653080,57.000000,6.000000,26.000000,60.000000,3.000000,-36.000000,-128.000000,-82.000000
1299390.653105,-109.000000,-16.000000,72.000000,-19.000000,9.000000,1.000000,51.000000,-27.000000
1299390.684134,-4.000000,-26.000000,2.000000,26.000000,1.000000,-13.000000,-77.000000,-67.000000
1299390.684222,46.000000,4.000000,22.000000,12.000000,-7.000000,1.000000,30.000000,9.000000
1299390.685660,-55.000000,-5.000000,32.000000,-38.000000,-9.000000,-5.000000,24.000000,-7.000000
1299390.685982,60.000000,3.000000,-23.000000,10.000000,0.000000,10.000000,38.000000,23.000000
1299390.686530,-36.000000,14.000000,-53.000000,78.000000,-35.000000,1.000000,104.000000,-44.000000
1299390.686550,-74.000000,-44.000000,20.000000,127.000000,86.000000,-10.000000,-128.000000,-44.000000
1299390.686823,-75.000000,24.000000,-69.000000,0.000000,-3.000000,13.000000,36.000000,-77.000000
1299390.686872,54.000000,-3.000000,-5.000000,12.000000,-1.000000,5.000000,13.000000,78.000000
1299390.687949,22.000000,-20.000000,23.000000,-13.000000,-8.000000,-4.000000,36.000000,26.000000
1299390.687999,-34.000000,8.000000,-26.000000,28.000000,9.000000,8.000000,17.000000,-12.000000
1299390.698815,-18.000000,5.000000,20.000000,-16.000000,-7.000000,-10.000000,37.000000,-12.000000
1299390.698847,57.000000,18.000000,-41.000000,59.000000,10.000000,7.000000,-89.000000,28.000000
1299390.728265,-59.000000,-4.000000,9.000000,-128.000000,-30.000000,-12.000000,30.000000,-39.000000
1299390.728312,-67.000000,-11.000000,26.000000,48.000000,14.000000,-14.000000,-67.000000,-67.000000
1299390.743302,119.000000,14.000000,-31.000000,-1.000000,4.000000,32.000000,69.000000,76.000000
1299390.743342,-85.000000,-31.000000,11.000000,-38.000000,-15.000000,-55.000000,-128.000000,8.000000
1299390.765786,56.000000,-3.000000,54.000000,-1.000000,-11.000000,-15.000000,-128.000000,-67.000000
1299390.765831,-128.000000,13.000000,30.000000,47.000000,11.000000,-29.000000,-68.000000,-42.000000
1299390.780323,109.000000,23.000000,-69.000000,-16.000000,-3.000000,29.000000,79.000000,-6.000000
1299390.780341,24.000000,-10.000000,11.000000,-18.000000,-3.000000,5.000000,78.000000,49.000000
1299390.802703,-4.000000,-4.000000,10.000000,-72.000000,2.000000,11.000000,-1.000000,-7.000000
1299390.802759,20.000000,16.000000,-60.000000,64.000000,3.000000,7.000000,25.000000,-8.000000
1299390.817648,-53.000000,-10.000000,27.000000,-42.000000,-12.000000,-10.000000,-11.000000,3.000000
1299390.817667,-10.000000,-7.000000,6.000000,1.000000,-6.000000,2.000000,74.000000,-70.000000
1299390.847575,-32.000000,-1.000000,-2.000000,57.000000,23.000000,-9.000000,-126.000000,-75.000000
1299390.847660,-51.000000,-13.000000,-23.000000,31.000000,11.000000,-3.000000,0.000000,-6.000000
1299390.855041,17.000000,2.000000,-19.000000,11.000000,5.000000,7.000000,-90.000000,-14.000000
1299390.855073,-79.000000,-16.000000,48.000000,-7.000000,-7.000000,-31.000000,69.000000,-33.000000
1299390.892457,3.000000,-3.000000,52.000000,-30.000000,-7.000000,-39.000000,-128.000000,5.000000
1299390.892478,58.000000,29.000000,-83.000000,76.000000,22.000000,42.000000,127.000000,84.000000
1299390.901160,-19.000000,1.000000,-29.000000,-23.000000,-5.000000,-44.000000,-128.000000,-128.000000
1299390.901333,33.000000,-11.000000,-14.000000,-4.000000,-7.000000,10.000000,38.000000,69.000000
1299390.901462,-26.000000,-9.000000,39.000000,20.000000,12.000000,10.000000,48.000000,51.000000
1299390.901481,22.000000,1.000000,-2.000000,-69.000000,-11.000000,-20.000000,-70.000000,-40.000000
1299390.901928,95.000000,0.000000,-9.000000,9.000000,7.000000,12.000000,44.000000,12.000000
1299390.901941,106.000000,10.000000,-47.000000,37.000000,1.000000,26.000000,40.000000,-4.000000
1299390.907346,-8.000000,39.000000,122.000000,-25.000000,-30.000000,-128.000000,-128.000000,-94.000000
1299390.907369,-32.000000,2.000000,22.000000,48.000000,7.000000,11.000000,121.000000,27.000000
1299390.923131,-51.000000,15.000000,-104.000000,51.000000,13.000000,46.000000,76.000000,-22.000000
1299390.923149,113.000000,2.000000,-50.000000,-30.000000,2.000000,58.000000,120.000000,127.000000
1299390.923818,127.000000,-24.000000,127.000000,52.000000,16.000000,-36.000000,-128.000000,87.000000
1299390.923834,-128.000000,-4.000000,5.000000,-15.000000,4.000000,6.000000,1.000000,14.000000
1299390.937616,59.000000,5.000000,-80.000000,-10.000000,-7.000000,26.000000,35.000000,7.000000
1299390.937637,64.000000,-6.000000,25.000000,3.000000,-6.000000,9.000000,23.000000,27.000000
1299390.952250,-7.000000,10.000000,10.000000,1.000000,2.000000,-7.000000,-41.000000,-67.000000
1299390.952269,31.000000,24.000000,-38.000000,-27.000000,-11.000000,-7.000000,-113.000000,-5.000000
1299390.967616,-44.000000,-31.000000,35.000000,30.000000,16.000000,5.000000,-2.000000,12.000000
1299390.967648,-76.000000,-16.000000,46.000000,49.000000,9.000000,13.000000,46.000000,-65.000000
1299390.990043,-43.000000,24.000000,-32.000000,-26.000000,-15.000000,-19.000000,-89.000000,-10.000000
1299390.990077,30.000000,0.000000,-8.000000,-32.000000,-5.000000,-2.000000,-5.000000,73.000000
1299391.012385,-66.000000,-8.000000,56.000000,-19.000000,-18.000000,-1.000000,12.000000,-79.000000
1299391.012463,59.000000,1.000000,-26.000000,33.000000,22.000000,2.000000,-8.000000,36.000000
1299391.013156,-7.000000,7.000000,-51.000000,-19.000000,-23.000000,1.000000,19.000000,-34.000000
1299391.013190,26.000000,2.000000,16.000000,-44.000000,-8.000000,5.000000,90.000000,72.000000
1299391.020618,-18.000000,15.000000,28.000000,9.000000,-7.000000,-46.000000,35.000000,-109.000000
1299391.020792,-61.000000,17.000000,-23.000000,-56.000000,-17.000000,15.000000,12.000000,-13.000000
1299391.021087,-20.000000,-2.000000,-16.000000,3.000000,-6.000000,25.000000,85.000000,-7.000000
1299391.021123,-13.000000,5.000000,-19.000000,-31.000000,-14.000000,1.000000,-4.000000,-100.000000
1299391.042385,-77.000000,6.000000,8.000000,-51.000000,-3.000000,11.000000,45.000000,0.000000
1299391.042518,37.000000,13.000000,-59.000000,9.000000,-5.000000,18.000000,54.000000,31.000000
1299391.043671,38.000000,-3.000000,-19.000000,-3.000000,6.000000,11.000000,-33.000000,-25.000000
1299391.043701,-34.000000,-27.000000,72.000000,-44.000000,-18.000000,-34.000000,-70.000000,-10.000000
1299391.044484,-62.000000,-9.000000,8.000000,-33.000000,0.000000,-2.000000,-17.000000,-20.000000
1299391.044499,28.000000,17.000000,-75.000000,-20.000000,-17.000000,30.000000,105.000000,56.000000
1299391.057620,-8.000000,11.000000,57.000000,91.000000,-27.000000,-52.000000,-103.000000,-11.000000
1299391.057637,-128.000000,-31.000000,77.000000,84.000000,66.000000,-32.000000,-123.000000,-32.000000
1299391.080078,-32.000000,23.000000,-125.000000,-29.000000,-3.000000,10.000000,39.000000,-38.000000
1299391.080171,112.000000,22.000000,-51.000000,-3.000000,-7.000000,40.000000,102.000000,35.000000
1299391.094743,36.000000,-19.000000,113.000000,-18.000000,-6.000000,-47.000000,-16.000000,114.000000
1299391.094760,-128.000000,-7.000000,4.000000,-6.000000,-1.000000,-27.000000,-128.000000,-44.000000
1299391.102593,78.000000,8.000000,-34.000000,11.000000,5.000000,24.000000,73.000000,56.000000
1299391.102627,127.000000,1.000000,-31.000000,42.000000,1.000000,49.000000,127.000000,127.000000
1299391.125313,-128.000000,-13.000000,36.000000,-40.000000,15.000000,-84.000000,-128.000000,-69.000000
1299391.125389,127.000000,17.000000,-62.000000,-12.000000,-1.000000,19.000000,75.000000,25.000000
1299391.132613,75.000000,0.000000,1.000000,-35.000000,-5.000000,11.000000,43.000000,-26.000000
1299391.132638,127.000000,29.000000,-62.000000,-23.000000,6.000000,85.000000,127.000000,127.000000
1299391.162789,-128.000000,-79.000000,127.000000,60.000000,41.000000,-103.000000,-128.000000,-95.000000
1299391.162822,114.000000,37.000000,-34.000000,-7.000000,2.000000,34.000000,127.000000,119.000000
1299391.163149,7.000000,7.000000,9.000000,-75.000000,-18.000000,12.000000,66.000000,19.000000
1299391.163200,13.000000,27.000000,-53.000000,35.000000,-30.000000,19.000000,79.000000,50.000000
1299391.164431,16.000000,-17.000000,-83.000000,-32.000000,63.000000,3.000000,-113.000000,-43.000000
1299391.164472,-103.000000,-23.000000,105.000000,-20.000000,-30.000000,-22.000000,-26.000000,-5.000000
1299391.165280,-78.000000,3.000000,-19.000000,-92.000000,-27.000000,-2.000000,-37.000000,-128.000000
1299391.165375,127.000000,8.000000,-102.000000,89.000000,36.000000,79.000000,127.000000,127.000000
1299391.166617,127.000000,18.000000,-101.000000,23.000000,8.000000,69.000000,127.000000,127.000000
1299391.166649,40.000000,-8.000000,-18.000000,127.000000,5.000000,6.000000,54.000000,127.000000
1299391.177533,-128.000000,-62.000000,120.000000,-128.000000,10.000000,-66.000000,-128.000000,-128.000000
1299391.177579,119.000000,37.000000,-1.000000,-19.000000,-13.000000,7.000000,71.000000,71.000000
1299391.184907,81.000000,29.000000,-88.000000,5.000000,-4.000000,45.000000,117.000000,-39.000000
1299391.184942,-16.000000,-9.000000,94.000000,-12.000000,-4.000000,-38.000000,-101.000000,-37.000000
1299391.207533,-30.000000,5.000000,6.000000,-3.000000,3.000000,-15.000000,-55.000000,-67.000000
1299391.207550,26.000000,6.000000,-58.000000,40.000000,-2.000000,19.000000,-43.000000,-28.000000
1299391.215070,35.000000,-12.000000,25.000000,47.000000,-16.000000,22.000000,107.000000,-4.000000
1299391.215107,-117.000000,1.000000,-8.000000,45.000000,35.000000,-38.000000,-128.000000,-96.000000
1299391.245122,-95.000000,-16.000000,5.000000,-128.000000,-19.000000,-37.000000,-44.000000,-78.000000
1299391.245142,6.000000,-12.000000,47.000000,-16.000000,1.000000,-4.000000,-41.000000,125.000000
1299391.252470,70.000000,11.000000,110.000000,80.000000,-39.000000,-16.000000,17.000000,127.000000
1299391.252585,-128.000000,4.000000,-128.000000,29.000000,67.000000,22.000000,20.000000,-2.000000
1299391.284110,127.000000,5.000000,-56.000000,-51.000000,-17.000000,30.000000,83.000000,86.000000
1299391.284357,-128.000000,-26.000000,40.000000,-9.000000,2.000000,20.000000,113.000000,-70.000000
1299391.284930,-128.000000,-27.000000,111.000000,-45.000000,-11.000000,-77.000000,-128.000000,-40.000000
1299391.284965,48.000000,20.000000,-82.000000,-1.000000,10.000000,31.000000,54.000000,-20.000000
1299391.285573,-30.000000,-17.000000,-1.000000,-5.000000,-5.000000,9.000000,40.000000,30.000000
1299391.285654,-47.000000,-2.000000,-59.000000,19.000000,7.000000,21.000000,76.000000,65.000000
1299391.286010,44.000000,1.000000,-51.000000,-1.000000,-13.000000,3.000000,-128.000000,18.000000
1299391.286043,64.000000,-1.000000,-2.000000,23.000000,19.000000,-29.000000,9.000000,66.000000
1299391.297483,25.000000,7.000000,25.000000,89.000000,1.000000,-24.000000,-78.000000,-58.000000
1299391.297514,93.000000,42.000000,-55.000000,49.000000,38.000000,10.000000,9.000000,-7.000000
1299391.312244,-128.000000,-39.000000,21.000000,-30.000000,-4.000000,1.000000,20.000000,20.000000
1299391.312274,12.000000,18.000000,-42.000000,46.000000,-9.000000,8.000000,35.000000,-42.000000
1299391.327544,127.000000,5.000000,-89.000000,102.000000,9.000000,7.000000,55.000000,127.000000
1299391.327577,-128.000000,-40.000000,46.000000,-23.000000,14.000000,-50.000000,-128.000000,-128.000000
1299391.334975,73.000000,-9.000000,59.000000,127.000000,38.000000,6.000000,92.000000,-24.000000
1299391.335009,58.000000,7.000000,-95.000000,-33.000000,-7.000000,29.000000,12.000000,110.000000
1299391.364982,29.000000,18.000000,-62.000000,-21.000000,-5.000000,-14.000000,21.000000,78.000000
1299391.365001,-51.000000,-22.000000,81.000000,-26.000000,1.000000,-10.000000,-118.000000,-29.000000
1299391.372509,-121.000000,-15.000000,13.000000,-14.000000,-3.000000,-18.000000,-73.000000,-99.000000
1299391.372526,127.000000,22.000000,-76.000000,96.000000,-2.000000,36.000000,71.000000,98.000000
1299391.403507,-128.000000,-57.000000,115.000000,8.000000,25.000000,-7.000000,18.000000,-47.000000
1299391.403596,95.000000,1.000000,0.000000,-27.000000,-10.000000,-18.000000,11.000000,-12.000000
1299391.403914,87.000000,18.000000,-38.000000,-11.000000,-10.000000,16.000000,14.000000,10.000000
1299391.403932,72.000000,13.000000,-25.000000,-45.000000,2.000000,29.000000,114.000000,108.000000
1299391.405063,-47.000000,-37.000000,65.000000,127.000000,17.000000,-56.000000,-128.000000,-128.000000
1299391.405083,-116.000000,9.000000,-38.000000,-17.000000,-19.000000,10.000000,65.000000,114.000000
1299391.405587,60.000000,7.000000,-45.000000,-14.000000,1.000000,38.000000,127.000000,-4.000000
1299391.405602,-72.000000,-1.000000,62.000000,-30.000000,-16.000000,-39.000000,-110.000000,-47.000000
1299391.424842,127.000000,18.000000,-69.000000,-41.000000,-6.000000,19.000000,-16.000000,23.000000
1299391.424873,-107.000000,-29.000000,-41.000000,21.000000,11.000000,38.000000,127.000000,127.000000
1299391.432427,-109.000000,-27.000000,124.000000,-59.000000,-19.000000,-107.000000,-128.000000,-128.000000
1299391.432447,53.000000,21.000000,-40.000000,-3.000000,19.000000,22.000000,108.000000,125.000000
1299391.447782,21.000000,12.000000,-64.000000,50.000000,-6.000000,49.000000,127.000000,87.000000
1299391.447804,73.000000,-32.000000,4.000000,-63.000000,-13.000000,-1.000000,-87.000000,-15.000000
1299391.455108,-128.000000,-49.000000,35.000000,42.000000,9.000000,-41.000000,-122.000000,-65.000000
1299391.455148,43.000000,31.000000,-41.000000,1.000000,-4.000000,20.000000,9.000000,13.000000
1299391.470198,14.000000,2.000000,32.000000,30.000000,-3.000000,3.000000,5.000000,-23.000000
1299391.470222,-10.000000,0.000000,19.000000,18.000000,23.000000,4.000000,16.000000,40.000000
1299391.477595,71.000000,0.000000,-4.000000,-15.000000,-9.000000,-13.000000,-128.000000,-48.000000
1299391.477631,35.000000,8.000000,-5.000000,-13.000000,-7.000000,0.000000,28.000000,28.000000
1299391.492500,-29.000000,-11.000000,16.000000,-51.000000,-12.000000,-7.000000,27.000000,-45.000000
1299391.492517,40.000000,4.000000,-15.000000,127.000000,-7.000000,7.000000,46.000000,124.000000
1299391.515322,-58.000000,-43.000000,-22.000000,107.000000,57.000000,1.000000,-53.000000,-89.000000
1299391.515354,-54.000000,-20.000000,38.000000,-67.000000,-28.000000,-11.000000,-17.000000,-32.000000
1299391.530010,31.000000,15.000000,-12.000000,-2.000000,3.000000,16.000000,-38.000000,65.000000
1299391.530044,92.000000,6.000000,-56.000000,3.000000,0.000000,7.000000,95.000000,123.000000
1299391.537359,71.000000,17.000000,-12.000000,-51.000000,-13.000000,11.000000,-106.000000,57.000000
1299391.537393,-128.000000,-12.000000,127.000000,48.000000,11.000000,-52.000000,-128.000000,6.000000
1299391.567721,79.000000,45.000000,-96.000000,8.000000,-5.000000,42.000000,125.000000,76.000000
1299391.567757,67.000000,-1.000000,-18.000000,9.000000,9.000000,26.000000,69.000000,41.000000
