# participant_id: P8
# gesture: soft
# trial_number: 2
# stream_name: Myo_EMG
# stream_type: emg
# timestamp: 20260420_152705
# samples: 5474
# duration_sec: 30.579
# nominal_sample_rate: 200.0
# effective_sample_rate: 178.98
#
timestamp,emg_1,emg_2,emg_3,emg_4,emg_5,emg_6,emg_7,emg_8
1303517.249688,-21.000000,-4.000000,-94.000000,-51.000000,-17.000000,-7.000000,41.000000,17.000000
1303517.249699,4.000000,1.000000,-11.000000,45.000000,23.000000,10.000000,-9.000000,-1.000000
1303517.265488,-10.000000,1.000000,-1.000000,9.000000,-3.000000,0.000000,-3.000000,-3.000000
1303517.265499,-1.000000,-3.000000,-12.000000,-28.000000,-9.000000,-2.000000,4.000000,-1.000000
1303517.265795,11.000000,-3.000000,-20.000000,54.000000,29.000000,8.000000,34.000000,9.000000
1303517.265803,-9.000000,5.000000,2.000000,-19.000000,-7.000000,1.000000,-8.000000,4.000000
1303517.267054,5.000000,-5.000000,3.000000,15.000000,-9.000000,-2.000000,-12.000000,-8.000000
1303517.267063,-7.000000,2.000000,35.000000,10.000000,3.000000,-9.000000,-19.000000,-6.000000
1303517.287015,0.000000,-6.000000,40.000000,62.000000,22.000000,4.000000,10.000000,8.000000
1303517.287032,1.000000,-7.000000,-27.000000,-8.000000,-3.000000,1.000000,-5.000000,-8.000000
1303517.288199,-2.000000,-4.000000,15.000000,1.000000,13.000000,2.000000,-19.000000,-14.000000
1303517.288207,-3.000000,7.000000,-22.000000,-42.000000,-10.000000,-6.000000,-6.000000,-6.000000
1303517.289015,13.000000,3.000000,26.000000,-4.000000,-7.000000,-3.000000,11.000000,19.000000
1303517.289023,9.000000,6.000000,1.000000,-2.000000,3.000000,-3.000000,11.000000,9.000000
1303517.302971,5.000000,-1.000000,-29.000000,-20.000000,-9.000000,-6.000000,-20.000000,2.000000
1303517.302980,-15.000000,-1.000000,7.000000,3.000000,1.000000,2.000000,-5.000000,-9.000000
1303517.309891,1.000000,-2.000000,-30.000000,-25.000000,-3.000000,-5.000000,-41.000000,-4.000000
1303517.309901,5.000000,-2.000000,43.000000,18.000000,0.000000,-4.000000,33.000000,-12.000000
1303517.332160,0.000000,0.000000,-1.000000,26.000000,12.000000,2.000000,-19.000000,-2.000000
1303517.332171,20.000000,-4.000000,-4.000000,1.000000,10.000000,2.000000,3.000000,1.000000
1303517.347288,-30.000000,-2.000000,-29.000000,-12.000000,-5.000000,-3.000000,-13.000000,-7.000000
1303517.347299,9.000000,-6.000000,18.000000,-13.000000,4.000000,-2.000000,2.000000,-5.000000
1303517.362757,3.000000,-7.000000,-12.000000,-25.000000,-10.000000,-4.000000,1.000000,-2.000000
1303517.362767,3.000000,-1.000000,-28.000000,-58.000000,-24.000000,-6.000000,-6.000000,-3.000000
1303517.363197,9.000000,2.000000,25.000000,61.000000,28.000000,12.000000,27.000000,15.000000
1303517.363205,0.000000,-4.000000,-10.000000,6.000000,-7.000000,-3.000000,-10.000000,-4.000000
1303517.364741,-2.000000,2.000000,22.000000,-9.000000,-18.000000,-11.000000,-8.000000,-5.000000
1303517.364750,-4.000000,-2.000000,-17.000000,-11.000000,2.000000,-4.000000,-14.000000,-9.000000
1303517.369604,-2.000000,-8.000000,-3.000000,-16.000000,-10.000000,-6.000000,-4.000000,-2.000000
1303517.369628,1.000000,-4.000000,34.000000,3.000000,6.000000,1.000000,18.000000,16.000000
1303517.384651,-11.000000,-5.000000,-5.000000,-4.000000,-5.000000,-1.000000,-20.000000,-16.000000
1303517.384661,2.000000,12.000000,4.000000,-5.000000,2.000000,4.000000,18.000000,12.000000
1303517.399752,10.000000,-3.000000,6.000000,-9.000000,7.000000,0.000000,-11.000000,-4.000000
1303517.399763,-11.000000,-7.000000,12.000000,46.000000,21.000000,8.000000,5.000000,5.000000
1303517.400873,2.000000,-11.000000,-39.000000,-46.000000,-11.000000,-11.000000,-10.000000,-10.000000
1303517.400881,8.000000,1.000000,15.000000,17.000000,4.000000,-4.000000,-9.000000,-5.000000
1303517.407694,-27.000000,0.000000,0.000000,1.000000,-10.000000,-7.000000,-54.000000,-22.000000
1303517.407705,4.000000,-10.000000,-4.000000,14.000000,-1.000000,-3.000000,42.000000,17.000000
1303517.422256,-16.000000,5.000000,38.000000,-42.000000,-22.000000,-3.000000,-15.000000,13.000000
1303517.422266,15.000000,-3.000000,-33.000000,127.000000,64.000000,15.000000,21.000000,-5.000000
1303517.444834,-7.000000,-4.000000,-7.000000,-47.000000,-14.000000,-5.000000,9.000000,4.000000
1303517.444845,5.000000,-10.000000,17.000000,-8.000000,-5.000000,-4.000000,-20.000000,-8.000000
1303517.459852,-4.000000,1.000000,-50.000000,6.000000,-4.000000,-5.000000,-14.000000,-10.000000
1303517.459872,-4.000000,0.000000,5.000000,-10.000000,-4.000000,-3.000000,6.000000,8.000000
1303517.467174,-3.000000,-4.000000,-4.000000,-4.000000,-3.000000,-4.000000,-5.000000,-6.000000
1303517.467185,-7.000000,4.000000,-4.000000,-18.000000,-8.000000,-10.000000,-10.000000,-7.000000
1303517.489890,-21.000000,-5.000000,-7.000000,26.000000,18.000000,2.000000,-8.000000,-8.000000
1303517.489901,26.000000,-3.000000,3.000000,-12.000000,4.000000,-1.000000,7.000000,-10.000000
1303517.505178,-35.000000,-2.000000,32.000000,39.000000,34.000000,13.000000,13.000000,10.000000
1303517.505201,1.000000,4.000000,-14.000000,-9.000000,-1.000000,4.000000,12.000000,17.000000
1303517.506130,0.000000,-5.000000,-12.000000,-11.000000,3.000000,-3.000000,-14.000000,3.000000
1303517.506158,3.000000,5.000000,-5.000000,3.000000,0.000000,-4.000000,7.000000,-12.000000
1303517.506476,-6.000000,5.000000,28.000000,-19.000000,0.000000,0.000000,-8.000000,-6.000000
1303517.506486,5.000000,6.000000,12.000000,8.000000,1.000000,3.000000,-11.000000,-12.000000
1303517.507858,2.000000,-2.000000,-4.000000,4.000000,3.000000,0.000000,5.000000,4.000000
1303517.507866,0.000000,2.000000,-1.000000,-29.000000,-8.000000,-5.000000,15.000000,19.000000
1303517.527240,15.000000,-2.000000,7.000000,26.000000,3.000000,8.000000,21.000000,8.000000
1303517.527250,-2.000000,1.000000,20.000000,-4.000000,-7.000000,-5.000000,-17.000000,-19.000000
1303517.528235,-16.000000,2.000000,-36.000000,-61.000000,-22.000000,-8.000000,-13.000000,-17.000000
1303517.528245,6.000000,1.000000,14.000000,77.000000,16.000000,7.000000,39.000000,48.000000
1303517.529043,5.000000,-1.000000,-1.000000,-15.000000,-17.000000,-4.000000,-4.000000,5.000000
1303517.529069,-18.000000,1.000000,-5.000000,-18.000000,-14.000000,-5.000000,-24.000000,-22.000000
1303517.542511,8.000000,4.000000,9.000000,-23.000000,-7.000000,-3.000000,0.000000,-7.000000
1303517.542521,-15.000000,-3.000000,-66.000000,-51.000000,-16.000000,-8.000000,-7.000000,0.000000
1303517.564708,17.000000,-2.000000,23.000000,56.000000,14.000000,-4.000000,-17.000000,-11.000000
1303517.564721,-37.000000,0.000000,-2.000000,-1.000000,-1.000000,-1.000000,1.000000,-7.000000
1303517.587201,14.000000,-3.000000,0.000000,7.000000,4.000000,3.000000,0.000000,7.000000
1303517.587210,-9.000000,3.000000,-56.000000,-26.000000,-11.000000,-1.000000,3.000000,2.000000
1303517.594718,8.000000,1.000000,10.000000,-18.000000,5.000000,4.000000,1.000000,4.000000
1303517.594728,-4.000000,3.000000,-6.000000,8.000000,-5.000000,-2.000000,-43.000000,-13.000000
1303517.625499,-2.000000,0.000000,-7.000000,0.000000,0.000000,4.000000,44.000000,11.000000
1303517.625508,-3.000000,1.000000,24.000000,46.000000,18.000000,5.000000,-24.000000,-3.000000
1303517.625884,-11.000000,-3.000000,-4.000000,-20.000000,-19.000000,-9.000000,-19.000000,-20.000000
1303517.625892,-8.000000,-9.000000,10.000000,10.000000,11.000000,2.000000,5.000000,11.000000
1303517.626957,2.000000,0.000000,-17.000000,-21.000000,-2.000000,-3.000000,28.000000,-5.000000
1303517.626965,-2.000000,-5.000000,2.000000,0.000000,1.000000,1.000000,0.000000,17.000000
1303517.627544,11.000000,-7.000000,2.000000,-25.000000,-14.000000,-7.000000,-12.000000,-16.000000
1303517.627551,1.000000,-2.000000,49.000000,-18.000000,9.000000,16.000000,-7.000000,-7.000000
1303517.639871,-9.000000,-6.000000,-8.000000,-24.000000,4.000000,3.000000,2.000000,-2.000000
1303517.639884,-19.000000,2.000000,-3.000000,36.000000,7.000000,4.000000,-8.000000,-1.000000
1303517.640944,3.000000,6.000000,-11.000000,1.000000,-3.000000,-3.000000,-13.000000,-1.000000
1303517.640952,-4.000000,3.000000,11.000000,-19.000000,-4.000000,-5.000000,10.000000,-8.000000
1303517.647257,-2.000000,-3.000000,-20.000000,-13.000000,-2.000000,0.000000,-9.000000,-7.000000
1303517.647290,-8.000000,4.000000,6.000000,8.000000,1.000000,2.000000,-7.000000,-9.000000
1303517.662409,9.000000,-10.000000,54.000000,5.000000,5.000000,7.000000,-4.000000,10.000000
1303517.662495,-7.000000,-3.000000,-55.000000,-54.000000,-15.000000,-2.000000,-38.000000,-15.000000
1303517.670066,7.000000,-1.000000,-18.000000,27.000000,15.000000,10.000000,28.000000,2.000000
1303517.670095,-9.000000,-11.000000,-5.000000,7.000000,-4.000000,5.000000,6.000000,7.000000
1303517.684678,11.000000,-1.000000,9.000000,2.000000,10.000000,7.000000,11.000000,15.000000
1303517.684688,-2.000000,-3.000000,-9.000000,28.000000,21.000000,1.000000,-10.000000,4.000000
1303517.699870,3.000000,-8.000000,-20.000000,-16.000000,-4.000000,-4.000000,-13.000000,-13.000000
1303517.699881,-10.000000,-3.000000,-29.000000,-37.000000,-18.000000,-7.000000,4.000000,-1.000000
1303517.737125,0.000000,-1.000000,30.000000,-10.000000,25.000000,1.000000,2.000000,16.000000
1303517.737155,-17.000000,-7.000000,9.000000,106.000000,26.000000,6.000000,3.000000,0.000000
1303517.737644,4.000000,-3.000000,-3.000000,-20.000000,-15.000000,-8.000000,-16.000000,0.000000
1303517.737654,-7.000000,0.000000,0.000000,-27.000000,-4.000000,0.000000,7.000000,-1.000000
1303517.738835,15.000000,1.000000,11.000000,7.000000,2.000000,7.000000,7.000000,-4.000000
1303517.738843,-36.000000,2.000000,20.000000,31.000000,17.000000,2.000000,14.000000,-10.000000
1303517.739576,-5.000000,-4.000000,-20.000000,-53.000000,-25.000000,-15.000000,-4.000000,-24.000000
1303517.739584,8.000000,3.000000,15.000000,-16.000000,-13.000000,1.000000,26.000000,19.000000
1303517.744502,-2.000000,-4.000000,-2.000000,-5.000000,-7.000000,6.000000,11.000000,19.000000
1303517.744511,8.000000,-3.000000,-6.000000,-7.000000,-1.000000,-5.000000,8.000000,11.000000
1303517.760119,-6.000000,-1.000000,35.000000,-6.000000,3.000000,-3.000000,-16.000000,-16.000000
1303517.760148,-2.000000,2.000000,-13.000000,-17.000000,0.000000,-8.000000,-35.000000,-31.000000
1303517.782207,-16.000000,0.000000,9.000000,121.000000,42.000000,14.000000,7.000000,-3.000000
1303517.782222,-1.000000,4.000000,11.000000,-37.000000,-11.000000,0.000000,17.000000,18.000000
1303517.797099,3.000000,-10.000000,-10.000000,11.000000,-8.000000,-6.000000,-7.000000,-7.000000
1303517.797109,-12.000000,3.000000,28.000000,30.000000,-2.000000,5.000000,-5.000000,1.000000
1303517.812126,5.000000,-1.000000,-16.000000,-18.000000,-3.000000,-6.000000,-1.000000,0.000000
1303517.812135,7.000000,0.000000,6.000000,-8.000000,1.000000,8.000000,14.000000,12.000000
1303517.819844,3.000000,0.000000,12.000000,1.000000,-5.000000,-8.000000,-10.000000,-3.000000
1303517.819855,-11.000000,-4.000000,-26.000000,15.000000,2.000000,3.000000,-5.000000,-12.000000
1303517.857375,-12.000000,0.000000,-1.000000,-22.000000,-17.000000,-6.000000,-56.000000,-20.000000
1303517.857386,6.000000,-1.000000,25.000000,50.000000,11.000000,-3.000000,49.000000,10.000000
1303517.864877,-34.000000,-3.000000,-24.000000,33.000000,-4.000000,-1.000000,6.000000,20.000000
1303517.864887,14.000000,0.000000,6.000000,-21.000000,-10.000000,-3.000000,-2.000000,4.000000
1303517.879908,-3.000000,-4.000000,-9.000000,-17.000000,-5.000000,1.000000,-9.000000,0.000000
1303517.879920,0.000000,7.000000,3.000000,14.000000,-4.000000,-6.000000,-22.000000,-12.000000
1303517.880322,-20.000000,-15.000000,21.000000,-25.000000,-11.000000,-4.000000,-9.000000,-24.000000
1303517.880331,-3.000000,1.000000,34.000000,8.000000,10.000000,3.000000,-2.000000,10.000000
1303517.882143,9.000000,-8.000000,7.000000,-20.000000,-9.000000,-1.000000,10.000000,11.000000
1303517.882156,3.000000,-7.000000,29.000000,63.000000,20.000000,10.000000,7.000000,9.000000
1303517.883005,-1.000000,-3.000000,-14.000000,-9.000000,-10.000000,-1.000000,3.000000,3.000000
1303517.883014,3.000000,2.000000,-6.000000,0.000000,-2.000000,-5.000000,1.000000,1.000000
1303517.894655,-14.000000,-6.000000,-6.000000,-22.000000,-7.000000,-3.000000,-15.000000,-20.000000
1303517.894667,28.000000,-3.000000,2.000000,-4.000000,3.000000,7.000000,39.000000,19.000000
1303517.902751,-26.000000,2.000000,15.000000,-14.000000,4.000000,-1.000000,-7.000000,7.000000
1303517.902786,3.000000,-9.000000,5.000000,20.000000,-3.000000,2.000000,-14.000000,-8.000000
1303517.917759,6.000000,6.000000,-10.000000,20.000000,9.000000,9.000000,6.000000,0.000000
1303517.917779,-2.000000,7.000000,6.000000,-19.000000,-7.000000,-7.000000,2.000000,14.000000
1303517.954872,-2.000000,-7.000000,-19.000000,-26.000000,-14.000000,-6.000000,-15.000000,-24.000000
1303517.954885,-10.000000,-5.000000,-19.000000,-38.000000,-6.000000,-3.000000,18.000000,5.000000
1303517.969865,22.000000,-3.000000,-4.000000,31.000000,18.000000,1.000000,8.000000,23.000000
1303517.969876,6.000000,-1.000000,-6.000000,-10.000000,-7.000000,1.000000,-13.000000,-14.000000
1303517.999516,-21.000000,2.000000,0.000000,-14.000000,-6.000000,-8.000000,-19.000000,-24.000000
1303517.999533,-19.000000,5.000000,-12.000000,2.000000,5.000000,0.000000,-8.000000,-11.000000
1303518.000093,9.000000,-6.000000,-10.000000,9.000000,0.000000,5.000000,40.000000,35.000000
1303518.000102,1.000000,0.000000,10.000000,-15.000000,-12.000000,-8.000000,9.000000,10.000000
1303518.001293,8.000000,-2.000000,7.000000,-14.000000,-6.000000,2.000000,-2.000000,-14.000000
1303518.001303,-3.000000,6.000000,23.000000,25.000000,8.000000,1.000000,35.000000,18.000000
1303518.001943,4.000000,4.000000,-27.000000,-7.000000,-4.000000,-5.000000,-7.000000,18.000000
1303518.001952,-5.000000,-1.000000,3.000000,-33.000000,-15.000000,-9.000000,-16.000000,-15.000000
1303518.002542,-3.000000,-4.000000,22.000000,-1.000000,0.000000,-3.000000,-21.000000,-22.000000
1303518.002561,-4.000000,-4.000000,-33.000000,-21.000000,-6.000000,2.000000,21.000000,10.000000
1303518.003355,-12.000000,-7.000000,8.000000,-24.000000,-7.000000,-4.000000,-5.000000,-8.000000
1303518.003364,-6.000000,2.000000,20.000000,58.000000,15.000000,12.000000,-2.000000,-16.000000
1303518.014924,-8.000000,-6.000000,-7.000000,-21.000000,-13.000000,-6.000000,-9.000000,8.000000
1303518.014937,-6.000000,0.000000,-2.000000,-1.000000,23.000000,10.000000,-3.000000,-18.000000
1303518.022494,12.000000,6.000000,16.000000,-7.000000,2.000000,-3.000000,4.000000,0.000000
1303518.022507,-16.000000,2.000000,-23.000000,-28.000000,7.000000,2.000000,1.000000,-1.000000
1303518.037181,12.000000,1.000000,26.000000,-4.000000,-4.000000,9.000000,11.000000,5.000000
1303518.037192,4.000000,-2.000000,8.000000,1.000000,-5.000000,-8.000000,-10.000000,0.000000
1303518.052349,-4.000000,-3.000000,4.000000,-11.000000,1.000000,-6.000000,26.000000,7.000000
1303518.052365,2.000000,-3.000000,-1.000000,-28.000000,-1.000000,3.000000,-8.000000,6.000000
1303518.059826,36.000000,-7.000000,14.000000,33.000000,17.000000,6.000000,14.000000,8.000000
1303518.059855,-53.000000,-7.000000,-6.000000,-11.000000,-16.000000,-7.000000,-22.000000,-23.000000
1303518.082409,-1.000000,-3.000000,-16.000000,-7.000000,-13.000000,-3.000000,18.000000,-12.000000
1303518.082422,-4.000000,-1.000000,-4.000000,8.000000,16.000000,1.000000,14.000000,13.000000
1303518.097236,27.000000,-7.000000,-19.000000,-24.000000,-7.000000,-8.000000,-21.000000,-4.000000
1303518.097246,4.000000,2.000000,18.000000,-19.000000,-9.000000,4.000000,3.000000,4.000000
1303518.119834,1.000000,-8.000000,-6.000000,22.000000,5.000000,1.000000,9.000000,3.000000
1303518.119849,-3.000000,-4.000000,9.000000,-6.000000,-14.000000,-5.000000,-5.000000,0.000000
1303518.120358,-13.000000,-2.000000,4.000000,-57.000000,-20.000000,-7.000000,-8.000000,-12.000000
1303518.120367,14.000000,3.000000,-1.000000,-14.000000,-5.000000,-5.000000,-27.000000,-7.000000
1303518.121409,-2.000000,4.000000,6.000000,-14.000000,0.000000,9.000000,14.000000,1.000000
1303518.121418,-10.000000,6.000000,4.000000,-27.000000,-2.000000,-1.000000,29.000000,24.000000
1303518.122029,14.000000,-4.000000,23.000000,17.000000,-4.000000,-1.000000,-24.000000,2.000000
1303518.122037,-6.000000,-2.000000,-20.000000,-33.000000,-10.000000,-4.000000,-7.000000,-17.000000
1303518.123643,6.000000,-1.000000,-11.000000,13.000000,4.000000,1.000000,-10.000000,-1.000000
1303518.123661,-23.000000,3.000000,-13.000000,-35.000000,-11.000000,-11.000000,-36.000000,-15.000000
1303518.134624,23.000000,3.000000,5.000000,-26.000000,-3.000000,5.000000,73.000000,21.000000
1303518.134652,12.000000,2.000000,2.000000,12.000000,7.000000,3.000000,0.000000,16.000000
1303518.142132,-17.000000,-1.000000,9.000000,3.000000,-1.000000,-5.000000,-22.000000,-20.000000
1303518.142160,-8.000000,4.000000,-18.000000,-29.000000,-9.000000,-5.000000,-17.000000,-10.000000
1303518.157399,0.000000,1.000000,40.000000,25.000000,-2.000000,5.000000,-7.000000,-7.000000
1303518.157410,8.000000,-4.000000,8.000000,-29.000000,2.000000,-5.000000,0.000000,0.000000
1303518.194663,6.000000,4.000000,-37.000000,-10.000000,-6.000000,2.000000,12.000000,-5.000000
1303518.194674,0.000000,-4.000000,9.000000,22.000000,-13.000000,-6.000000,35.000000,30.000000
1303518.202594,-4.000000,-9.000000,-3.000000,-39.000000,-1.000000,0.000000,-8.000000,2.000000
1303518.202606,18.000000,3.000000,48.000000,61.000000,30.000000,9.000000,2.000000,4.000000
1303518.217296,-5.000000,6.000000,2.000000,-14.000000,-7.000000,-5.000000,8.000000,-3.000000
1303518.217316,-13.000000,-5.000000,-15.000000,-12.000000,5.000000,8.000000,1.000000,7.000000
1303518.217611,7.000000,-10.000000,17.000000,-25.000000,-8.000000,-6.000000,-26.000000,-16.000000
1303518.217620,11.000000,6.000000,-4.000000,31.000000,25.000000,17.000000,30.000000,-1.000000
1303518.218982,-22.000000,-5.000000,-5.000000,3.000000,-4.000000,-5.000000,-19.000000,1.000000
1303518.218992,22.000000,1.000000,-1.000000,19.000000,13.000000,4.000000,33.000000,40.000000
1303518.219607,-17.000000,-9.000000,-15.000000,-22.000000,-7.000000,-5.000000,-8.000000,-3.000000
1303518.219615,-7.000000,-1.000000,-10.000000,-30.000000,-20.000000,-8.000000,-7.000000,-11.000000
1303518.232103,-6.000000,-7.000000,20.000000,48.000000,16.000000,4.000000,-10.000000,-11.000000
1303518.232113,1.000000,2.000000,-11.000000,-10.000000,-14.000000,-7.000000,0.000000,-7.000000
1303518.232622,-4.000000,1.000000,-41.000000,24.000000,-5.000000,1.000000,-3.000000,-7.000000
1303518.232630,-2.000000,0.000000,-9.000000,-40.000000,-9.000000,-8.000000,-5.000000,-3.000000
1303518.239628,0.000000,0.000000,7.000000,46.000000,16.000000,3.000000,-10.000000,-13.000000
1303518.239637,4.000000,0.000000,-5.000000,-15.000000,-4.000000,3.000000,37.000000,28.000000
1303518.255611,10.000000,3.000000,43.000000,5.000000,-9.000000,-4.000000,-10.000000,2.000000
1303518.255622,-5.000000,3.000000,-6.000000,7.000000,8.000000,-2.000000,-13.000000,-6.000000
1303518.277109,7.000000,1.000000,-11.000000,11.000000,-4.000000,0.000000,-4.000000,-6.000000
1303518.277120,0.000000,-1.000000,23.000000,7.000000,14.000000,12.000000,9.000000,-4.000000
1303518.315032,-4.000000,1.000000,-11.000000,5.000000,-9.000000,-2.000000,-6.000000,8.000000
1303518.315043,2.000000,-6.000000,-25.000000,22.000000,2.000000,-2.000000,22.000000,10.000000
1303518.338018,-8.000000,-5.000000,-44.000000,-15.000000,-5.000000,-11.000000,-25.000000,-11.000000
1303518.338027,-3.000000,4.000000,1.000000,5.000000,-3.000000,2.000000,-11.000000,-10.000000
1303518.338456,-8.000000,7.000000,2.000000,1.000000,3.000000,7.000000,-36.000000,-14.000000
1303518.338465,-3.000000,-6.000000,-5.000000,-7.000000,-6.000000,-1.000000,42.000000,19.000000
1303518.339525,-7.000000,-1.000000,-17.000000,-3.000000,3.000000,-2.000000,-19.000000,-3.000000
1303518.339533,4.000000,-10.000000,15.000000,33.000000,7.000000,6.000000,-22.000000,-27.000000
1303518.340180,-7.000000,-2.000000,3.000000,25.000000,14.000000,2.000000,26.000000,21.000000
1303518.340188,21.000000,3.000000,-8.000000,-36.000000,-12.000000,-1.000000,-5.000000,4.000000
1303518.340975,4.000000,-4.000000,48.000000,10.000000,10.000000,6.000000,13.000000,13.000000
1303518.340983,-6.000000,-1.000000,-75.000000,-54.000000,-19.000000,-9.000000,-7.000000,-9.000000
1303518.352171,-3.000000,-5.000000,0.000000,33.000000,7.000000,1.000000,-3.000000,4.000000
1303518.352201,-11.000000,4.000000,-35.000000,-35.000000,-6.000000,-8.000000,-34.000000,-21.000000
1303518.352728,9.000000,0.000000,11.000000,7.000000,5.000000,5.000000,21.000000,8.000000
1303518.352736,6.000000,9.000000,14.000000,-6.000000,-1.000000,-1.000000,23.000000,18.000000
1303518.359606,-8.000000,-5.000000,22.000000,14.000000,-1.000000,-7.000000,-17.000000,-6.000000
1303518.359619,3.000000,7.000000,8.000000,-12.000000,-8.000000,-3.000000,3.000000,-7.000000
1303518.374740,-4.000000,-2.000000,-22.000000,-24.000000,-11.000000,-2.000000,-9.000000,-7.000000
1303518.374770,13.000000,-1.000000,10.000000,41.000000,27.000000,8.000000,13.000000,9.000000
1303518.397628,10.000000,-2.000000,13.000000,-4.000000,-3.000000,-4.000000,0.000000,16.000000
1303518.397661,-10.000000,-7.000000,-15.000000,-31.000000,-25.000000,-10.000000,-14.000000,-15.000000
1303518.412507,-2.000000,4.000000,9.000000,3.000000,14.000000,15.000000,4.000000,0.000000
1303518.412527,9.000000,-3.000000,-17.000000,-49.000000,-14.000000,1.000000,21.000000,20.000000
1303518.434885,5.000000,0.000000,35.000000,30.000000,-7.000000,-4.000000,-5.000000,-6.000000
1303518.434897,-4.000000,-5.000000,-8.000000,-32.000000,-2.000000,4.000000,-2.000000,-5.000000
1303518.450191,-6.000000,-7.000000,-60.000000,-25.000000,-8.000000,-4.000000,-10.000000,-9.000000
1303518.450221,5.000000,-4.000000,8.000000,7.000000,-10.000000,-5.000000,-2.000000,-1.000000
1303518.472146,-23.000000,7.000000,-26.000000,-17.000000,-3.000000,-1.000000,6.000000,-6.000000
1303518.472175,-1.000000,2.000000,-12.000000,-7.000000,-1.000000,1.000000,1.000000,5.000000
1303518.479851,5.000000,2.000000,16.000000,12.000000,-7.000000,-5.000000,3.000000,2.000000
1303518.479863,0.000000,-2.000000,-4.000000,-29.000000,-1.000000,-3.000000,11.000000,8.000000
1303518.495126,-9.000000,-7.000000,-12.000000,-11.000000,-6.000000,-10.000000,-27.000000,-6.000000
1303518.495140,-4.000000,-8.000000,27.000000,32.000000,8.000000,4.000000,-19.000000,-22.000000
1303518.495895,10.000000,-3.000000,-5.000000,-5.000000,7.000000,8.000000,28.000000,23.000000
1303518.495904,7.000000,-7.000000,-12.000000,7.000000,-2.000000,-3.000000,8.000000,3.000000
1303518.509595,13.000000,1.000000,21.000000,4.000000,-1.000000,-14.000000,-19.000000,-5.000000
1303518.509616,-20.000000,2.000000,-20.000000,-8.000000,6.000000,3.000000,-16.000000,-8.000000
1303518.517071,2.000000,-9.000000,5.000000,-44.000000,-7.000000,-7.000000,6.000000,-9.000000
1303518.517099,-4.000000,9.000000,-1.000000,-12.000000,5.000000,11.000000,-11.000000,-12.000000
1303518.532388,18.000000,-6.000000,-11.000000,-13.000000,-7.000000,-4.000000,-2.000000,1.000000
1303518.532400,-19.000000,1.000000,0.000000,-2.000000,-2.000000,-3.000000,-33.000000,-15.000000
1303518.569905,-15.000000,-3.000000,-19.000000,-4.000000,-2.000000,-9.000000,-3.000000,-17.000000
1303518.569916,11.000000,-5.000000,1.000000,-38.000000,-13.000000,-3.000000,6.000000,5.000000
1303518.577467,-12.000000,3.000000,0.000000,64.000000,12.000000,-4.000000,10.000000,17.000000
1303518.577478,-7.000000,2.000000,2.000000,0.000000,3.000000,2.000000,4.000000,-7.000000
1303518.578315,6.000000,-1.000000,0.000000,12.000000,2.000000,5.000000,13.000000,19.000000
1303518.578327,6.000000,1.000000,-17.000000,-7.000000,-1.000000,-4.000000,-19.000000,-11.000000
1303518.578792,-11.000000,2.000000,-8.000000,-64.000000,-14.000000,-9.000000,-9.000000,-14.000000
1303518.578800,9.000000,-1.000000,14.000000,106.000000,19.000000,-3.000000,-52.000000,-18.000000
1303518.579409,-17.000000,2.000000,-14.000000,-23.000000,-11.000000,-4.000000,-24.000000,-13.000000
1303518.579417,-4.000000,5.000000,11.000000,0.000000,-2.000000,-7.000000,18.000000,6.000000
1303518.580444,-5.000000,3.000000,-27.000000,-6.000000,-5.000000,-2.000000,-4.000000,3.000000
1303518.580453,10.000000,-7.000000,19.000000,-4.000000,-2.000000,2.000000,0.000000,0.000000
1303518.592152,-3.000000,3.000000,0.000000,-1.000000,-1.000000,1.000000,-8.000000,-1.000000
1303518.592170,17.000000,-6.000000,24.000000,-40.000000,-6.000000,-9.000000,38.000000,9.000000
1303518.592550,-5.000000,0.000000,-8.000000,96.000000,16.000000,3.000000,8.000000,19.000000
1303518.592558,-13.000000,11.000000,14.000000,22.000000,9.000000,3.000000,-13.000000,-12.000000
1303518.599767,6.000000,3.000000,-6.000000,-35.000000,-15.000000,-5.000000,5.000000,10.000000
1303518.599790,-12.000000,1.000000,23.000000,57.000000,18.000000,-1.000000,-1.000000,0.000000
1303518.614831,-2.000000,-3.000000,-2.000000,-19.000000,-14.000000,3.000000,-1.000000,-6.000000
1303518.614843,15.000000,-4.000000,21.000000,67.000000,24.000000,5.000000,1.000000,3.000000
1303518.652169,-21.000000,-6.000000,-7.000000,-19.000000,-7.000000,-3.000000,-4.000000,-1.000000
1303518.652179,-5.000000,-3.000000,-10.000000,6.000000,7.000000,-5.000000,-2.000000,-3.000000
1303518.674891,-1.000000,1.000000,6.000000,8.000000,8.000000,0.000000,-5.000000,-6.000000
1303518.674902,11.000000,2.000000,1.000000,-19.000000,-16.000000,0.000000,27.000000,15.000000
1303518.697087,-11.000000,2.000000,6.000000,40.000000,2.000000,3.000000,-14.000000,1.000000
1303518.697098,-8.000000,-4.000000,-2.000000,-32.000000,-1.000000,-5.000000,-6.000000,-6.000000
1303518.697802,6.000000,5.000000,5.000000,42.000000,2.000000,0.000000,-7.000000,0.000000
1303518.697814,0.000000,8.000000,-22.000000,-23.000000,-10.000000,-2.000000,-5.000000,-6.000000
1303518.698845,3.000000,1.000000,-3.000000,14.000000,18.000000,8.000000,9.000000,1.000000
1303518.698853,7.000000,3.000000,31.000000,10.000000,4.000000,11.000000,20.000000,22.000000
1303518.699417,-3.000000,-2.000000,5.000000,21.000000,-2.000000,-7.000000,-9.000000,-7.000000
1303518.699444,-2.000000,1.000000,-2.000000,-12.000000,-5.000000,1.000000,-1.000000,-2.000000
1303518.700392,3.000000,8.000000,5.000000,34.000000,26.000000,5.000000,-18.000000,-6.000000
1303518.700402,1.000000,1.000000,-5.000000,-2.000000,-2.000000,-2.000000,6.000000,12.000000
1303518.712669,-10.000000,-4.000000,13.000000,-4.000000,-5.000000,2.000000,4.000000,-1.000000
1303518.712681,5.000000,-2.000000,-16.000000,-7.000000,1.000000,-4.000000,-2.000000,-6.000000
1303518.712965,-8.000000,1.000000,19.000000,-2.000000,0.000000,0.000000,-5.000000,-4.000000
1303518.712972,-8.000000,7.000000,-14.000000,-13.000000,-5.000000,-1.000000,-6.000000,-4.000000
1303518.735151,0.000000,-3.000000,5.000000,-5.000000,0.000000,-2.000000,-4.000000,-10.000000
1303518.735161,0.000000,0.000000,-6.000000,1.000000,9.000000,-6.000000,-10.000000,-5.000000
1303518.750502,10.000000,3.000000,13.000000,-1.000000,-8.000000,3.000000,16.000000,10.000000
1303518.750537,0.000000,11.000000,4.000000,-1.000000,-4.000000,0.000000,1.000000,3.000000
1303518.766200,-5.000000,-5.000000,28.000000,-18.000000,-4.000000,-3.000000,-8.000000,-6.000000
1303518.766235,-6.000000,6.000000,-35.000000,-8.000000,-9.000000,1.000000,1.000000,-10.000000
1303518.787834,-1.000000,1.000000,35.000000,-47.000000,2.000000,-3.000000,-4.000000,-3.000000
1303518.787857,11.000000,-2.000000,1.000000,81.000000,24.000000,7.000000,10.000000,15.000000
1303518.802247,-7.000000,2.000000,15.000000,-31.000000,-6.000000,-3.000000,-6.000000,-5.000000
1303518.802259,5.000000,5.000000,-21.000000,-12.000000,-3.000000,0.000000,3.000000,-5.000000
1303518.802669,-2.000000,-13.000000,29.000000,-20.000000,-5.000000,-4.000000,-3.000000,6.000000
1303518.802684,-8.000000,1.000000,-46.000000,7.000000,2.000000,-5.000000,-12.000000,-12.000000
1303518.809695,3.000000,4.000000,8.000000,-38.000000,-15.000000,-6.000000,-16.000000,-13.000000
1303518.809708,-14.000000,4.000000,4.000000,60.000000,11.000000,2.000000,16.000000,10.000000
1303518.810182,11.000000,-4.000000,-21.000000,-28.000000,-6.000000,2.000000,-6.000000,5.000000
1303518.810195,-7.000000,-5.000000,18.000000,9.000000,3.000000,0.000000,4.000000,5.000000
1303518.810874,4.000000,1.000000,-13.000000,-16.000000,-9.000000,-4.000000,-18.000000,-10.000000
1303518.810885,-2.000000,3.000000,-6.000000,-3.000000,0.000000,-1.000000,6.000000,-1.000000
1303518.832350,0.000000,-5.000000,8.000000,-7.000000,6.000000,2.000000,-7.000000,-6.000000
1303518.832375,7.000000,1.000000,-49.000000,17.000000,9.000000,1.000000,-11.000000,-3.000000
1303518.833268,-18.000000,-2.000000,-1.000000,22.000000,-10.000000,-19.000000,5.000000,-6.000000
1303518.833296,18.000000,-1.000000,14.000000,-8.000000,8.000000,5.000000,8.000000,11.000000
1303518.834122,9.000000,7.000000,27.000000,-5.000000,-2.000000,-5.000000,-1.000000,3.000000
1303518.834131,-38.000000,6.000000,-15.000000,-7.000000,-6.000000,-1.000000,-8.000000,-7.000000
1303518.847109,7.000000,1.000000,0.000000,-40.000000,-10.000000,-9.000000,-20.000000,-8.000000
1303518.847125,-3.000000,-5.000000,-1.000000,41.000000,19.000000,8.000000,27.000000,-1.000000
1303518.870216,1.000000,8.000000,14.000000,26.000000,1.000000,1.000000,0.000000,0.000000
1303518.870239,-5.000000,-3.000000,-16.000000,-19.000000,-10.000000,-5.000000,-8.000000,-7.000000
1303518.892159,-5.000000,2.000000,-28.000000,-11.000000,-4.000000,-3.000000,-12.000000,-6.000000
1303518.892169,3.000000,6.000000,2.000000,19.000000,4.000000,2.000000,19.000000,6.000000
1303518.899847,-5.000000,-3.000000,-1.000000,-32.000000,-6.000000,-10.000000,-7.000000,-7.000000
1303518.899858,-5.000000,8.000000,-9.000000,17.000000,18.000000,2.000000,1.000000,-9.000000
1303518.915114,-4.000000,-1.000000,25.000000,-16.000000,-8.000000,2.000000,1.000000,5.000000
1303518.915124,4.000000,0.000000,15.000000,20.000000,17.000000,7.000000,22.000000,8.000000
1303518.922303,-5.000000,0.000000,-36.000000,4.000000,-6.000000,-3.000000,-11.000000,2.000000
1303518.922322,3.000000,0.000000,30.000000,45.000000,-1.000000,-1.000000,-8.000000,-8.000000
1303518.930000,5.000000,-3.000000,-55.000000,-10.000000,-14.000000,-5.000000,-8.000000,-1.000000
1303518.930008,-3.000000,-4.000000,8.000000,-10.000000,-5.000000,-7.000000,-6.000000,-6.000000
1303518.931449,-15.000000,3.000000,-5.000000,-12.000000,-4.000000,-5.000000,-6.000000,-11.000000
1303518.931477,3.000000,-6.000000,35.000000,20.000000,-2.000000,4.000000,5.000000,-5.000000
1303518.932329,-1.000000,-2.000000,-9.000000,11.000000,11.000000,8.000000,15.000000,16.000000
1303518.932342,-1.000000,0.000000,-1.000000,-17.000000,-6.000000,-4.000000,-7.000000,1.000000
1303518.953007,2.000000,3.000000,-4.000000,6.000000,-3.000000,-2.000000,-8.000000,-3.000000
1303518.953018,-16.000000,-3.000000,-2.000000,-14.000000,-9.000000,-4.000000,-4.000000,-5.000000
1303518.953411,10.000000,3.000000,-34.000000,-5.000000,7.000000,0.000000,10.000000,-3.000000
1303518.953421,-20.000000,2.000000,7.000000,0.000000,6.000000,-3.000000,-5.000000,-7.000000
1303518.967215,10.000000,4.000000,-2.000000,0.000000,5.000000,0.000000,-5.000000,0.000000
1303518.967244,3.000000,-6.000000,16.000000,68.000000,-3.000000,-3.000000,-26.000000,-4.000000
1303518.967765,-5.000000,4.000000,-15.000000,9.000000,11.000000,11.000000,24.000000,2.000000
1303518.967792,13.000000,5.000000,21.000000,-19.000000,-13.000000,-4.000000,16.000000,29.000000
1303518.989840,1.000000,-4.000000,-10.000000,28.000000,10.000000,-3.000000,-13.000000,-9.000000
1303518.989851,-8.000000,-3.000000,-9.000000,-23.000000,-7.000000,0.000000,-22.000000,-25.000000
1303519.012194,-19.000000,-2.000000,-6.000000,13.000000,2.000000,-3.000000,5.000000,-19.000000
1303519.012217,7.000000,-4.000000,3.000000,-4.000000,0.000000,1.000000,39.000000,38.000000
1303519.027489,12.000000,-3.000000,1.000000,21.000000,10.000000,6.000000,-7.000000,8.000000
1303519.027538,-10.000000,5.000000,-13.000000,3.000000,-9.000000,-3.000000,-24.000000,-22.000000
1303519.042597,-12.000000,-2.000000,-15.000000,18.000000,-4.000000,-3.000000,2.000000,-8.000000
1303519.042610,-2.000000,-1.000000,0.000000,-8.000000,4.000000,-5.000000,-6.000000,5.000000
1303519.064951,6.000000,-3.000000,18.000000,6.000000,0.000000,-2.000000,8.000000,-3.000000
1303519.064984,5.000000,-3.000000,18.000000,-3.000000,-7.000000,-4.000000,-3.000000,-9.000000
1303519.072301,3.000000,0.000000,10.000000,4.000000,9.000000,2.000000,-3.000000,-2.000000
1303519.072359,3.000000,-2.000000,-13.000000,-22.000000,-7.000000,-3.000000,-4.000000,2.000000
1303519.124837,-7.000000,-2.000000,-4.000000,-2.000000,-7.000000,1.000000,4.000000,-2.000000
1303519.124848,-11.000000,-6.000000,0.000000,-30.000000,-19.000000,-6.000000,1.000000,-5.000000
1303519.147447,7.000000,-3.000000,21.000000,0.000000,-8.000000,-10.000000,-7.000000,-5.000000
1303519.147459,-14.000000,-1.000000,11.000000,-16.000000,-13.000000,-5.000000,1.000000,1.000000
1303519.147872,-5.000000,2.000000,6.000000,18.000000,8.000000,5.000000,6.000000,6.000000
1303519.147885,8.000000,1.000000,14.000000,-26.000000,-7.000000,4.000000,-7.000000,-3.000000
1303519.148736,-7.000000,8.000000,-9.000000,-16.000000,-8.000000,-2.000000,-21.000000,-14.000000
1303519.148747,5.000000,4.000000,-3.000000,-27.000000,-11.000000,-3.000000,29.000000,8.000000
1303519.149768,-5.000000,1.000000,-6.000000,-6.000000,-3.000000,-1.000000,-14.000000,-4.000000
1303519.149781,3.000000,-4.000000,-14.000000,-35.000000,-4.000000,-2.000000,-27.000000,-7.000000
1303519.150414,1.000000,2.000000,-41.000000,-24.000000,-11.000000,-3.000000,-7.000000,-3.000000
1303519.150424,3.000000,-3.000000,-2.000000,-15.000000,-13.000000,-5.000000,-11.000000,1.000000
1303519.169694,-3.000000,-3.000000,7.000000,25.000000,18.000000,6.000000,-6.000000,-7.000000
1303519.169708,-5.000000,-5.000000,0.000000,-7.000000,-14.000000,-11.000000,-17.000000,-16.000000
1303519.170254,12.000000,1.000000,13.000000,-11.000000,6.000000,5.000000,7.000000,7.000000
1303519.170281,-6.000000,6.000000,15.000000,24.000000,-10.000000,-2.000000,9.000000,16.000000
1303519.185338,5.000000,4.000000,1.000000,32.000000,13.000000,-2.000000,-2.000000,4.000000
1303519.185351,-3.000000,1.000000,-18.000000,-27.000000,-5.000000,3.000000,2.000000,-7.000000
1303519.186000,1.000000,-1.000000,22.000000,-5.000000,3.000000,0.000000,-8.000000,-6.000000
1303519.186007,-5.000000,4.000000,-9.000000,-9.000000,-3.000000,-4.000000,0.000000,-2.000000
1303519.192837,-7.000000,0.000000,-16.000000,1.000000,-2.000000,-3.000000,-5.000000,-16.000000
1303519.192847,-3.000000,4.000000,9.000000,-16.000000,-10.000000,-6.000000,-7.000000,-1.000000
1303519.207264,8.000000,-3.000000,-30.000000,3.000000,1.000000,4.000000,1.000000,-2.000000
1303519.207309,-7.000000,-1.000000,-15.000000,5.000000,6.000000,-4.000000,-8.000000,-4.000000
1303519.229951,5.000000,-10.000000,7.000000,-5.000000,-7.000000,-1.000000,-28.000000,2.000000
1303519.229968,-2.000000,-11.000000,-11.000000,-13.000000,-9.000000,2.000000,82.000000,26.000000
1303519.237243,-8.000000,1.000000,15.000000,8.000000,1.000000,3.000000,-28.000000,-8.000000
1303519.237254,-2.000000,-2.000000,10.000000,-25.000000,-8.000000,0.000000,-14.000000,-6.000000
1303519.252195,9.000000,-3.000000,9.000000,71.000000,8.000000,-4.000000,-13.000000,-5.000000
1303519.252229,-7.000000,1.000000,2.000000,-21.000000,-8.000000,-2.000000,3.000000,-14.000000
1303519.267222,3.000000,-3.000000,-4.000000,-24.000000,-5.000000,-2.000000,-8.000000,-12.000000
1303519.267233,-18.000000,1.000000,-1.000000,-29.000000,-8.000000,-5.000000,5.000000,6.000000
1303519.290066,5.000000,0.000000,1.000000,0.000000,9.000000,0.000000,7.000000,15.000000
1303519.290097,4.000000,-3.000000,24.000000,-30.000000,-7.000000,-1.000000,7.000000,8.000000
1303519.290758,4.000000,-5.000000,-1.000000,27.000000,13.000000,1.000000,-1.000000,-1.000000
1303519.290788,-9.000000,0.000000,6.000000,-3.000000,-2.000000,-5.000000,-7.000000,-5.000000
1303519.292059,-7.000000,-3.000000,-19.000000,-8.000000,1.000000,-6.000000,-10.000000,-12.000000
1303519.292092,0.000000,-1.000000,-21.000000,35.000000,4.000000,3.000000,-6.000000,-6.000000
1303519.292827,7.000000,-2.000000,11.000000,-12.000000,-2.000000,-9.000000,0.000000,-9.000000
1303519.292849,-13.000000,-2.000000,3.000000,-14.000000,4.000000,2.000000,0.000000,15.000000
1303519.305070,7.000000,-3.000000,7.000000,44.000000,15.000000,2.000000,10.000000,8.000000
1303519.305093,0.000000,-1.000000,26.000000,-19.000000,-12.000000,-2.000000,-7.000000,-8.000000
1303519.305964,-8.000000,1.000000,-28.000000,-17.000000,-10.000000,-8.000000,-24.000000,-21.000000
1303519.305986,-12.000000,-4.000000,-8.000000,-23.000000,-11.000000,-6.000000,-8.000000,-15.000000
1303519.342297,13.000000,7.000000,4.000000,-24.000000,6.000000,8.000000,13.000000,1.000000
1303519.342321,1.000000,11.000000,5.000000,19.000000,10.000000,5.000000,31.000000,17.000000
1303519.349751,27.000000,0.000000,11.000000,12.000000,2.000000,1.000000,3.000000,16.000000
1303519.349763,-32.000000,6.000000,3.000000,-10.000000,-8.000000,-4.000000,-16.000000,-12.000000
1303519.364837,-8.000000,-3.000000,-21.000000,-39.000000,-13.000000,-8.000000,-21.000000,-11.000000
1303519.364847,0.000000,-5.000000,21.000000,23.000000,2.000000,3.000000,-9.000000,-8.000000
1303519.387253,-3.000000,-2.000000,-53.000000,11.000000,5.000000,-1.000000,-6.000000,-11.000000
1303519.387271,3.000000,-1.000000,-5.000000,-49.000000,-17.000000,-3.000000,14.000000,9.000000
1303519.410026,11.000000,2.000000,13.000000,-4.000000,-6.000000,-6.000000,-6.000000,-2.000000
1303519.410039,-1.000000,-3.000000,5.000000,2.000000,3.000000,1.000000,1.000000,0.000000
1303519.424856,9.000000,4.000000,-19.000000,-35.000000,-3.000000,-3.000000,4.000000,10.000000
1303519.424868,1.000000,0.000000,28.000000,83.000000,17.000000,-1.000000,-46.000000,-13.000000
1303519.447290,1.000000,2.000000,13.000000,-10.000000,1.000000,5.000000,44.000000,6.000000
1303519.447300,-6.000000,-1.000000,-27.000000,-31.000000,3.000000,1.000000,-5.000000,5.000000
1303519.462621,-13.000000,-5.000000,9.000000,-2.000000,-6.000000,-10.000000,-20.000000,-17.000000
1303519.462635,17.000000,0.000000,-12.000000,-7.000000,-7.000000,-10.000000,-5.000000,4.000000
1303519.470154,-11.000000,-2.000000,-4.000000,23.000000,-11.000000,-6.000000,14.000000,-8.000000
1303519.470169,7.000000,2.000000,-5.000000,-24.000000,-11.000000,0.000000,1.000000,12.000000
1303519.485818,-8.000000,-6.000000,14.000000,75.000000,39.000000,8.000000,36.000000,11.000000
1303519.485827,9.000000,-3.000000,-3.000000,28.000000,-6.000000,-6.000000,-11.000000,13.000000
1303519.487090,-6.000000,4.000000,-37.000000,60.000000,37.000000,17.000000,57.000000,43.000000
1303519.487107,10.000000,1.000000,38.000000,3.000000,-5.000000,1.000000,-2.000000,45.000000
1303519.488618,-2.000000,-6.000000,-3.000000,-10.000000,-9.000000,-15.000000,12.000000,6.000000
1303519.488633,-15.000000,-4.000000,13.000000,-3.000000,0.000000,1.000000,9.000000,9.000000
1303519.507771,-1.000000,-1.000000,19.000000,7.000000,2.000000,0.000000,-20.000000,-19.000000
1303519.507781,14.000000,2.000000,19.000000,-9.000000,2.000000,-9.000000,-4.000000,-1.000000
1303519.508465,1.000000,-2.000000,19.000000,3.000000,-10.000000,-3.000000,11.000000,-1.000000
1303519.508473,-1.000000,-2.000000,-21.000000,-43.000000,-5.000000,-4.000000,-3.000000,-8.000000
1303519.522654,2.000000,-2.000000,-15.000000,-48.000000,-19.000000,-4.000000,-6.000000,6.000000
1303519.522682,1.000000,-1.000000,23.000000,53.000000,13.000000,5.000000,1.000000,4.000000
1303519.523444,-4.000000,-2.000000,-26.000000,-28.000000,-5.000000,-2.000000,-1.000000,0.000000
1303519.523465,-5.000000,8.000000,11.000000,18.000000,9.000000,4.000000,-1.000000,-3.000000
1303519.545016,-1.000000,-3.000000,-9.000000,-13.000000,-5.000000,-2.000000,-43.000000,-10.000000
1303519.545025,12.000000,1.000000,-28.000000,-1.000000,-4.000000,-9.000000,13.000000,-7.000000
1303519.545884,-34.000000,-8.000000,23.000000,54.000000,32.000000,16.000000,-7.000000,8.000000
1303519.545891,0.000000,0.000000,13.000000,-23.000000,-11.000000,5.000000,23.000000,6.000000
1303519.582180,7.000000,-6.000000,-1.000000,47.000000,15.000000,-4.000000,-17.000000,-6.000000
1303519.582191,-4.000000,-4.000000,7.000000,-26.000000,-12.000000,-9.000000,-13.000000,-3.000000
1303519.589747,-6.000000,4.000000,-5.000000,29.000000,-4.000000,4.000000,-3.000000,3.000000
1303519.589758,-1.000000,10.000000,12.000000,-1.000000,-11.000000,-3.000000,25.000000,-1.000000
1303519.619809,5.000000,-6.000000,-37.000000,-21.000000,-4.000000,2.000000,-6.000000,-5.000000
1303519.619824,-9.000000,-5.000000,-4.000000,-18.000000,-9.000000,-10.000000,-21.000000,-10.000000
1303519.627172,-8.000000,-4.000000,-12.000000,36.000000,8.000000,0.000000,-8.000000,-7.000000
1303519.627183,-12.000000,-5.000000,20.000000,-18.000000,-20.000000,-2.000000,-8.000000,-12.000000
1303519.642870,6.000000,-6.000000,-14.000000,-39.000000,-6.000000,-3.000000,8.000000,18.000000
1303519.642879,11.000000,4.000000,-32.000000,3.000000,0.000000,3.000000,14.000000,6.000000
1303519.643590,-7.000000,2.000000,10.000000,-11.000000,-5.000000,-5.000000,-20.000000,-21.000000
1303519.643599,-4.000000,-9.000000,15.000000,1.000000,-1.000000,0.000000,21.000000,12.000000
1303519.664750,-2.000000,5.000000,-11.000000,-16.000000,-1.000000,0.000000,1.000000,9.000000
1303519.664760,-3.000000,-1.000000,-2.000000,31.000000,2.000000,-1.000000,-9.000000,-13.000000
1303519.665716,2.000000,-5.000000,-51.000000,-12.000000,-5.000000,-6.000000,-25.000000,0.000000
1303519.665726,-6.000000,4.000000,-5.000000,-12.000000,-2.000000,-3.000000,-16.000000,-18.000000
1303519.667007,-7.000000,-5.000000,-2.000000,-49.000000,-24.000000,-11.000000,-6.000000,-9.000000
1303519.667017,3.000000,1.000000,32.000000,68.000000,17.000000,3.000000,-5.000000,-10.000000
1303519.667900,1.000000,-53.000000,-5.000000,-34.000000,-12.000000,-6.000000,15.000000,19.000000
1303519.667910,0.000000,-7.000000,13.000000,11.000000,3.000000,0.000000,17.000000,8.000000
1303519.688577,-11.000000,-2.000000,-10.000000,-6.000000,-4.000000,-1.000000,-15.000000,-14.000000
1303519.688646,12.000000,5.000000,-14.000000,7.000000,2.000000,2.000000,-5.000000,-2.000000
1303519.703130,10.000000,2.000000,1.000000,-28.000000,-6.000000,-3.000000,-8.000000,-7.000000
1303519.703160,-26.000000,-2.000000,-1.000000,15.000000,14.000000,4.000000,1.000000,3.000000
1303519.725953,15.000000,1.000000,2.000000,73.000000,20.000000,9.000000,7.000000,10.000000
1303519.726057,-29.000000,5.000000,-5.000000,-6.000000,-11.000000,-2.000000,8.000000,0.000000
1303519.740498,-5.000000,2.000000,-4.000000,-17.000000,-12.000000,-6.000000,-8.000000,-7.000000
1303519.740525,-2.000000,-4.000000,-32.000000,-36.000000,-12.000000,-7.000000,-28.000000,-19.000000
1303519.762286,6.000000,0.000000,28.000000,-16.000000,3.000000,9.000000,11.000000,7.000000
1303519.762298,10.000000,-6.000000,-9.000000,10.000000,3.000000,-3.000000,12.000000,25.000000
1303519.784773,0.000000,-7.000000,16.000000,0.000000,-5.000000,-4.000000,0.000000,3.000000
1303519.784816,-3.000000,-4.000000,2.000000,-6.000000,-1.000000,2.000000,-7.000000,-12.000000
1303519.785770,-3.000000,-6.000000,1.000000,5.000000,7.000000,3.000000,-4.000000,8.000000
1303519.785797,-8.000000,-2.000000,-4.000000,15.000000,7.000000,-4.000000,-12.000000,-11.000000
1303519.786590,-2.000000,-3.000000,26.000000,-15.000000,-11.000000,1.000000,-8.000000,-13.000000
1303519.786605,-2.000000,1.000000,-29.000000,15.000000,3.000000,0.000000,-4.000000,0.000000
1303519.787629,10.000000,-7.000000,-7.000000,-25.000000,5.000000,7.000000,-11.000000,4.000000
1303519.787657,3.000000,3.000000,-11.000000,11.000000,-8.000000,-5.000000,-6.000000,0.000000
1303519.807078,-13.000000,4.000000,-11.000000,-5.000000,-1.000000,3.000000,-23.000000,-18.000000
1303519.807087,-1.000000,3.000000,-1.000000,-5.000000,-2.000000,-1.000000,36.000000,18.000000
1303519.822646,-5.000000,-6.000000,-15.000000,-12.000000,-5.000000,-7.000000,-12.000000,4.000000
1303519.822657,8.000000,-6.000000,15.000000,22.000000,1.000000,-2.000000,-13.000000,-12.000000
1303519.860223,-9.000000,1.000000,16.000000,-12.000000,3.000000,-8.000000,-10.000000,-5.000000
1303519.860239,-5.000000,-10.000000,-41.000000,-10.000000,-5.000000,-2.000000,-3.000000,-9.000000
1303519.867555,-3.000000,6.000000,-24.000000,-7.000000,-3.000000,-5.000000,-7.000000,-7.000000
1303519.867566,-6.000000,-4.000000,1.000000,-2.000000,-6.000000,-1.000000,-10.000000,0.000000
1303519.882021,3.000000,-2.000000,-4.000000,0.000000,-1.000000,1.000000,-3.000000,-21.000000
1303519.882034,-17.000000,1.000000,39.000000,-12.000000,-11.000000,-1.000000,21.000000,7.000000
1303519.882620,5.000000,2.000000,13.000000,55.000000,6.000000,1.000000,10.000000,29.000000
1303519.882630,3.000000,-1.000000,-12.000000,13.000000,-2.000000,3.000000,-9.000000,-10.000000
1303519.883767,-2.000000,5.000000,3.000000,-4.000000,5.000000,-1.000000,-4.000000,-9.000000
1303519.883775,-1.000000,-6.000000,9.000000,0.000000,-5.000000,-8.000000,-5.000000,-5.000000
1303519.897099,-8.000000,2.000000,1.000000,-1.000000,-4.000000,0.000000,-13.000000,-5.000000
1303519.897110,11.000000,2.000000,-4.000000,9.000000,1.000000,-4.000000,6.000000,15.000000
1303519.898446,-7.000000,1.000000,2.000000,-13.000000,1.000000,-5.000000,17.000000,11.000000
1303519.898454,2.000000,1.000000,9.000000,5.000000,-5.000000,-3.000000,-12.000000,-10.000000
1303519.904583,7.000000,-4.000000,0.000000,-8.000000,-6.000000,0.000000,-7.000000,-4.000000
1303519.904611,-25.000000,-6.000000,9.000000,27.000000,13.000000,3.000000,-7.000000,-6.000000
1303519.942365,-4.000000,5.000000,-9.000000,6.000000,4.000000,1.000000,14.000000,-8.000000
1303519.942375,-2.000000,6.000000,1.000000,-27.000000,-20.000000,-9.000000,-8.000000,-6.000000
1303519.957612,-4.000000,0.000000,8.000000,-17.000000,-1.000000,-3.000000,-13.000000,-3.000000
1303519.957644,-20.000000,3.000000,2.000000,19.000000,0.000000,3.000000,19.000000,-4.000000
1303519.979967,8.000000,-3.000000,8.000000,-8.000000,-11.000000,2.000000,0.000000,5.000000
1303519.979977,-14.000000,1.000000,-40.000000,3.000000,16.000000,7.000000,-3.000000,-8.000000
1303519.980409,0.000000,-5.000000,4.000000,-2.000000,-8.000000,1.000000,8.000000,-1.000000
1303519.980429,-2.000000,0.000000,14.000000,-12.000000,-3.000000,-6.000000,-8.000000,-4.000000
1303519.981455,8.000000,0.000000,8.000000,22.000000,5.000000,10.000000,-6.000000,4.000000
1303519.981463,2.000000,-10.000000,16.000000,-17.000000,-5.000000,-4.000000,16.000000,0.000000
1303519.982055,-4.000000,0.000000,-35.000000,11.000000,2.000000,3.000000,10.000000,12.000000
1303519.982063,-3.000000,-6.000000,-13.000000,8.000000,7.000000,-11.000000,-21.000000,-2.000000
1303519.983911,2.000000,-5.000000,23.000000,-10.000000,-3.000000,1.000000,-10.000000,-19.000000
1303519.983922,16.000000,4.000000,-2.000000,-1.000000,8.000000,3.000000,31.000000,8.000000
1303519.994811,-37.000000,-3.000000,-8.000000,-7.000000,-7.000000,-6.000000,9.000000,14.000000
1303519.994821,0.000000,-7.000000,0.000000,-25.000000,-6.000000,0.000000,-6.000000,-7.000000
1303520.003021,-13.000000,-4.000000,-9.000000,22.000000,10.000000,-1.000000,-12.000000,-16.000000
1303520.003065,20.000000,-7.000000,10.000000,2.000000,-5.000000,2.000000,20.000000,26.000000
1303520.016946,-8.000000,0.000000,6.000000,-37.000000,-12.000000,-10.000000,-3.000000,-6.000000
1303520.016957,-11.000000,0.000000,-2.000000,50.000000,29.000000,9.000000,-9.000000,-11.000000
1303520.018501,2.000000,1.000000,4.000000,-23.000000,-6.000000,-5.000000,-13.000000,-3.000000
1303520.018538,-3.000000,2.000000,-9.000000,37.000000,7.000000,2.000000,8.000000,-2.000000
1303520.024727,-5.000000,2.000000,12.000000,14.000000,14.000000,3.000000,-3.000000,-9.000000
1303520.024738,-6.000000,-6.000000,-29.000000,-5.000000,-2.000000,4.000000,-6.000000,2.000000
1303520.062244,3.000000,-4.000000,3.000000,-22.000000,-3.000000,1.000000,7.000000,0.000000
1303520.062273,-4.000000,2.000000,-1.000000,15.000000,-1.000000,-2.000000,-4.000000,-18.000000
1303520.077298,-10.000000,-3.000000,11.000000,32.000000,12.000000,4.000000,-9.000000,-2.000000
1303520.077309,7.000000,-4.000000,4.000000,-2.000000,-1.000000,-5.000000,-12.000000,2.000000
1303520.099680,-1.000000,4.000000,-1.000000,-12.000000,-5.000000,1.000000,20.000000,1.000000
1303520.099698,2.000000,-4.000000,12.000000,2.000000,-6.000000,1.000000,9.000000,7.000000
1303520.100231,-3.000000,-4.000000,-3.000000,-28.000000,6.000000,-10.000000,-27.000000,-14.000000
1303520.100241,-3.000000,0.000000,3.000000,56.000000,26.000000,9.000000,23.000000,13.000000
1303520.101303,1.000000,-2.000000,-5.000000,-41.000000,-22.000000,-12.000000,7.000000,-1.000000
1303520.101313,6.000000,3.000000,37.000000,87.000000,25.000000,6.000000,-9.000000,7.000000
1303520.101879,-4.000000,-7.000000,0.000000,-30.000000,-18.000000,-12.000000,-30.000000,-17.000000
1303520.101887,4.000000,2.000000,-31.000000,-18.000000,-6.000000,-5.000000,32.000000,5.000000
1303520.103535,-5.000000,0.000000,-19.000000,-9.000000,3.000000,2.000000,-10.000000,1.000000
1303520.103542,2.000000,2.000000,-6.000000,-16.000000,-7.000000,-6.000000,-13.000000,-8.000000
1303520.114502,9.000000,-3.000000,3.000000,40.000000,3.000000,0.000000,1.000000,-5.000000
1303520.114517,-7.000000,1.000000,-14.000000,-42.000000,6.000000,4.000000,-7.000000,-6.000000
1303520.122090,-5.000000,10.000000,-25.000000,26.000000,-6.000000,-1.000000,-10.000000,-2.000000
1303520.122100,5.000000,-2.000000,22.000000,-17.000000,-3.000000,0.000000,40.000000,17.000000
1303520.137462,-2.000000,-4.000000,-3.000000,-1.000000,0.000000,-3.000000,-2.000000,0.000000
1303520.137574,-4.000000,2.000000,14.000000,-45.000000,-18.000000,-5.000000,-11.000000,-7.000000
1303520.138549,6.000000,3.000000,4.000000,70.000000,19.000000,1.000000,-3.000000,-4.000000
1303520.138569,-19.000000,1.000000,-5.000000,8.000000,3.000000,1.000000,-14.000000,6.000000
1303520.144571,3.000000,0.000000,-16.000000,-21.000000,1.000000,8.000000,17.000000,14.000000
1303520.144638,-4.000000,10.000000,-4.000000,-14.000000,-5.000000,1.000000,11.000000,2.000000
1303520.159694,4.000000,4.000000,0.000000,0.000000,-4.000000,-14.000000,-12.000000,-7.000000
1303520.159703,-6.000000,4.000000,-11.000000,-9.000000,-6.000000,-6.000000,-26.000000,-26.000000
1303520.174976,3.000000,6.000000,-3.000000,4.000000,9.000000,6.000000,32.000000,17.000000
1303520.174987,4.000000,3.000000,-5.000000,-7.000000,3.000000,-4.000000,15.000000,22.000000
1303520.197316,8.000000,8.000000,-8.000000,3.000000,-4.000000,-6.000000,-7.000000,1.000000
1303520.197331,-18.000000,2.000000,-1.000000,-10.000000,-6.000000,-2.000000,-20.000000,-20.000000
1303520.219829,-4.000000,-1.000000,-48.000000,-22.000000,-11.000000,-10.000000,-25.000000,-13.000000
1303520.219840,3.000000,-8.000000,5.000000,-7.000000,-3.000000,8.000000,24.000000,11.000000
1303520.220777,10.000000,-1.000000,29.000000,8.000000,3.000000,4.000000,17.000000,-1.000000
1303520.220788,-5.000000,5.000000,-22.000000,-7.000000,1.000000,-3.000000,-5.000000,1.000000
1303520.221326,-4.000000,-6.000000,-10.000000,1.000000,-5.000000,-1.000000,-10.000000,-6.000000
1303520.221334,5.000000,-3.000000,-20.000000,-47.000000,-7.000000,-1.000000,-6.000000,-1.000000
1303520.223381,6.000000,-2.000000,1.000000,40.000000,9.000000,0.000000,5.000000,3.000000
1303520.223392,-2.000000,1.000000,-33.000000,-17.000000,-1.000000,1.000000,-1.000000,-4.000000
1303520.234629,0.000000,-5.000000,4.000000,-20.000000,-15.000000,-3.000000,-1.000000,2.000000
1303520.234640,4.000000,-4.000000,1.000000,11.000000,11.000000,2.000000,-7.000000,6.000000
1303520.235955,-1.000000,-4.000000,6.000000,46.000000,7.000000,3.000000,31.000000,6.000000
1303520.235964,-6.000000,-5.000000,8.000000,-15.000000,-8.000000,-1.000000,-9.000000,10.000000
1303520.257047,-7.000000,7.000000,-9.000000,-16.000000,-12.000000,-5.000000,-25.000000,-28.000000
1303520.257076,13.000000,-4.000000,18.000000,-9.000000,-5.000000,2.000000,16.000000,20.000000
1303520.258349,8.000000,0.000000,-14.000000,20.000000,14.000000,4.000000,24.000000,22.000000
1303520.258358,1.000000,0.000000,3.000000,-5.000000,-5.000000,-5.000000,-17.000000,-8.000000
1303520.264928,-7.000000,-2.000000,-4.000000,-4.000000,-3.000000,-2.000000,-11.000000,-13.000000
1303520.264940,0.000000,-6.000000,-12.000000,1.000000,-2.000000,-5.000000,3.000000,1.000000
1303520.279911,-3.000000,2.000000,-3.000000,-5.000000,-5.000000,-2.000000,-9.000000,-11.000000
1303520.279925,-19.000000,-7.000000,-5.000000,-17.000000,-7.000000,-6.000000,-14.000000,-16.000000
1303520.287217,8.000000,3.000000,-15.000000,19.000000,24.000000,7.000000,-1.000000,3.000000
1303520.287236,-1.000000,-3.000000,-2.000000,-11.000000,-12.000000,-1.000000,17.000000,6.000000
1303520.309760,6.000000,1.000000,4.000000,65.000000,35.000000,10.000000,3.000000,-4.000000
1303520.309836,11.000000,6.000000,24.000000,-20.000000,-26.000000,-8.000000,-6.000000,-1.000000
1303520.317549,-5.000000,-1.000000,-16.000000,-9.000000,7.000000,-1.000000,-36.000000,-6.000000
1303520.317559,0.000000,-5.000000,-23.000000,-11.000000,-9.000000,3.000000,30.000000,11.000000
1303520.354788,-2.000000,6.000000,11.000000,17.000000,9.000000,5.000000,-19.000000,-1.000000
1303520.354823,5.000000,5.000000,10.000000,-25.000000,-10.000000,-10.000000,-8.000000,-7.000000
1303520.362648,-13.000000,3.000000,-36.000000,-13.000000,3.000000,3.000000,13.000000,4.000000
1303520.362658,-11.000000,1.000000,-17.000000,-6.000000,-10.000000,-4.000000,-37.000000,-22.000000
1303520.399777,5.000000,-5.000000,-1.000000,-18.000000,-2.000000,5.000000,16.000000,0.000000
1303520.399806,3.000000,0.000000,11.000000,45.000000,2.000000,2.000000,17.000000,28.000000
1303520.407562,2.000000,-3.000000,0.000000,-20.000000,-12.000000,-10.000000,-3.000000,-9.000000
1303520.407572,-14.000000,0.000000,6.000000,17.000000,11.000000,7.000000,-9.000000,-4.000000
1303520.437268,-4.000000,-3.000000,-15.000000,-24.000000,-6.000000,-6.000000,-8.000000,-14.000000
1303520.437286,-4.000000,-3.000000,52.000000,49.000000,23.000000,9.000000,6.000000,1.000000
1303520.452570,-5.000000,-7.000000,-9.000000,-10.000000,-14.000000,-13.000000,-11.000000,-1.000000
1303520.452581,0.000000,-12.000000,7.000000,-7.000000,-8.000000,0.000000,-8.000000,-8.000000
1303520.461354,2.000000,1.000000,7.000000,-13.000000,-4.000000,0.000000,8.000000,8.000000
1303520.461363,-12.000000,4.000000,29.000000,0.000000,1.000000,4.000000,-17.000000,-24.000000
1303520.467246,-8.000000,0.000000,-6.000000,-10.000000,-3.000000,2.000000,-4.000000,-6.000000
1303520.467257,-2.000000,11.000000,-6.000000,-31.000000,-12.000000,-4.000000,-1.000000,7.000000
1303520.475250,5.000000,0.000000,11.000000,19.000000,6.000000,-2.000000,1.000000,5.000000
1303520.475259,-11.000000,-2.000000,8.000000,-7.000000,-10.000000,-10.000000,-5.000000,-6.000000
1303520.497241,22.000000,10.000000,-4.000000,0.000000,0.000000,-10.000000,-2.000000,-3.000000
1303520.497250,-34.000000,-5.000000,-46.000000,-25.000000,0.000000,7.000000,-1.000000,3.000000
1303520.498457,7.000000,-5.000000,3.000000,15.000000,-3.000000,-4.000000,-11.000000,-7.000000
1303520.498465,17.000000,-7.000000,52.000000,-8.000000,0.000000,3.000000,10.000000,4.000000
1303520.512339,2.000000,4.000000,0.000000,-13.000000,-8.000000,-10.000000,-18.000000,-6.000000
1303520.512367,3.000000,-5.000000,6.000000,12.000000,4.000000,1.000000,23.000000,7.000000
1303520.534782,1.000000,0.000000,-19.000000,-4.000000,6.000000,4.000000,4.000000,6.000000
1303520.534801,5.000000,0.000000,19.000000,-1.000000,-5.000000,-5.000000,-6.000000,0.000000
1303520.542258,3.000000,4.000000,12.000000,1.000000,3.000000,4.000000,-7.000000,-8.000000
1303520.542269,-6.000000,1.000000,-16.000000,1.000000,1.000000,3.000000,7.000000,4.000000
1303520.572357,2.000000,-3.000000,-24.000000,-14.000000,2.000000,-6.000000,-13.000000,-7.000000
1303520.572385,-2.000000,-10.000000,-35.000000,31.000000,1.000000,-2.000000,-3.000000,-1.000000
1303520.579826,5.000000,1.000000,11.000000,3.000000,5.000000,1.000000,-3.000000,-6.000000
1303520.579841,-3.000000,-3.000000,15.000000,-23.000000,-7.000000,-3.000000,7.000000,8.000000
1303520.617147,-3.000000,-5.000000,-5.000000,-12.000000,-2.000000,0.000000,-1.000000,-2.000000
1303520.617159,1.000000,-2.000000,2.000000,25.000000,6.000000,5.000000,-3.000000,-1.000000
1303520.632182,1.000000,1.000000,7.000000,32.000000,6.000000,3.000000,9.000000,4.000000
1303520.632192,6.000000,2.000000,-26.000000,-47.000000,-8.000000,-3.000000,1.000000,9.000000
1303520.654938,18.000000,4.000000,-18.000000,33.000000,15.000000,-4.000000,-7.000000,-3.000000
1303520.655043,-36.000000,0.000000,-14.000000,-25.000000,-4.000000,1.000000,22.000000,1.000000
1303520.662155,-11.000000,-1.000000,-12.000000,-12.000000,-14.000000,-11.000000,-14.000000,-7.000000
1303520.662189,12.000000,-1.000000,18.000000,2.000000,6.000000,6.000000,6.000000,-1.000000
1303520.692427,-3.000000,-4.000000,0.000000,-1.000000,0.000000,-2.000000,-32.000000,-17.000000
1303520.692437,-10.000000,-8.000000,6.000000,-10.000000,8.000000,-5.000000,6.000000,2.000000
1303520.699842,1.000000,-2.000000,53.000000,-3.000000,-4.000000,0.000000,-13.000000,-10.000000
1303520.699852,-9.000000,-2.000000,-3.000000,-8.000000,-5.000000,0.000000,-5.000000,-8.000000
1303520.707209,-2.000000,-5.000000,18.000000,-19.000000,-11.000000,-7.000000,-59.000000,-10.000000
1303520.707228,-6.000000,-5.000000,7.000000,30.000000,6.000000,1.000000,44.000000,1.000000
1303520.729872,-4.000000,-1.000000,-7.000000,18.000000,15.000000,-1.000000,-21.000000,-14.000000
1303520.729883,-22.000000,-2.000000,-17.000000,-11.000000,-7.000000,-3.000000,6.000000,-20.000000
1303520.737407,3.000000,2.000000,0.000000,-6.000000,1.000000,-6.000000,1.000000,-8.000000
1303520.737418,-11.000000,-8.000000,-39.000000,-9.000000,-7.000000,-3.000000,-10.000000,-2.000000
1303520.737940,6.000000,0.000000,34.000000,-21.000000,-5.000000,-1.000000,-2.000000,-2.000000
1303520.737948,-4.000000,3.000000,-36.000000,4.000000,2.000000,2.000000,1.000000,-5.000000
1303520.738386,5.000000,-7.000000,-6.000000,-18.000000,-4.000000,0.000000,-1.000000,-4.000000
1303520.738394,-21.000000,-8.000000,6.000000,19.000000,5.000000,0.000000,-3.000000,-5.000000
1303520.739481,-6.000000,-4.000000,-20.000000,20.000000,-2.000000,1.000000,-8.000000,-4.000000
1303520.739490,1.000000,1.000000,20.000000,13.000000,5.000000,0.000000,6.000000,0.000000
1303520.740321,12.000000,-3.000000,-58.000000,-22.000000,-4.000000,4.000000,10.000000,19.000000
1303520.740329,2.000000,-4.000000,-6.000000,-13.000000,-11.000000,-3.000000,0.000000,9.000000
1303520.752454,11.000000,2.000000,-11.000000,-21.000000,-11.000000,-1.000000,23.000000,18.000000
1303520.752468,-10.000000,6.000000,38.000000,-10.000000,-13.000000,-4.000000,6.000000,16.000000
1303520.789801,-4.000000,-4.000000,1.000000,-4.000000,-5.000000,-6.000000,-17.000000,-14.000000
1303520.789812,0.000000,1.000000,8.000000,-24.000000,-8.000000,1.000000,1.000000,-7.000000
1303520.797281,3.000000,8.000000,-44.000000,24.000000,2.000000,3.000000,-3.000000,-3.000000
1303520.797295,-15.000000,4.000000,1.000000,-2.000000,-7.000000,-2.000000,-6.000000,-5.000000
1303520.812610,-1.000000,0.000000,-6.000000,-14.000000,4.000000,-1.000000,-9.000000,-4.000000
1303520.812621,3.000000,-4.000000,-10.000000,20.000000,-1.000000,1.000000,10.000000,-4.000000
1303520.813248,-6.000000,-5.000000,42.000000,-7.000000,-6.000000,-2.000000,1.000000,-3.000000
1303520.813257,10.000000,-6.000000,-4.000000,-1.000000,-3.000000,-4.000000,1.000000,6.000000
1303520.814398,-2.000000,-5.000000,-7.000000,10.000000,1.000000,-5.000000,0.000000,3.000000
1303520.814406,-2.000000,6.000000,-31.000000,-26.000000,-9.000000,-8.000000,-9.000000,-5.000000
1303520.814976,-2.000000,3.000000,15.000000,42.000000,19.000000,2.000000,6.000000,5.000000
1303520.814983,2.000000,-3.000000,-3.000000,-40.000000,-13.000000,-6.000000,-6.000000,0.000000
1303520.834932,6.000000,-2.000000,43.000000,8.000000,6.000000,5.000000,6.000000,4.000000
1303520.834949,-3.000000,-5.000000,3.000000,-30.000000,-19.000000,-11.000000,-16.000000,-15.000000
1303520.835277,-14.000000,-9.000000,-42.000000,-13.000000,-3.000000,-1.000000,4.000000,-5.000000
1303520.835285,5.000000,2.000000,7.000000,-2.000000,-4.000000,5.000000,-1.000000,2.000000
1303520.849803,-3.000000,2.000000,-16.000000,-8.000000,-3.000000,-4.000000,0.000000,4.000000
1303520.849819,2.000000,-6.000000,0.000000,-3.000000,4.000000,5.000000,10.000000,9.000000
1303520.850380,9.000000,-2.000000,9.000000,42.000000,4.000000,-3.000000,-5.000000,-7.000000
1303520.850388,0.000000,3.000000,13.000000,2.000000,-9.000000,-1.000000,-14.000000,-11.000000
1303520.857784,8.000000,-1.000000,-11.000000,2.000000,-7.000000,-2.000000,-8.000000,-3.000000
1303520.857792,-7.000000,-5.000000,19.000000,-6.000000,0.000000,4.000000,0.000000,3.000000
1303520.872561,-2.000000,3.000000,-3.000000,-7.000000,-5.000000,-1.000000,-5.000000,-4.000000
1303520.872571,-6.000000,-9.000000,-2.000000,3.000000,-4.000000,4.000000,24.000000,14.000000
1303520.909763,9.000000,-8.000000,4.000000,2.000000,-5.000000,-2.000000,-18.000000,-5.000000
1303520.909773,9.000000,4.000000,-13.000000,-4.000000,-7.000000,4.000000,17.000000,12.000000
1303520.917466,-6.000000,-3.000000,-19.000000,-77.000000,-16.000000,-10.000000,-6.000000,-4.000000
1303520.917477,-2.000000,3.000000,21.000000,127.000000,45.000000,11.000000,-7.000000,-8.000000
1303520.932152,-6.000000,-6.000000,-15.000000,-23.000000,-18.000000,-3.000000,-6.000000,-12.000000
1303520.932174,6.000000,-4.000000,7.000000,-18.000000,-9.000000,-2.000000,9.000000,18.000000
1303520.932719,-6.000000,-6.000000,-17.000000,-3.000000,-1.000000,1.000000,3.000000,4.000000
1303520.932729,0.000000,7.000000,4.000000,-12.000000,-7.000000,-5.000000,0.000000,-10.000000
1303520.934033,1.000000,2.000000,34.000000,23.000000,11.000000,2.000000,5.000000,7.000000
1303520.934065,-1.000000,-4.000000,-33.000000,-15.000000,-4.000000,-7.000000,-22.000000,-17.000000
1303520.934530,7.000000,-3.000000,12.000000,7.000000,4.000000,0.000000,4.000000,-6.000000
1303520.934540,2.000000,-2.000000,9.000000,-5.000000,0.000000,-3.000000,-9.000000,15.000000
1303520.954815,9.000000,2.000000,17.000000,-2.000000,-9.000000,0.000000,21.000000,7.000000
1303520.954916,2.000000,-1.000000,14.000000,36.000000,21.000000,0.000000,-13.000000,-7.000000
1303520.955082,21.000000,3.000000,-3.000000,10.000000,1.000000,3.000000,20.000000,-1.000000
1303520.955108,6.000000,-4.000000,14.000000,-8.000000,-13.000000,5.000000,35.000000,24.000000
1303520.969974,5.000000,2.000000,1.000000,-36.000000,0.000000,0.000000,-21.000000,-15.000000
1303520.969986,0.000000,5.000000,-10.000000,64.000000,20.000000,-4.000000,-20.000000,-12.000000
1303520.977275,-3.000000,-1.000000,-3.000000,17.000000,4.000000,-2.000000,-7.000000,-5.000000
1303520.977287,-10.000000,-8.000000,9.000000,-10.000000,-7.000000,-3.000000,-6.000000,0.000000
1303521.007556,-1.000000,-3.000000,5.000000,-16.000000,-7.000000,5.000000,8.000000,-1.000000
1303521.007567,15.000000,1.000000,15.000000,61.000000,37.000000,20.000000,24.000000,17.000000
1303521.014961,1.000000,-1.000000,-7.000000,-27.000000,-13.000000,-12.000000,-17.000000,-12.000000
1303521.014971,-13.000000,2.000000,1.000000,-14.000000,-1.000000,4.000000,0.000000,-14.000000
1303521.030066,0.000000,-2.000000,-19.000000,-14.000000,3.000000,-1.000000,16.000000,15.000000
1303521.030076,-3.000000,1.000000,62.000000,23.000000,4.000000,4.000000,6.000000,10.000000
1303521.052594,0.000000,-8.000000,13.000000,-11.000000,-13.000000,-10.000000,-21.000000,-12.000000
1303521.052607,4.000000,8.000000,-49.000000,-16.000000,-8.000000,-4.000000,-12.000000,-8.000000
1303521.067836,1.000000,1.000000,-13.000000,5.000000,6.000000,-9.000000,-6.000000,-8.000000
1303521.067847,15.000000,-4.000000,24.000000,-7.000000,-5.000000,8.000000,28.000000,18.000000
1303521.068370,-13.000000,-6.000000,4.000000,-8.000000,9.000000,-1.000000,-13.000000,-6.000000
1303521.068383,-7.000000,-4.000000,-2.000000,2.000000,-4.000000,-3.000000,-24.000000,-12.000000
1303521.069672,4.000000,-4.000000,-13.000000,-30.000000,-6.000000,-6.000000,0.000000,-2.000000
1303521.069687,9.000000,-6.000000,29.000000,53.000000,17.000000,5.000000,-41.000000,-9.000000
1303521.070199,-12.000000,0.000000,-23.000000,-35.000000,-12.000000,-3.000000,50.000000,12.000000
1303521.070208,1.000000,-4.000000,23.000000,36.000000,14.000000,5.000000,-1.000000,19.000000
1303521.071174,4.000000,4.000000,15.000000,3.000000,-5.000000,-3.000000,14.000000,11.000000
1303521.071191,13.000000,-1.000000,-10.000000,-7.000000,-2.000000,-5.000000,-20.000000,-4.000000
1303521.089925,-9.000000,3.000000,-10.000000,-40.000000,0.000000,1.000000,-1.000000,-11.000000
1303521.089940,2.000000,9.000000,-14.000000,83.000000,13.000000,0.000000,-2.000000,-4.000000
1303521.090532,-15.000000,1.000000,-9.000000,-31.000000,-2.000000,0.000000,1.000000,2.000000
1303521.090563,4.000000,-6.000000,5.000000,22.000000,13.000000,2.000000,-11.000000,-3.000000
1303521.112510,-4.000000,1.000000,-10.000000,-25.000000,-5.000000,-4.000000,-15.000000,-7.000000
1303521.112542,-6.000000,3.000000,-17.000000,1.000000,-6.000000,-6.000000,-11.000000,-10.000000
1303521.127187,4.000000,3.000000,11.000000,-6.000000,2.000000,-3.000000,3.000000,17.000000
1303521.127224,-7.000000,4.000000,6.000000,12.000000,12.000000,12.000000,16.000000,1.000000
1303521.172271,-8.000000,2.000000,-20.000000,-6.000000,-3.000000,-5.000000,-19.000000,-16.000000
1303521.172288,7.000000,-6.000000,3.000000,-13.000000,-10.000000,0.000000,-9.000000,-7.000000
1303521.172639,7.000000,-6.000000,3.000000,31.000000,12.000000,8.000000,26.000000,31.000000
1303521.172651,-5.000000,-9.000000,-2.000000,-2.000000,-4.000000,-3.000000,4.000000,4.000000
1303521.173821,-7.000000,4.000000,-37.000000,-17.000000,-15.000000,-7.000000,3.000000,-13.000000
1303521.173849,-10.000000,-6.000000,12.000000,-23.000000,9.000000,5.000000,0.000000,0.000000
1303521.174547,12.000000,-9.000000,24.000000,82.000000,11.000000,-1.000000,-14.000000,0.000000
1303521.174591,1.000000,-5.000000,-11.000000,-19.000000,-21.000000,-8.000000,-15.000000,-10.000000
1303521.176089,1.000000,2.000000,-9.000000,-5.000000,-4.000000,-4.000000,-12.000000,-1.000000
1303521.176115,3.000000,0.000000,28.000000,3.000000,-9.000000,-2.000000,13.000000,-3.000000
1303521.179619,4.000000,0.000000,18.000000,-40.000000,-13.000000,1.000000,8.000000,20.000000
1303521.179647,-2.000000,-1.000000,-6.000000,38.000000,18.000000,12.000000,-8.000000,-5.000000
1303521.187139,3.000000,0.000000,21.000000,1.000000,0.000000,1.000000,-6.000000,-4.000000
1303521.187167,-5.000000,3.000000,-15.000000,-15.000000,-3.000000,-6.000000,-17.000000,-13.000000
1303521.209737,4.000000,5.000000,-15.000000,-16.000000,-4.000000,-6.000000,-2.000000,-3.000000
1303521.209749,10.000000,8.000000,27.000000,1.000000,8.000000,4.000000,13.000000,18.000000
1303521.232195,-4.000000,-13.000000,-63.000000,-6.000000,8.000000,2.000000,18.000000,11.000000
1303521.232207,-3.000000,1.000000,-11.000000,10.000000,-5.000000,5.000000,-6.000000,-12.000000
1303521.254800,2.000000,-8.000000,-9.000000,-9.000000,-6.000000,0.000000,12.000000,12.000000
1303521.254811,3.000000,2.000000,2.000000,-5.000000,-6.000000,-7.000000,-6.000000,8.000000
1303521.262367,-12.000000,-3.000000,19.000000,-16.000000,-9.000000,-15.000000,-29.000000,-21.000000
1303521.262425,-1.000000,4.000000,16.000000,14.000000,7.000000,2.000000,3.000000,-11.000000
1303521.285788,3.000000,-1.000000,-23.000000,3.000000,2.000000,2.000000,14.000000,18.000000
1303521.285798,-2.000000,2.000000,-50.000000,-48.000000,-14.000000,-4.000000,20.000000,-4.000000
1303521.286536,3.000000,-7.000000,26.000000,51.000000,30.000000,5.000000,0.000000,10.000000
1303521.286544,-10.000000,-1.000000,-16.000000,-8.000000,-5.000000,3.000000,-9.000000,-5.000000
1303521.286760,-6.000000,-1.000000,-3.000000,-25.000000,-14.000000,-5.000000,-13.000000,-6.000000
1303521.286773,8.000000,-2.000000,5.000000,7.000000,5.000000,13.000000,4.000000,-5.000000
1303521.287196,4.000000,-6.000000,25.000000,6.000000,-5.000000,6.000000,5.000000,12.000000
1303521.287204,3.000000,3.000000,-21.000000,-7.000000,-3.000000,-5.000000,-11.000000,-1.000000
1303521.292440,0.000000,-2.000000,12.000000,-20.000000,-7.000000,-8.000000,-20.000000,-3.000000
1303521.292452,-11.000000,-7.000000,-12.000000,-23.000000,2.000000,4.000000,5.000000,2.000000
1303521.300078,17.000000,3.000000,-3.000000,-5.000000,-15.000000,1.000000,9.000000,14.000000
1303521.300091,-10.000000,-6.000000,-24.000000,23.000000,7.000000,-1.000000,12.000000,3.000000
1303521.307110,6.000000,2.000000,13.000000,1.000000,13.000000,3.000000,0.000000,2.000000
1303521.307129,-3.000000,0.000000,-4.000000,15.000000,1.000000,-2.000000,-11.000000,-7.000000
1303521.330204,-8.000000,3.000000,-8.000000,-27.000000,-22.000000,-10.000000,0.000000,-9.000000
1303521.330213,-3.000000,-1.000000,17.000000,7.000000,5.000000,-1.000000,-32.000000,-15.000000
1303521.331020,15.000000,0.000000,0.000000,16.000000,12.000000,8.000000,34.000000,12.000000
1303521.331057,-6.000000,0.000000,-14.000000,1.000000,-3.000000,-4.000000,-8.000000,4.000000
1303521.352289,-10.000000,-7.000000,2.000000,-20.000000,-12.000000,-7.000000,-4.000000,-11.000000
1303521.352299,9.000000,-7.000000,-2.000000,6.000000,-7.000000,0.000000,9.000000,13.000000
1303521.367251,2.000000,4.000000,27.000000,-26.000000,-17.000000,-4.000000,-10.000000,4.000000
1303521.367261,5.000000,-4.000000,-11.000000,63.000000,15.000000,5.000000,6.000000,2.000000
1303521.413627,3.000000,5.000000,27.000000,-16.000000,-6.000000,-10.000000,-1.000000,1.000000
1303521.413679,-5.000000,-4.000000,-7.000000,-16.000000,-4.000000,4.000000,-6.000000,-3.000000
1303521.415289,-1.000000,-6.000000,10.000000,-21.000000,-8.000000,-5.000000,3.000000,-13.000000
1303521.415320,-5.000000,0.000000,-20.000000,27.000000,6.000000,-5.000000,34.000000,28.000000
1303521.416899,9.000000,3.000000,10.000000,-10.000000,-5.000000,2.000000,-32.000000,-7.000000
1303521.416920,-9.000000,7.000000,-16.000000,-3.000000,2.000000,2.000000,-7.000000,-9.000000
1303521.417129,-2.000000,0.000000,-11.000000,-21.000000,-12.000000,-7.000000,-1.000000,-3.000000
1303521.417139,6.000000,-3.000000,0.000000,-5.000000,19.000000,5.000000,-6.000000,1.000000
1303521.417221,15.000000,2.000000,9.000000,22.000000,3.000000,5.000000,-10.000000,-3.000000
1303521.417230,1.000000,-3.000000,15.000000,-2.000000,1.000000,-1.000000,33.000000,6.000000
1303521.427512,16.000000,3.000000,-32.000000,70.000000,15.000000,3.000000,-3.000000,1.000000
1303521.427532,13.000000,3.000000,13.000000,-26.000000,-14.000000,-4.000000,11.000000,11.000000
1303521.428422,11.000000,-2.000000,-5.000000,26.000000,7.000000,6.000000,9.000000,-3.000000
1303521.428467,-13.000000,5.000000,-11.000000,-23.000000,-9.000000,-12.000000,-10.000000,1.000000
1303521.465032,17.000000,3.000000,12.000000,-2.000000,7.000000,-4.000000,2.000000,10.000000
1303521.465054,-13.000000,9.000000,5.000000,-10.000000,-8.000000,-5.000000,-12.000000,-6.000000
1303521.472141,-10.000000,-1.000000,-12.000000,-20.000000,-11.000000,-4.000000,-17.000000,-27.000000
1303521.472169,7.000000,1.000000,3.000000,-3.000000,-9.000000,-5.000000,25.000000,29.000000
1303521.509533,8.000000,-1.000000,-4.000000,-4.000000,7.000000,0.000000,1.000000,0.000000
1303521.509563,-6.000000,-6.000000,-6.000000,0.000000,2.000000,-1.000000,-3.000000,-5.000000
1303521.510080,-9.000000,-3.000000,-3.000000,-1.000000,-4.000000,-3.000000,-16.000000,-15.000000
1303521.510107,-2.000000,5.000000,2.000000,3.000000,-5.000000,-6.000000,-55.000000,-20.000000
1303521.511534,-14.000000,2.000000,-8.000000,-16.000000,-6.000000,-1.000000,60.000000,14.000000
1303521.511555,9.000000,1.000000,4.000000,-1.000000,-6.000000,-1.000000,-13.000000,1.000000
1303521.512022,1.000000,1.000000,-10.000000,-7.000000,-24.000000,-4.000000,21.000000,2.000000
1303521.512042,4.000000,2.000000,19.000000,48.000000,29.000000,16.000000,22.000000,21.000000
1303521.513627,-7.000000,-9.000000,-7.000000,-34.000000,-14.000000,-7.000000,-6.000000,5.000000
1303521.513637,-12.000000,-4.000000,34.000000,24.000000,-4.000000,-8.000000,-16.000000,-9.000000
1303521.525429,13.000000,3.000000,-15.000000,-14.000000,-6.000000,-1.000000,-11.000000,-2.000000
1303521.525439,-26.000000,-1.000000,1.000000,17.000000,0.000000,3.000000,20.000000,4.000000
1303521.532412,-5.000000,-7.000000,-8.000000,-29.000000,-10.000000,-7.000000,-3.000000,-1.000000
1303521.532424,-2.000000,-7.000000,-11.000000,14.000000,11.000000,-1.000000,4.000000,1.000000
1303521.547299,1.000000,4.000000,9.000000,12.000000,1.000000,4.000000,2.000000,6.000000
1303521.547310,8.000000,-4.000000,10.000000,-13.000000,-8.000000,-6.000000,-6.000000,-3.000000
1303521.562086,-9.000000,-7.000000,-39.000000,-25.000000,-10.000000,-6.000000,-7.000000,-7.000000
1303521.562099,-9.000000,-5.000000,-26.000000,-7.000000,5.000000,-1.000000,1.000000,-8.000000
1303521.563534,5.000000,-4.000000,25.000000,-30.000000,-16.000000,-11.000000,-1.000000,14.000000
1303521.563545,-1.000000,0.000000,-34.000000,-5.000000,9.000000,4.000000,-4.000000,-3.000000
1303521.584839,-5.000000,-1.000000,-1.000000,-30.000000,-17.000000,-1.000000,-7.000000,-8.000000
1303521.584851,-4.000000,-5.000000,-16.000000,-5.000000,2.000000,4.000000,-5.000000,-8.000000
1303521.622515,13.000000,5.000000,28.000000,53.000000,4.000000,11.000000,10.000000,3.000000
1303521.622526,5.000000,4.000000,39.000000,8.000000,-7.000000,-3.000000,10.000000,14.000000
1303521.629865,9.000000,-1.000000,-39.000000,-39.000000,-9.000000,-3.000000,22.000000,10.000000
1303521.629876,0.000000,5.000000,-20.000000,13.000000,5.000000,-1.000000,13.000000,2.000000
1303521.667542,-6.000000,2.000000,31.000000,-7.000000,-7.000000,-4.000000,3.000000,10.000000
1303521.667553,-2.000000,1.000000,6.000000,-5.000000,-9.000000,-10.000000,-65.000000,-27.000000
1303521.682306,-5.000000,-8.000000,0.000000,-31.000000,-16.000000,-5.000000,26.000000,-1.000000
1303521.682316,2.000000,0.000000,3.000000,41.000000,25.000000,15.000000,0.000000,10.000000
1303521.705323,-14.000000,1.000000,-4.000000,-17.000000,-8.000000,-3.000000,-10.000000,-4.000000
1303521.705332,4.000000,-6.000000,-2.000000,15.000000,11.000000,5.000000,-10.000000,-5.000000
1303521.706363,9.000000,-2.000000,-8.000000,7.000000,0.000000,-1.000000,4.000000,4.000000
1303521.706370,-6.000000,-5.000000,1.000000,22.000000,8.000000,2.000000,-10.000000,2.000000
1303521.706977,2.000000,-5.000000,-5.000000,-7.000000,-12.000000,-5.000000,-4.000000,0.000000
1303521.706985,-1.000000,-2.000000,27.000000,-12.000000,-1.000000,-10.000000,-7.000000,-3.000000
1303521.707562,1.000000,-3.000000,-34.000000,-37.000000,-13.000000,-5.000000,10.000000,13.000000
1303521.707569,5.000000,4.000000,-4.000000,22.000000,12.000000,3.000000,9.000000,7.000000
1303521.708936,21.000000,4.000000,19.000000,-2.000000,-7.000000,1.000000,-3.000000,-1.000000
1303521.708947,-10.000000,-4.000000,-12.000000,7.000000,8.000000,-1.000000,7.000000,5.000000
1303521.727132,-3.000000,4.000000,-3.000000,1.000000,4.000000,-8.000000,-67.000000,-12.000000
1303521.727142,-2.000000,-8.000000,-4.000000,1.000000,0.000000,12.000000,80.000000,13.000000
1303521.728445,10.000000,10.000000,16.000000,-4.000000,-4.000000,-5.000000,-13.000000,-2.000000
1303521.728476,6.000000,-10.000000,17.000000,14.000000,2.000000,-2.000000,-15.000000,-9.000000
1303521.742182,-28.000000,-3.000000,5.000000,-3.000000,-4.000000,0.000000,-7.000000,-7.000000
1303521.742195,-1.000000,-3.000000,-18.000000,-20.000000,-12.000000,-7.000000,-7.000000,-2.000000
1303521.743367,2.000000,-4.000000,1.000000,53.000000,3.000000,3.000000,2.000000,3.000000
1303521.743421,5.000000,3.000000,-5.000000,-9.000000,-6.000000,-3.000000,11.000000,8.000000
1303521.749936,0.000000,-3.000000,-6.000000,-12.000000,-5.000000,-3.000000,-7.000000,2.000000
1303521.749947,-2.000000,2.000000,10.000000,-14.000000,-6.000000,-4.000000,21.000000,-1.000000
1303521.765448,-4.000000,6.000000,16.000000,0.000000,8.000000,-2.000000,-2.000000,0.000000
1303521.765458,-1.000000,2.000000,-10.000000,9.000000,-8.000000,-7.000000,-21.000000,-16.000000
1303521.787085,7.000000,4.000000,-7.000000,-6.000000,-4.000000,0.000000,31.000000,20.000000
1303521.787114,-1.000000,-2.000000,-14.000000,-30.000000,-8.000000,-2.000000,7.000000,10.000000
1303521.788367,-4.000000,1.000000,29.000000,38.000000,18.000000,2.000000,-22.000000,-5.000000
1303521.788376,4.000000,6.000000,19.000000,29.000000,7.000000,11.000000,5.000000,8.000000
1303521.802556,17.000000,5.000000,11.000000,-6.000000,-1.000000,0.000000,20.000000,-3.000000
1303521.802568,-40.000000,5.000000,-45.000000,-35.000000,-10.000000,-11.000000,-5.000000,-5.000000
1303521.824864,0.000000,-1.000000,6.000000,11.000000,3.000000,-1.000000,-12.000000,-11.000000
1303521.824899,-8.000000,-6.000000,10.000000,-4.000000,-2.000000,-6.000000,-4.000000,-8.000000
1303521.839906,2.000000,-6.000000,7.000000,-6.000000,6.000000,0.000000,-11.000000,-12.000000
1303521.839919,2.000000,-3.000000,1.000000,-8.000000,0.000000,-1.000000,7.000000,7.000000
1303521.854966,9.000000,-5.000000,-32.000000,30.000000,3.000000,4.000000,25.000000,20.000000
1303521.854977,-9.000000,-11.000000,-28.000000,-3.000000,-3.000000,-8.000000,7.000000,-2.000000
1303521.862497,-7.000000,2.000000,-11.000000,-12.000000,-10.000000,1.000000,-6.000000,-7.000000
1303521.862508,2.000000,-1.000000,-11.000000,-32.000000,-20.000000,-8.000000,-4.000000,1.000000
1303521.884961,2.000000,4.000000,2.000000,5.000000,2.000000,3.000000,2.000000,-1.000000
1303521.884969,-2.000000,-1.000000,-15.000000,-20.000000,-17.000000,-6.000000,-9.000000,-5.000000
1303521.885690,-3.000000,8.000000,8.000000,-35.000000,-19.000000,-3.000000,5.000000,-5.000000
1303521.885698,8.000000,-5.000000,1.000000,49.000000,13.000000,0.000000,-6.000000,-4.000000
1303521.887270,-17.000000,1.000000,-18.000000,-26.000000,-5.000000,4.000000,10.000000,1.000000
1303521.887281,3.000000,0.000000,7.000000,-13.000000,1.000000,1.000000,-14.000000,-4.000000
1303521.887799,4.000000,-9.000000,-12.000000,-14.000000,-5.000000,-4.000000,24.000000,6.000000
1303521.887808,2.000000,-8.000000,8.000000,-6.000000,5.000000,1.000000,13.000000,17.000000
1303521.888602,9.000000,-2.000000,-6.000000,14.000000,1.000000,2.000000,4.000000,-1.000000
1303521.888610,3.000000,5.000000,8.000000,2.000000,-2.000000,-4.000000,3.000000,14.000000
1303521.899906,-12.000000,6.000000,13.000000,-33.000000,-5.000000,-5.000000,-14.000000,-10.000000
1303521.899919,-3.000000,-1.000000,-36.000000,2.000000,-4.000000,-1.000000,-14.000000,-9.000000
1303521.901026,-11.000000,6.000000,-5.000000,-14.000000,-15.000000,-4.000000,-3.000000,-7.000000
1303521.901034,2.000000,3.000000,9.000000,24.000000,-3.000000,-9.000000,-3.000000,-5.000000
1303521.922255,10.000000,-10.000000,-14.000000,28.000000,23.000000,10.000000,7.000000,4.000000
1303521.922266,3.000000,-4.000000,9.000000,49.000000,-1.000000,2.000000,-11.000000,4.000000
1303521.944804,-6.000000,-1.000000,-3.000000,-27.000000,-14.000000,-4.000000,6.000000,-2.000000
1303521.944814,0.000000,-7.000000,1.000000,-14.000000,-1.000000,-1.000000,-7.000000,-1.000000
1303521.960405,-2.000000,2.000000,2.000000,-1.000000,1.000000,0.000000,-7.000000,-4.000000
1303521.960443,-7.000000,-5.000000,-9.000000,-25.000000,-3.000000,-5.000000,0.000000,-4.000000
1303522.004944,3.000000,-4.000000,20.000000,28.000000,9.000000,4.000000,5.000000,3.000000
1303522.004973,0.000000,-4.000000,-5.000000,10.000000,-1.000000,-2.000000,-10.000000,-1.000000
1303522.019943,4.000000,0.000000,-7.000000,-21.000000,-5.000000,6.000000,4.000000,-2.000000
1303522.019978,-5.000000,-6.000000,-18.000000,-39.000000,-13.000000,-4.000000,-13.000000,-6.000000
1303522.020871,2.000000,4.000000,6.000000,26.000000,6.000000,9.000000,-3.000000,1.000000
1303522.020888,1.000000,7.000000,1.000000,-6.000000,-10.000000,-17.000000,3.000000,0.000000
1303522.021705,3.000000,1.000000,12.000000,-20.000000,-7.000000,-8.000000,10.000000,17.000000
1303522.021728,0.000000,5.000000,-66.000000,43.000000,17.000000,10.000000,17.000000,19.000000
1303522.022702,-10.000000,1.000000,-2.000000,-5.000000,-15.000000,-8.000000,-25.000000,-20.000000
1303522.022711,8.000000,-4.000000,-9.000000,-18.000000,-10.000000,-5.000000,-21.000000,-12.000000
1303522.027169,4.000000,4.000000,-3.000000,-8.000000,-7.000000,-4.000000,-4.000000,-6.000000
1303522.027187,0.000000,0.000000,16.000000,11.000000,5.000000,-3.000000,-3.000000,-2.000000
1303522.064952,8.000000,-2.000000,-21.000000,8.000000,0.000000,5.000000,29.000000,-1.000000
1303522.064969,4.000000,-5.000000,1.000000,6.000000,19.000000,15.000000,16.000000,13.000000
1303522.079998,20.000000,-1.000000,5.000000,12.000000,17.000000,2.000000,-7.000000,9.000000
1303522.080009,-13.000000,-3.000000,-29.000000,-34.000000,-14.000000,-8.000000,-10.000000,2.000000
1303522.117234,5.000000,5.000000,7.000000,29.000000,4.000000,-3.000000,8.000000,-5.000000
1303522.117244,2.000000,-2.000000,4.000000,-33.000000,-7.000000,6.000000,-15.000000,-6.000000
1303522.117573,-1.000000,2.000000,13.000000,30.000000,14.000000,7.000000,-4.000000,-7.000000
1303522.117600,-8.000000,2.000000,-22.000000,-27.000000,-6.000000,-1.000000,8.000000,-6.000000
1303522.118874,-7.000000,-3.000000,-21.000000,-18.000000,1.000000,-3.000000,-12.000000,-4.000000
1303522.118894,-1.000000,-1.000000,18.000000,17.000000,13.000000,0.000000,-6.000000,3.000000
1303522.119556,6.000000,-1.000000,-28.000000,-27.000000,-11.000000,3.000000,10.000000,15.000000
1303522.119564,17.000000,5.000000,17.000000,32.000000,9.000000,5.000000,-8.000000,-3.000000
1303522.121062,0.000000,-4.000000,13.000000,-1.000000,5.000000,7.000000,-8.000000,-2.000000
1303522.121080,-13.000000,5.000000,26.000000,-8.000000,-10.000000,-4.000000,-4.000000,-6.000000
1303522.124681,-6.000000,-4.000000,-28.000000,9.000000,2.000000,5.000000,10.000000,1.000000
1303522.124704,1.000000,-5.000000,4.000000,-8.000000,-2.000000,-5.000000,0.000000,-1.000000
1303522.139856,-5.000000,6.000000,9.000000,-10.000000,-1.000000,-1.000000,-6.000000,-12.000000
1303522.139869,2.000000,8.000000,14.000000,22.000000,-6.000000,-4.000000,5.000000,9.000000
1303522.140514,2.000000,-6.000000,-30.000000,-33.000000,-13.000000,-3.000000,-5.000000,-1.000000
1303522.140523,-2.000000,-7.000000,3.000000,14.000000,11.000000,6.000000,-6.000000,-7.000000
1303522.177508,-6.000000,-1.000000,-2.000000,-8.000000,-6.000000,-2.000000,21.000000,2.000000
1303522.177518,1.000000,-3.000000,-6.000000,-19.000000,-1.000000,-7.000000,-10.000000,7.000000
1303522.199879,1.000000,-9.000000,-4.000000,7.000000,10.000000,0.000000,-13.000000,-13.000000
1303522.199929,0.000000,-7.000000,-58.000000,-49.000000,-11.000000,-5.000000,8.000000,6.000000
1303522.222266,0.000000,2.000000,48.000000,79.000000,35.000000,8.000000,3.000000,2.000000
1303522.222279,6.000000,2.000000,16.000000,-17.000000,-4.000000,1.000000,-12.000000,-11.000000
1303522.222827,-1.000000,0.000000,-1.000000,-19.000000,-7.000000,-4.000000,2.000000,20.000000
1303522.222835,2.000000,-6.000000,-9.000000,-22.000000,0.000000,-10.000000,-7.000000,-7.000000
1303522.223760,0.000000,3.000000,7.000000,65.000000,3.000000,5.000000,-12.000000,-2.000000
1303522.223768,-8.000000,-13.000000,-26.000000,-26.000000,-10.000000,-3.000000,9.000000,-18.000000
1303522.224446,2.000000,5.000000,10.000000,2.000000,-2.000000,-2.000000,13.000000,13.000000
1303522.224453,4.000000,1.000000,7.000000,-18.000000,-13.000000,-2.000000,23.000000,17.000000
1303522.244688,6.000000,6.000000,19.000000,8.000000,13.000000,7.000000,-7.000000,-6.000000
1303522.244717,-5.000000,0.000000,-6.000000,-7.000000,-1.000000,-2.000000,5.000000,1.000000
1303522.252144,2.000000,2.000000,-13.000000,0.000000,1.000000,1.000000,1.000000,0.000000
1303522.252153,-5.000000,-1.000000,5.000000,-2.000000,-3.000000,-2.000000,-12.000000,-4.000000
1303522.282293,6.000000,-3.000000,0.000000,-12.000000,-3.000000,-1.000000,19.000000,-2.000000
1303522.282304,5.000000,-3.000000,15.000000,20.000000,1.000000,2.000000,-5.000000,1.000000
1303522.297347,-5.000000,-2.000000,-8.000000,4.000000,4.000000,2.000000,-12.000000,-4.000000
1303522.297357,3.000000,-4.000000,36.000000,1.000000,12.000000,-1.000000,11.000000,5.000000
1303522.319972,-6.000000,-3.000000,-16.000000,-11.000000,-8.000000,-6.000000,-2.000000,-7.000000
1303522.319984,5.000000,-2.000000,28.000000,110.000000,40.000000,12.000000,-1.000000,10.000000
1303522.342123,-7.000000,3.000000,-27.000000,-106.000000,-26.000000,-8.000000,-2.000000,0.000000
1303522.342168,2.000000,-4.000000,-3.000000,7.000000,15.000000,1.000000,-8.000000,-8.000000
1303522.343157,-16.000000,-2.000000,-5.000000,-1.000000,-6.000000,-9.000000,-5.000000,-12.000000
1303522.343167,5.000000,-1.000000,-23.000000,-13.000000,-1.000000,6.000000,11.000000,10.000000
1303522.343866,4.000000,0.000000,-4.000000,-22.000000,-14.000000,-9.000000,-2.000000,-3.000000
1303522.343884,-9.000000,9.000000,-2.000000,8.000000,4.000000,-1.000000,-4.000000,-4.000000
1303522.345151,0.000000,-9.000000,-7.000000,-9.000000,3.000000,1.000000,-15.000000,-8.000000
1303522.345161,1.000000,3.000000,35.000000,31.000000,2.000000,1.000000,15.000000,23.000000
1303522.357956,-6.000000,-5.000000,-21.000000,-16.000000,11.000000,-2.000000,-4.000000,-8.000000
1303522.357965,13.000000,1.000000,15.000000,98.000000,18.000000,9.000000,-10.000000,-4.000000
1303522.364972,-11.000000,-1.000000,-5.000000,-37.000000,-17.000000,-10.000000,-12.000000,-8.000000
1303522.364983,12.000000,0.000000,5.000000,-4.000000,0.000000,-1.000000,2.000000,13.000000
1303522.380151,15.000000,0.000000,-5.000000,-40.000000,-9.000000,3.000000,34.000000,14.000000
1303522.380174,-18.000000,-5.000000,5.000000,-11.000000,-4.000000,-7.000000,-8.000000,-8.000000
1303522.381060,3.000000,9.000000,30.000000,16.000000,-2.000000,-4.000000,-14.000000,-12.000000
1303522.381070,0.000000,-2.000000,-29.000000,-29.000000,-12.000000,-8.000000,-14.000000,-12.000000
1303522.402092,7.000000,1.000000,10.000000,-4.000000,6.000000,-1.000000,7.000000,9.000000
1303522.402121,5.000000,1.000000,-4.000000,86.000000,33.000000,7.000000,3.000000,9.000000
1303522.417648,2.000000,-1.000000,5.000000,-46.000000,-24.000000,-8.000000,-6.000000,-3.000000
1303522.417674,-6.000000,4.000000,19.000000,85.000000,21.000000,2.000000,-4.000000,-1.000000
1303522.454979,-10.000000,5.000000,8.000000,4.000000,17.000000,4.000000,-2.000000,-3.000000
1303522.454990,18.000000,-6.000000,-6.000000,-18.000000,-8.000000,-5.000000,8.000000,-11.000000
1303522.455547,-3.000000,6.000000,-9.000000,-6.000000,2.000000,7.000000,50.000000,20.000000
1303522.455554,-9.000000,0.000000,-9.000000,-5.000000,-6.000000,2.000000,-15.000000,2.000000
1303522.456302,-2.000000,-2.000000,16.000000,15.000000,7.000000,-8.000000,-24.000000,-12.000000
1303522.456310,-7.000000,-4.000000,-3.000000,-11.000000,-3.000000,-2.000000,-11.000000,-7.000000
1303522.456881,-11.000000,3.000000,7.000000,3.000000,-1.000000,0.000000,-68.000000,-34.000000
1303522.456888,14.000000,-3.000000,-17.000000,16.000000,11.000000,14.000000,82.000000,21.000000
1303522.458974,11.000000,-1.000000,-9.000000,-29.000000,0.000000,3.000000,47.000000,73.000000
1303522.458985,-6.000000,-4.000000,23.000000,52.000000,5.000000,-4.000000,-64.000000,-49.000000
1303522.462325,-3.000000,2.000000,-17.000000,-28.000000,-10.000000,-1.000000,6.000000,12.000000
1303522.462335,1.000000,0.000000,-3.000000,1.000000,-16.000000,1.000000,13.000000,-1.000000
1303522.478062,1.000000,-2.000000,17.000000,-9.000000,-13.000000,-4.000000,-20.000000,-9.000000
1303522.478074,-7.000000,1.000000,-18.000000,-25.000000,-5.000000,-6.000000,-38.000000,-20.000000
1303522.499665,-5.000000,3.000000,4.000000,-3.000000,-5.000000,-4.000000,-5.000000,-13.000000
1303522.499684,-7.000000,5.000000,-7.000000,15.000000,-5.000000,-1.000000,8.000000,11.000000
1303522.501095,-1.000000,-6.000000,37.000000,-15.000000,0.000000,2.000000,-5.000000,-5.000000
1303522.501122,-6.000000,4.000000,1.000000,-15.000000,-9.000000,-5.000000,0.000000,-7.000000
1303522.514763,2.000000,-1.000000,-26.000000,-18.000000,-15.000000,-4.000000,-15.000000,-9.000000
1303522.514791,-5.000000,7.000000,-8.000000,-20.000000,-1.000000,1.000000,-2.000000,-6.000000
1303522.537163,-4.000000,1.000000,27.000000,-6.000000,-2.000000,5.000000,12.000000,12.000000
1303522.537173,16.000000,10.000000,-19.000000,29.000000,6.000000,-3.000000,0.000000,15.000000
1303522.559925,-23.000000,3.000000,-46.000000,-32.000000,-15.000000,-3.000000,-2.000000,-9.000000
1303522.559936,15.000000,3.000000,40.000000,15.000000,10.000000,-2.000000,-13.000000,-8.000000
1303522.582167,-4.000000,-3.000000,-1.000000,5.000000,-10.000000,-3.000000,-74.000000,-33.000000
1303522.582205,13.000000,-7.000000,-12.000000,16.000000,2.000000,1.000000,67.000000,11.000000
1303522.582700,-17.000000,2.000000,8.000000,20.000000,20.000000,10.000000,6.000000,33.000000
1303522.582709,4.000000,-4.000000,-5.000000,-5.000000,-3.000000,-3.000000,-13.000000,-10.000000
1303522.583868,0.000000,-10.000000,3.000000,-21.000000,-9.000000,-11.000000,-27.000000,-20.000000
1303522.583877,-17.000000,-1.000000,-60.000000,-31.000000,-2.000000,0.000000,6.000000,-4.000000
1303522.584443,-5.000000,5.000000,-7.000000,46.000000,8.000000,-10.000000,-36.000000,-16.000000
1303522.584452,-3.000000,1.000000,0.000000,-5.000000,-6.000000,-2.000000,-2.000000,-8.000000
1303522.597834,8.000000,2.000000,-22.000000,-31.000000,10.000000,0.000000,17.000000,11.000000
1303522.597845,2.000000,10.000000,23.000000,1.000000,-1.000000,5.000000,-3.000000,3.000000
1303522.619964,-4.000000,-6.000000,-11.000000,-32.000000,-14.000000,-2.000000,-4.000000,-7.000000
1303522.619974,-10.000000,-4.000000,-1.000000,-3.000000,8.000000,6.000000,3.000000,-2.000000
1303522.642154,3.000000,-1.000000,-6.000000,110.000000,22.000000,2.000000,-6.000000,0.000000
1303522.642165,-2.000000,0.000000,8.000000,2.000000,0.000000,8.000000,8.000000,12.000000
1303522.649776,-2.000000,1.000000,-45.000000,-42.000000,-21.000000,-7.000000,-7.000000,-9.000000
1303522.649804,2.000000,-3.000000,5.000000,-10.000000,-7.000000,-4.000000,-49.000000,-2.000000
1303522.672214,1.000000,-3.000000,-2.000000,-15.000000,-1.000000,-4.000000,72.000000,16.000000
1303522.672224,2.000000,2.000000,16.000000,9.000000,3.000000,2.000000,-21.000000,1.000000
1303522.679905,-10.000000,2.000000,-35.000000,-17.000000,-3.000000,0.000000,-12.000000,-2.000000
1303522.679916,4.000000,1.000000,-4.000000,-19.000000,-8.000000,0.000000,-24.000000,-21.000000
1303522.695201,-7.000000,1.000000,3.000000,28.000000,15.000000,-1.000000,19.000000,3.000000
1303522.695231,9.000000,-1.000000,-4.000000,0.000000,-3.000000,1.000000,27.000000,28.000000
1303522.695623,4.000000,-7.000000,-2.000000,-5.000000,-3.000000,1.000000,-20.000000,-7.000000
1303522.695631,-9.000000,-9.000000,-4.000000,3.000000,-9.000000,-1.000000,4.000000,-12.000000
1303522.697098,3.000000,8.000000,18.000000,-3.000000,8.000000,3.000000,1.000000,-4.000000
1303522.697120,1.000000,-4.000000,5.000000,6.000000,5.000000,3.000000,2.000000,4.000000
1303522.697693,-6.000000,-2.000000,-16.000000,-39.000000,-27.000000,-7.000000,-5.000000,2.000000
1303522.697703,3.000000,3.000000,28.000000,98.000000,54.000000,16.000000,1.000000,-3.000000
1303522.717883,0.000000,-3.000000,-4.000000,-28.000000,-5.000000,2.000000,15.000000,9.000000
1303522.717897,-7.000000,-3.000000,26.000000,6.000000,3.000000,-6.000000,-5.000000,-4.000000
1303522.718530,-5.000000,1.000000,-9.000000,-13.000000,-6.000000,-1.000000,-8.000000,-5.000000
1303522.718538,15.000000,0.000000,16.000000,43.000000,27.000000,8.000000,-7.000000,-1.000000
1303522.732204,-25.000000,-4.000000,-24.000000,15.000000,2.000000,1.000000,-5.000000,-13.000000
1303522.732255,17.000000,0.000000,4.000000,8.000000,-1.000000,-2.000000,-1.000000,9.000000
1303522.733460,-5.000000,-2.000000,9.000000,11.000000,-9.000000,1.000000,-4.000000,-1.000000
1303522.733488,-3.000000,0.000000,-8.000000,-10.000000,2.000000,-5.000000,1.000000,2.000000
1303522.754961,-4.000000,-4.000000,-10.000000,-6.000000,1.000000,1.000000,-13.000000,-3.000000
1303522.754972,-12.000000,3.000000,-18.000000,-23.000000,-10.000000,-1.000000,-5.000000,-16.000000
1303522.777360,1.000000,-4.000000,14.000000,25.000000,7.000000,-3.000000,-1.000000,4.000000
1303522.777423,5.000000,2.000000,-3.000000,1.000000,-6.000000,2.000000,12.000000,4.000000
1303522.792235,4.000000,1.000000,8.000000,-4.000000,1.000000,1.000000,3.000000,3.000000
1303522.792245,-1.000000,0.000000,0.000000,-4.000000,-3.000000,-5.000000,-13.000000,-13.000000
1303522.807447,0.000000,1.000000,-15.000000,0.000000,-5.000000,-4.000000,-5.000000,-2.000000
1303522.807470,2.000000,-7.000000,10.000000,4.000000,12.000000,0.000000,11.000000,8.000000
1303522.814673,6.000000,-2.000000,2.000000,-18.000000,-21.000000,-8.000000,-9.000000,-6.000000
1303522.814703,-1.000000,-8.000000,11.000000,70.000000,22.000000,5.000000,3.000000,-1.000000
1303522.815769,0.000000,8.000000,-30.000000,-20.000000,0.000000,-6.000000,-4.000000,-4.000000
1303522.815783,9.000000,2.000000,45.000000,61.000000,20.000000,8.000000,3.000000,4.000000
1303522.816424,3.000000,-4.000000,-3.000000,-24.000000,-6.000000,1.000000,2.000000,1.000000
1303522.816432,0.000000,-2.000000,2.000000,15.000000,-3.000000,-7.000000,-4.000000,1.000000
1303522.818165,2.000000,-6.000000,7.000000,-14.000000,-5.000000,-5.000000,-5.000000,0.000000
1303522.818187,-4.000000,-6.000000,-19.000000,-1.000000,4.000000,2.000000,-3.000000,-3.000000
1303522.837624,-2.000000,5.000000,-3.000000,-13.000000,2.000000,-2.000000,-3.000000,-7.000000
1303522.837721,1.000000,-7.000000,-11.000000,6.000000,10.000000,4.000000,4.000000,3.000000
1303522.838619,-1.000000,5.000000,3.000000,-4.000000,-7.000000,-4.000000,-9.000000,-3.000000
1303522.838661,-7.000000,3.000000,1.000000,-17.000000,-3.000000,-9.000000,-10.000000,-12.000000
1303522.844774,5.000000,2.000000,24.000000,-15.000000,-3.000000,7.000000,17.000000,13.000000
1303522.844802,-5.000000,1.000000,-16.000000,-9.000000,-11.000000,-15.000000,-16.000000,-2.000000
1303522.853121,-3.000000,-4.000000,-9.000000,-14.000000,-12.000000,-1.000000,-5.000000,3.000000
1303522.853130,10.000000,3.000000,46.000000,-5.000000,-11.000000,-3.000000,-6.000000,-10.000000
1303522.874855,-6.000000,-9.000000,-45.000000,-4.000000,-2.000000,0.000000,-23.000000,-11.000000
1303522.874884,-18.000000,-3.000000,59.000000,12.000000,15.000000,8.000000,11.000000,0.000000
1303522.912257,20.000000,5.000000,-17.000000,-5.000000,3.000000,2.000000,26.000000,29.000000
1303522.912285,7.000000,0.000000,20.000000,7.000000,-5.000000,-6.000000,-7.000000,-2.000000
1303522.919677,-1.000000,1.000000,-6.000000,35.000000,2.000000,-1.000000,-2.000000,-15.000000
1303522.919692,-5.000000,-5.000000,-20.000000,-16.000000,-6.000000,-4.000000,0.000000,3.000000
1303522.934926,-5.000000,-12.000000,15.000000,1.000000,0.000000,-4.000000,-10.000000,-2.000000
1303522.934937,-3.000000,-3.000000,-24.000000,-13.000000,-7.000000,-7.000000,-9.000000,-8.000000
1303522.949967,8.000000,-5.000000,24.000000,-37.000000,-8.000000,-4.000000,-10.000000,-2.000000
1303522.949978,-6.000000,-8.000000,-1.000000,82.000000,24.000000,9.000000,31.000000,0.000000
1303522.964654,-5.000000,11.000000,-10.000000,-29.000000,-5.000000,-2.000000,-1.000000,0.000000
1303522.964665,7.000000,-1.000000,-20.000000,12.000000,-2.000000,-4.000000,-6.000000,2.000000
1303522.972184,-1.000000,-1.000000,-29.000000,-26.000000,-10.000000,-8.000000,-14.000000,-4.000000
1303522.972203,-14.000000,-3.000000,10.000000,-28.000000,-12.000000,-5.000000,-25.000000,-21.000000
1303522.973151,-2.000000,3.000000,8.000000,0.000000,4.000000,3.000000,16.000000,2.000000
1303522.973178,-8.000000,-2.000000,3.000000,3.000000,2.000000,3.000000,-2.000000,2.000000
1303522.994954,6.000000,-10.000000,8.000000,32.000000,3.000000,-12.000000,-14.000000,-5.000000
1303522.994966,2.000000,1.000000,-6.000000,2.000000,-6.000000,4.000000,15.000000,14.000000
1303523.017295,12.000000,-7.000000,-7.000000,-10.000000,-4.000000,-5.000000,-2.000000,-2.000000
1303523.017315,-20.000000,-11.000000,-14.000000,-22.000000,-6.000000,-3.000000,-15.000000,-8.000000
1303523.032525,7.000000,2.000000,11.000000,12.000000,6.000000,-2.000000,-4.000000,-6.000000
1303523.032536,-11.000000,-1.000000,0.000000,41.000000,-2.000000,-5.000000,-6.000000,-1.000000
1303523.054790,4.000000,-8.000000,-2.000000,-31.000000,4.000000,5.000000,-2.000000,-6.000000
1303523.054814,0.000000,-5.000000,9.000000,4.000000,12.000000,2.000000,3.000000,11.000000
1303523.055193,-2.000000,-11.000000,-59.000000,-33.000000,-10.000000,-3.000000,-12.000000,-7.000000
1303523.055221,3.000000,0.000000,1.000000,40.000000,14.000000,4.000000,39.000000,4.000000
1303523.056318,-3.000000,5.000000,36.000000,3.000000,-7.000000,0.000000,-11.000000,-6.000000
1303523.056335,1.000000,-2.000000,-9.000000,-5.000000,-3.000000,-5.000000,-8.000000,-7.000000
1303523.056862,4.000000,-8.000000,23.000000,-6.000000,0.000000,-2.000000,-16.000000,-1.000000
1303523.056871,-15.000000,-2.000000,-24.000000,-32.000000,-1.000000,-8.000000,15.000000,6.000000
1303523.058627,5.000000,-2.000000,13.000000,14.000000,-3.000000,2.000000,7.000000,1.000000
1303523.058644,6.000000,-3.000000,-11.000000,-6.000000,-8.000000,-7.000000,-11.000000,-5.000000
1303523.069607,-3.000000,-5.000000,21.000000,38.000000,15.000000,3.000000,-23.000000,-13.000000
1303523.069617,-2.000000,0.000000,-14.000000,-27.000000,-11.000000,-7.000000,8.000000,0.000000
1303523.077606,2.000000,6.000000,7.000000,-10.000000,-6.000000,-1.000000,23.000000,15.000000
1303523.077619,8.000000,-7.000000,8.000000,-6.000000,-5.000000,-3.000000,-22.000000,-4.000000
1303523.092375,-5.000000,1.000000,-11.000000,-16.000000,-2.000000,-4.000000,-9.000000,-9.000000
1303523.092392,-9.000000,0.000000,17.000000,15.000000,7.000000,6.000000,1.000000,-3.000000
1303523.122281,-1.000000,0.000000,-11.000000,-7.000000,-5.000000,7.000000,13.000000,9.000000
1303523.122291,-7.000000,-10.000000,-1.000000,10.000000,-3.000000,-1.000000,-10.000000,5.000000
1303523.129829,1.000000,-6.000000,-1.000000,-20.000000,-5.000000,-4.000000,8.000000,-13.000000
1303523.129839,12.000000,-2.000000,9.000000,1.000000,1.000000,-2.000000,-9.000000,13.000000
1303523.152140,-12.000000,6.000000,-44.000000,8.000000,-2.000000,-4.000000,-3.000000,-8.000000
1303523.152151,6.000000,3.000000,35.000000,-9.000000,0.000000,7.000000,13.000000,4.000000
1303523.152617,-1.000000,-3.000000,-10.000000,-25.000000,7.000000,3.000000,0.000000,-3.000000
1303523.152626,-11.000000,-6.000000,7.000000,-7.000000,-3.000000,7.000000,-3.000000,0.000000
1303523.153823,5.000000,0.000000,2.000000,13.000000,6.000000,-9.000000,1.000000,-1.000000
1303523.153883,-10.000000,-7.000000,15.000000,-6.000000,-2.000000,2.000000,29.000000,7.000000
1303523.154438,-1.000000,-1.000000,-5.000000,-2.000000,-6.000000,-4.000000,-8.000000,-7.000000
1303523.154469,6.000000,-3.000000,-42.000000,-21.000000,-8.000000,-3.000000,-1.000000,-1.000000
1303523.155933,-27.000000,1.000000,2.000000,34.000000,11.000000,0.000000,-7.000000,-8.000000
1303523.155954,3.000000,-1.000000,25.000000,4.000000,1.000000,3.000000,-5.000000,-4.000000
1303523.167466,-1.000000,-4.000000,-14.000000,-13.000000,-13.000000,-1.000000,1.000000,1.000000
1303523.167477,1.000000,4.000000,10.000000,-38.000000,-18.000000,-10.000000,0.000000,3.000000
1303523.175440,3.000000,1.000000,-7.000000,52.000000,18.000000,5.000000,-3.000000,-1.000000
1303523.175449,-16.000000,4.000000,1.000000,13.000000,9.000000,1.000000,-2.000000,-4.000000
1303523.190088,15.000000,-2.000000,-13.000000,22.000000,4.000000,4.000000,6.000000,12.000000
1303523.190150,2.000000,-4.000000,19.000000,-11.000000,-3.000000,-5.000000,6.000000,9.000000
1303523.197208,-10.000000,2.000000,0.000000,-14.000000,-6.000000,-2.000000,-6.000000,-3.000000
1303523.197227,-6.000000,-5.000000,-15.000000,-25.000000,-10.000000,-2.000000,16.000000,-8.000000
1303523.212191,5.000000,-2.000000,10.000000,36.000000,4.000000,-5.000000,-16.000000,-7.000000
1303523.212220,-4.000000,2.000000,5.000000,-22.000000,-7.000000,-1.000000,9.000000,13.000000
1303523.234807,1.000000,-2.000000,24.000000,2.000000,-2.000000,3.000000,-6.000000,-5.000000
1303523.234817,4.000000,-1.000000,-30.000000,-11.000000,-5.000000,-13.000000,-6.000000,-1.000000
1303523.249743,-5.000000,0.000000,-2.000000,-16.000000,-11.000000,-1.000000,-3.000000,-3.000000
1303523.249761,-1.000000,-9.000000,33.000000,40.000000,16.000000,4.000000,2.000000,-1.000000
1303523.287132,-5.000000,1.000000,-14.000000,-28.000000,-17.000000,-4.000000,2.000000,-4.000000
1303523.287148,-22.000000,-4.000000,20.000000,50.000000,11.000000,-4.000000,-5.000000,-7.000000
1303523.294793,20.000000,1.000000,14.000000,6.000000,2.000000,1.000000,-1.000000,-4.000000
1303523.294821,-7.000000,1.000000,-7.000000,2.000000,-15.000000,-4.000000,-6.000000,-2.000000
1303523.332223,-17.000000,-3.000000,-3.000000,-10.000000,8.000000,0.000000,-1.000000,3.000000
1303523.332233,5.000000,-7.000000,8.000000,-15.000000,3.000000,6.000000,8.000000,3.000000
1303523.354833,2.000000,-3.000000,-6.000000,-16.000000,-11.000000,-7.000000,-25.000000,-12.000000
1303523.354843,-5.000000,0.000000,0.000000,-9.000000,-2.000000,4.000000,8.000000,-6.000000
1303523.392176,0.000000,-6.000000,-31.000000,-6.000000,-8.000000,-9.000000,-12.000000,-7.000000
1303523.392186,-3.000000,-4.000000,5.000000,-22.000000,-6.000000,-1.000000,-17.000000,-4.000000
1303523.392526,-11.000000,-6.000000,0.000000,-5.000000,-3.000000,-6.000000,-8.000000,-4.000000
1303523.392553,0.000000,-3.000000,-12.000000,-16.000000,-2.000000,-4.000000,-10.000000,-3.000000
1303523.393933,-18.000000,-3.000000,13.000000,49.000000,5.000000,-2.000000,-3.000000,0.000000
1303523.393946,8.000000,7.000000,-22.000000,-2.000000,-14.000000,-5.000000,8.000000,11.000000
1303523.394531,-5.000000,-6.000000,-36.000000,-26.000000,-10.000000,-6.000000,-13.000000,-3.000000
1303523.394558,8.000000,-7.000000,13.000000,-3.000000,-1.000000,0.000000,-19.000000,-12.000000
1303523.395942,-6.000000,-2.000000,-12.000000,-3.000000,-10.000000,0.000000,-3.000000,-6.000000
1303523.395970,1.000000,0.000000,2.000000,8.000000,5.000000,2.000000,-8.000000,-4.000000
1303523.407426,-8.000000,-6.000000,18.000000,10.000000,15.000000,2.000000,-2.000000,4.000000
1303523.407437,-3.000000,-4.000000,-6.000000,-38.000000,-9.000000,2.000000,-13.000000,0.000000
1303523.415422,8.000000,-1.000000,4.000000,22.000000,19.000000,6.000000,10.000000,-4.000000
1303523.415431,-7.000000,1.000000,-18.000000,-10.000000,-1.000000,-5.000000,-2.000000,1.000000
1303523.429745,2.000000,-4.000000,12.000000,-32.000000,-4.000000,-3.000000,9.000000,5.000000
1303523.429778,-4.000000,-6.000000,-21.000000,-35.000000,-11.000000,3.000000,-4.000000,1.000000
1303523.437131,-13.000000,-1.000000,-1.000000,19.000000,5.000000,-8.000000,-25.000000,-5.000000
1303523.437141,0.000000,-5.000000,-2.000000,-12.000000,-3.000000,1.000000,35.000000,9.000000
1303523.452430,-3.000000,5.000000,5.000000,-8.000000,-4.000000,-5.000000,-25.000000,-11.000000
1303523.452441,-10.000000,5.000000,-24.000000,-8.000000,-1.000000,-1.000000,-15.000000,-8.000000
1303523.474632,1.000000,-6.000000,-20.000000,0.000000,3.000000,1.000000,0.000000,-8.000000
1303523.474641,6.000000,-4.000000,-26.000000,-7.000000,0.000000,-1.000000,6.000000,-4.000000
1303523.489908,9.000000,-1.000000,-8.000000,-16.000000,1.000000,7.000000,8.000000,15.000000
1303523.489929,3.000000,3.000000,-2.000000,8.000000,-5.000000,3.000000,-1.000000,8.000000
1303523.512128,-4.000000,-4.000000,-32.000000,37.000000,12.000000,0.000000,-4.000000,-7.000000
1303523.512139,-7.000000,-7.000000,10.000000,5.000000,4.000000,4.000000,-5.000000,-9.000000
1303523.512614,-2.000000,-1.000000,-7.000000,-18.000000,-11.000000,-6.000000,-2.000000,-5.000000
1303523.512622,-14.000000,-5.000000,-6.000000,4.000000,-6.000000,-4.000000,-8.000000,-8.000000
1303523.519809,13.000000,0.000000,28.000000,-22.000000,8.000000,0.000000,-4.000000,0.000000
1303523.519844,-9.000000,-2.000000,-16.000000,13.000000,-7.000000,-1.000000,-2.000000,-4.000000
1303523.549890,15.000000,3.000000,7.000000,10.000000,18.000000,3.000000,2.000000,5.000000
1303523.549901,-2.000000,2.000000,22.000000,19.000000,4.000000,1.000000,10.000000,10.000000
1303523.572415,5.000000,-2.000000,7.000000,-20.000000,-6.000000,-7.000000,-13.000000,-4.000000
1303523.572439,0.000000,2.000000,2.000000,-8.000000,-2.000000,-7.000000,-1.000000,-3.000000
1303523.609868,-4.000000,-1.000000,-6.000000,9.000000,4.000000,-5.000000,-17.000000,-8.000000
1303523.609881,-17.000000,1.000000,-62.000000,-28.000000,-2.000000,3.000000,3.000000,-13.000000
1303523.632274,-5.000000,-5.000000,-2.000000,-10.000000,-6.000000,-7.000000,5.000000,11.000000
1303523.632285,-8.000000,-3.000000,19.000000,14.000000,12.000000,0.000000,-20.000000,-17.000000
1303523.639970,0.000000,7.000000,-16.000000,-9.000000,2.000000,2.000000,25.000000,11.000000
1303523.639981,1.000000,-1.000000,-13.000000,-23.000000,-4.000000,-3.000000,-8.000000,-2.000000
1303523.647483,-17.000000,0.000000,-4.000000,-4.000000,-3.000000,-2.000000,0.000000,4.000000
1303523.647494,7.000000,-5.000000,-6.000000,0.000000,2.000000,-2.000000,-30.000000,-15.000000
1303523.647971,-3.000000,1.000000,0.000000,5.000000,1.000000,-5.000000,10.000000,-3.000000
1303523.647979,-6.000000,-8.000000,-7.000000,-81.000000,-32.000000,-7.000000,-14.000000,-3.000000
1303523.648292,10.000000,0.000000,14.000000,127.000000,87.000000,18.000000,9.000000,0.000000
1303523.648300,0.000000,2.000000,-41.000000,-32.000000,-20.000000,-9.000000,5.000000,4.000000
1303523.649670,3.000000,1.000000,-21.000000,-7.000000,-5.000000,0.000000,2.000000,-5.000000
1303523.649679,-2.000000,-5.000000,-2.000000,-3.000000,-3.000000,0.000000,-16.000000,-3.000000
1303523.650378,-12.000000,-2.000000,-8.000000,-3.000000,1.000000,-5.000000,4.000000,-3.000000
1303523.650387,0.000000,1.000000,-6.000000,-1.000000,-5.000000,-1.000000,27.000000,0.000000
1303523.669760,14.000000,-5.000000,-4.000000,-6.000000,-1.000000,3.000000,-4.000000,12.000000
1303523.669781,4.000000,3.000000,14.000000,4.000000,8.000000,5.000000,9.000000,2.000000
1303523.670117,-16.000000,7.000000,12.000000,25.000000,-5.000000,1.000000,7.000000,14.000000
1303523.670125,6.000000,-9.000000,15.000000,-34.000000,-13.000000,-6.000000,-17.000000,-12.000000
1303523.684811,0.000000,5.000000,-9.000000,55.000000,16.000000,5.000000,-10.000000,-6.000000
1303523.684821,3.000000,2.000000,27.000000,23.000000,16.000000,4.000000,16.000000,-5.000000
1303523.692552,-10.000000,-5.000000,-10.000000,-29.000000,-14.000000,-4.000000,-10.000000,0.000000
1303523.692563,-6.000000,8.000000,10.000000,14.000000,4.000000,2.000000,-8.000000,-5.000000
1303523.729848,4.000000,-2.000000,-3.000000,10.000000,2.000000,-5.000000,1.000000,-3.000000
1303523.729858,6.000000,-10.000000,34.000000,-12.000000,-7.000000,0.000000,3.000000,6.000000
1303523.737548,-13.000000,3.000000,-17.000000,-27.000000,-7.000000,-14.000000,-15.000000,-10.000000
1303523.737558,-9.000000,-6.000000,27.000000,-6.000000,1.000000,6.000000,-10.000000,-9.000000
1303523.752070,4.000000,-3.000000,4.000000,15.000000,4.000000,-5.000000,-3.000000,-3.000000
1303523.752080,15.000000,1.000000,-28.000000,17.000000,-1.000000,3.000000,23.000000,17.000000
1303523.752622,18.000000,4.000000,23.000000,7.000000,4.000000,-2.000000,0.000000,4.000000
1303523.752630,-18.000000,12.000000,-2.000000,-4.000000,-6.000000,-6.000000,3.000000,-5.000000
1303523.753730,-8.000000,-1.000000,-32.000000,-12.000000,-4.000000,-3.000000,-5.000000,-5.000000
1303523.753739,-3.000000,-3.000000,22.000000,-4.000000,-2.000000,-6.000000,-3.000000,-3.000000
1303523.754426,-2.000000,-7.000000,-55.000000,-14.000000,2.000000,-4.000000,-8.000000,-6.000000
1303523.754444,4.000000,-5.000000,23.000000,1.000000,-4.000000,-1.000000,1.000000,1.000000
1303523.759699,1.000000,6.000000,-22.000000,-4.000000,0.000000,-2.000000,5.000000,-1.000000
1303523.759729,-4.000000,-2.000000,32.000000,20.000000,7.000000,4.000000,16.000000,9.000000
1303523.767079,3.000000,-3.000000,-23.000000,-40.000000,9.000000,5.000000,8.000000,10.000000
1303523.767088,16.000000,-1.000000,9.000000,122.000000,48.000000,7.000000,-4.000000,-3.000000
1303523.783013,-7.000000,-4.000000,12.000000,-13.000000,-9.000000,-3.000000,-31.000000,-9.000000
1303523.783023,6.000000,7.000000,-21.000000,-36.000000,-19.000000,0.000000,-3.000000,-14.000000
1303523.789746,6.000000,-7.000000,-6.000000,11.000000,1.000000,0.000000,28.000000,21.000000
1303523.789761,-9.000000,-1.000000,4.000000,9.000000,-1.000000,-1.000000,-7.000000,6.000000
1303523.804953,3.000000,-6.000000,2.000000,-2.000000,-10.000000,-7.000000,-16.000000,-7.000000
1303523.804971,-3.000000,-4.000000,-21.000000,-5.000000,-3.000000,-3.000000,-10.000000,-7.000000
1303523.827359,-8.000000,6.000000,7.000000,5.000000,9.000000,4.000000,7.000000,-3.000000
1303523.827370,18.000000,-5.000000,5.000000,-9.000000,4.000000,2.000000,-1.000000,-2.000000
1303523.850164,7.000000,-3.000000,-3.000000,6.000000,13.000000,0.000000,9.000000,11.000000
1303523.850173,-14.000000,4.000000,15.000000,25.000000,2.000000,-4.000000,-14.000000,-13.000000
1303523.864759,-8.000000,2.000000,-20.000000,-31.000000,-8.000000,0.000000,4.000000,-8.000000
1303523.864769,-4.000000,-8.000000,14.000000,-5.000000,2.000000,2.000000,-5.000000,-5.000000
1303523.887243,6.000000,2.000000,-16.000000,16.000000,0.000000,-4.000000,8.000000,4.000000
1303523.887286,3.000000,-1.000000,-6.000000,15.000000,3.000000,1.000000,14.000000,2.000000
1303523.887835,6.000000,2.000000,-5.000000,-7.000000,-4.000000,-4.000000,-4.000000,0.000000
1303523.887859,-7.000000,2.000000,-14.000000,-19.000000,-9.000000,-8.000000,-13.000000,-3.000000
1303523.889073,-1.000000,1.000000,29.000000,-11.000000,0.000000,0.000000,-3.000000,-8.000000
1303523.889092,0.000000,-4.000000,-1.000000,8.000000,-3.000000,-4.000000,-15.000000,-6.000000
1303523.889652,5.000000,-7.000000,-15.000000,0.000000,1.000000,7.000000,5.000000,8.000000
1303523.889661,-1.000000,-7.000000,-4.000000,0.000000,8.000000,5.000000,29.000000,13.000000
1303523.890165,5.000000,0.000000,7.000000,-2.000000,-4.000000,0.000000,-4.000000,-1.000000
1303523.890174,-16.000000,-2.000000,-1.000000,-1.000000,-1.000000,0.000000,-9.000000,-7.000000
1303523.891205,-2.000000,2.000000,-63.000000,-17.000000,-1.000000,-2.000000,-8.000000,-10.000000
1303523.891213,3.000000,1.000000,7.000000,8.000000,7.000000,1.000000,-1.000000,4.000000
1303523.909466,-14.000000,3.000000,-6.000000,-12.000000,-3.000000,-5.000000,-5.000000,-4.000000
1303523.909480,15.000000,-7.000000,25.000000,51.000000,-3.000000,0.000000,1.000000,3.000000
1303523.910101,0.000000,-2.000000,16.000000,-4.000000,-11.000000,0.000000,-2.000000,-5.000000
1303523.910128,-1.000000,-3.000000,-20.000000,0.000000,-1.000000,-1.000000,-6.000000,-6.000000
1303523.917467,-11.000000,3.000000,4.000000,-54.000000,-17.000000,-9.000000,1.000000,2.000000
1303523.917478,-3.000000,0.000000,1.000000,39.000000,10.000000,-4.000000,0.000000,-3.000000
1303523.924966,-1.000000,0.000000,3.000000,29.000000,17.000000,4.000000,0.000000,1.000000
1303523.924977,1.000000,-6.000000,3.000000,-19.000000,-10.000000,-8.000000,-8.000000,-4.000000
1303523.962501,5.000000,-4.000000,10.000000,-19.000000,-10.000000,1.000000,-6.000000,-4.000000
1303523.962511,-9.000000,-1.000000,-6.000000,8.000000,6.000000,4.000000,0.000000,-3.000000
1303523.969975,-2.000000,-1.000000,-24.000000,-15.000000,-9.000000,1.000000,4.000000,5.000000
1303523.969986,4.000000,0.000000,8.000000,-3.000000,3.000000,-1.000000,-5.000000,-6.000000
1303523.985004,-2.000000,-1.000000,11.000000,2.000000,-2.000000,2.000000,-10.000000,-1.000000
1303523.985013,1.000000,1.000000,4.000000,-1.000000,-3.000000,0.000000,18.000000,17.000000
1303523.985778,6.000000,-3.000000,18.000000,-18.000000,-4.000000,5.000000,24.000000,6.000000
1303523.985799,-8.000000,-8.000000,-31.000000,21.000000,-4.000000,-5.000000,-3.000000,-9.000000
1303523.987000,-3.000000,-8.000000,22.000000,-13.000000,0.000000,0.000000,-13.000000,-7.000000
1303523.987011,2.000000,3.000000,-20.000000,-11.000000,-2.000000,3.000000,-6.000000,-4.000000
1303523.987796,-12.000000,-6.000000,28.000000,43.000000,2.000000,-11.000000,-6.000000,6.000000
1303523.987804,3.000000,-1.000000,9.000000,9.000000,9.000000,4.000000,-14.000000,-11.000000
1303524.007876,-4.000000,-4.000000,2.000000,-3.000000,0.000000,8.000000,12.000000,5.000000
1303524.007888,-6.000000,0.000000,6.000000,21.000000,-3.000000,-5.000000,0.000000,0.000000
1303524.008533,-4.000000,-2.000000,-13.000000,2.000000,-16.000000,-3.000000,-4.000000,-2.000000
1303524.008540,0.000000,0.000000,5.000000,24.000000,8.000000,3.000000,-7.000000,-6.000000
1303524.022237,1.000000,-4.000000,-11.000000,-17.000000,-8.000000,0.000000,2.000000,3.000000
1303524.022248,3.000000,1.000000,-3.000000,-19.000000,-1.000000,-1.000000,-10.000000,-7.000000
1303524.029648,1.000000,-2.000000,-3.000000,-7.000000,7.000000,6.000000,16.000000,6.000000
1303524.029664,-8.000000,1.000000,33.000000,24.000000,-1.000000,-3.000000,-7.000000,-2.000000
1303524.037058,-9.000000,-1.000000,-24.000000,-39.000000,-14.000000,-8.000000,-6.000000,-4.000000
1303524.037068,-2.000000,-7.000000,10.000000,55.000000,20.000000,10.000000,2.000000,-4.000000
1303524.060031,3.000000,5.000000,-25.000000,38.000000,1.000000,-2.000000,-10.000000,0.000000
1303524.060044,-18.000000,3.000000,20.000000,-10.000000,-6.000000,-6.000000,3.000000,-6.000000
1303524.075029,6.000000,-9.000000,12.000000,-11.000000,-1.000000,4.000000,29.000000,8.000000
1303524.075061,-7.000000,3.000000,2.000000,-3.000000,0.000000,-1.000000,-11.000000,-5.000000
1303524.082568,0.000000,1.000000,-7.000000,-14.000000,-3.000000,-2.000000,7.000000,4.000000
1303524.082584,-3.000000,1.000000,19.000000,1.000000,0.000000,-4.000000,-10.000000,-8.000000
1303524.105355,9.000000,-5.000000,18.000000,9.000000,0.000000,-2.000000,-3.000000,-6.000000
1303524.105374,-3.000000,-6.000000,3.000000,6.000000,9.000000,7.000000,1.000000,5.000000
1303524.105907,2.000000,-7.000000,-17.000000,-28.000000,-4.000000,-6.000000,-12.000000,-3.000000
1303524.105938,-7.000000,7.000000,1.000000,12.000000,-2.000000,-1.000000,-10.000000,-12.000000
1303524.107161,-6.000000,-5.000000,14.000000,-27.000000,1.000000,-2.000000,-10.000000,-4.000000
1303524.107188,9.000000,0.000000,-3.000000,55.000000,26.000000,11.000000,53.000000,24.000000
1303524.108018,4.000000,3.000000,-16.000000,-26.000000,-3.000000,-1.000000,1.000000,8.000000
1303524.108046,-6.000000,-13.000000,-8.000000,-66.000000,-31.000000,-12.000000,-14.000000,-6.000000
1303524.120539,1.000000,4.000000,46.000000,96.000000,31.000000,4.000000,-9.000000,-6.000000
1303524.120560,6.000000,-5.000000,-62.000000,24.000000,4.000000,-5.000000,-3.000000,0.000000
1303524.127453,-6.000000,-2.000000,17.000000,1.000000,-3.000000,2.000000,-5.000000,3.000000
1303524.127493,1.000000,4.000000,-7.000000,-13.000000,-7.000000,-4.000000,-3.000000,-3.000000
1303524.143030,10.000000,-2.000000,24.000000,-7.000000,-1.000000,2.000000,-2.000000,1.000000
1303524.143061,3.000000,0.000000,0.000000,-1.000000,6.000000,1.000000,14.000000,10.000000
1303524.149533,6.000000,10.000000,9.000000,-2.000000,-6.000000,2.000000,-10.000000,-5.000000
1303524.149544,-17.000000,-1.000000,-15.000000,-28.000000,-17.000000,-9.000000,-16.000000,-24.000000
1303524.187655,-23.000000,-3.000000,-9.000000,40.000000,16.000000,6.000000,15.000000,-8.000000
1303524.187672,23.000000,0.000000,30.000000,-10.000000,-5.000000,0.000000,25.000000,34.000000
1303524.202181,-2.000000,3.000000,-9.000000,-1.000000,-9.000000,-9.000000,-2.000000,-6.000000
1303524.202191,-12.000000,2.000000,-14.000000,-14.000000,-8.000000,-1.000000,-7.000000,1.000000
1303524.240055,-13.000000,-2.000000,-1.000000,-11.000000,-3.000000,-3.000000,-4.000000,-8.000000
1303524.240067,-4.000000,-5.000000,1.000000,5.000000,4.000000,-4.000000,-15.000000,-10.000000
1303524.240567,9.000000,-3.000000,7.000000,-25.000000,-12.000000,-5.000000,4.000000,1.000000
1303524.240594,-17.000000,2.000000,5.000000,36.000000,8.000000,4.000000,5.000000,4.000000
1303524.241322,1.000000,2.000000,3.000000,17.000000,10.000000,4.000000,-3.000000,3.000000
1303524.241330,0.000000,-1.000000,-4.000000,-7.000000,-8.000000,0.000000,3.000000,4.000000
1303524.241880,-1.000000,-3.000000,8.000000,-8.000000,1.000000,2.000000,0.000000,1.000000
1303524.241991,-12.000000,5.000000,-16.000000,-22.000000,-7.000000,-2.000000,-3.000000,0.000000
1303524.242749,-10.000000,-5.000000,12.000000,-2.000000,-1.000000,-9.000000,-5.000000,-7.000000
1303524.242758,-5.000000,-2.000000,9.000000,-10.000000,-17.000000,-8.000000,-8.000000,-5.000000
1303524.243826,4.000000,-3.000000,2.000000,-9.000000,1.000000,-8.000000,26.000000,21.000000
1303524.243835,-8.000000,1.000000,-3.000000,-3.000000,-1.000000,3.000000,3.000000,2.000000
1303524.247443,1.000000,5.000000,20.000000,-7.000000,-4.000000,-4.000000,-21.000000,-16.000000
1303524.247454,5.000000,2.000000,10.000000,10.000000,-3.000000,-2.000000,-11.000000,-8.000000
1303524.262898,2.000000,7.000000,3.000000,-2.000000,4.000000,3.000000,-12.000000,-10.000000
1303524.262908,3.000000,-1.000000,-17.000000,1.000000,-1.000000,-5.000000,0.000000,7.000000
1303524.284708,-7.000000,2.000000,0.000000,1.000000,-3.000000,8.000000,22.000000,12.000000
1303524.284718,5.000000,-5.000000,16.000000,0.000000,4.000000,2.000000,-5.000000,-5.000000
1303524.307239,3.000000,3.000000,1.000000,-2.000000,-4.000000,1.000000,6.000000,8.000000
1303524.307250,-1.000000,-3.000000,-3.000000,3.000000,0.000000,-2.000000,-7.000000,-4.000000
1303524.314978,-3.000000,-3.000000,-4.000000,-34.000000,3.000000,-7.000000,-11.000000,-8.000000
1303524.314990,0.000000,0.000000,0.000000,-5.000000,7.000000,-2.000000,-1.000000,-6.000000
1303524.338492,4.000000,-2.000000,7.000000,23.000000,4.000000,7.000000,-8.000000,-1.000000
1303524.338525,-4.000000,0.000000,1.000000,-69.000000,-10.000000,5.000000,20.000000,4.000000
1303524.339229,5.000000,-2.000000,-9.000000,23.000000,1.000000,-4.000000,5.000000,16.000000
1303524.339266,7.000000,-5.000000,15.000000,14.000000,5.000000,-3.000000,3.000000,9.000000
1303524.340569,0.000000,1.000000,-25.000000,-15.000000,-6.000000,-4.000000,-2.000000,-5.000000
1303524.340615,-9.000000,-2.000000,-28.000000,-16.000000,-5.000000,-4.000000,-5.000000,-8.000000
1303524.341948,-6.000000,3.000000,20.000000,0.000000,-1.000000,-2.000000,-7.000000,-10.000000
1303524.341967,0.000000,-7.000000,-46.000000,-34.000000,1.000000,-1.000000,0.000000,-2.000000
1303524.342234,2.000000,-4.000000,19.000000,81.000000,13.000000,4.000000,-3.000000,9.000000
1303524.342253,1.000000,-6.000000,-2.000000,-7.000000,-4.000000,-5.000000,-2.000000,-1.000000
1303524.360019,0.000000,6.000000,0.000000,-2.000000,-4.000000,0.000000,4.000000,-5.000000
1303524.360036,-5.000000,1.000000,-7.000000,-1.000000,-2.000000,-1.000000,-3.000000,-3.000000
1303524.374882,16.000000,0.000000,-13.000000,-1.000000,4.000000,2.000000,-14.000000,0.000000
1303524.374910,1.000000,7.000000,8.000000,-3.000000,2.000000,2.000000,15.000000,-3.000000
1303524.382283,-7.000000,-7.000000,-4.000000,0.000000,2.000000,-3.000000,-5.000000,-6.000000
1303524.382347,-3.000000,-5.000000,-12.000000,-7.000000,-4.000000,-3.000000,-14.000000,1.000000
1303524.383434,-4.000000,3.000000,-3.000000,10.000000,9.000000,2.000000,20.000000,3.000000
1303524.383443,4.000000,5.000000,24.000000,4.000000,-9.000000,-3.000000,2.000000,2.000000
1303524.397194,4.000000,3.000000,5.000000,7.000000,-1.000000,0.000000,9.000000,12.000000
1303524.397204,-12.000000,8.000000,-28.000000,-55.000000,-27.000000,-10.000000,-19.000000,-18.000000
1303524.442375,2.000000,-1.000000,-11.000000,-11.000000,10.000000,12.000000,32.000000,8.000000
1303524.442404,-6.000000,-3.000000,15.000000,0.000000,-15.000000,-3.000000,-3.000000,5.000000
1303524.457197,1.000000,-3.000000,-3.000000,-3.000000,-15.000000,-7.000000,-9.000000,-10.000000
1303524.457208,-9.000000,-4.000000,5.000000,-5.000000,-8.000000,-1.000000,5.000000,4.000000
1303524.458216,-6.000000,11.000000,-46.000000,-43.000000,-17.000000,-16.000000,-5.000000,-6.000000
1303524.458235,2.000000,-8.000000,16.000000,11.000000,-3.000000,-1.000000,-4.000000,6.000000
1303524.458841,-8.000000,0.000000,-16.000000,-29.000000,-13.000000,-2.000000,-12.000000,-10.000000
1303524.458850,1.000000,-3.000000,22.000000,4.000000,7.000000,3.000000,5.000000,-1.000000
1303524.460057,-1.000000,5.000000,-16.000000,-1.000000,1.000000,2.000000,33.000000,4.000000
