# participant_id: P8
# gesture: soft
# trial_number: 1
# stream_name: Myo_EMG
# stream_type: emg
# timestamp: 20260420_152247
# samples: 5366
# duration_sec: 30.593
# nominal_sample_rate: 200.0
# effective_sample_rate: 175.37
#
timestamp,emg_1,emg_2,emg_3,emg_4,emg_5,emg_6,emg_7,emg_8
1303259.046752,-4.000000,0.000000,-4.000000,12.000000,-2.000000,0.000000,-6.000000,-2.000000
1303259.046796,4.000000,-2.000000,-6.000000,-8.000000,-12.000000,-7.000000,13.000000,8.000000
1303259.054243,-3.000000,-7.000000,13.000000,7.000000,6.000000,-2.000000,11.000000,6.000000
1303259.054253,-9.000000,0.000000,-17.000000,-28.000000,-11.000000,-5.000000,-19.000000,-15.000000
1303259.061824,-5.000000,-3.000000,29.000000,53.000000,14.000000,0.000000,-1.000000,0.000000
1303259.061853,16.000000,2.000000,-15.000000,-15.000000,1.000000,-3.000000,9.000000,-1.000000
1303259.092197,-11.000000,-3.000000,16.000000,4.000000,-3.000000,1.000000,-9.000000,-4.000000
1303259.092215,2.000000,-3.000000,-16.000000,-7.000000,1.000000,-5.000000,6.000000,1.000000
1303259.106724,-7.000000,0.000000,11.000000,-15.000000,-5.000000,2.000000,-8.000000,-7.000000
1303259.106753,-3.000000,3.000000,-28.000000,12.000000,11.000000,6.000000,8.000000,0.000000
1303259.129718,26.000000,2.000000,0.000000,-30.000000,-4.000000,2.000000,12.000000,35.000000
1303259.129730,-9.000000,-6.000000,6.000000,35.000000,1.000000,-4.000000,18.000000,-10.000000
1303259.136880,-3.000000,-3.000000,13.000000,11.000000,-2.000000,-2.000000,-6.000000,-3.000000
1303259.136893,-10.000000,-3.000000,-18.000000,-1.000000,0.000000,1.000000,-5.000000,-7.000000
1303259.152213,-5.000000,-1.000000,21.000000,-69.000000,-21.000000,-14.000000,-17.000000,-20.000000
1303259.152232,19.000000,1.000000,-16.000000,52.000000,23.000000,11.000000,6.000000,4.000000
1303259.152755,-24.000000,0.000000,-22.000000,-30.000000,-8.000000,-1.000000,14.000000,21.000000
1303259.152763,13.000000,-4.000000,35.000000,8.000000,0.000000,-3.000000,-5.000000,-2.000000
1303259.154130,1.000000,11.000000,-24.000000,0.000000,0.000000,-3.000000,-1.000000,-7.000000
1303259.154140,-1.000000,-1.000000,19.000000,-2.000000,7.000000,6.000000,5.000000,0.000000
1303259.154760,1.000000,-7.000000,6.000000,-8.000000,-8.000000,-2.000000,-11.000000,-3.000000
1303259.154777,1.000000,-3.000000,5.000000,5.000000,-7.000000,-6.000000,2.000000,-8.000000
1303259.166906,8.000000,-1.000000,-8.000000,-19.000000,-4.000000,-8.000000,9.000000,10.000000
1303259.166919,-11.000000,1.000000,-26.000000,-7.000000,1.000000,5.000000,-4.000000,0.000000
1303259.174487,-14.000000,-6.000000,-9.000000,-41.000000,-15.000000,-6.000000,-8.000000,-14.000000
1303259.174497,-7.000000,-6.000000,0.000000,42.000000,13.000000,0.000000,2.000000,0.000000
1303259.189459,10.000000,-5.000000,11.000000,0.000000,-2.000000,5.000000,5.000000,8.000000
1303259.189480,-13.000000,-5.000000,2.000000,-21.000000,-3.000000,-5.000000,-8.000000,-10.000000
1303259.226897,4.000000,1.000000,-34.000000,11.000000,1.000000,4.000000,19.000000,10.000000
1303259.226910,7.000000,-2.000000,1.000000,-7.000000,-3.000000,-6.000000,-7.000000,-2.000000
1303259.234468,-12.000000,-7.000000,12.000000,-1.000000,3.000000,-1.000000,-1.000000,-14.000000
1303259.234478,-9.000000,5.000000,-37.000000,-16.000000,-4.000000,-4.000000,-3.000000,-1.000000
1303259.271888,2.000000,-1.000000,17.000000,-4.000000,-13.000000,-3.000000,-2.000000,-4.000000
1303259.271900,-3.000000,-1.000000,1.000000,23.000000,7.000000,7.000000,8.000000,4.000000
1303259.272296,8.000000,-4.000000,44.000000,-2.000000,3.000000,1.000000,1.000000,7.000000
1303259.272313,9.000000,-8.000000,-11.000000,-12.000000,-8.000000,-4.000000,-2.000000,3.000000
1303259.273520,6.000000,0.000000,-6.000000,-16.000000,-2.000000,-10.000000,-2.000000,-7.000000
1303259.273531,-4.000000,3.000000,14.000000,7.000000,0.000000,7.000000,-6.000000,-1.000000
1303259.274372,-5.000000,-1.000000,-5.000000,4.000000,2.000000,-4.000000,-13.000000,-5.000000
1303259.274385,-9.000000,5.000000,-53.000000,-48.000000,-14.000000,-6.000000,2.000000,-16.000000
1303259.275795,-2.000000,-4.000000,-17.000000,-25.000000,-8.000000,-9.000000,-12.000000,-9.000000
1303259.275806,-26.000000,-5.000000,-6.000000,-9.000000,-5.000000,-8.000000,-15.000000,-9.000000
1303259.286834,27.000000,3.000000,-12.000000,5.000000,-1.000000,3.000000,25.000000,18.000000
1303259.286843,17.000000,-7.000000,28.000000,-16.000000,-8.000000,4.000000,4.000000,15.000000
1303259.302051,4.000000,4.000000,24.000000,-11.000000,0.000000,6.000000,-3.000000,-3.000000
1303259.302064,4.000000,-6.000000,-12.000000,3.000000,-2.000000,-10.000000,-5.000000,-6.000000
1303259.309719,-7.000000,-8.000000,-13.000000,-11.000000,1.000000,-1.000000,-5.000000,1.000000
1303259.309732,-3.000000,-5.000000,17.000000,7.000000,2.000000,-4.000000,-5.000000,-11.000000
1303259.332337,-12.000000,-2.000000,-21.000000,6.000000,-1.000000,-7.000000,-2.000000,1.000000
1303259.332360,4.000000,-1.000000,1.000000,-18.000000,1.000000,0.000000,-1.000000,0.000000
1303259.346753,6.000000,2.000000,0.000000,-7.000000,-3.000000,-1.000000,1.000000,2.000000
1303259.346763,-16.000000,2.000000,17.000000,11.000000,3.000000,3.000000,-1.000000,-3.000000
1303259.369906,0.000000,-2.000000,-11.000000,14.000000,6.000000,1.000000,8.000000,-1.000000
1303259.369923,-5.000000,-1.000000,16.000000,-2.000000,-6.000000,-2.000000,7.000000,-7.000000
1303259.370459,-3.000000,2.000000,-16.000000,-63.000000,-16.000000,-5.000000,-2.000000,1.000000
1303259.370468,0.000000,1.000000,19.000000,127.000000,47.000000,15.000000,9.000000,10.000000
1303259.371582,19.000000,7.000000,-2.000000,-8.000000,6.000000,-2.000000,17.000000,20.000000
1303259.371609,-1.000000,4.000000,-33.000000,-21.000000,-11.000000,-4.000000,-5.000000,-8.000000
1303259.372382,19.000000,0.000000,-2.000000,-12.000000,-11.000000,-2.000000,-7.000000,-11.000000
1303259.372395,-31.000000,-7.000000,-29.000000,-1.000000,0.000000,3.000000,1.000000,-1.000000
1303259.384102,-9.000000,1.000000,24.000000,3.000000,-4.000000,-5.000000,5.000000,1.000000
1303259.384114,11.000000,5.000000,-38.000000,6.000000,10.000000,2.000000,7.000000,13.000000
1303259.391995,-3.000000,-6.000000,7.000000,-11.000000,-1.000000,-7.000000,-1.000000,11.000000
1303259.392005,9.000000,-2.000000,-56.000000,-27.000000,-3.000000,-7.000000,-11.000000,-11.000000
1303259.407004,-16.000000,-4.000000,8.000000,2.000000,1.000000,-2.000000,-8.000000,-12.000000
1303259.407015,-8.000000,-7.000000,-3.000000,-31.000000,-11.000000,-2.000000,-3.000000,-9.000000
1303259.421809,31.000000,-6.000000,-3.000000,49.000000,13.000000,0.000000,-4.000000,7.000000
1303259.421819,6.000000,-2.000000,3.000000,-12.000000,1.000000,-1.000000,-4.000000,-4.000000
1303259.429293,-3.000000,1.000000,-6.000000,19.000000,14.000000,4.000000,19.000000,10.000000
1303259.429303,-6.000000,4.000000,-7.000000,-8.000000,-9.000000,1.000000,-6.000000,-5.000000
1303259.452109,-6.000000,-2.000000,-23.000000,-27.000000,-10.000000,-10.000000,-9.000000,-13.000000
1303259.452121,-16.000000,-1.000000,15.000000,23.000000,1.000000,-3.000000,-16.000000,-15.000000
1303259.466786,26.000000,-1.000000,16.000000,3.000000,8.000000,4.000000,20.000000,24.000000
1303259.466797,1.000000,-1.000000,7.000000,-21.000000,-13.000000,-7.000000,-10.000000,-10.000000
1303259.504905,-26.000000,-2.000000,-5.000000,-19.000000,-3.000000,-8.000000,-9.000000,-21.000000
1303259.504936,9.000000,3.000000,3.000000,-10.000000,-4.000000,-2.000000,11.000000,22.000000
1303259.505304,-5.000000,2.000000,15.000000,0.000000,2.000000,-3.000000,-5.000000,-12.000000
1303259.505312,0.000000,7.000000,7.000000,6.000000,0.000000,2.000000,-3.000000,-10.000000
1303259.505980,-7.000000,-2.000000,-5.000000,-6.000000,4.000000,-5.000000,-7.000000,-5.000000
1303259.505988,3.000000,1.000000,11.000000,-1.000000,-3.000000,-3.000000,-2.000000,0.000000
1303259.506681,-4.000000,0.000000,-13.000000,-4.000000,-2.000000,-3.000000,-5.000000,1.000000
1303259.506690,-1.000000,-2.000000,6.000000,4.000000,-3.000000,1.000000,-5.000000,0.000000
1303259.508274,4.000000,-1.000000,18.000000,-20.000000,-3.000000,-9.000000,-14.000000,-16.000000
1303259.508284,2.000000,-3.000000,-11.000000,57.000000,28.000000,10.000000,2.000000,-4.000000
1303259.511743,6.000000,9.000000,21.000000,-13.000000,3.000000,9.000000,49.000000,37.000000
1303259.511827,8.000000,6.000000,16.000000,-6.000000,-6.000000,-10.000000,-20.000000,-12.000000
1303259.526777,-2.000000,-4.000000,-8.000000,-19.000000,-12.000000,-11.000000,-7.000000,-5.000000
1303259.526795,-16.000000,1.000000,-10.000000,-10.000000,-8.000000,-11.000000,-9.000000,-14.000000
1303259.549714,2.000000,-1.000000,-29.000000,-10.000000,-3.000000,-3.000000,-11.000000,-11.000000
1303259.549726,2.000000,-2.000000,21.000000,16.000000,0.000000,4.000000,5.000000,16.000000
1303259.557093,4.000000,6.000000,-9.000000,2.000000,2.000000,4.000000,4.000000,4.000000
1303259.557116,0.000000,5.000000,-15.000000,-11.000000,2.000000,-2.000000,0.000000,2.000000
1303259.579398,-7.000000,3.000000,10.000000,3.000000,7.000000,3.000000,0.000000,-4.000000
1303259.579410,-2.000000,-4.000000,-15.000000,-12.000000,0.000000,-4.000000,-8.000000,-5.000000
1303259.587128,-6.000000,5.000000,-6.000000,-3.000000,-6.000000,-3.000000,9.000000,1.000000
1303259.587142,0.000000,-1.000000,11.000000,17.000000,3.000000,-2.000000,-4.000000,-1.000000
1303259.609405,-9.000000,-3.000000,3.000000,-35.000000,-12.000000,2.000000,-4.000000,-5.000000
1303259.609416,1.000000,3.000000,18.000000,52.000000,19.000000,5.000000,7.000000,5.000000
1303259.616657,4.000000,-2.000000,-12.000000,-13.000000,-9.000000,0.000000,4.000000,5.000000
1303259.616667,-9.000000,1.000000,3.000000,-8.000000,-1.000000,-2.000000,-4.000000,1.000000
1303259.624768,-2.000000,4.000000,-7.000000,0.000000,-1.000000,-8.000000,-8.000000,-2.000000
1303259.624797,-8.000000,-4.000000,-5.000000,-23.000000,-4.000000,-1.000000,-3.000000,-2.000000
1303259.625262,-10.000000,-2.000000,-8.000000,-13.000000,-10.000000,-18.000000,-27.000000,-15.000000
1303259.625289,8.000000,11.000000,12.000000,52.000000,33.000000,20.000000,13.000000,4.000000
1303259.626567,-12.000000,-7.000000,7.000000,-4.000000,1.000000,2.000000,-8.000000,-15.000000
1303259.626575,-2.000000,-1.000000,14.000000,3.000000,-7.000000,-4.000000,-8.000000,-10.000000
1303259.646787,-4.000000,-1.000000,3.000000,7.000000,3.000000,-3.000000,-4.000000,-4.000000
1303259.646797,-5.000000,-5.000000,1.000000,-9.000000,-8.000000,-2.000000,-9.000000,-7.000000
1303259.647251,-8.000000,-2.000000,4.000000,25.000000,-2.000000,1.000000,-4.000000,-8.000000
1303259.647261,-3.000000,3.000000,-19.000000,3.000000,2.000000,-3.000000,2.000000,5.000000
1303259.654463,8.000000,0.000000,18.000000,13.000000,2.000000,3.000000,6.000000,6.000000
1303259.654492,-1.000000,1.000000,-31.000000,-7.000000,-6.000000,-6.000000,-5.000000,6.000000
1303259.662159,3.000000,-11.000000,8.000000,-8.000000,-5.000000,-3.000000,5.000000,2.000000
1303259.662183,-11.000000,-3.000000,30.000000,-22.000000,-2.000000,1.000000,-2.000000,-10.000000
1303259.684343,-4.000000,5.000000,-21.000000,29.000000,4.000000,3.000000,-3.000000,-3.000000
1303259.684353,19.000000,8.000000,4.000000,-11.000000,-10.000000,-1.000000,9.000000,24.000000
1303259.692046,-16.000000,-10.000000,5.000000,-17.000000,-9.000000,-7.000000,-9.000000,-10.000000
1303259.692075,4.000000,-4.000000,-11.000000,-4.000000,1.000000,0.000000,-3.000000,8.000000
1303259.722325,-7.000000,0.000000,-19.000000,-13.000000,-10.000000,-3.000000,-19.000000,-25.000000
1303259.722344,23.000000,-6.000000,-9.000000,-8.000000,-5.000000,0.000000,44.000000,25.000000
1303259.729206,-1.000000,3.000000,23.000000,28.000000,2.000000,2.000000,-7.000000,9.000000
1303259.729235,-16.000000,-11.000000,-20.000000,-7.000000,-1.000000,0.000000,-13.000000,-19.000000
1303259.730329,1.000000,0.000000,-22.000000,-15.000000,-9.000000,-8.000000,-2.000000,-6.000000
1303259.730338,-5.000000,-9.000000,-32.000000,-13.000000,-2.000000,-8.000000,-14.000000,-9.000000
1303259.731032,-2.000000,1.000000,-1.000000,-19.000000,-1.000000,0.000000,1.000000,-3.000000
1303259.731041,-6.000000,0.000000,-26.000000,-11.000000,-6.000000,-7.000000,-10.000000,-7.000000
1303259.732511,4.000000,-4.000000,-10.000000,-9.000000,5.000000,2.000000,-2.000000,-8.000000
1303259.732519,-1.000000,3.000000,2.000000,9.000000,-1.000000,-1.000000,2.000000,6.000000
1303259.744872,7.000000,0.000000,16.000000,-16.000000,4.000000,0.000000,10.000000,10.000000
1303259.744892,-1.000000,-1.000000,16.000000,26.000000,4.000000,2.000000,7.000000,2.000000
1303259.781819,-11.000000,-1.000000,-9.000000,-11.000000,-3.000000,1.000000,-14.000000,-7.000000
1303259.781829,7.000000,1.000000,-16.000000,-29.000000,-3.000000,-3.000000,-12.000000,-21.000000
1303259.804391,21.000000,-3.000000,11.000000,35.000000,12.000000,4.000000,22.000000,25.000000
1303259.804401,9.000000,5.000000,7.000000,-17.000000,-11.000000,-3.000000,0.000000,15.000000
1303259.827040,15.000000,-4.000000,7.000000,-11.000000,-4.000000,-5.000000,7.000000,4.000000
1303259.827052,-1.000000,2.000000,10.000000,-5.000000,-4.000000,-6.000000,-8.000000,-9.000000
1303259.843212,-3.000000,3.000000,-5.000000,-13.000000,-5.000000,0.000000,-10.000000,-12.000000
1303259.843369,-5.000000,-3.000000,22.000000,-14.000000,-13.000000,-3.000000,-8.000000,-8.000000
1303259.865952,-20.000000,-3.000000,-7.000000,-19.000000,0.000000,-1.000000,-14.000000,-11.000000
1303259.865978,-1.000000,-7.000000,9.000000,52.000000,17.000000,-3.000000,5.000000,-5.000000
1303259.880666,4.000000,3.000000,31.000000,-11.000000,-5.000000,-2.000000,10.000000,14.000000
1303259.880694,3.000000,-2.000000,8.000000,-9.000000,-2.000000,-7.000000,-9.000000,4.000000
1303259.887575,4.000000,-5.000000,-15.000000,-38.000000,-9.000000,-2.000000,-24.000000,-15.000000
1303259.887600,-29.000000,3.000000,2.000000,60.000000,13.000000,5.000000,29.000000,9.000000
1303259.902499,10.000000,-6.000000,-29.000000,-13.000000,-1.000000,-4.000000,-10.000000,-8.000000
1303259.902516,24.000000,-4.000000,-9.000000,-1.000000,-2.000000,-8.000000,-14.000000,-16.000000
1303259.903104,-53.000000,-9.000000,13.000000,-54.000000,-16.000000,-6.000000,-9.000000,-10.000000
1303259.903120,35.000000,-11.000000,30.000000,89.000000,53.000000,17.000000,33.000000,31.000000
1303259.903719,-3.000000,6.000000,10.000000,-15.000000,-15.000000,-14.000000,-14.000000,-6.000000
1303259.903733,3.000000,-12.000000,-5.000000,-14.000000,-12.000000,-9.000000,-21.000000,-10.000000
1303259.904378,2.000000,3.000000,-15.000000,-14.000000,-10.000000,-6.000000,-10.000000,-2.000000
1303259.904392,-12.000000,4.000000,15.000000,48.000000,17.000000,11.000000,2.000000,-6.000000
1303259.904961,13.000000,0.000000,-23.000000,-37.000000,-12.000000,-1.000000,10.000000,4.000000
1303259.904974,5.000000,9.000000,-3.000000,13.000000,12.000000,1.000000,2.000000,13.000000
1303259.905833,4.000000,-4.000000,13.000000,6.000000,-5.000000,2.000000,0.000000,6.000000
1303259.905846,-9.000000,1.000000,4.000000,6.000000,-5.000000,7.000000,-2.000000,-4.000000
1303259.925235,2.000000,-2.000000,-4.000000,-28.000000,-8.000000,-6.000000,1.000000,-4.000000
1303259.925250,2.000000,-8.000000,1.000000,6.000000,14.000000,8.000000,-7.000000,-7.000000
1303259.939157,-8.000000,3.000000,3.000000,-2.000000,-6.000000,1.000000,-4.000000,1.000000
1303259.939168,1.000000,-3.000000,-3.000000,6.000000,1.000000,-5.000000,-4.000000,-6.000000
1303259.940892,-14.000000,2.000000,5.000000,-8.000000,1.000000,-2.000000,-1.000000,-4.000000
1303259.940903,0.000000,-1.000000,7.000000,-15.000000,-15.000000,-1.000000,-12.000000,-11.000000
1303259.946638,-3.000000,-3.000000,-9.000000,-22.000000,-6.000000,-17.000000,-26.000000,-20.000000
1303259.946657,-19.000000,-1.000000,30.000000,80.000000,34.000000,12.000000,42.000000,15.000000
1303259.961702,23.000000,3.000000,24.000000,-28.000000,-7.000000,3.000000,15.000000,25.000000
1303259.961712,-11.000000,0.000000,-41.000000,-16.000000,-4.000000,3.000000,-4.000000,-8.000000
1303259.984455,-24.000000,3.000000,-9.000000,1.000000,7.000000,-12.000000,-27.000000,-26.000000
1303259.984516,50.000000,6.000000,17.000000,-3.000000,-1.000000,5.000000,40.000000,29.000000
1303259.985242,-7.000000,-3.000000,21.000000,-3.000000,-3.000000,2.000000,-1.000000,2.000000
1303259.985250,-14.000000,3.000000,-20.000000,-31.000000,-10.000000,-7.000000,-20.000000,-9.000000
1303259.985887,-6.000000,-1.000000,14.000000,47.000000,20.000000,2.000000,9.000000,-11.000000
1303259.985897,11.000000,-4.000000,-1.000000,-11.000000,-2.000000,-5.000000,0.000000,9.000000
1303259.999309,-5.000000,1.000000,11.000000,13.000000,-1.000000,3.000000,-1.000000,0.000000
1303259.999337,-1.000000,-12.000000,-10.000000,-3.000000,-1.000000,-6.000000,-2.000000,-5.000000
1303260.021900,2.000000,-8.000000,-28.000000,-25.000000,-3.000000,2.000000,-5.000000,-3.000000
1303260.021911,-12.000000,-2.000000,-2.000000,11.000000,-6.000000,0.000000,-12.000000,-14.000000
1303260.051943,33.000000,-6.000000,-3.000000,13.000000,16.000000,1.000000,0.000000,-7.000000
1303260.051954,-42.000000,4.000000,9.000000,-4.000000,-3.000000,3.000000,45.000000,39.000000
1303260.059692,6.000000,-4.000000,-3.000000,-10.000000,-7.000000,-3.000000,-23.000000,-15.000000
1303260.059703,4.000000,7.000000,-23.000000,-3.000000,-2.000000,-3.000000,6.000000,-1.000000
1303260.081893,8.000000,0.000000,1.000000,-37.000000,-9.000000,-7.000000,-6.000000,-5.000000
1303260.081904,-6.000000,1.000000,-12.000000,-13.000000,-4.000000,-6.000000,-12.000000,-6.000000
1303260.082343,-8.000000,-4.000000,-21.000000,13.000000,-5.000000,-5.000000,-1.000000,-8.000000
1303260.082360,-7.000000,-2.000000,-21.000000,4.000000,-1.000000,-1.000000,-13.000000,-12.000000
1303260.083366,19.000000,3.000000,-31.000000,0.000000,6.000000,6.000000,14.000000,12.000000
1303260.083393,-3.000000,3.000000,-15.000000,2.000000,3.000000,-6.000000,-9.000000,1.000000
1303260.084812,-4.000000,0.000000,5.000000,-16.000000,-7.000000,1.000000,-16.000000,-15.000000
1303260.084820,14.000000,3.000000,-9.000000,-20.000000,-8.000000,-11.000000,0.000000,0.000000
1303260.085552,-4.000000,-10.000000,13.000000,38.000000,14.000000,2.000000,-6.000000,-4.000000
1303260.085560,9.000000,3.000000,2.000000,-23.000000,-9.000000,-3.000000,-6.000000,-8.000000
1303260.104967,-20.000000,1.000000,-21.000000,-10.000000,0.000000,1.000000,5.000000,-1.000000
1303260.104977,23.000000,-10.000000,-3.000000,18.000000,5.000000,6.000000,-5.000000,2.000000
1303260.105432,-13.000000,0.000000,-14.000000,-17.000000,-6.000000,-6.000000,-12.000000,-11.000000
1303260.105440,-7.000000,-1.000000,-14.000000,6.000000,-2.000000,-1.000000,-2.000000,-8.000000
1303260.119506,17.000000,-4.000000,9.000000,-7.000000,-5.000000,-4.000000,27.000000,23.000000
1303260.119563,4.000000,-2.000000,8.000000,-4.000000,5.000000,-3.000000,-7.000000,2.000000
1303260.127287,1.000000,7.000000,-8.000000,-6.000000,-6.000000,-3.000000,-8.000000,-10.000000
1303260.127301,4.000000,5.000000,6.000000,1.000000,-1.000000,2.000000,-2.000000,-7.000000
1303260.156880,-9.000000,-1.000000,41.000000,-9.000000,-3.000000,4.000000,0.000000,3.000000
1303260.156891,-12.000000,0.000000,-33.000000,-22.000000,1.000000,-5.000000,2.000000,-11.000000
1303260.164377,1.000000,6.000000,24.000000,-13.000000,-21.000000,-5.000000,-5.000000,-5.000000
1303260.164388,4.000000,2.000000,7.000000,49.000000,14.000000,1.000000,16.000000,11.000000
1303260.201982,2.000000,1.000000,11.000000,2.000000,-4.000000,-2.000000,-10.000000,5.000000
1303260.201995,-16.000000,7.000000,-3.000000,-31.000000,-10.000000,-5.000000,-6.000000,-9.000000
1303260.202299,5.000000,0.000000,-21.000000,-17.000000,-5.000000,-3.000000,-14.000000,-15.000000
1303260.202309,2.000000,-11.000000,5.000000,20.000000,13.000000,9.000000,1.000000,-12.000000
1303260.203434,12.000000,-7.000000,-13.000000,-3.000000,-1.000000,1.000000,25.000000,28.000000
1303260.203442,8.000000,-7.000000,25.000000,5.000000,6.000000,9.000000,4.000000,-3.000000
1303260.204029,1.000000,-1.000000,-10.000000,-5.000000,-1.000000,2.000000,-5.000000,-4.000000
1303260.204037,-5.000000,10.000000,-1.000000,9.000000,3.000000,2.000000,-5.000000,-7.000000
1303260.206022,-15.000000,-8.000000,-8.000000,-15.000000,2.000000,-6.000000,-23.000000,-14.000000
1303260.206034,3.000000,-4.000000,10.000000,16.000000,0.000000,-1.000000,17.000000,9.000000
1303260.217398,-8.000000,-1.000000,0.000000,4.000000,9.000000,-3.000000,-1.000000,-7.000000
1303260.217412,11.000000,-1.000000,-2.000000,50.000000,5.000000,7.000000,8.000000,15.000000
1303260.224066,-4.000000,5.000000,-1.000000,-27.000000,-16.000000,-5.000000,-7.000000,-6.000000
1303260.224089,-1.000000,-2.000000,-12.000000,-33.000000,-3.000000,-9.000000,-2.000000,-9.000000
1303260.239594,-7.000000,-10.000000,3.000000,18.000000,-2.000000,-4.000000,-3.000000,-3.000000
1303260.239606,-12.000000,-4.000000,-25.000000,-9.000000,-2.000000,2.000000,0.000000,-8.000000
1303260.247078,11.000000,-3.000000,-45.000000,-34.000000,-16.000000,-3.000000,-6.000000,-5.000000
1303260.247091,-6.000000,5.000000,30.000000,73.000000,13.000000,8.000000,4.000000,2.000000
1303260.276765,7.000000,8.000000,28.000000,-13.000000,-12.000000,1.000000,3.000000,3.000000
1303260.276789,-3.000000,-3.000000,-40.000000,-9.000000,-4.000000,-4.000000,-6.000000,2.000000
1303260.284587,6.000000,0.000000,6.000000,-5.000000,-3.000000,5.000000,17.000000,-8.000000
1303260.284599,-7.000000,0.000000,-3.000000,-8.000000,7.000000,1.000000,-10.000000,-12.000000
1303260.321627,-7.000000,-2.000000,-2.000000,10.000000,3.000000,3.000000,0.000000,-9.000000
1303260.321642,6.000000,1.000000,23.000000,13.000000,2.000000,0.000000,17.000000,16.000000
1303260.322281,16.000000,-11.000000,-17.000000,-7.000000,6.000000,3.000000,18.000000,14.000000
1303260.322299,6.000000,-5.000000,8.000000,6.000000,-3.000000,-1.000000,-13.000000,-11.000000
1303260.323414,0.000000,3.000000,13.000000,-9.000000,-6.000000,-8.000000,-12.000000,-14.000000
1303260.323423,-9.000000,-5.000000,11.000000,3.000000,0.000000,-5.000000,3.000000,-6.000000
1303260.324091,-8.000000,0.000000,11.000000,-26.000000,-10.000000,-4.000000,-10.000000,0.000000
1303260.324119,-1.000000,-3.000000,-4.000000,22.000000,-2.000000,-9.000000,-9.000000,-11.000000
1303260.325558,10.000000,0.000000,34.000000,42.000000,25.000000,21.000000,29.000000,30.000000
1303260.325585,-5.000000,-1.000000,3.000000,-23.000000,-8.000000,-1.000000,-10.000000,-9.000000
1303260.337556,-8.000000,-7.000000,0.000000,11.000000,-4.000000,-3.000000,-4.000000,-3.000000
1303260.337566,-7.000000,-5.000000,-4.000000,-35.000000,-7.000000,-1.000000,-8.000000,-11.000000
1303260.344526,-3.000000,-7.000000,7.000000,69.000000,21.000000,8.000000,13.000000,12.000000
1303260.344539,8.000000,-3.000000,-5.000000,-11.000000,1.000000,-4.000000,5.000000,10.000000
1303260.374454,-3.000000,0.000000,28.000000,-2.000000,-2.000000,0.000000,-8.000000,-5.000000
1303260.374465,-4.000000,4.000000,-52.000000,-11.000000,-4.000000,-5.000000,-22.000000,-11.000000
1303260.396898,-3.000000,-3.000000,3.000000,6.000000,1.000000,6.000000,10.000000,-8.000000
1303260.396909,-7.000000,-9.000000,-53.000000,-9.000000,1.000000,-3.000000,22.000000,24.000000
1303260.404411,0.000000,3.000000,7.000000,-28.000000,-5.000000,-1.000000,-24.000000,-9.000000
1303260.404458,-7.000000,-3.000000,-25.000000,24.000000,1.000000,1.000000,0.000000,-12.000000
1303260.419131,4.000000,-2.000000,14.000000,-12.000000,1.000000,-4.000000,11.000000,10.000000
1303260.419140,-5.000000,-5.000000,-3.000000,16.000000,-6.000000,0.000000,-6.000000,-11.000000
1303260.419584,-11.000000,-8.000000,-22.000000,-12.000000,3.000000,-2.000000,-9.000000,-6.000000
1303260.419592,4.000000,-8.000000,-3.000000,-2.000000,-5.000000,2.000000,-2.000000,1.000000
1303260.420866,14.000000,7.000000,-3.000000,-18.000000,-1.000000,2.000000,-7.000000,-4.000000
1303260.420874,-5.000000,-5.000000,4.000000,-10.000000,-4.000000,-3.000000,-1.000000,-9.000000
1303260.421731,13.000000,3.000000,13.000000,-18.000000,-5.000000,1.000000,12.000000,13.000000
1303260.421738,-1.000000,0.000000,3.000000,23.000000,7.000000,4.000000,1.000000,4.000000
1303260.434995,-5.000000,-11.000000,-2.000000,-9.000000,0.000000,-4.000000,-9.000000,-5.000000
1303260.435004,1.000000,1.000000,22.000000,-15.000000,-5.000000,-6.000000,0.000000,-5.000000
1303260.435690,-9.000000,-1.000000,-10.000000,-16.000000,-5.000000,4.000000,-1.000000,-3.000000
1303260.435698,3.000000,-1.000000,23.000000,-2.000000,-7.000000,-1.000000,1.000000,1.000000
1303260.457264,-5.000000,0.000000,-25.000000,-15.000000,-7.000000,-9.000000,-5.000000,-4.000000
1303260.457274,10.000000,-1.000000,14.000000,-22.000000,-6.000000,-10.000000,-9.000000,-9.000000
1303260.458081,-18.000000,5.000000,4.000000,60.000000,24.000000,12.000000,10.000000,15.000000
1303260.458089,7.000000,1.000000,-2.000000,-11.000000,-7.000000,3.000000,3.000000,3.000000
1303260.494379,5.000000,-3.000000,-13.000000,-10.000000,-4.000000,-1.000000,-7.000000,-7.000000
1303260.494388,-17.000000,1.000000,13.000000,-3.000000,-6.000000,-2.000000,-6.000000,-16.000000
1303260.501710,-3.000000,0.000000,-11.000000,-27.000000,-6.000000,3.000000,-9.000000,-8.000000
1303260.501728,34.000000,0.000000,-4.000000,47.000000,7.000000,-6.000000,24.000000,34.000000
1303260.539606,-2.000000,0.000000,6.000000,-13.000000,-3.000000,1.000000,-16.000000,-9.000000
1303260.539669,-9.000000,2.000000,5.000000,-7.000000,6.000000,0.000000,-4.000000,-15.000000
1303260.554327,-5.000000,-4.000000,-13.000000,1.000000,-1.000000,-11.000000,-3.000000,-10.000000
1303260.554349,-3.000000,0.000000,-18.000000,-4.000000,2.000000,-1.000000,-7.000000,0.000000
1303260.577046,0.000000,-4.000000,29.000000,14.000000,13.000000,7.000000,-9.000000,-3.000000
1303260.577057,1.000000,0.000000,-35.000000,-7.000000,-7.000000,-6.000000,-6.000000,0.000000
1303260.599334,11.000000,-1.000000,15.000000,-2.000000,2.000000,1.000000,7.000000,2.000000
1303260.599358,-12.000000,-10.000000,-14.000000,-35.000000,2.000000,7.000000,-14.000000,-7.000000
1303260.622065,-10.000000,-5.000000,-7.000000,-10.000000,11.000000,1.000000,-1.000000,2.000000
1303260.622077,5.000000,0.000000,-25.000000,-26.000000,-9.000000,-8.000000,-22.000000,-11.000000
1303260.636775,-19.000000,9.000000,-7.000000,-2.000000,9.000000,-4.000000,-9.000000,-1.000000
1303260.636797,-7.000000,0.000000,-12.000000,13.000000,2.000000,-1.000000,-14.000000,-13.000000
1303260.637776,-17.000000,0.000000,-19.000000,-9.000000,-5.000000,-7.000000,3.000000,-1.000000
1303260.637784,4.000000,1.000000,5.000000,-1.000000,-1.000000,-5.000000,-8.000000,-7.000000
1303260.638371,0.000000,-3.000000,-3.000000,-18.000000,-6.000000,-10.000000,2.000000,7.000000
1303260.638379,-4.000000,-4.000000,-1.000000,0.000000,4.000000,0.000000,-2.000000,-1.000000
1303260.639136,-13.000000,-8.000000,-18.000000,10.000000,15.000000,9.000000,5.000000,4.000000
1303260.639144,11.000000,1.000000,-4.000000,-8.000000,0.000000,4.000000,1.000000,3.000000
1303260.640650,1.000000,6.000000,-43.000000,22.000000,-1.000000,-6.000000,-12.000000,-5.000000
1303260.640661,-6.000000,-6.000000,-26.000000,-14.000000,-5.000000,-6.000000,-4.000000,-1.000000
1303260.660163,31.000000,-5.000000,14.000000,-3.000000,-10.000000,-7.000000,5.000000,15.000000
1303260.660174,-11.000000,4.000000,8.000000,-13.000000,2.000000,3.000000,6.000000,0.000000
1303260.660676,-7.000000,-3.000000,13.000000,-3.000000,-11.000000,-1.000000,-11.000000,-2.000000
1303260.660685,6.000000,4.000000,-11.000000,-24.000000,-7.000000,1.000000,-2.000000,-4.000000
1303260.674815,-15.000000,-2.000000,-25.000000,16.000000,0.000000,-1.000000,-11.000000,-9.000000
1303260.674826,-1.000000,5.000000,16.000000,12.000000,3.000000,-5.000000,-5.000000,-4.000000
1303260.675623,-5.000000,-6.000000,-17.000000,-37.000000,-6.000000,-4.000000,-2.000000,1.000000
1303260.675632,2.000000,-8.000000,-2.000000,15.000000,6.000000,-2.000000,-1.000000,0.000000
1303260.712550,-4.000000,-3.000000,1.000000,-4.000000,7.000000,3.000000,-1.000000,-3.000000
1303260.712559,8.000000,-3.000000,28.000000,0.000000,-4.000000,5.000000,6.000000,7.000000
1303260.712948,8.000000,-2.000000,-12.000000,-15.000000,-7.000000,-9.000000,0.000000,2.000000
1303260.712957,-4.000000,1.000000,-1.000000,-13.000000,-1.000000,-2.000000,-9.000000,-9.000000
1303260.714826,-15.000000,-4.000000,-8.000000,-5.000000,-8.000000,-5.000000,-5.000000,-2.000000
1303260.714839,-11.000000,-4.000000,-28.000000,-39.000000,-9.000000,-9.000000,-26.000000,-14.000000
1303260.734446,16.000000,3.000000,6.000000,81.000000,31.000000,16.000000,33.000000,16.000000
1303260.734477,9.000000,-4.000000,30.000000,-11.000000,-2.000000,3.000000,3.000000,16.000000
1303260.771990,-4.000000,4.000000,-67.000000,-32.000000,-10.000000,-9.000000,-15.000000,-15.000000
1303260.772001,-24.000000,-2.000000,6.000000,20.000000,-3.000000,-6.000000,-13.000000,-13.000000
1303260.779558,25.000000,-5.000000,5.000000,0.000000,1.000000,4.000000,7.000000,16.000000
1303260.779582,-4.000000,3.000000,1.000000,-11.000000,3.000000,-1.000000,5.000000,2.000000
1303260.794162,-8.000000,0.000000,-19.000000,-20.000000,-1.000000,-3.000000,-5.000000,2.000000
1303260.794249,3.000000,-2.000000,26.000000,26.000000,7.000000,4.000000,-4.000000,-9.000000
1303260.794661,-7.000000,0.000000,3.000000,-3.000000,-7.000000,1.000000,-7.000000,-6.000000
1303260.794671,0.000000,-11.000000,-44.000000,2.000000,1.000000,1.000000,-4.000000,-1.000000
1303260.795979,6.000000,-3.000000,17.000000,-5.000000,-1.000000,2.000000,4.000000,8.000000
1303260.795988,5.000000,-2.000000,15.000000,-5.000000,-5.000000,-4.000000,-4.000000,-10.000000
1303260.797848,11.000000,-1.000000,-4.000000,-29.000000,-10.000000,-12.000000,0.000000,-7.000000
1303260.797860,16.000000,-3.000000,20.000000,54.000000,32.000000,17.000000,11.000000,0.000000
1303260.831790,10.000000,0.000000,14.000000,1.000000,-7.000000,-2.000000,16.000000,34.000000
1303260.831801,-5.000000,0.000000,-7.000000,12.000000,-4.000000,4.000000,-7.000000,5.000000
1303260.832140,-4.000000,1.000000,1.000000,-20.000000,-8.000000,-3.000000,-1.000000,-11.000000
1303260.832149,-3.000000,-1.000000,0.000000,-6.000000,-5.000000,-4.000000,-9.000000,-7.000000
1303260.833812,5.000000,-4.000000,-22.000000,-26.000000,-10.000000,-5.000000,-9.000000,-10.000000
1303260.833821,-14.000000,-4.000000,32.000000,70.000000,9.000000,-1.000000,-4.000000,-2.000000
1303260.839320,15.000000,-1.000000,11.000000,24.000000,7.000000,5.000000,5.000000,6.000000
1303260.839331,-3.000000,-3.000000,-24.000000,-20.000000,-11.000000,-4.000000,-11.000000,-1.000000
1303260.854686,-1.000000,-1.000000,-7.000000,-9.000000,-4.000000,-9.000000,2.000000,-1.000000
1303260.854697,-2.000000,-6.000000,-10.000000,1.000000,0.000000,-3.000000,-28.000000,-11.000000
1303260.876936,-22.000000,-2.000000,-18.000000,-8.000000,-6.000000,-2.000000,24.000000,-3.000000
1303260.876948,12.000000,0.000000,13.000000,38.000000,3.000000,3.000000,-9.000000,-4.000000
1303260.899297,25.000000,-3.000000,-40.000000,-37.000000,-4.000000,-4.000000,13.000000,19.000000
1303260.899325,-30.000000,-7.000000,3.000000,-4.000000,-2.000000,4.000000,8.000000,11.000000
1303260.936858,4.000000,-3.000000,22.000000,-1.000000,-9.000000,-7.000000,-14.000000,-14.000000
1303260.936871,-5.000000,-2.000000,-19.000000,-24.000000,-2.000000,-1.000000,1.000000,-6.000000
1303260.937933,12.000000,-3.000000,-4.000000,0.000000,-2.000000,-4.000000,-12.000000,-9.000000
1303260.937941,-43.000000,5.000000,-10.000000,-15.000000,-2.000000,-4.000000,-10.000000,-18.000000
1303260.938550,10.000000,-4.000000,0.000000,10.000000,0.000000,1.000000,6.000000,9.000000
1303260.938599,18.000000,-1.000000,12.000000,4.000000,-7.000000,-1.000000,6.000000,15.000000
1303260.939712,-7.000000,5.000000,-42.000000,-13.000000,-5.000000,3.000000,1.000000,-2.000000
1303260.939761,-5.000000,2.000000,-29.000000,8.000000,-5.000000,-7.000000,-6.000000,-10.000000
1303260.940606,2.000000,-8.000000,22.000000,-11.000000,3.000000,-2.000000,0.000000,3.000000
1303260.940614,-8.000000,-4.000000,6.000000,25.000000,8.000000,5.000000,-3.000000,-3.000000
1303260.952670,-1.000000,-7.000000,-4.000000,-5.000000,-4.000000,-11.000000,-14.000000,-19.000000
1303260.952681,-8.000000,0.000000,-41.000000,-8.000000,-1.000000,0.000000,-9.000000,-9.000000
1303260.959727,-9.000000,1.000000,26.000000,-5.000000,-4.000000,1.000000,-13.000000,-18.000000
1303260.959740,0.000000,2.000000,-15.000000,-19.000000,-4.000000,-3.000000,9.000000,7.000000
1303260.989503,16.000000,-5.000000,-5.000000,59.000000,18.000000,13.000000,10.000000,12.000000
1303260.989521,-16.000000,-6.000000,24.000000,-13.000000,-3.000000,0.000000,-14.000000,-10.000000
1303260.997008,-2.000000,5.000000,7.000000,22.000000,-5.000000,-1.000000,1.000000,-4.000000
1303260.997020,2.000000,-10.000000,-21.000000,-13.000000,-14.000000,-6.000000,2.000000,0.000000
1303261.034634,10.000000,-1.000000,39.000000,17.000000,17.000000,3.000000,-28.000000,-5.000000
1303261.034730,-23.000000,2.000000,3.000000,-26.000000,-9.000000,-8.000000,17.000000,-1.000000
1303261.034953,7.000000,-2.000000,13.000000,23.000000,0.000000,-1.000000,2.000000,2.000000
1303261.034962,14.000000,0.000000,-11.000000,-10.000000,-4.000000,0.000000,-5.000000,-5.000000
1303261.035978,-19.000000,-10.000000,-6.000000,-6.000000,1.000000,-2.000000,-14.000000,-19.000000
1303261.035987,-10.000000,3.000000,-28.000000,-21.000000,-15.000000,-6.000000,41.000000,16.000000
1303261.036960,22.000000,2.000000,31.000000,17.000000,14.000000,1.000000,3.000000,16.000000
1303261.036971,-1.000000,7.000000,-8.000000,7.000000,2.000000,-1.000000,-4.000000,-7.000000
1303261.038395,2.000000,-1.000000,-19.000000,19.000000,2.000000,2.000000,-7.000000,-9.000000
1303261.038408,-25.000000,-5.000000,-19.000000,-22.000000,-2.000000,1.000000,-6.000000,-10.000000
1303261.050154,13.000000,2.000000,-12.000000,7.000000,0.000000,2.000000,1.000000,4.000000
1303261.050165,-7.000000,-9.000000,18.000000,5.000000,4.000000,4.000000,6.000000,0.000000
1303261.057023,-8.000000,1.000000,-15.000000,-11.000000,2.000000,0.000000,-3.000000,-6.000000
1303261.057035,0.000000,1.000000,5.000000,-3.000000,-5.000000,-4.000000,-12.000000,-4.000000
1303261.072466,6.000000,-6.000000,1.000000,-5.000000,-8.000000,-2.000000,-5.000000,-2.000000
1303261.072477,-18.000000,-7.000000,-7.000000,-31.000000,-11.000000,-7.000000,-17.000000,-8.000000
1303261.109252,11.000000,1.000000,-11.000000,21.000000,7.000000,4.000000,-6.000000,-15.000000
1303261.109263,-6.000000,0.000000,26.000000,-6.000000,-9.000000,2.000000,41.000000,36.000000
1303261.110375,5.000000,8.000000,-1.000000,-5.000000,-1.000000,6.000000,12.000000,22.000000
1303261.110399,-1.000000,3.000000,3.000000,-5.000000,-4.000000,-4.000000,-12.000000,-10.000000
1303261.111030,2.000000,-13.000000,-29.000000,-27.000000,-18.000000,-9.000000,-14.000000,-16.000000
1303261.111040,8.000000,-7.000000,3.000000,2.000000,5.000000,13.000000,0.000000,0.000000
1303261.112737,-7.000000,4.000000,-10.000000,14.000000,3.000000,-4.000000,9.000000,6.000000
1303261.112754,21.000000,-2.000000,-17.000000,-11.000000,1.000000,-5.000000,-5.000000,-1.000000
1303261.116901,-25.000000,6.000000,-16.000000,-1.000000,-1.000000,1.000000,-11.000000,-19.000000
1303261.116929,3.000000,2.000000,-17.000000,6.000000,2.000000,6.000000,-2.000000,3.000000
1303261.131806,8.000000,1.000000,18.000000,-17.000000,-9.000000,-8.000000,-6.000000,8.000000
1303261.131815,4.000000,-5.000000,6.000000,7.000000,3.000000,7.000000,-1.000000,-4.000000
1303261.154413,-8.000000,-1.000000,9.000000,-7.000000,-1.000000,-7.000000,3.000000,14.000000
1303261.154424,-10.000000,-4.000000,-4.000000,6.000000,-2.000000,-9.000000,-18.000000,-13.000000
1303261.176880,3.000000,-4.000000,1.000000,18.000000,-6.000000,-7.000000,1.000000,-6.000000
1303261.176904,-3.000000,1.000000,30.000000,-16.000000,2.000000,7.000000,7.000000,3.000000
1303261.191997,1.000000,-4.000000,-2.000000,1.000000,-1.000000,1.000000,-8.000000,-4.000000
1303261.192008,-13.000000,-5.000000,15.000000,-26.000000,-8.000000,-7.000000,-11.000000,-10.000000
1303261.221869,31.000000,-4.000000,-15.000000,31.000000,15.000000,6.000000,14.000000,19.000000
1303261.221885,-20.000000,-2.000000,16.000000,5.000000,-1.000000,-3.000000,-6.000000,-6.000000
1303261.229722,5.000000,-3.000000,-4.000000,-14.000000,2.000000,2.000000,-4.000000,-6.000000
1303261.229735,-5.000000,-7.000000,-21.000000,-10.000000,-3.000000,-2.000000,-1.000000,-5.000000
1303261.251782,-8.000000,-4.000000,3.000000,-11.000000,-4.000000,2.000000,-6.000000,-13.000000
1303261.251794,-8.000000,2.000000,-7.000000,-16.000000,-7.000000,-3.000000,-12.000000,-12.000000
1303261.252288,30.000000,-2.000000,-16.000000,12.000000,8.000000,2.000000,5.000000,11.000000
1303261.252298,-26.000000,2.000000,15.000000,-4.000000,-2.000000,-4.000000,-2.000000,9.000000
1303261.253539,-16.000000,3.000000,-6.000000,-41.000000,-2.000000,1.000000,-5.000000,-14.000000
1303261.253550,17.000000,-4.000000,-7.000000,48.000000,15.000000,5.000000,9.000000,19.000000
1303261.254190,1.000000,1.000000,30.000000,1.000000,1.000000,-2.000000,-6.000000,1.000000
1303261.254210,-5.000000,-4.000000,-25.000000,-6.000000,-5.000000,3.000000,20.000000,2.000000
1303261.267065,-11.000000,1.000000,9.000000,0.000000,-2.000000,-2.000000,-3.000000,-8.000000
1303261.267088,-9.000000,-3.000000,-29.000000,14.000000,10.000000,5.000000,-2.000000,0.000000
1303261.268192,6.000000,3.000000,11.000000,-12.000000,-6.000000,-4.000000,-7.000000,-3.000000
1303261.268202,6.000000,-13.000000,-41.000000,-17.000000,-9.000000,3.000000,16.000000,2.000000
1303261.274323,1.000000,6.000000,-17.000000,-3.000000,1.000000,6.000000,6.000000,9.000000
1303261.274343,11.000000,-7.000000,11.000000,-32.000000,0.000000,1.000000,-1.000000,0.000000
1303261.312104,-11.000000,-10.000000,18.000000,47.000000,3.000000,11.000000,-1.000000,3.000000
1303261.312114,-3.000000,0.000000,-3.000000,-3.000000,-5.000000,-5.000000,1.000000,-6.000000
1303261.312880,20.000000,1.000000,-15.000000,-36.000000,-10.000000,-2.000000,5.000000,15.000000
1303261.312910,-6.000000,-5.000000,5.000000,4.000000,15.000000,2.000000,-4.000000,-11.000000
1303261.314263,-2.000000,0.000000,-26.000000,-9.000000,-4.000000,7.000000,11.000000,1.000000
1303261.314272,7.000000,0.000000,25.000000,28.000000,3.000000,-7.000000,32.000000,20.000000
1303261.319149,1.000000,-9.000000,-32.000000,-11.000000,-4.000000,-5.000000,-10.000000,11.000000
1303261.319157,-3.000000,-4.000000,7.000000,-9.000000,-5.000000,3.000000,-13.000000,-19.000000
1303261.334665,-9.000000,-2.000000,10.000000,7.000000,3.000000,6.000000,-2.000000,-12.000000
1303261.334676,17.000000,-7.000000,-26.000000,3.000000,5.000000,-1.000000,5.000000,4.000000
1303261.349348,-6.000000,8.000000,-17.000000,-10.000000,-3.000000,0.000000,-5.000000,-5.000000
1303261.349358,-15.000000,-9.000000,0.000000,-9.000000,-8.000000,0.000000,-9.000000,-9.000000
1303261.372378,5.000000,-3.000000,47.000000,11.000000,-3.000000,-7.000000,3.000000,4.000000
1303261.372415,14.000000,0.000000,-29.000000,-9.000000,11.000000,5.000000,-4.000000,0.000000
1303261.387266,-8.000000,6.000000,-19.000000,-12.000000,-4.000000,-8.000000,-2.000000,-3.000000
1303261.387281,-11.000000,-3.000000,0.000000,34.000000,9.000000,2.000000,5.000000,1.000000
1303261.394949,15.000000,-5.000000,-13.000000,8.000000,1.000000,-6.000000,-5.000000,-2.000000
1303261.394985,3.000000,-1.000000,8.000000,-5.000000,-6.000000,3.000000,-4.000000,-1.000000
1303261.395492,-25.000000,-5.000000,-43.000000,-47.000000,-15.000000,-11.000000,-19.000000,-17.000000
1303261.395503,-17.000000,-2.000000,17.000000,22.000000,6.000000,-2.000000,-7.000000,-13.000000
1303261.396731,18.000000,4.000000,-7.000000,10.000000,4.000000,7.000000,18.000000,29.000000
1303261.396738,34.000000,9.000000,15.000000,-11.000000,-10.000000,-2.000000,15.000000,8.000000
1303261.397812,-31.000000,0.000000,-51.000000,-11.000000,4.000000,-9.000000,-13.000000,-5.000000
1303261.397820,-14.000000,-4.000000,2.000000,-1.000000,-3.000000,2.000000,-17.000000,-14.000000
1303261.409327,-2.000000,-1.000000,1.000000,29.000000,11.000000,15.000000,14.000000,7.000000
1303261.409350,14.000000,0.000000,-15.000000,-15.000000,-4.000000,2.000000,-2.000000,-5.000000
1303261.432180,1.000000,-8.000000,26.000000,-7.000000,-9.000000,-1.000000,-10.000000,-5.000000
1303261.432191,-6.000000,2.000000,-40.000000,-43.000000,-7.000000,-2.000000,-8.000000,-8.000000
1303261.433168,-4.000000,10.000000,11.000000,62.000000,31.000000,9.000000,5.000000,3.000000
1303261.433178,-2.000000,-4.000000,-67.000000,-27.000000,3.000000,4.000000,7.000000,12.000000
1303261.446841,9.000000,-7.000000,26.000000,-3.000000,-4.000000,-4.000000,-3.000000,-9.000000
1303261.446870,-2.000000,-8.000000,-31.000000,-1.000000,-5.000000,-7.000000,-3.000000,-5.000000
1303261.469682,7.000000,-5.000000,12.000000,-4.000000,10.000000,5.000000,-1.000000,2.000000
1303261.469695,3.000000,1.000000,20.000000,29.000000,-1.000000,1.000000,2.000000,1.000000
1303261.491841,11.000000,-2.000000,6.000000,-16.000000,-1.000000,-4.000000,-13.000000,-9.000000
1303261.491858,4.000000,-7.000000,-25.000000,-27.000000,-8.000000,-3.000000,-16.000000,-11.000000
1303261.507213,6.000000,3.000000,10.000000,30.000000,7.000000,7.000000,38.000000,26.000000
1303261.507222,25.000000,3.000000,14.000000,16.000000,-3.000000,2.000000,23.000000,27.000000
1303261.508114,-20.000000,1.000000,4.000000,-39.000000,-7.000000,1.000000,-11.000000,4.000000
1303261.508141,-5.000000,-1.000000,-13.000000,-1.000000,3.000000,-6.000000,-10.000000,-16.000000
1303261.509307,-11.000000,3.000000,16.000000,-13.000000,-4.000000,-7.000000,-31.000000,-24.000000
1303261.509319,-2.000000,-10.000000,-6.000000,8.000000,-9.000000,-1.000000,-4.000000,-3.000000
1303261.509923,-4.000000,1.000000,-12.000000,22.000000,-4.000000,-8.000000,9.000000,-4.000000
1303261.509949,23.000000,-7.000000,10.000000,-2.000000,-3.000000,-1.000000,-1.000000,10.000000
1303261.522723,11.000000,1.000000,-9.000000,-4.000000,2.000000,-2.000000,0.000000,3.000000
1303261.522743,-6.000000,1.000000,6.000000,-19.000000,-5.000000,-4.000000,-3.000000,-2.000000
1303261.529942,-2.000000,-13.000000,-21.000000,4.000000,4.000000,-3.000000,-3.000000,-1.000000
1303261.529951,-3.000000,-5.000000,5.000000,-7.000000,-3.000000,-8.000000,-10.000000,-13.000000
1303261.544102,-12.000000,-9.000000,-5.000000,3.000000,1.000000,-4.000000,-23.000000,-17.000000
1303261.544132,-7.000000,5.000000,4.000000,24.000000,3.000000,0.000000,31.000000,22.000000
1303261.545343,16.000000,-3.000000,2.000000,-14.000000,-4.000000,-2.000000,6.000000,23.000000
1303261.545370,-10.000000,5.000000,7.000000,29.000000,-7.000000,-5.000000,-16.000000,-21.000000
1303261.567050,9.000000,3.000000,-24.000000,0.000000,9.000000,4.000000,1.000000,-1.000000
1303261.567062,-15.000000,0.000000,-29.000000,-33.000000,-9.000000,-10.000000,2.000000,-4.000000
1303261.604537,-22.000000,-7.000000,8.000000,64.000000,15.000000,-2.000000,-27.000000,-27.000000
1303261.604548,-9.000000,-4.000000,-3.000000,-14.000000,-3.000000,-4.000000,8.000000,-5.000000
1303261.612031,15.000000,-4.000000,-6.000000,4.000000,-6.000000,1.000000,13.000000,8.000000
1303261.612045,-7.000000,-4.000000,-56.000000,-30.000000,2.000000,-1.000000,-3.000000,-1.000000
1303261.627440,-5.000000,2.000000,25.000000,2.000000,3.000000,4.000000,-5.000000,-6.000000
1303261.627451,1.000000,7.000000,-17.000000,-16.000000,1.000000,-1.000000,5.000000,10.000000
1303261.628025,-10.000000,-2.000000,26.000000,4.000000,-4.000000,1.000000,4.000000,4.000000
1303261.628041,-13.000000,-2.000000,-14.000000,-14.000000,-2.000000,-6.000000,0.000000,-12.000000
1303261.629185,-6.000000,-1.000000,20.000000,-13.000000,-5.000000,1.000000,0.000000,-5.000000
1303261.629212,-8.000000,1.000000,-15.000000,-23.000000,-8.000000,-9.000000,-8.000000,-6.000000
1303261.629997,6.000000,4.000000,4.000000,56.000000,3.000000,4.000000,3.000000,12.000000
1303261.630018,0.000000,10.000000,0.000000,-31.000000,-16.000000,1.000000,-6.000000,-8.000000
1303261.634416,-12.000000,-5.000000,10.000000,55.000000,3.000000,6.000000,34.000000,24.000000
1303261.634453,8.000000,3.000000,10.000000,-5.000000,4.000000,0.000000,21.000000,35.000000
1303261.649189,-3.000000,1.000000,-8.000000,-8.000000,-9.000000,-11.000000,-15.000000,-13.000000
1303261.649206,-3.000000,-1.000000,-11.000000,-5.000000,-1.000000,1.000000,-1.000000,-12.000000
1303261.664525,-18.000000,-1.000000,-3.000000,6.000000,3.000000,-5.000000,-13.000000,-5.000000
1303261.664538,11.000000,2.000000,-38.000000,-14.000000,-9.000000,-2.000000,11.000000,10.000000
1303261.672018,-2.000000,-1.000000,0.000000,2.000000,-2.000000,0.000000,-5.000000,-7.000000
1303261.672080,-21.000000,-7.000000,8.000000,5.000000,-2.000000,2.000000,-2.000000,-5.000000
1303261.686896,-1.000000,-2.000000,-12.000000,-5.000000,-3.000000,4.000000,-4.000000,-4.000000
1303261.686907,-1.000000,-8.000000,16.000000,-1.000000,-4.000000,-1.000000,0.000000,3.000000
1303261.716852,0.000000,2.000000,-12.000000,-13.000000,6.000000,4.000000,0.000000,2.000000
1303261.716864,1.000000,-9.000000,0.000000,6.000000,0.000000,-4.000000,-1.000000,-4.000000
1303261.724274,6.000000,2.000000,-1.000000,18.000000,7.000000,4.000000,8.000000,1.000000
1303261.724283,-8.000000,-9.000000,0.000000,-10.000000,0.000000,-6.000000,-6.000000,0.000000
1303261.732097,9.000000,4.000000,-24.000000,-19.000000,-1.000000,-3.000000,-4.000000,3.000000
1303261.732106,-4.000000,-4.000000,7.000000,-21.000000,-7.000000,-8.000000,-9.000000,-5.000000
1303261.732783,-1.000000,-1.000000,19.000000,56.000000,11.000000,1.000000,-16.000000,-18.000000
1303261.732798,11.000000,-1.000000,-17.000000,-13.000000,-7.000000,-2.000000,42.000000,35.000000
1303261.734203,-38.000000,-6.000000,4.000000,-29.000000,3.000000,0.000000,-14.000000,-3.000000
1303261.734211,3.000000,-8.000000,10.000000,4.000000,1.000000,2.000000,-6.000000,4.000000
1303261.747166,6.000000,3.000000,-9.000000,-4.000000,-3.000000,-4.000000,-13.000000,-23.000000
1303261.747314,4.000000,-2.000000,-20.000000,-2.000000,-2.000000,-6.000000,-4.000000,-3.000000
1303261.748144,-14.000000,-4.000000,7.000000,4.000000,4.000000,-2.000000,-4.000000,-7.000000
1303261.748153,7.000000,-6.000000,-1.000000,5.000000,1.000000,3.000000,3.000000,2.000000
1303261.769439,2.000000,-4.000000,-5.000000,-5.000000,-4.000000,-1.000000,3.000000,-5.000000
1303261.769449,7.000000,-6.000000,23.000000,5.000000,7.000000,2.000000,17.000000,17.000000
1303261.791858,-14.000000,-3.000000,-12.000000,17.000000,5.000000,-11.000000,-14.000000,8.000000
1303261.791875,-4.000000,-2.000000,-7.000000,-7.000000,-7.000000,-1.000000,-3.000000,-9.000000
1303261.799263,8.000000,2.000000,4.000000,-24.000000,-10.000000,-1.000000,0.000000,0.000000
1303261.799272,-7.000000,-7.000000,27.000000,48.000000,5.000000,7.000000,2.000000,5.000000
1303261.814406,3.000000,-5.000000,1.000000,-2.000000,-6.000000,3.000000,-4.000000,-9.000000
1303261.814429,-4.000000,-5.000000,-46.000000,-22.000000,-4.000000,-5.000000,-5.000000,1.000000
1303261.821997,-19.000000,-6.000000,10.000000,-15.000000,-6.000000,-4.000000,-20.000000,-19.000000
1303261.822026,41.000000,1.000000,19.000000,30.000000,11.000000,13.000000,23.000000,25.000000
1303261.844201,-18.000000,2.000000,-1.000000,9.000000,0.000000,-2.000000,12.000000,1.000000
1303261.844230,15.000000,4.000000,-27.000000,5.000000,7.000000,5.000000,7.000000,11.000000
1303261.844820,5.000000,4.000000,16.000000,-4.000000,2.000000,-6.000000,-13.000000,-6.000000
1303261.844831,-33.000000,-5.000000,10.000000,6.000000,-6.000000,-2.000000,9.000000,-6.000000
1303261.845984,11.000000,-4.000000,-10.000000,-7.000000,-4.000000,-6.000000,-8.000000,0.000000
1303261.845993,-1.000000,0.000000,-21.000000,-9.000000,-5.000000,-6.000000,-5.000000,-7.000000
1303261.846710,8.000000,0.000000,10.000000,20.000000,2.000000,5.000000,0.000000,-2.000000
1303261.846717,-7.000000,-3.000000,-2.000000,-8.000000,-4.000000,-4.000000,-9.000000,-7.000000
1303261.859686,5.000000,-2.000000,20.000000,7.000000,-7.000000,0.000000,8.000000,9.000000
1303261.859716,6.000000,-4.000000,17.000000,6.000000,3.000000,6.000000,8.000000,5.000000
1303261.866917,-15.000000,-1.000000,7.000000,25.000000,9.000000,0.000000,-1.000000,-6.000000
1303261.866932,5.000000,-1.000000,11.000000,-22.000000,-17.000000,-12.000000,-6.000000,-1.000000
1303261.868044,-20.000000,-6.000000,-39.000000,-36.000000,3.000000,4.000000,-8.000000,-8.000000
1303261.868053,-11.000000,-1.000000,-4.000000,10.000000,4.000000,5.000000,2.000000,3.000000
1303261.904890,31.000000,-4.000000,-20.000000,24.000000,-5.000000,-1.000000,-6.000000,5.000000
1303261.904914,-16.000000,-2.000000,-19.000000,-27.000000,0.000000,-1.000000,3.000000,-6.000000
1303261.942009,0.000000,5.000000,28.000000,11.000000,2.000000,4.000000,18.000000,6.000000
1303261.942020,-4.000000,3.000000,-34.000000,-10.000000,-9.000000,-6.000000,-13.000000,-9.000000
1303261.949514,-3.000000,1.000000,-10.000000,4.000000,9.000000,-1.000000,-4.000000,4.000000
1303261.949524,3.000000,-5.000000,23.000000,-2.000000,9.000000,3.000000,5.000000,-5.000000
1303261.987017,-1.000000,-7.000000,-1.000000,3.000000,-1.000000,-3.000000,-9.000000,-1.000000
1303261.987029,-15.000000,-3.000000,-64.000000,2.000000,-1.000000,-2.000000,-10.000000,-11.000000
1303261.987461,2.000000,-9.000000,22.000000,4.000000,6.000000,-3.000000,-2.000000,-1.000000
1303261.987469,-1.000000,3.000000,-3.000000,-18.000000,-4.000000,0.000000,1.000000,-3.000000
1303261.988572,8.000000,-3.000000,13.000000,-7.000000,-1.000000,-1.000000,8.000000,23.000000
1303261.988587,16.000000,-4.000000,-15.000000,-18.000000,-10.000000,-3.000000,14.000000,5.000000
1303261.989340,-19.000000,2.000000,-6.000000,-7.000000,-3.000000,-1.000000,-17.000000,-9.000000
1303261.989349,24.000000,1.000000,12.000000,-21.000000,-2.000000,-1.000000,5.000000,4.000000
1303261.991043,3.000000,1.000000,-6.000000,15.000000,-7.000000,-3.000000,-5.000000,-2.000000
1303261.991055,5.000000,3.000000,61.000000,9.000000,-4.000000,-1.000000,12.000000,11.000000
1303262.001818,-4.000000,-4.000000,-1.000000,-43.000000,-7.000000,-5.000000,-1.000000,-6.000000
1303262.001829,-4.000000,-5.000000,-27.000000,20.000000,2.000000,2.000000,0.000000,-4.000000
1303262.009403,11.000000,5.000000,15.000000,-3.000000,-7.000000,6.000000,5.000000,5.000000
1303262.009425,6.000000,-2.000000,11.000000,-9.000000,-4.000000,-7.000000,-3.000000,3.000000
1303262.024435,-10.000000,0.000000,7.000000,15.000000,9.000000,4.000000,-8.000000,-6.000000
1303262.024450,-1.000000,-8.000000,2.000000,-3.000000,-5.000000,-4.000000,-3.000000,-9.000000
1303262.046901,4.000000,3.000000,-6.000000,-9.000000,-2.000000,-2.000000,-9.000000,-3.000000
1303262.046912,34.000000,-5.000000,35.000000,9.000000,9.000000,6.000000,17.000000,23.000000
1303262.061802,-8.000000,-6.000000,18.000000,42.000000,7.000000,4.000000,11.000000,16.000000
1303262.061830,2.000000,0.000000,-26.000000,-25.000000,-7.000000,1.000000,5.000000,-5.000000
1303262.084769,-3.000000,-1.000000,-5.000000,-3.000000,4.000000,4.000000,2.000000,-3.000000
1303262.084797,-8.000000,-5.000000,-1.000000,-17.000000,-9.000000,3.000000,-4.000000,-3.000000
1303262.099304,6.000000,1.000000,15.000000,27.000000,6.000000,0.000000,0.000000,-6.000000
1303262.099319,11.000000,-6.000000,-9.000000,-4.000000,4.000000,-6.000000,13.000000,21.000000
1303262.100302,-3.000000,-1.000000,13.000000,-15.000000,-5.000000,1.000000,-1.000000,-1.000000
1303262.100329,-9.000000,-3.000000,7.000000,26.000000,7.000000,3.000000,-2.000000,-9.000000
1303262.101191,1.000000,0.000000,-6.000000,2.000000,-7.000000,-7.000000,-10.000000,-10.000000
1303262.101232,-9.000000,3.000000,4.000000,2.000000,-3.000000,-2.000000,-6.000000,-12.000000
1303262.102311,-9.000000,-1.000000,-3.000000,-12.000000,-3.000000,1.000000,2.000000,6.000000
1303262.102330,11.000000,4.000000,-5.000000,-31.000000,-12.000000,-6.000000,-4.000000,3.000000
1303262.103062,2.000000,4.000000,6.000000,51.000000,10.000000,1.000000,7.000000,0.000000
1303262.103070,-16.000000,-3.000000,-26.000000,-22.000000,-2.000000,1.000000,8.000000,5.000000
1303262.107329,6.000000,3.000000,2.000000,-9.000000,1.000000,4.000000,4.000000,2.000000
1303262.107337,-5.000000,-7.000000,13.000000,3.000000,-3.000000,-10.000000,-2.000000,-5.000000
1303262.121893,-4.000000,0.000000,6.000000,-15.000000,-19.000000,-6.000000,-16.000000,-8.000000
1303262.121909,14.000000,-12.000000,17.000000,30.000000,17.000000,8.000000,5.000000,4.000000
1303262.144254,-15.000000,0.000000,2.000000,-16.000000,-14.000000,-3.000000,16.000000,9.000000
1303262.144264,-2.000000,-4.000000,5.000000,1.000000,-9.000000,-2.000000,-12.000000,-9.000000
1303262.159516,20.000000,4.000000,13.000000,-2.000000,-11.000000,-7.000000,15.000000,0.000000
1303262.159527,-19.000000,-2.000000,-1.000000,1.000000,-9.000000,-6.000000,-10.000000,-10.000000
1303262.181846,8.000000,6.000000,2.000000,8.000000,-3.000000,2.000000,-3.000000,-9.000000
1303262.181857,3.000000,0.000000,-5.000000,-11.000000,-3.000000,5.000000,14.000000,22.000000
1303262.189442,5.000000,-4.000000,-8.000000,-37.000000,-6.000000,-7.000000,-13.000000,-14.000000
1303262.189459,-4.000000,0.000000,7.000000,66.000000,26.000000,9.000000,35.000000,28.000000
1303262.204177,10.000000,1.000000,-22.000000,-29.000000,-3.000000,-2.000000,-12.000000,1.000000
1303262.204206,-7.000000,-2.000000,12.000000,0.000000,-2.000000,-7.000000,-7.000000,-6.000000
1303262.219508,-6.000000,3.000000,-6.000000,-6.000000,-5.000000,-8.000000,-4.000000,-8.000000
1303262.219521,3.000000,-6.000000,-18.000000,-9.000000,-3.000000,0.000000,2.000000,-3.000000
1303262.220413,-21.000000,0.000000,20.000000,22.000000,2.000000,-1.000000,-10.000000,-13.000000
1303262.220425,11.000000,7.000000,-26.000000,-25.000000,5.000000,8.000000,3.000000,9.000000
1303262.220961,14.000000,-1.000000,5.000000,42.000000,5.000000,8.000000,5.000000,11.000000
1303262.220969,-5.000000,-2.000000,3.000000,-11.000000,-5.000000,7.000000,5.000000,-8.000000
1303262.222492,1.000000,5.000000,-3.000000,-9.000000,-5.000000,-10.000000,-3.000000,2.000000
1303262.222502,-1.000000,2.000000,3.000000,-8.000000,-1.000000,-5.000000,-6.000000,-6.000000
1303262.223132,-4.000000,-2.000000,-9.000000,12.000000,-9.000000,-2.000000,-22.000000,-14.000000
1303262.223140,1.000000,5.000000,7.000000,-10.000000,1.000000,2.000000,12.000000,-3.000000
1303262.227444,36.000000,10.000000,-9.000000,42.000000,7.000000,5.000000,17.000000,30.000000
1303262.227454,-13.000000,0.000000,-5.000000,-13.000000,-10.000000,-12.000000,-7.000000,-17.000000
1303262.241785,-10.000000,-4.000000,-6.000000,-32.000000,3.000000,-1.000000,-13.000000,-19.000000
1303262.241813,19.000000,3.000000,16.000000,30.000000,13.000000,-3.000000,19.000000,14.000000
1303262.264551,6.000000,-3.000000,5.000000,-16.000000,-4.000000,-6.000000,-9.000000,-5.000000
1303262.264562,-17.000000,-9.000000,-10.000000,-6.000000,1.000000,3.000000,-16.000000,-19.000000
1303262.271972,-6.000000,4.000000,9.000000,-18.000000,-6.000000,-3.000000,3.000000,-9.000000
1303262.271983,4.000000,-1.000000,12.000000,47.000000,24.000000,3.000000,20.000000,16.000000
1303262.286688,-3.000000,-10.000000,-14.000000,-5.000000,-10.000000,-3.000000,-4.000000,3.000000
1303262.286706,0.000000,2.000000,7.000000,-10.000000,-4.000000,-5.000000,-4.000000,-8.000000
1303262.302110,16.000000,-1.000000,22.000000,-1.000000,11.000000,8.000000,8.000000,3.000000
1303262.302123,-7.000000,3.000000,-8.000000,20.000000,3.000000,3.000000,6.000000,8.000000
1303262.324371,4.000000,1.000000,-22.000000,-9.000000,0.000000,1.000000,-5.000000,-3.000000
1303262.324384,-8.000000,-3.000000,-12.000000,2.000000,-5.000000,-5.000000,-4.000000,1.000000
1303262.324820,20.000000,-3.000000,13.000000,-27.000000,-2.000000,-4.000000,-6.000000,-8.000000
1303262.324834,-6.000000,-1.000000,-1.000000,6.000000,-4.000000,11.000000,7.000000,14.000000
1303262.326124,10.000000,1.000000,-3.000000,1.000000,-4.000000,-7.000000,1.000000,0.000000
1303262.326134,-12.000000,-10.000000,-13.000000,-33.000000,-6.000000,-10.000000,-7.000000,-2.000000
1303262.326760,-9.000000,2.000000,2.000000,20.000000,12.000000,13.000000,-9.000000,-11.000000
1303262.326770,-5.000000,-3.000000,1.000000,41.000000,5.000000,7.000000,26.000000,14.000000
1303262.339210,10.000000,-4.000000,31.000000,-7.000000,-5.000000,0.000000,-3.000000,-1.000000
1303262.339230,-10.000000,6.000000,-39.000000,-13.000000,-4.000000,-5.000000,-11.000000,-9.000000
1303262.339886,-13.000000,-5.000000,7.000000,2.000000,-5.000000,-4.000000,-10.000000,-20.000000
1303262.339913,13.000000,-7.000000,7.000000,0.000000,-1.000000,3.000000,28.000000,22.000000
1303262.347463,-2.000000,2.000000,-8.000000,-20.000000,4.000000,5.000000,9.000000,21.000000
1303262.347491,6.000000,0.000000,12.000000,16.000000,6.000000,0.000000,-18.000000,-12.000000
1303262.376862,1.000000,-4.000000,-29.000000,-29.000000,-11.000000,-6.000000,9.000000,-7.000000
1303262.376896,-16.000000,-4.000000,2.000000,13.000000,5.000000,0.000000,-5.000000,-5.000000
1303262.377894,-5.000000,2.000000,14.000000,2.000000,0.000000,3.000000,-11.000000,-3.000000
1303262.377903,0.000000,0.000000,-25.000000,-22.000000,-5.000000,-2.000000,6.000000,1.000000
1303262.378686,6.000000,3.000000,-14.000000,-33.000000,-10.000000,-7.000000,1.000000,3.000000
1303262.378714,2.000000,1.000000,38.000000,16.000000,12.000000,5.000000,3.000000,7.000000
1303262.399658,8.000000,-6.000000,-18.000000,-8.000000,-7.000000,-5.000000,-6.000000,1.000000
1303262.399668,-5.000000,-2.000000,-22.000000,23.000000,8.000000,0.000000,4.000000,0.000000
1303262.422008,4.000000,0.000000,34.000000,10.000000,-3.000000,-2.000000,-1.000000,-5.000000
1303262.422028,-11.000000,2.000000,-7.000000,50.000000,5.000000,1.000000,0.000000,-8.000000
1303262.444913,-16.000000,-1.000000,5.000000,-78.000000,-10.000000,-6.000000,-13.000000,-11.000000
1303262.444928,0.000000,2.000000,-16.000000,-8.000000,3.000000,-9.000000,1.000000,5.000000
1303262.459817,25.000000,7.000000,22.000000,20.000000,0.000000,10.000000,11.000000,19.000000
1303262.459839,-20.000000,4.000000,8.000000,17.000000,10.000000,12.000000,13.000000,-3.000000
1303262.496729,-1.000000,-5.000000,-11.000000,-8.000000,-5.000000,-8.000000,-16.000000,-5.000000
1303262.496739,4.000000,-5.000000,18.000000,-4.000000,0.000000,1.000000,-14.000000,-17.000000
1303262.497517,-18.000000,-4.000000,-12.000000,-6.000000,-7.000000,-4.000000,3.000000,3.000000
1303262.497525,15.000000,1.000000,-7.000000,5.000000,-5.000000,-4.000000,21.000000,22.000000
1303262.519367,2.000000,-12.000000,9.000000,35.000000,22.000000,1.000000,-18.000000,-14.000000
1303262.519387,-2.000000,6.000000,29.000000,6.000000,-5.000000,-7.000000,-15.000000,-9.000000
1303262.542026,-11.000000,-6.000000,-42.000000,-53.000000,-17.000000,-2.000000,-4.000000,-11.000000
1303262.542037,-1.000000,-4.000000,14.000000,48.000000,17.000000,13.000000,10.000000,7.000000
1303262.556861,-5.000000,4.000000,3.000000,-42.000000,-11.000000,-5.000000,-4.000000,-11.000000
1303262.556871,-14.000000,1.000000,-3.000000,-7.000000,-8.000000,-3.000000,-8.000000,5.000000
1303262.564239,-2.000000,10.000000,25.000000,9.000000,6.000000,11.000000,9.000000,13.000000
1303262.564267,4.000000,-2.000000,4.000000,-7.000000,2.000000,2.000000,-8.000000,-5.000000
1303262.587095,8.000000,0.000000,6.000000,33.000000,-1.000000,3.000000,11.000000,1.000000
1303262.587108,-35.000000,-3.000000,-14.000000,-32.000000,-2.000000,1.000000,-11.000000,-7.000000
1303262.616876,14.000000,-6.000000,3.000000,-71.000000,-22.000000,-1.000000,2.000000,-1.000000
1303262.616887,7.000000,4.000000,28.000000,108.000000,40.000000,11.000000,10.000000,4.000000
1303262.624382,4.000000,-1.000000,10.000000,-11.000000,-9.000000,-3.000000,-21.000000,-20.000000
1303262.624391,0.000000,-1.000000,-8.000000,-11.000000,-6.000000,-3.000000,-14.000000,-14.000000
1303262.631986,14.000000,4.000000,8.000000,45.000000,17.000000,6.000000,18.000000,12.000000
1303262.631997,0.000000,0.000000,-42.000000,-17.000000,3.000000,-2.000000,0.000000,-5.000000
1303262.639417,4.000000,1.000000,19.000000,6.000000,-1.000000,3.000000,-4.000000,2.000000
1303262.639428,-26.000000,-3.000000,-57.000000,-43.000000,-10.000000,-6.000000,-4.000000,-4.000000
1303262.654605,1.000000,-5.000000,16.000000,24.000000,0.000000,-3.000000,1.000000,0.000000
1303262.654618,-9.000000,0.000000,16.000000,-34.000000,-4.000000,-11.000000,-16.000000,-12.000000
1303262.661944,-13.000000,4.000000,-27.000000,-3.000000,5.000000,-4.000000,-13.000000,12.000000
1303262.661954,11.000000,9.000000,10.000000,-4.000000,-2.000000,2.000000,6.000000,5.000000
1303262.677218,-8.000000,4.000000,4.000000,16.000000,6.000000,6.000000,-8.000000,2.000000
1303262.677230,2.000000,-9.000000,3.000000,-15.000000,-2.000000,-1.000000,-6.000000,-7.000000
1303262.677582,-5.000000,3.000000,22.000000,18.000000,0.000000,-5.000000,-3.000000,0.000000
1303262.677591,0.000000,5.000000,-29.000000,-43.000000,-2.000000,-2.000000,1.000000,-5.000000
1303262.678510,-1.000000,-2.000000,17.000000,29.000000,9.000000,0.000000,0.000000,4.000000
1303262.678520,4.000000,-6.000000,-22.000000,-8.000000,-4.000000,-4.000000,-3.000000,-2.000000
1303262.679301,-6.000000,-4.000000,28.000000,41.000000,18.000000,-1.000000,-5.000000,0.000000
1303262.679311,-5.000000,-12.000000,1.000000,-27.000000,-16.000000,-3.000000,0.000000,-5.000000
1303262.684636,6.000000,5.000000,7.000000,0.000000,8.000000,-2.000000,4.000000,-8.000000
1303262.684649,17.000000,4.000000,22.000000,-7.000000,-4.000000,1.000000,22.000000,28.000000
1303262.699500,-11.000000,1.000000,21.000000,-16.000000,-8.000000,-13.000000,-14.000000,-7.000000
1303262.699520,7.000000,5.000000,-43.000000,-11.000000,-8.000000,-4.000000,-2.000000,-2.000000
1303262.700188,-12.000000,3.000000,13.000000,-22.000000,-1.000000,-3.000000,-16.000000,-19.000000
1303262.700203,-14.000000,-1.000000,-12.000000,-3.000000,-10.000000,10.000000,30.000000,10.000000
1303262.714448,17.000000,-5.000000,-23.000000,10.000000,3.000000,-4.000000,11.000000,9.000000
1303262.714458,8.000000,-5.000000,20.000000,13.000000,-1.000000,-1.000000,-6.000000,-1.000000
1303262.721733,-2.000000,1.000000,-6.000000,-2.000000,-1.000000,0.000000,4.000000,9.000000
1303262.721762,12.000000,-1.000000,15.000000,12.000000,1.000000,-1.000000,-9.000000,0.000000
1303262.737046,-4.000000,4.000000,1.000000,-7.000000,-2.000000,0.000000,-5.000000,-6.000000
1303262.737077,-5.000000,-5.000000,-7.000000,1.000000,-2.000000,1.000000,-11.000000,-10.000000
1303262.751957,-1.000000,2.000000,-6.000000,-52.000000,-16.000000,-7.000000,-6.000000,-7.000000
1303262.751974,17.000000,-2.000000,6.000000,103.000000,29.000000,8.000000,-1.000000,7.000000
1303262.774751,-3.000000,2.000000,37.000000,-8.000000,-11.000000,-11.000000,-7.000000,-1.000000
1303262.774764,5.000000,-1.000000,-1.000000,-2.000000,7.000000,11.000000,3.000000,-2.000000
1303262.782084,1.000000,0.000000,-4.000000,-3.000000,-6.000000,-1.000000,7.000000,4.000000
1303262.782096,-5.000000,0.000000,-16.000000,1.000000,-3.000000,1.000000,12.000000,-2.000000
1303262.796801,-12.000000,-2.000000,10.000000,-58.000000,-20.000000,-8.000000,-32.000000,-15.000000
1303262.796820,-7.000000,7.000000,-13.000000,68.000000,15.000000,6.000000,10.000000,1.000000
1303262.819458,7.000000,0.000000,21.000000,-24.000000,-5.000000,-4.000000,16.000000,22.000000
1303262.819472,-7.000000,8.000000,9.000000,-7.000000,1.000000,-4.000000,-17.000000,-7.000000
1303262.820467,-9.000000,-1.000000,-35.000000,-14.000000,-8.000000,0.000000,-9.000000,-14.000000
1303262.820482,1.000000,-4.000000,-1.000000,19.000000,-7.000000,-4.000000,7.000000,7.000000
1303262.821004,-9.000000,7.000000,4.000000,-11.000000,-8.000000,1.000000,-8.000000,-8.000000
1303262.821016,-1.000000,2.000000,-19.000000,-9.000000,5.000000,8.000000,-2.000000,-7.000000
1303262.822362,-4.000000,2.000000,-31.000000,-28.000000,-2.000000,-1.000000,7.000000,5.000000
1303262.822372,10.000000,-5.000000,32.000000,23.000000,-5.000000,-5.000000,-2.000000,6.000000
1303262.823214,5.000000,-6.000000,15.000000,-7.000000,10.000000,12.000000,1.000000,5.000000
1303262.823224,0.000000,-3.000000,6.000000,-4.000000,-17.000000,-7.000000,12.000000,-1.000000
1303262.834988,4.000000,-6.000000,-13.000000,-8.000000,-7.000000,-2.000000,-8.000000,-5.000000
1303262.834999,-1.000000,-3.000000,24.000000,6.000000,2.000000,-1.000000,-3.000000,2.000000
1303262.842069,-10.000000,-6.000000,1.000000,19.000000,0.000000,-1.000000,-9.000000,-11.000000
1303262.842080,-7.000000,-4.000000,12.000000,-27.000000,-6.000000,-7.000000,8.000000,6.000000
1303262.856933,15.000000,-1.000000,43.000000,41.000000,7.000000,-8.000000,-10.000000,1.000000
1303262.856944,-5.000000,3.000000,-31.000000,-4.000000,-2.000000,0.000000,7.000000,1.000000
1303262.879412,3.000000,1.000000,-6.000000,-29.000000,-8.000000,-7.000000,-8.000000,-4.000000
1303262.879425,-8.000000,-3.000000,21.000000,24.000000,-5.000000,-1.000000,1.000000,-9.000000
1303262.901894,4.000000,-5.000000,11.000000,-6.000000,6.000000,9.000000,4.000000,-12.000000
1303262.901905,-4.000000,1.000000,20.000000,66.000000,14.000000,4.000000,12.000000,13.000000
1303262.909592,5.000000,3.000000,-27.000000,-21.000000,6.000000,1.000000,-9.000000,11.000000
1303262.909603,-5.000000,7.000000,2.000000,-25.000000,-3.000000,-4.000000,-2.000000,-11.000000
1303262.932053,-8.000000,-2.000000,-6.000000,0.000000,0.000000,2.000000,3.000000,-3.000000
1303262.932077,4.000000,0.000000,-44.000000,-8.000000,-3.000000,-2.000000,5.000000,12.000000
1303262.932372,-4.000000,-6.000000,-7.000000,-13.000000,1.000000,-7.000000,-11.000000,-12.000000
1303262.932400,-3.000000,-1.000000,-9.000000,-14.000000,-7.000000,2.000000,1.000000,-10.000000
1303262.933669,21.000000,-5.000000,7.000000,-2.000000,-15.000000,-2.000000,6.000000,2.000000
1303262.933679,-6.000000,-2.000000,-17.000000,31.000000,16.000000,2.000000,9.000000,17.000000
1303262.934234,-11.000000,-3.000000,-28.000000,-40.000000,-11.000000,5.000000,-5.000000,-5.000000
1303262.934258,3.000000,-1.000000,7.000000,2.000000,0.000000,6.000000,18.000000,2.000000
1303262.935524,27.000000,6.000000,-5.000000,15.000000,-4.000000,4.000000,-5.000000,-2.000000
1303262.935533,-23.000000,1.000000,-4.000000,-29.000000,-12.000000,-10.000000,-19.000000,-20.000000
1303262.939217,34.000000,-3.000000,9.000000,26.000000,9.000000,12.000000,0.000000,13.000000
1303262.939226,4.000000,6.000000,19.000000,6.000000,-6.000000,-2.000000,28.000000,23.000000
1303262.954551,13.000000,2.000000,6.000000,-10.000000,-4.000000,-2.000000,-20.000000,-3.000000
1303262.954564,-22.000000,1.000000,-13.000000,-10.000000,-4.000000,0.000000,8.000000,3.000000
1303262.977115,7.000000,3.000000,5.000000,1.000000,-6.000000,-4.000000,5.000000,-1.000000
1303262.977150,-2.000000,2.000000,-26.000000,-11.000000,-3.000000,-3.000000,-11.000000,-11.000000
1303262.999234,14.000000,-4.000000,-25.000000,-9.000000,-6.000000,2.000000,-20.000000,-15.000000
1303262.999243,-21.000000,-1.000000,-7.000000,11.000000,-11.000000,-4.000000,22.000000,0.000000
1303263.014570,3.000000,-2.000000,4.000000,-11.000000,6.000000,2.000000,15.000000,16.000000
1303263.014581,4.000000,4.000000,-10.000000,26.000000,8.000000,2.000000,2.000000,-4.000000
1303263.036985,2.000000,-3.000000,-17.000000,-34.000000,1.000000,3.000000,-4.000000,1.000000
1303263.036995,-3.000000,1.000000,15.000000,4.000000,-2.000000,-4.000000,-4.000000,-3.000000
1303263.052025,-14.000000,-1.000000,13.000000,18.000000,4.000000,-4.000000,-13.000000,-12.000000
1303263.052036,-2.000000,2.000000,-18.000000,-14.000000,-6.000000,1.000000,-2.000000,-5.000000
1303263.074314,21.000000,5.000000,-13.000000,66.000000,36.000000,13.000000,10.000000,10.000000
1303263.074341,13.000000,2.000000,-25.000000,-7.000000,3.000000,4.000000,12.000000,17.000000
1303263.074655,-3.000000,3.000000,9.000000,-43.000000,-13.000000,-5.000000,-8.000000,2.000000
1303263.074663,-8.000000,-7.000000,23.000000,7.000000,0.000000,-6.000000,-5.000000,-9.000000
1303263.075215,-8.000000,2.000000,-15.000000,-12.000000,-11.000000,-10.000000,3.000000,1.000000
1303263.075223,-7.000000,-3.000000,0.000000,8.000000,-7.000000,-5.000000,1.000000,5.000000
1303263.076588,4.000000,3.000000,-5.000000,-25.000000,-6.000000,-1.000000,-24.000000,-14.000000
1303263.076644,-7.000000,-1.000000,17.000000,15.000000,-3.000000,4.000000,17.000000,11.000000
1303263.078022,5.000000,4.000000,-7.000000,20.000000,-5.000000,-5.000000,-6.000000,-3.000000
1303263.078030,6.000000,-1.000000,13.000000,22.000000,10.000000,8.000000,12.000000,11.000000
1303263.097018,-9.000000,-4.000000,-28.000000,-27.000000,-6.000000,-4.000000,-4.000000,-7.000000
1303263.097029,0.000000,-2.000000,10.000000,7.000000,7.000000,3.000000,-1.000000,0.000000
1303263.119353,-6.000000,-2.000000,-9.000000,11.000000,-4.000000,-2.000000,-5.000000,-2.000000
1303263.119374,9.000000,-3.000000,23.000000,28.000000,14.000000,6.000000,-1.000000,-2.000000
1303263.126899,-10.000000,-2.000000,-12.000000,-9.000000,-5.000000,-9.000000,4.000000,-3.000000
1303263.126910,19.000000,0.000000,-49.000000,-16.000000,-8.000000,-1.000000,1.000000,9.000000
1303263.156935,-9.000000,4.000000,-43.000000,-52.000000,-23.000000,-13.000000,-11.000000,-13.000000
1303263.156946,-25.000000,-3.000000,-4.000000,35.000000,12.000000,6.000000,-21.000000,-17.000000
1303263.157420,-10.000000,9.000000,0.000000,16.000000,-2.000000,-3.000000,8.000000,4.000000
1303263.157430,4.000000,-5.000000,0.000000,-16.000000,-10.000000,-5.000000,43.000000,12.000000
1303263.158518,10.000000,-7.000000,-12.000000,-13.000000,-1.000000,-6.000000,-3.000000,6.000000
1303263.158529,-14.000000,-6.000000,4.000000,-8.000000,3.000000,2.000000,-16.000000,-12.000000
1303263.159152,2.000000,-9.000000,-11.000000,22.000000,-11.000000,-3.000000,1.000000,-7.000000
1303263.159162,-12.000000,-7.000000,-9.000000,-43.000000,-4.000000,-6.000000,-10.000000,1.000000
1303263.171937,-1.000000,-12.000000,12.000000,5.000000,-1.000000,-2.000000,-5.000000,-9.000000
1303263.171947,-1.000000,1.000000,-27.000000,-23.000000,-4.000000,1.000000,-4.000000,-1.000000
1303263.186965,-1.000000,7.000000,27.000000,2.000000,0.000000,-1.000000,-11.000000,-13.000000
1303263.186975,-1.000000,5.000000,-62.000000,-26.000000,-2.000000,1.000000,4.000000,0.000000
1303263.194651,1.000000,5.000000,11.000000,4.000000,3.000000,-2.000000,0.000000,-3.000000
1303263.194663,-12.000000,-3.000000,18.000000,25.000000,-1.000000,2.000000,3.000000,1.000000
1303263.195554,-7.000000,-1.000000,16.000000,18.000000,3.000000,1.000000,1.000000,-1.000000
1303263.195562,13.000000,4.000000,-27.000000,-29.000000,-5.000000,-4.000000,3.000000,2.000000
1303263.209743,4.000000,-1.000000,3.000000,17.000000,0.000000,4.000000,-2.000000,4.000000
1303263.209755,-16.000000,-2.000000,-56.000000,-35.000000,-4.000000,6.000000,0.000000,-3.000000
1303263.231861,1.000000,0.000000,-44.000000,-21.000000,-7.000000,-4.000000,9.000000,1.000000
1303263.231873,1.000000,-1.000000,36.000000,10.000000,-6.000000,-2.000000,-10.000000,-4.000000
1303263.254351,-1.000000,1.000000,-26.000000,-2.000000,-5.000000,-8.000000,-35.000000,-21.000000
1303263.254362,1.000000,-2.000000,-5.000000,-17.000000,-3.000000,3.000000,37.000000,13.000000
1303263.269455,21.000000,0.000000,14.000000,19.000000,4.000000,2.000000,18.000000,33.000000
1303263.269471,-17.000000,-2.000000,1.000000,-10.000000,4.000000,-4.000000,-22.000000,-26.000000
1303263.269781,12.000000,0.000000,-24.000000,-8.000000,-2.000000,-7.000000,-3.000000,2.000000
1303263.269793,3.000000,-6.000000,18.000000,-3.000000,1.000000,1.000000,-12.000000,0.000000
1303263.271288,-42.000000,-3.000000,-6.000000,-45.000000,-8.000000,-5.000000,-11.000000,-12.000000
1303263.271301,35.000000,-9.000000,-5.000000,87.000000,19.000000,8.000000,11.000000,14.000000
1303263.271871,-20.000000,1.000000,21.000000,-34.000000,-14.000000,-4.000000,-4.000000,0.000000
1303263.271881,-6.000000,-2.000000,-35.000000,14.000000,-3.000000,-7.000000,-2.000000,-6.000000
1303263.272554,-5.000000,0.000000,17.000000,-10.000000,-4.000000,-3.000000,-4.000000,-9.000000
1303263.272575,0.000000,-9.000000,-4.000000,-10.000000,-2.000000,-11.000000,-3.000000,-5.000000
1303263.291688,-4.000000,-2.000000,6.000000,-18.000000,-7.000000,-3.000000,-2.000000,-1.000000
1303263.291717,-4.000000,5.000000,-1.000000,31.000000,11.000000,6.000000,0.000000,0.000000
1303263.293550,-1.000000,5.000000,-8.000000,9.000000,-6.000000,-1.000000,1.000000,-2.000000
1303263.293561,-4.000000,1.000000,1.000000,-42.000000,-4.000000,-8.000000,-6.000000,-4.000000
1303263.299668,-8.000000,-5.000000,3.000000,46.000000,20.000000,7.000000,-2.000000,-4.000000
1303263.299680,0.000000,-1.000000,26.000000,-14.000000,-3.000000,-2.000000,10.000000,6.000000
1303263.314379,-9.000000,-2.000000,-25.000000,-9.000000,-4.000000,-6.000000,1.000000,-1.000000
1303263.314391,3.000000,-3.000000,-10.000000,10.000000,-1.000000,-4.000000,-24.000000,-20.000000
1303263.336956,8.000000,5.000000,-9.000000,-17.000000,-2.000000,0.000000,14.000000,10.000000
1303263.336966,-5.000000,-7.000000,30.000000,27.000000,6.000000,3.000000,-5.000000,3.000000
1303263.352055,3.000000,-2.000000,13.000000,21.000000,-2.000000,-5.000000,-3.000000,3.000000
1303263.352067,-4.000000,-2.000000,-4.000000,9.000000,10.000000,-4.000000,-13.000000,-13.000000
1303263.359368,-3.000000,-1.000000,1.000000,2.000000,-11.000000,-8.000000,-13.000000,-19.000000
1303263.359379,10.000000,-13.000000,1.000000,-10.000000,9.000000,16.000000,4.000000,3.000000
1303263.389509,-2.000000,-6.000000,6.000000,0.000000,-4.000000,-1.000000,-7.000000,0.000000
1303263.389519,-6.000000,-3.000000,-7.000000,-13.000000,0.000000,3.000000,-1.000000,-5.000000
1303263.397095,19.000000,-4.000000,-1.000000,37.000000,17.000000,1.000000,5.000000,5.000000
1303263.397135,-16.000000,-1.000000,28.000000,-6.000000,1.000000,0.000000,0.000000,4.000000
1303263.397991,-3.000000,0.000000,-31.000000,-20.000000,-7.000000,-1.000000,-4.000000,-3.000000
1303263.397999,3.000000,2.000000,12.000000,6.000000,-5.000000,-2.000000,2.000000,2.000000
1303263.398509,-2.000000,-2.000000,22.000000,7.000000,-1.000000,0.000000,0.000000,2.000000
1303263.398516,-8.000000,2.000000,0.000000,-17.000000,-4.000000,0.000000,-7.000000,-6.000000
1303263.400534,-12.000000,2.000000,-23.000000,48.000000,-2.000000,0.000000,0.000000,-3.000000
1303263.400545,4.000000,-2.000000,21.000000,7.000000,21.000000,10.000000,22.000000,15.000000
1303263.411925,3.000000,-2.000000,6.000000,-16.000000,-10.000000,0.000000,-1.000000,0.000000
1303263.411944,-12.000000,2.000000,-6.000000,-6.000000,-4.000000,-8.000000,-8.000000,-8.000000
1303263.412953,-1.000000,-5.000000,-6.000000,1.000000,3.000000,2.000000,2.000000,-4.000000
1303263.412962,-10.000000,3.000000,10.000000,9.000000,-3.000000,-6.000000,-15.000000,-11.000000
1303263.419277,5.000000,-3.000000,-30.000000,-9.000000,-8.000000,1.000000,7.000000,2.000000
1303263.419299,-6.000000,9.000000,7.000000,3.000000,-2.000000,-3.000000,27.000000,28.000000
1303263.472510,0.000000,-5.000000,8.000000,3.000000,6.000000,-5.000000,-12.000000,-5.000000
1303263.472576,-3.000000,-4.000000,-1.000000,-3.000000,2.000000,0.000000,-15.000000,-9.000000
1303263.487877,-6.000000,-5.000000,13.000000,12.000000,6.000000,8.000000,9.000000,-6.000000
1303263.487905,-11.000000,-4.000000,-32.000000,-8.000000,-4.000000,-5.000000,-5.000000,-5.000000
1303263.501878,-16.000000,2.000000,17.000000,33.000000,3.000000,5.000000,7.000000,-5.000000
1303263.501892,12.000000,-3.000000,2.000000,-45.000000,-12.000000,-8.000000,0.000000,20.000000
1303263.509623,-3.000000,6.000000,-57.000000,45.000000,-5.000000,-7.000000,-2.000000,-12.000000
1303263.509650,-10.000000,2.000000,29.000000,30.000000,24.000000,7.000000,8.000000,0.000000
1303263.510529,5.000000,-4.000000,-2.000000,-6.000000,-2.000000,-2.000000,5.000000,8.000000
1303263.510547,-5.000000,-2.000000,-3.000000,-3.000000,-9.000000,-4.000000,-6.000000,-17.000000
1303263.513026,-4.000000,1.000000,-41.000000,-46.000000,2.000000,-2.000000,-6.000000,-4.000000
1303263.513049,-11.000000,-9.000000,12.000000,8.000000,0.000000,-2.000000,-6.000000,-1.000000
1303263.532331,8.000000,2.000000,-2.000000,-8.000000,-4.000000,-2.000000,-8.000000,-12.000000
1303263.532341,-23.000000,5.000000,-20.000000,-5.000000,-3.000000,-2.000000,4.000000,-1.000000
1303263.532977,9.000000,-5.000000,42.000000,29.000000,-8.000000,-3.000000,7.000000,6.000000
1303263.532987,-18.000000,-6.000000,-39.000000,-23.000000,10.000000,-1.000000,-15.000000,-3.000000
1303263.547394,9.000000,9.000000,-32.000000,-19.000000,-7.000000,-4.000000,-4.000000,-3.000000
1303263.547404,-1.000000,-7.000000,-28.000000,-20.000000,0.000000,-4.000000,-11.000000,-15.000000
1303263.554333,-10.000000,0.000000,22.000000,2.000000,3.000000,-6.000000,8.000000,-5.000000
1303263.554370,-8.000000,2.000000,-4.000000,-1.000000,-5.000000,2.000000,-8.000000,-7.000000
1303263.577015,-3.000000,-1.000000,-11.000000,-22.000000,-19.000000,-15.000000,-21.000000,-16.000000
1303263.577025,12.000000,-5.000000,16.000000,17.000000,25.000000,5.000000,9.000000,8.000000
1303263.584676,-18.000000,3.000000,8.000000,-2.000000,1.000000,1.000000,15.000000,21.000000
1303263.584687,3.000000,0.000000,17.000000,-3.000000,-8.000000,-9.000000,-3.000000,1.000000
1303263.606896,-3.000000,0.000000,18.000000,-8.000000,-7.000000,-4.000000,-2.000000,-12.000000
1303263.606906,-25.000000,-2.000000,5.000000,-3.000000,-7.000000,2.000000,-9.000000,-16.000000
1303263.651892,8.000000,4.000000,-7.000000,18.000000,3.000000,-2.000000,26.000000,24.000000
1303263.651912,-8.000000,5.000000,-11.000000,-39.000000,-4.000000,-4.000000,-23.000000,-12.000000
1303263.652738,0.000000,-1.000000,-4.000000,39.000000,23.000000,7.000000,7.000000,1.000000
1303263.652746,17.000000,4.000000,14.000000,22.000000,-1.000000,-1.000000,16.000000,23.000000
1303263.653628,-4.000000,5.000000,1.000000,-42.000000,-6.000000,-10.000000,-9.000000,-7.000000
1303263.653640,-11.000000,-1.000000,26.000000,8.000000,2.000000,2.000000,-11.000000,-12.000000
1303263.654687,-8.000000,-2.000000,9.000000,-30.000000,-10.000000,-5.000000,-8.000000,2.000000
1303263.654695,16.000000,-3.000000,-38.000000,-9.000000,7.000000,-3.000000,0.000000,-1.000000
1303263.655648,-8.000000,-6.000000,66.000000,34.000000,6.000000,6.000000,6.000000,-4.000000
1303263.655664,22.000000,7.000000,-18.000000,-25.000000,-4.000000,-1.000000,4.000000,13.000000
1303263.667683,-9.000000,0.000000,39.000000,-35.000000,-9.000000,-6.000000,2.000000,1.000000
1303263.667692,20.000000,0.000000,-23.000000,29.000000,13.000000,5.000000,-11.000000,-5.000000
1303263.674716,-3.000000,-2.000000,2.000000,-27.000000,1.000000,0.000000,9.000000,-1.000000
1303263.674727,9.000000,-3.000000,-24.000000,18.000000,-2.000000,-4.000000,10.000000,7.000000
1303263.696777,0.000000,-1.000000,26.000000,-38.000000,-5.000000,-10.000000,-8.000000,-3.000000
1303263.696795,-12.000000,1.000000,-12.000000,-9.000000,1.000000,6.000000,-9.000000,-4.000000
1303263.712118,8.000000,-3.000000,-4.000000,46.000000,6.000000,-4.000000,6.000000,5.000000
1303263.712130,-2.000000,5.000000,32.000000,10.000000,8.000000,3.000000,2.000000,-1.000000
1303263.734525,-9.000000,-4.000000,-12.000000,1.000000,-6.000000,-8.000000,-17.000000,-8.000000
1303263.734538,1.000000,-3.000000,24.000000,-12.000000,1.000000,-8.000000,-1.000000,-4.000000
1303263.749362,1.000000,-1.000000,-15.000000,-9.000000,-1.000000,2.000000,-3.000000,2.000000
1303263.749374,-3.000000,-7.000000,0.000000,5.000000,1.000000,-3.000000,7.000000,-2.000000
1303263.771950,-6.000000,7.000000,15.000000,-1.000000,8.000000,-2.000000,-10.000000,-4.000000
1303263.771962,-11.000000,-8.000000,8.000000,41.000000,3.000000,9.000000,5.000000,7.000000
1303263.787049,-6.000000,4.000000,6.000000,-23.000000,5.000000,0.000000,-7.000000,-9.000000
1303263.787077,1.000000,-8.000000,3.000000,-3.000000,-1.000000,-1.000000,-20.000000,-12.000000
1303263.788110,-1.000000,-8.000000,-13.000000,18.000000,7.000000,4.000000,15.000000,16.000000
1303263.788119,2.000000,2.000000,20.000000,1.000000,1.000000,2.000000,4.000000,3.000000
1303263.788465,-8.000000,8.000000,-11.000000,8.000000,1.000000,-2.000000,-10.000000,-11.000000
1303263.788473,8.000000,-4.000000,3.000000,-12.000000,1.000000,3.000000,-5.000000,-1.000000
1303263.809665,4.000000,-4.000000,11.000000,4.000000,-7.000000,-8.000000,7.000000,1.000000
1303263.809676,1.000000,4.000000,-15.000000,44.000000,26.000000,5.000000,6.000000,7.000000
1303263.831896,9.000000,6.000000,46.000000,6.000000,2.000000,3.000000,1.000000,5.000000
1303263.831931,-12.000000,-1.000000,-52.000000,-37.000000,2.000000,2.000000,-7.000000,-11.000000
1303263.854514,2.000000,-6.000000,9.000000,-6.000000,-5.000000,-4.000000,3.000000,4.000000
1303263.854526,-4.000000,-8.000000,46.000000,-4.000000,-7.000000,-6.000000,-8.000000,3.000000
1303263.869943,6.000000,-4.000000,-51.000000,23.000000,12.000000,-1.000000,-5.000000,-3.000000
1303263.869962,-14.000000,-1.000000,38.000000,-20.000000,-7.000000,-8.000000,0.000000,-14.000000
1303263.870529,8.000000,-3.000000,-21.000000,-2.000000,1.000000,6.000000,7.000000,11.000000
1303263.870547,5.000000,0.000000,39.000000,33.000000,16.000000,7.000000,4.000000,4.000000
1303263.871828,-5.000000,-5.000000,-15.000000,-5.000000,-8.000000,-3.000000,-3.000000,-5.000000
1303263.871839,9.000000,-9.000000,-5.000000,-9.000000,-7.000000,-4.000000,-2.000000,-2.000000
1303263.872614,3.000000,-3.000000,6.000000,-13.000000,0.000000,-5.000000,-9.000000,-2.000000
1303263.872624,-5.000000,1.000000,-22.000000,12.000000,-7.000000,-1.000000,-2.000000,-3.000000
1303263.884244,9.000000,1.000000,15.000000,23.000000,-13.000000,-6.000000,-5.000000,-6.000000
1303263.884260,-17.000000,-3.000000,-15.000000,-31.000000,-7.000000,-8.000000,-9.000000,-15.000000
1303263.885619,12.000000,4.000000,15.000000,8.000000,-3.000000,-9.000000,3.000000,-4.000000
1303263.885628,2.000000,-2.000000,7.000000,24.000000,11.000000,8.000000,34.000000,21.000000
1303263.891709,-7.000000,2.000000,-11.000000,-18.000000,-8.000000,-4.000000,-10.000000,-4.000000
1303263.891753,3.000000,2.000000,-14.000000,-10.000000,1.000000,-7.000000,-10.000000,-15.000000
1303263.907559,-5.000000,-6.000000,37.000000,-3.000000,-3.000000,-5.000000,-12.000000,-2.000000
1303263.907568,-22.000000,-3.000000,-80.000000,-13.000000,-6.000000,-2.000000,4.000000,-5.000000
1303263.929515,-4.000000,-3.000000,-7.000000,-32.000000,-7.000000,-1.000000,0.000000,3.000000
1303263.929533,-2.000000,-3.000000,33.000000,30.000000,5.000000,-2.000000,-10.000000,-11.000000
1303263.951707,3.000000,8.000000,9.000000,0.000000,-1.000000,-1.000000,0.000000,1.000000
1303263.951716,12.000000,2.000000,-1.000000,-8.000000,-6.000000,2.000000,9.000000,11.000000
1303263.967002,-19.000000,3.000000,-47.000000,-23.000000,-12.000000,-7.000000,-8.000000,-9.000000
1303263.967037,-15.000000,-12.000000,-2.000000,-7.000000,-2.000000,-4.000000,-1.000000,-9.000000
1303263.967863,4.000000,-11.000000,19.000000,-10.000000,2.000000,-2.000000,3.000000,1.000000
1303263.967872,-26.000000,-7.000000,-55.000000,-18.000000,2.000000,6.000000,-5.000000,-15.000000
1303263.968865,8.000000,-2.000000,7.000000,-39.000000,-21.000000,-8.000000,-11.000000,2.000000
1303263.968912,-24.000000,-6.000000,6.000000,61.000000,11.000000,10.000000,27.000000,20.000000
1303263.970479,8.000000,4.000000,18.000000,-19.000000,-7.000000,1.000000,7.000000,8.000000
1303263.970491,3.000000,-4.000000,-21.000000,-5.000000,4.000000,-2.000000,-24.000000,1.000000
1303263.974826,-4.000000,2.000000,-15.000000,-4.000000,-5.000000,-5.000000,6.000000,-11.000000
1303263.974844,-2.000000,11.000000,24.000000,6.000000,-2.000000,1.000000,6.000000,-4.000000
1303263.989451,-9.000000,6.000000,1.000000,-10.000000,-4.000000,-1.000000,-1.000000,-11.000000
1303263.989461,7.000000,-3.000000,-8.000000,-7.000000,-5.000000,-3.000000,2.000000,11.000000
1303264.004412,1.000000,5.000000,1.000000,-19.000000,-2.000000,-5.000000,-3.000000,0.000000
1303264.004441,1.000000,1.000000,-3.000000,5.000000,-2.000000,-2.000000,-8.000000,-4.000000
1303264.005572,-7.000000,3.000000,-8.000000,23.000000,5.000000,3.000000,-7.000000,-7.000000
1303264.005581,7.000000,-7.000000,-26.000000,-28.000000,-3.000000,-5.000000,-4.000000,-3.000000
1303264.011784,-3.000000,-6.000000,-4.000000,1.000000,-2.000000,-5.000000,-6.000000,-2.000000
1303264.011812,-1.000000,1.000000,4.000000,-34.000000,-1.000000,4.000000,-10.000000,-12.000000
1303264.027697,15.000000,-3.000000,14.000000,53.000000,-4.000000,6.000000,23.000000,23.000000
1303264.027796,0.000000,-1.000000,11.000000,-5.000000,-2.000000,2.000000,1.000000,13.000000
1303264.041881,-8.000000,7.000000,0.000000,18.000000,0.000000,2.000000,0.000000,0.000000
1303264.041891,-9.000000,3.000000,-30.000000,-28.000000,2.000000,-8.000000,-5.000000,-8.000000
1303264.064323,4.000000,-10.000000,-13.000000,-15.000000,-9.000000,-14.000000,-11.000000,-4.000000
1303264.064336,5.000000,-5.000000,32.000000,19.000000,6.000000,9.000000,12.000000,7.000000
1303264.094557,-28.000000,-7.000000,-26.000000,-10.000000,-9.000000,-5.000000,-6.000000,-7.000000
1303264.094568,6.000000,-9.000000,17.000000,18.000000,15.000000,-3.000000,-2.000000,-12.000000
1303264.109498,-13.000000,-8.000000,-11.000000,-9.000000,0.000000,1.000000,3.000000,-6.000000
1303264.109530,5.000000,-7.000000,17.000000,4.000000,3.000000,2.000000,-3.000000,6.000000
1303264.124316,-4.000000,5.000000,-15.000000,0.000000,-2.000000,1.000000,-6.000000,-5.000000
1303264.124337,14.000000,-1.000000,1.000000,4.000000,-5.000000,-2.000000,3.000000,-6.000000
1303264.125299,-3.000000,1.000000,6.000000,40.000000,6.000000,0.000000,-1.000000,1.000000
1303264.125327,-2.000000,0.000000,-10.000000,-27.000000,-1.000000,1.000000,-5.000000,-3.000000
1303264.125955,-2.000000,6.000000,21.000000,2.000000,-5.000000,-4.000000,-6.000000,-10.000000
1303264.125982,4.000000,-4.000000,5.000000,36.000000,9.000000,10.000000,9.000000,10.000000
1303264.126641,14.000000,-1.000000,8.000000,-4.000000,1.000000,0.000000,3.000000,2.000000
1303264.126668,-4.000000,3.000000,7.000000,-25.000000,-9.000000,-6.000000,-16.000000,1.000000
1303264.128082,8.000000,-1.000000,5.000000,66.000000,20.000000,0.000000,17.000000,5.000000
1303264.128091,-4.000000,2.000000,36.000000,-8.000000,-9.000000,-2.000000,-9.000000,-9.000000
1303264.131635,-19.000000,0.000000,-88.000000,-13.000000,3.000000,-2.000000,7.000000,9.000000
1303264.131643,20.000000,-5.000000,5.000000,-8.000000,-3.000000,-3.000000,-7.000000,-6.000000
1303264.147575,-26.000000,0.000000,-2.000000,-14.000000,-4.000000,-5.000000,8.000000,7.000000
1303264.147585,16.000000,0.000000,5.000000,23.000000,1.000000,-2.000000,-29.000000,-6.000000
1303264.162032,-15.000000,3.000000,5.000000,-13.000000,-4.000000,-4.000000,24.000000,-2.000000
1303264.162042,15.000000,1.000000,-49.000000,-18.000000,-2.000000,-1.000000,-14.000000,-2.000000
1303264.184635,-6.000000,-3.000000,30.000000,22.000000,9.000000,2.000000,-6.000000,-4.000000
1303264.184648,-4.000000,-6.000000,15.000000,2.000000,-8.000000,1.000000,-8.000000,-8.000000
1303264.221775,-11.000000,-1.000000,-72.000000,-30.000000,-5.000000,-4.000000,-9.000000,-5.000000
1303264.221799,8.000000,-4.000000,-8.000000,-16.000000,-8.000000,-4.000000,-3.000000,-5.000000
1303264.230092,-5.000000,-2.000000,-2.000000,7.000000,-8.000000,2.000000,5.000000,-1.000000
1303264.230100,2.000000,-6.000000,5.000000,-27.000000,-2.000000,4.000000,3.000000,6.000000
1303264.230576,6.000000,4.000000,-8.000000,0.000000,-5.000000,-7.000000,-2.000000,-3.000000
1303264.230584,-4.000000,2.000000,13.000000,10.000000,4.000000,0.000000,-1.000000,3.000000
1303264.231808,-9.000000,3.000000,-21.000000,-29.000000,-6.000000,3.000000,2.000000,5.000000
1303264.231818,5.000000,4.000000,-16.000000,-9.000000,-9.000000,4.000000,2.000000,6.000000
1303264.232637,-3.000000,-4.000000,6.000000,-25.000000,0.000000,1.000000,-5.000000,-7.000000
1303264.232646,-3.000000,1.000000,-15.000000,31.000000,10.000000,0.000000,-27.000000,-20.000000
1303264.244269,-6.000000,-1.000000,28.000000,-6.000000,-1.000000,-5.000000,-6.000000,-5.000000
1303264.244280,-10.000000,-2.000000,-14.000000,8.000000,2.000000,3.000000,-1.000000,-10.000000
1303264.245566,5.000000,-3.000000,8.000000,16.000000,-4.000000,0.000000,-5.000000,-6.000000
1303264.245575,-11.000000,2.000000,-9.000000,-7.000000,0.000000,2.000000,-3.000000,5.000000
1303264.251772,-8.000000,-3.000000,3.000000,-24.000000,-5.000000,-6.000000,-16.000000,-11.000000
1303264.251781,7.000000,-4.000000,-5.000000,26.000000,-5.000000,3.000000,-1.000000,-6.000000
1303264.267420,3.000000,-1.000000,12.000000,10.000000,1.000000,-1.000000,8.000000,5.000000
1303264.267430,8.000000,4.000000,0.000000,-21.000000,-7.000000,-3.000000,-1.000000,5.000000
1303264.282003,-1.000000,-11.000000,8.000000,6.000000,0.000000,-9.000000,-3.000000,-1.000000
1303264.282013,-10.000000,-8.000000,-6.000000,49.000000,17.000000,4.000000,-1.000000,-7.000000
1303264.304397,2.000000,1.000000,5.000000,-40.000000,-6.000000,1.000000,-6.000000,3.000000
1303264.304439,9.000000,9.000000,4.000000,48.000000,5.000000,0.000000,4.000000,10.000000
1303264.319592,-5.000000,4.000000,-25.000000,-25.000000,-12.000000,-3.000000,-6.000000,-7.000000
1303264.319603,-14.000000,2.000000,-14.000000,-19.000000,-6.000000,-2.000000,-23.000000,-28.000000
1303264.342082,7.000000,1.000000,-22.000000,-28.000000,-5.000000,-3.000000,68.000000,46.000000
1303264.342112,8.000000,3.000000,-15.000000,25.000000,9.000000,-4.000000,-15.000000,8.000000
1303264.356908,1.000000,0.000000,34.000000,25.000000,-2.000000,1.000000,-20.000000,-24.000000
1303264.356920,-18.000000,4.000000,-4.000000,-35.000000,-4.000000,0.000000,-3.000000,-2.000000
1303264.379763,5.000000,1.000000,11.000000,11.000000,-1.000000,7.000000,8.000000,2.000000
1303264.379775,9.000000,-4.000000,-10.000000,0.000000,0.000000,3.000000,-4.000000,-6.000000
1303264.379944,3.000000,-7.000000,52.000000,11.000000,2.000000,-3.000000,1.000000,12.000000
1303264.379949,-1.000000,0.000000,-2.000000,11.000000,1.000000,0.000000,-4.000000,-4.000000
1303264.380928,4.000000,0.000000,2.000000,-23.000000,-7.000000,-8.000000,-1.000000,-4.000000
1303264.380936,-7.000000,-6.000000,-15.000000,3.000000,1.000000,2.000000,-8.000000,-6.000000
1303264.381562,-10.000000,-5.000000,0.000000,-23.000000,-7.000000,3.000000,-5.000000,-8.000000
1303264.381570,4.000000,-7.000000,5.000000,26.000000,1.000000,1.000000,-1.000000,2.000000
1303264.382557,-5.000000,-4.000000,-59.000000,22.000000,10.000000,3.000000,0.000000,-9.000000
1303264.382567,-9.000000,3.000000,13.000000,11.000000,1.000000,2.000000,-4.000000,-8.000000
1303264.387615,-8.000000,-4.000000,4.000000,-34.000000,-5.000000,-4.000000,-7.000000,-6.000000
1303264.387634,-8.000000,-1.000000,-28.000000,15.000000,6.000000,-2.000000,-3.000000,-6.000000
1303264.402227,23.000000,4.000000,-15.000000,-2.000000,-4.000000,-3.000000,-1.000000,7.000000
1303264.402237,-9.000000,-3.000000,27.000000,-9.000000,1.000000,3.000000,3.000000,-3.000000
1303264.424608,4.000000,0.000000,8.000000,4.000000,-6.000000,0.000000,-4.000000,1.000000
1303264.424619,-1.000000,0.000000,-8.000000,-8.000000,6.000000,3.000000,-10.000000,-9.000000
1303264.439271,-15.000000,5.000000,-21.000000,15.000000,13.000000,2.000000,19.000000,5.000000
1303264.439281,-10.000000,0.000000,-4.000000,33.000000,6.000000,2.000000,6.000000,14.000000
1303264.454581,4.000000,0.000000,-37.000000,-10.000000,-1.000000,-6.000000,-8.000000,-15.000000
1303264.454591,1.000000,4.000000,44.000000,-10.000000,-5.000000,-1.000000,10.000000,5.000000
1303264.461943,-5.000000,5.000000,-8.000000,3.000000,-1.000000,-4.000000,-11.000000,5.000000
1303264.461954,8.000000,-2.000000,-12.000000,-6.000000,-8.000000,-1.000000,-6.000000,-7.000000
1303264.491849,5.000000,5.000000,-14.000000,-11.000000,-2.000000,-10.000000,0.000000,-4.000000
1303264.491860,-6.000000,-2.000000,5.000000,11.000000,13.000000,0.000000,-8.000000,-3.000000
1303264.499220,6.000000,4.000000,12.000000,15.000000,3.000000,8.000000,0.000000,1.000000
1303264.499230,5.000000,-11.000000,2.000000,-27.000000,-5.000000,-11.000000,-13.000000,-4.000000
1303264.522175,1.000000,-1.000000,8.000000,0.000000,-1.000000,0.000000,3.000000,-7.000000
1303264.522189,-13.000000,-1.000000,-5.000000,2.000000,-11.000000,-1.000000,-9.000000,-6.000000
1303264.529241,27.000000,0.000000,7.000000,26.000000,10.000000,21.000000,24.000000,21.000000
1303264.529251,7.000000,-3.000000,-4.000000,29.000000,19.000000,8.000000,12.000000,13.000000
1303264.567113,7.000000,-3.000000,-27.000000,23.000000,-1.000000,2.000000,19.000000,6.000000
1303264.567125,-4.000000,-2.000000,-22.000000,-33.000000,-12.000000,-8.000000,-13.000000,4.000000
1303264.581931,9.000000,8.000000,24.000000,9.000000,3.000000,-2.000000,-15.000000,-14.000000
1303264.581945,7.000000,1.000000,-2.000000,-6.000000,-1.000000,-1.000000,-5.000000,-6.000000
1303264.597473,-1.000000,2.000000,-3.000000,-3.000000,10.000000,-1.000000,-7.000000,-8.000000
1303264.597483,5.000000,-2.000000,-7.000000,-9.000000,1.000000,-6.000000,-12.000000,-5.000000
1303264.599202,10.000000,-2.000000,3.000000,4.000000,2.000000,-5.000000,-11.000000,-5.000000
1303264.599211,-22.000000,-6.000000,-7.000000,-13.000000,-1.000000,0.000000,-6.000000,-13.000000
1303264.599822,16.000000,-2.000000,16.000000,4.000000,-5.000000,6.000000,8.000000,5.000000
1303264.599831,2.000000,2.000000,-15.000000,7.000000,0.000000,5.000000,7.000000,0.000000
1303264.601001,5.000000,2.000000,17.000000,2.000000,2.000000,-7.000000,-7.000000,-5.000000
1303264.601013,-11.000000,11.000000,2.000000,11.000000,9.000000,2.000000,-6.000000,-5.000000
1303264.612095,1.000000,3.000000,16.000000,-18.000000,0.000000,-1.000000,8.000000,-6.000000
1303264.612106,-6.000000,-4.000000,-33.000000,-5.000000,-8.000000,-8.000000,-6.000000,-8.000000
1303264.619500,7.000000,0.000000,6.000000,23.000000,2.000000,3.000000,1.000000,7.000000
1303264.619512,-11.000000,-2.000000,9.000000,0.000000,-9.000000,2.000000,2.000000,-1.000000
1303264.657041,4.000000,-1.000000,-42.000000,-16.000000,-7.000000,-5.000000,-8.000000,-9.000000
1303264.657052,17.000000,1.000000,-4.000000,-14.000000,-5.000000,-6.000000,-12.000000,-8.000000
1303264.664403,-32.000000,-3.000000,2.000000,24.000000,13.000000,16.000000,18.000000,11.000000
1303264.664415,5.000000,1.000000,14.000000,-21.000000,0.000000,-3.000000,-5.000000,0.000000
1303264.702034,0.000000,-2.000000,-31.000000,-22.000000,-12.000000,-3.000000,-6.000000,-9.000000
1303264.702046,3.000000,-6.000000,1.000000,-10.000000,3.000000,0.000000,4.000000,5.000000
1303264.716926,-10.000000,-6.000000,-3.000000,32.000000,2.000000,-2.000000,-19.000000,-16.000000
1303264.716938,-9.000000,8.000000,-16.000000,-20.000000,0.000000,12.000000,3.000000,-8.000000
1303264.717761,40.000000,1.000000,41.000000,16.000000,17.000000,11.000000,21.000000,32.000000
1303264.717769,-22.000000,-6.000000,-45.000000,-25.000000,-9.000000,-4.000000,-26.000000,-17.000000
1303264.718520,1.000000,-3.000000,9.000000,-6.000000,-7.000000,-10.000000,11.000000,-7.000000
1303264.718529,-11.000000,1.000000,-7.000000,-2.000000,-1.000000,1.000000,4.000000,8.000000
1303264.719899,8.000000,-1.000000,-20.000000,15.000000,8.000000,-2.000000,-10.000000,-9.000000
1303264.719909,-23.000000,-7.000000,-15.000000,-11.000000,-4.000000,0.000000,22.000000,9.000000
1303264.720710,-9.000000,0.000000,23.000000,5.000000,-2.000000,-6.000000,-4.000000,-5.000000
1303264.720719,6.000000,0.000000,2.000000,34.000000,15.000000,4.000000,-4.000000,-4.000000
1303264.724821,4.000000,6.000000,-14.000000,-31.000000,-10.000000,-10.000000,3.000000,6.000000
1303264.724829,2.000000,-3.000000,4.000000,4.000000,1.000000,1.000000,0.000000,-6.000000
1303264.739542,-3.000000,-4.000000,6.000000,-16.000000,-9.000000,-13.000000,-14.000000,-6.000000
1303264.739555,-15.000000,5.000000,1.000000,13.000000,9.000000,-5.000000,-11.000000,-8.000000
1303264.769551,14.000000,-4.000000,22.000000,15.000000,0.000000,-7.000000,11.000000,5.000000
1303264.769562,-4.000000,-4.000000,-10.000000,-2.000000,-4.000000,4.000000,-5.000000,4.000000
1303264.776706,0.000000,-4.000000,9.000000,36.000000,18.000000,0.000000,-5.000000,-8.000000
1303264.776717,5.000000,2.000000,-3.000000,-11.000000,-8.000000,2.000000,-1.000000,3.000000
1303264.799662,5.000000,1.000000,27.000000,-9.000000,3.000000,-2.000000,-9.000000,-9.000000
1303264.799675,-15.000000,5.000000,-10.000000,19.000000,-9.000000,-4.000000,-8.000000,-8.000000
1303264.807001,4.000000,5.000000,24.000000,-20.000000,-16.000000,-13.000000,26.000000,11.000000
1303264.807014,-7.000000,0.000000,-52.000000,18.000000,15.000000,10.000000,-13.000000,1.000000
1303264.822298,-1.000000,1.000000,24.000000,-2.000000,3.000000,2.000000,-1.000000,-5.000000
1303264.822322,-4.000000,1.000000,-15.000000,1.000000,-9.000000,-4.000000,-8.000000,-4.000000
1303264.822882,-6.000000,3.000000,18.000000,-2.000000,-2.000000,-2.000000,10.000000,0.000000
1303264.822899,7.000000,-4.000000,-2.000000,-4.000000,-2.000000,0.000000,-7.000000,4.000000
1303264.824135,10.000000,10.000000,0.000000,3.000000,0.000000,-2.000000,1.000000,-1.000000
1303264.824146,-17.000000,-2.000000,2.000000,7.000000,0.000000,1.000000,0.000000,-1.000000
1303264.824795,7.000000,-1.000000,-7.000000,-2.000000,-4.000000,-3.000000,-5.000000,0.000000
1303264.824803,2.000000,-7.000000,2.000000,-6.000000,-4.000000,1.000000,-8.000000,-7.000000
1303264.829084,10.000000,-7.000000,6.000000,3.000000,1.000000,-2.000000,-12.000000,-7.000000
1303264.829092,-8.000000,-5.000000,12.000000,4.000000,4.000000,-7.000000,13.000000,20.000000
1303264.836960,10.000000,-1.000000,3.000000,-6.000000,8.000000,1.000000,-21.000000,6.000000
1303264.836970,-8.000000,2.000000,-18.000000,13.000000,-12.000000,-2.000000,24.000000,-8.000000
1303264.845096,-21.000000,-9.000000,-8.000000,5.000000,-2.000000,-9.000000,-5.000000,-1.000000
1303264.845105,15.000000,1.000000,21.000000,32.000000,24.000000,11.000000,-12.000000,-3.000000
1303264.859507,11.000000,-3.000000,2.000000,-7.000000,-4.000000,-1.000000,20.000000,11.000000
1303264.859558,-12.000000,-7.000000,-6.000000,20.000000,3.000000,2.000000,1.000000,-1.000000
1303264.882036,-14.000000,-8.000000,-15.000000,-44.000000,-16.000000,-12.000000,-12.000000,-13.000000
1303264.882047,6.000000,3.000000,17.000000,-7.000000,-7.000000,3.000000,0.000000,7.000000
1303264.889708,8.000000,9.000000,-22.000000,2.000000,1.000000,-3.000000,-6.000000,2.000000
1303264.889719,36.000000,-3.000000,6.000000,-1.000000,4.000000,3.000000,9.000000,7.000000
1303264.919992,-10.000000,-3.000000,-46.000000,-17.000000,-2.000000,2.000000,-21.000000,-20.000000
1303264.920013,0.000000,-1.000000,16.000000,0.000000,-8.000000,-8.000000,21.000000,8.000000
1303264.927200,3.000000,3.000000,20.000000,3.000000,-9.000000,-6.000000,-4.000000,2.000000
1303264.927235,-10.000000,2.000000,0.000000,-3.000000,16.000000,3.000000,2.000000,-12.000000
1303264.942572,8.000000,-5.000000,27.000000,61.000000,10.000000,2.000000,4.000000,2.000000
1303264.942594,0.000000,-5.000000,-55.000000,-26.000000,-4.000000,-6.000000,-3.000000,-1.000000
1303264.942957,-5.000000,-2.000000,7.000000,-18.000000,-9.000000,-9.000000,-6.000000,3.000000
1303264.942982,2.000000,5.000000,9.000000,-7.000000,2.000000,3.000000,-16.000000,-10.000000
1303264.943909,15.000000,6.000000,-8.000000,10.000000,-5.000000,0.000000,13.000000,4.000000
1303264.943928,-17.000000,0.000000,-13.000000,-18.000000,9.000000,1.000000,-5.000000,-5.000000
1303264.944652,13.000000,5.000000,4.000000,17.000000,-1.000000,8.000000,5.000000,7.000000
1303264.944669,-4.000000,4.000000,-1.000000,-25.000000,-5.000000,4.000000,4.000000,8.000000
1303264.957464,-23.000000,4.000000,16.000000,4.000000,2.000000,-6.000000,3.000000,3.000000
1303264.957485,-1.000000,3.000000,14.000000,-3.000000,-3.000000,-1.000000,-19.000000,-12.000000
1303264.964626,-10.000000,1.000000,-28.000000,-1.000000,6.000000,0.000000,3.000000,-9.000000
1303264.964645,21.000000,3.000000,-10.000000,-4.000000,6.000000,1.000000,24.000000,2.000000
1303264.987140,-20.000000,-3.000000,57.000000,3.000000,-5.000000,-2.000000,-6.000000,6.000000
1303264.987150,-5.000000,-3.000000,-55.000000,-23.000000,-2.000000,-3.000000,-10.000000,-4.000000
1303265.001905,-4.000000,0.000000,24.000000,44.000000,1.000000,3.000000,-7.000000,-5.000000
1303265.001929,6.000000,2.000000,-20.000000,7.000000,-2.000000,-2.000000,0.000000,2.000000
1303265.039528,-16.000000,-1.000000,19.000000,31.000000,24.000000,3.000000,0.000000,-4.000000
1303265.039552,9.000000,-1.000000,-9.000000,-11.000000,-5.000000,-7.000000,3.000000,4.000000
1303265.054337,-19.000000,-3.000000,-9.000000,-4.000000,-5.000000,-8.000000,-5.000000,-3.000000
1303265.054353,14.000000,3.000000,25.000000,9.000000,3.000000,4.000000,-8.000000,-12.000000
1303265.055263,-9.000000,-1.000000,-59.000000,-12.000000,-4.000000,-9.000000,-7.000000,2.000000
1303265.055272,15.000000,-1.000000,12.000000,10.000000,1.000000,-3.000000,2.000000,4.000000
1303265.056018,-4.000000,-4.000000,1.000000,-15.000000,-5.000000,5.000000,3.000000,8.000000
1303265.056031,-11.000000,6.000000,19.000000,-1.000000,-2.000000,5.000000,2.000000,-6.000000
1303265.057193,-6.000000,-8.000000,3.000000,-6.000000,-3.000000,3.000000,-15.000000,-6.000000
1303265.057202,22.000000,1.000000,-28.000000,-2.000000,-3.000000,0.000000,23.000000,11.000000
1303265.058122,-23.000000,2.000000,20.000000,17.000000,13.000000,-4.000000,-9.000000,-9.000000
1303265.058131,14.000000,6.000000,4.000000,-15.000000,-7.000000,-1.000000,37.000000,13.000000
1303265.076949,-6.000000,-2.000000,-6.000000,0.000000,-6.000000,-9.000000,-21.000000,-12.000000
1303265.076962,4.000000,-3.000000,10.000000,-35.000000,-10.000000,2.000000,-7.000000,-10.000000
1303265.077585,-20.000000,6.000000,-6.000000,8.000000,-14.000000,-8.000000,-5.000000,-7.000000
1303265.077594,-2.000000,-3.000000,16.000000,-15.000000,-12.000000,0.000000,0.000000,0.000000
1303265.114659,4.000000,-3.000000,12.000000,-19.000000,-7.000000,-13.000000,-15.000000,-13.000000
1303265.114670,5.000000,3.000000,-22.000000,13.000000,4.000000,5.000000,28.000000,13.000000
1303265.122064,-1.000000,-7.000000,17.000000,3.000000,-1.000000,-6.000000,7.000000,-1.000000
1303265.122076,-11.000000,-2.000000,14.000000,-1.000000,-3.000000,2.000000,-8.000000,-7.000000
1303265.136877,3.000000,-5.000000,-16.000000,-22.000000,-14.000000,-2.000000,-9.000000,5.000000
1303265.136887,6.000000,-3.000000,-10.000000,8.000000,9.000000,10.000000,23.000000,0.000000
1303265.151855,-4.000000,-3.000000,18.000000,13.000000,-3.000000,0.000000,11.000000,12.000000
1303265.151885,9.000000,6.000000,8.000000,-12.000000,-6.000000,3.000000,-4.000000,9.000000
1303265.174539,6.000000,-4.000000,-6.000000,-10.000000,-7.000000,-3.000000,13.000000,-26.000000
1303265.174551,-29.000000,-7.000000,33.000000,8.000000,5.000000,-1.000000,-6.000000,-5.000000
1303265.174939,24.000000,-7.000000,-5.000000,7.000000,0.000000,13.000000,88.000000,62.000000
1303265.174948,-30.000000,-2.000000,11.000000,10.000000,-1.000000,6.000000,-20.000000,-12.000000
1303265.176002,20.000000,0.000000,35.000000,30.000000,-1.000000,-4.000000,-29.000000,-24.000000
1303265.176012,-10.000000,-2.000000,-57.000000,-12.000000,-6.000000,0.000000,-21.000000,-14.000000
1303265.176631,1.000000,-5.000000,0.000000,-27.000000,-11.000000,-14.000000,-14.000000,-4.000000
1303265.176640,12.000000,-5.000000,-84.000000,-12.000000,6.000000,0.000000,-7.000000,-4.000000
1303265.177291,-5.000000,8.000000,-8.000000,-8.000000,-9.000000,-4.000000,-8.000000,-7.000000
1303265.177300,-2.000000,-1.000000,3.000000,-3.000000,-3.000000,-2.000000,-6.000000,-5.000000
1303265.178172,-2.000000,-2.000000,34.000000,-40.000000,-10.000000,-8.000000,-7.000000,1.000000
1303265.178182,4.000000,-1.000000,-56.000000,11.000000,-5.000000,-2.000000,5.000000,-6.000000
1303265.197241,-16.000000,0.000000,-3.000000,5.000000,-1.000000,4.000000,19.000000,8.000000
1303265.197265,8.000000,-5.000000,4.000000,-18.000000,-5.000000,-2.000000,-3.000000,-8.000000
1303265.198060,11.000000,0.000000,-12.000000,-9.000000,-4.000000,-4.000000,0.000000,16.000000
1303265.198088,-10.000000,2.000000,30.000000,0.000000,-8.000000,2.000000,-6.000000,0.000000
1303265.212628,13.000000,-6.000000,6.000000,-19.000000,-3.000000,0.000000,-14.000000,-13.000000
1303265.212637,-10.000000,4.000000,15.000000,40.000000,3.000000,5.000000,3.000000,-7.000000
1303265.219442,12.000000,-6.000000,4.000000,-8.000000,-7.000000,-7.000000,7.000000,5.000000
1303265.219455,12.000000,1.000000,3.000000,-8.000000,-6.000000,-3.000000,18.000000,24.000000
1303265.249682,-40.000000,4.000000,-26.000000,7.000000,-7.000000,-4.000000,-43.000000,-36.000000
1303265.249693,0.000000,1.000000,26.000000,14.000000,0.000000,2.000000,31.000000,13.000000
1303265.257061,5.000000,0.000000,6.000000,-16.000000,-1.000000,2.000000,-11.000000,28.000000
1303265.257072,5.000000,-7.000000,-8.000000,23.000000,0.000000,-6.000000,-14.000000,-14.000000
1303265.294230,-13.000000,-1.000000,5.000000,-13.000000,-2.000000,0.000000,-17.000000,-17.000000
1303265.294240,5.000000,1.000000,32.000000,-43.000000,-7.000000,0.000000,4.000000,-8.000000
1303265.294721,22.000000,-10.000000,-65.000000,70.000000,38.000000,18.000000,33.000000,44.000000
1303265.294729,-2.000000,-2.000000,3.000000,-11.000000,-11.000000,-11.000000,-13.000000,-10.000000
1303265.295958,-17.000000,3.000000,-13.000000,-29.000000,-9.000000,-2.000000,-9.000000,-12.000000
1303265.295966,14.000000,-1.000000,5.000000,-14.000000,-2.000000,-2.000000,0.000000,6.000000
1303265.296632,-11.000000,-3.000000,-2.000000,26.000000,5.000000,-1.000000,-5.000000,-3.000000
1303265.296640,-1.000000,5.000000,-17.000000,-36.000000,-3.000000,-1.000000,-7.000000,-9.000000
1303265.298536,-18.000000,2.000000,-44.000000,-25.000000,-7.000000,-8.000000,-24.000000,-13.000000
1303265.298547,7.000000,4.000000,28.000000,5.000000,-1.000000,0.000000,17.000000,8.000000
1303265.317239,-3.000000,2.000000,-10.000000,4.000000,-6.000000,-3.000000,-4.000000,-11.000000
1303265.317250,4.000000,-4.000000,4.000000,16.000000,-2.000000,-6.000000,-16.000000,-15.000000
1303265.318172,-12.000000,2.000000,11.000000,-15.000000,-7.000000,6.000000,19.000000,5.000000
1303265.318182,-6.000000,-6.000000,-7.000000,-9.000000,-4.000000,-1.000000,0.000000,7.000000
1303265.331878,-2.000000,-3.000000,-26.000000,1.000000,-3.000000,-14.000000,-47.000000,-24.000000
1303265.331890,5.000000,-7.000000,13.000000,6.000000,6.000000,0.000000,37.000000,8.000000
1303265.339361,-1.000000,3.000000,3.000000,-9.000000,-6.000000,4.000000,0.000000,13.000000
1303265.339389,0.000000,-3.000000,-9.000000,-13.000000,-6.000000,-10.000000,-32.000000,-15.000000
1303265.361898,-16.000000,-3.000000,-5.000000,-8.000000,2.000000,4.000000,9.000000,-5.000000
1303265.361910,-7.000000,0.000000,22.000000,-20.000000,-8.000000,-2.000000,-13.000000,0.000000
1303265.376929,20.000000,4.000000,-7.000000,31.000000,7.000000,5.000000,1.000000,5.000000
1303265.376939,21.000000,1.000000,33.000000,-4.000000,4.000000,0.000000,4.000000,16.000000
1303265.399687,-11.000000,5.000000,-15.000000,-17.000000,2.000000,-6.000000,1.000000,-6.000000
1303265.399700,-5.000000,-2.000000,14.000000,-26.000000,0.000000,1.000000,-4.000000,-3.000000
1303265.400071,-9.000000,-1.000000,-23.000000,5.000000,5.000000,5.000000,2.000000,-8.000000
1303265.400080,6.000000,9.000000,-1.000000,-11.000000,-9.000000,7.000000,6.000000,1.000000
1303265.401023,-16.000000,2.000000,-21.000000,-12.000000,-5.000000,0.000000,-10.000000,-4.000000
1303265.401033,17.000000,0.000000,14.000000,0.000000,-3.000000,-3.000000,7.000000,-6.000000
1303265.401612,-5.000000,-1.000000,-13.000000,-3.000000,2.000000,0.000000,8.000000,-1.000000
1303265.401622,2.000000,-1.000000,20.000000,9.000000,7.000000,5.000000,-3.000000,3.000000
1303265.407266,5.000000,3.000000,12.000000,-1.000000,-9.000000,-3.000000,-3.000000,-6.000000
1303265.407282,-12.000000,-5.000000,22.000000,3.000000,3.000000,0.000000,-2.000000,-7.000000
1303265.414415,-3.000000,-4.000000,4.000000,3.000000,1.000000,3.000000,-19.000000,-8.000000
1303265.414476,7.000000,0.000000,-20.000000,-9.000000,-4.000000,-2.000000,6.000000,4.000000
1303265.429222,-5.000000,-4.000000,11.000000,-41.000000,-17.000000,-10.000000,3.000000,-9.000000
1303265.429232,12.000000,-4.000000,11.000000,58.000000,29.000000,26.000000,39.000000,18.000000
1303265.436855,4.000000,10.000000,32.000000,-15.000000,-14.000000,-12.000000,-1.000000,13.000000
1303265.436865,2.000000,-5.000000,-43.000000,-21.000000,-9.000000,-9.000000,-5.000000,-14.000000
1303265.474646,-2.000000,6.000000,-2.000000,-8.000000,1.000000,4.000000,-11.000000,-3.000000
1303265.474656,-14.000000,4.000000,-14.000000,-7.000000,-1.000000,6.000000,-6.000000,-14.000000
1303265.489482,15.000000,-1.000000,-2.000000,-16.000000,-3.000000,-5.000000,-5.000000,-7.000000
1303265.489512,-14.000000,-6.000000,-42.000000,-11.000000,5.000000,2.000000,-11.000000,-11.000000
1303265.511889,-13.000000,-3.000000,2.000000,19.000000,6.000000,-5.000000,-4.000000,-1.000000
1303265.511916,35.000000,-4.000000,-3.000000,-15.000000,-5.000000,1.000000,8.000000,15.000000
1303265.512187,-27.000000,3.000000,6.000000,17.000000,-5.000000,0.000000,0.000000,-10.000000
1303265.512196,10.000000,-7.000000,12.000000,-9.000000,-8.000000,0.000000,13.000000,18.000000
1303265.513395,0.000000,2.000000,-35.000000,-11.000000,-3.000000,-1.000000,-8.000000,-6.000000
1303265.513403,1.000000,-1.000000,7.000000,-8.000000,-7.000000,-8.000000,-8.000000,-8.000000
1303265.514076,-3.000000,-4.000000,-3.000000,9.000000,3.000000,6.000000,-2.000000,0.000000
1303265.514084,7.000000,0.000000,10.000000,-6.000000,-2.000000,-2.000000,6.000000,0.000000
1303265.519074,-3.000000,1.000000,-26.000000,-17.000000,-11.000000,-5.000000,40.000000,16.000000
1303265.519083,1.000000,-2.000000,13.000000,15.000000,-9.000000,0.000000,-10.000000,4.000000
1303265.535201,-3.000000,-2.000000,37.000000,-14.000000,-10.000000,-3.000000,-25.000000,-13.000000
1303265.535210,-5.000000,0.000000,-32.000000,-37.000000,-7.000000,-8.000000,12.000000,4.000000
1303265.549364,7.000000,-2.000000,35.000000,21.000000,4.000000,2.000000,-10.000000,4.000000
1303265.549375,-7.000000,-2.000000,-48.000000,-5.000000,-1.000000,-3.000000,0.000000,-6.000000
1303265.557261,2.000000,-5.000000,-14.000000,-8.000000,1.000000,1.000000,-6.000000,3.000000
1303265.557271,-24.000000,-4.000000,5.000000,-4.000000,6.000000,3.000000,25.000000,-9.000000
1303265.558008,7.000000,4.000000,2.000000,13.000000,1.000000,-1.000000,11.000000,20.000000
1303265.558035,-5.000000,2.000000,22.000000,-1.000000,0.000000,0.000000,-1.000000,13.000000
1303265.609453,19.000000,-4.000000,12.000000,-8.000000,2.000000,1.000000,-8.000000,-4.000000
1303265.609472,0.000000,-5.000000,-82.000000,-25.000000,-7.000000,-3.000000,6.000000,-6.000000
1303265.616665,-11.000000,-5.000000,5.000000,-2.000000,0.000000,-13.000000,-8.000000,-8.000000
1303265.616675,3.000000,-3.000000,3.000000,4.000000,-7.000000,-1.000000,3.000000,-3.000000
1303265.654334,-15.000000,-2.000000,24.000000,18.000000,8.000000,8.000000,-2.000000,-7.000000
1303265.654346,17.000000,5.000000,-15.000000,-33.000000,-4.000000,-2.000000,-5.000000,0.000000
1303265.669572,12.000000,5.000000,8.000000,48.000000,6.000000,1.000000,19.000000,10.000000
1303265.669584,4.000000,1.000000,-8.000000,-10.000000,-10.000000,-5.000000,-11.000000,8.000000
1303265.670371,-21.000000,-9.000000,3.000000,0.000000,2.000000,0.000000,-2.000000,-3.000000
1303265.670380,-8.000000,-1.000000,3.000000,-13.000000,-3.000000,2.000000,-16.000000,-11.000000
1303265.671716,7.000000,-5.000000,-2.000000,-16.000000,-4.000000,-1.000000,1.000000,-9.000000
1303265.671726,-15.000000,-8.000000,-7.000000,22.000000,13.000000,-1.000000,4.000000,9.000000
1303265.672485,1.000000,0.000000,26.000000,6.000000,9.000000,5.000000,7.000000,-1.000000
1303265.672494,7.000000,-1.000000,-26.000000,-15.000000,-2.000000,3.000000,-13.000000,3.000000
1303265.677085,-8.000000,-4.000000,0.000000,-9.000000,-6.000000,-3.000000,-16.000000,-9.000000
1303265.677098,-7.000000,-4.000000,7.000000,-11.000000,-1.000000,-3.000000,-1.000000,-14.000000
1303265.714428,-11.000000,3.000000,-33.000000,11.000000,6.000000,4.000000,-20.000000,-8.000000
1303265.714438,-5.000000,2.000000,-15.000000,22.000000,8.000000,0.000000,31.000000,3.000000
1303265.729248,34.000000,-7.000000,3.000000,-13.000000,0.000000,2.000000,1.000000,18.000000
1303265.729258,-42.000000,8.000000,17.000000,5.000000,-5.000000,3.000000,-9.000000,-15.000000
1303265.766704,14.000000,-4.000000,-4.000000,-19.000000,-14.000000,-7.000000,-10.000000,-12.000000
1303265.766745,-16.000000,-2.000000,-15.000000,-8.000000,2.000000,7.000000,-4.000000,2.000000
1303265.767117,7.000000,-6.000000,7.000000,3.000000,5.000000,-5.000000,-1.000000,-1.000000
1303265.767126,-5.000000,5.000000,-7.000000,-7.000000,-6.000000,-5.000000,-3.000000,-6.000000
1303265.768426,0.000000,-4.000000,15.000000,-11.000000,-9.000000,-8.000000,-5.000000,-2.000000
1303265.768435,-4.000000,-1.000000,7.000000,37.000000,10.000000,-1.000000,-4.000000,-5.000000
1303265.769007,6.000000,10.000000,-17.000000,-33.000000,-9.000000,-3.000000,-5.000000,-4.000000
1303265.769016,-15.000000,11.000000,-17.000000,-12.000000,-3.000000,-6.000000,-3.000000,-12.000000
1303265.770550,-6.000000,0.000000,35.000000,-3.000000,-2.000000,1.000000,12.000000,-4.000000
1303265.770567,-3.000000,0.000000,-5.000000,-8.000000,-5.000000,-6.000000,-13.000000,-5.000000
1303265.789551,21.000000,1.000000,-6.000000,-4.000000,12.000000,13.000000,-12.000000,-4.000000
1303265.789563,-6.000000,-9.000000,3.000000,-18.000000,-4.000000,-6.000000,9.000000,10.000000
1303265.826950,1.000000,-3.000000,-1.000000,-2.000000,-4.000000,-1.000000,30.000000,0.000000
1303265.826960,-3.000000,-4.000000,-8.000000,-4.000000,-9.000000,-13.000000,-20.000000,-6.000000
1303265.834603,-4.000000,2.000000,5.000000,-26.000000,1.000000,3.000000,12.000000,-2.000000
1303265.834612,-9.000000,-4.000000,3.000000,-11.000000,-9.000000,-2.000000,-8.000000,-6.000000
1303265.872000,26.000000,3.000000,3.000000,65.000000,11.000000,-9.000000,-6.000000,7.000000
1303265.872010,-10.000000,-3.000000,20.000000,-19.000000,-5.000000,-6.000000,-45.000000,-20.000000
1303265.886996,-7.000000,-8.000000,-17.000000,-17.000000,3.000000,6.000000,36.000000,-1.000000
1303265.887008,-8.000000,5.000000,-3.000000,-23.000000,-3.000000,1.000000,2.000000,22.000000
1303265.887857,5.000000,1.000000,-24.000000,-6.000000,-9.000000,-7.000000,-9.000000,-7.000000
1303265.887865,-14.000000,-1.000000,26.000000,11.000000,-5.000000,-6.000000,-8.000000,-14.000000
1303265.888456,11.000000,14.000000,53.000000,-4.000000,1.000000,-2.000000,-6.000000,-6.000000
1303265.888464,-6.000000,5.000000,-32.000000,-8.000000,-10.000000,-14.000000,9.000000,8.000000
1303265.889154,13.000000,3.000000,61.000000,52.000000,9.000000,7.000000,14.000000,17.000000
1303265.889166,4.000000,-2.000000,1.000000,-30.000000,-14.000000,0.000000,-13.000000,-3.000000
1303265.890778,-6.000000,5.000000,-10.000000,-13.000000,-10.000000,-4.000000,22.000000,-9.000000
1303265.890790,8.000000,-4.000000,4.000000,26.000000,19.000000,1.000000,5.000000,5.000000
1303265.909151,-9.000000,1.000000,26.000000,22.000000,-3.000000,-7.000000,-12.000000,-9.000000
1303265.909162,-1.000000,-1.000000,-15.000000,-21.000000,0.000000,-4.000000,-6.000000,-5.000000
1303265.910597,-9.000000,5.000000,6.000000,7.000000,2.000000,-2.000000,-1.000000,-4.000000
1303265.910621,-1.000000,1.000000,-10.000000,-32.000000,-8.000000,-7.000000,-3.000000,-4.000000
1303265.916684,-4.000000,-5.000000,-3.000000,43.000000,14.000000,11.000000,2.000000,-2.000000
1303265.916712,0.000000,4.000000,-30.000000,-19.000000,-7.000000,2.000000,1.000000,3.000000
1303265.939489,9.000000,0.000000,-9.000000,28.000000,2.000000,1.000000,6.000000,2.000000
1303265.939518,1.000000,1.000000,36.000000,-34.000000,-5.000000,-8.000000,-31.000000,-14.000000
1303265.946992,10.000000,1.000000,9.000000,14.000000,1.000000,7.000000,28.000000,20.000000
1303265.947002,11.000000,3.000000,1.000000,-1.000000,-3.000000,-4.000000,7.000000,19.000000
1303265.961768,-23.000000,-3.000000,-10.000000,-4.000000,-13.000000,-9.000000,-27.000000,-26.000000
1303265.961796,35.000000,1.000000,-2.000000,-6.000000,0.000000,-3.000000,1.000000,5.000000
1303265.969491,2.000000,-1.000000,-7.000000,-5.000000,-7.000000,-4.000000,5.000000,19.000000
1303265.969501,-13.000000,-7.000000,-19.000000,3.000000,-2.000000,-9.000000,-11.000000,-14.000000
1303265.984919,-6.000000,-5.000000,-5.000000,-37.000000,-6.000000,-7.000000,-21.000000,-17.000000
1303265.984939,19.000000,-7.000000,1.000000,54.000000,-2.000000,3.000000,31.000000,-1.000000
1303265.985847,-28.000000,-5.000000,-3.000000,-6.000000,7.000000,1.000000,2.000000,11.000000
1303265.985858,19.000000,3.000000,-11.000000,-15.000000,7.000000,10.000000,16.000000,16.000000
1303265.991628,-1.000000,-3.000000,24.000000,5.000000,3.000000,-2.000000,3.000000,-7.000000
1303265.991637,3.000000,3.000000,-11.000000,-20.000000,-15.000000,-11.000000,2.000000,-5.000000
1303266.006692,-5.000000,-7.000000,3.000000,43.000000,17.000000,9.000000,-4.000000,-2.000000
1303266.006721,-5.000000,-3.000000,-14.000000,-1.000000,-6.000000,-1.000000,-5.000000,-6.000000
1303266.007967,2.000000,1.000000,19.000000,1.000000,-3.000000,0.000000,5.000000,5.000000
1303266.007975,6.000000,0.000000,-4.000000,7.000000,8.000000,7.000000,8.000000,0.000000
1303266.044331,9.000000,0.000000,-28.000000,-29.000000,-3.000000,1.000000,-6.000000,1.000000
1303266.044350,-12.000000,2.000000,20.000000,-3.000000,-5.000000,-2.000000,-32.000000,-6.000000
1303266.059490,4.000000,8.000000,13.000000,13.000000,-10.000000,-6.000000,24.000000,5.000000
1303266.059500,-37.000000,2.000000,-33.000000,-3.000000,8.000000,6.000000,-4.000000,-1.000000
1303266.067047,44.000000,-3.000000,-20.000000,5.000000,0.000000,1.000000,9.000000,12.000000
1303266.067059,-6.000000,1.000000,5.000000,2.000000,1.000000,-5.000000,-16.000000,-4.000000
1303266.089382,-7.000000,-6.000000,9.000000,-12.000000,-4.000000,-3.000000,5.000000,-12.000000
1303266.089411,9.000000,-2.000000,4.000000,2.000000,-1.000000,2.000000,-4.000000,5.000000
1303266.104525,-14.000000,1.000000,-8.000000,-7.000000,-4.000000,-9.000000,-8.000000,-8.000000
1303266.104599,-5.000000,-7.000000,2.000000,-8.000000,2.000000,-4.000000,-2.000000,-6.000000
1303266.126849,2.000000,-5.000000,12.000000,-34.000000,-8.000000,-3.000000,5.000000,-3.000000
1303266.126869,-8.000000,6.000000,3.000000,73.000000,26.000000,3.000000,-5.000000,-4.000000
1303266.127698,-25.000000,1.000000,-17.000000,-14.000000,-4.000000,-4.000000,-10.000000,-6.000000
1303266.127724,1.000000,-5.000000,27.000000,34.000000,17.000000,7.000000,-1.000000,3.000000
1303266.128842,5.000000,-8.000000,-3.000000,-17.000000,4.000000,2.000000,4.000000,-1.000000
1303266.128854,0.000000,3.000000,-8.000000,-10.000000,-12.000000,-3.000000,-10.000000,-2.000000
1303266.130126,-13.000000,0.000000,17.000000,13.000000,1.000000,2.000000,24.000000,23.000000
1303266.130154,15.000000,-10.000000,-4.000000,-8.000000,-3.000000,-1.000000,1.000000,-5.000000
1303266.149593,15.000000,3.000000,10.000000,28.000000,6.000000,4.000000,-13.000000,-15.000000
1303266.149611,-7.000000,13.000000,23.000000,-17.000000,-12.000000,-1.000000,16.000000,6.000000
1303266.150605,1.000000,-11.000000,-24.000000,-10.000000,1.000000,0.000000,1.000000,7.000000
1303266.150633,-7.000000,1.000000,16.000000,-9.000000,-5.000000,1.000000,4.000000,1.000000
1303266.164547,8.000000,0.000000,8.000000,-7.000000,-7.000000,-5.000000,-4.000000,-3.000000
1303266.164577,-13.000000,-7.000000,-32.000000,-21.000000,-7.000000,-1.000000,-5.000000,-4.000000
1303266.194239,-2.000000,3.000000,-19.000000,8.000000,6.000000,10.000000,3.000000,2.000000
1303266.194249,4.000000,10.000000,-21.000000,-13.000000,0.000000,6.000000,2.000000,2.000000
1303266.202033,5.000000,-4.000000,16.000000,13.000000,6.000000,-4.000000,-8.000000,-4.000000
1303266.202062,-9.000000,0.000000,25.000000,14.000000,-7.000000,-3.000000,9.000000,-2.000000
1303266.224342,3.000000,5.000000,13.000000,-28.000000,-3.000000,-10.000000,-15.000000,-11.000000
1303266.224353,13.000000,-3.000000,6.000000,30.000000,11.000000,4.000000,-1.000000,-1.000000
1303266.231678,16.000000,6.000000,31.000000,-3.000000,1.000000,4.000000,30.000000,13.000000
1303266.231687,-19.000000,2.000000,-3.000000,-8.000000,-8.000000,-3.000000,-36.000000,1.000000
1303266.261803,13.000000,-1.000000,9.000000,3.000000,-6.000000,-2.000000,29.000000,1.000000
1303266.261813,-3.000000,-4.000000,11.000000,-30.000000,-1.000000,-6.000000,-14.000000,6.000000
