# participant_id: P8
# gesture: hard
# trial_number: 2
# stream_name: Myo_EMG
# stream_type: emg
# timestamp: 20260420_152603
# samples: 5270
# duration_sec: 30.622
# nominal_sample_rate: 200.0
# effective_sample_rate: 172.06
#
timestamp,emg_1,emg_2,emg_3,emg_4,emg_5,emg_6,emg_7,emg_8
1303455.007636,26.000000,-9.000000,-42.000000,-128.000000,-68.000000,-28.000000,8.000000,16.000000
1303455.007648,35.000000,-2.000000,57.000000,127.000000,85.000000,62.000000,23.000000,24.000000
1303455.015145,-4.000000,-7.000000,6.000000,-98.000000,-39.000000,-17.000000,44.000000,11.000000
1303455.015238,15.000000,10.000000,47.000000,-38.000000,-15.000000,-3.000000,-22.000000,-8.000000
1303455.052136,-63.000000,-8.000000,-29.000000,-41.000000,-13.000000,-36.000000,-25.000000,-42.000000
1303455.052145,18.000000,1.000000,-12.000000,-41.000000,-28.000000,-10.000000,-2.000000,10.000000
1303455.082381,-41.000000,-2.000000,-23.000000,127.000000,64.000000,11.000000,68.000000,47.000000
1303455.082392,-1.000000,-3.000000,-99.000000,-59.000000,-51.000000,-14.000000,-33.000000,-32.000000
1303455.083293,32.000000,2.000000,127.000000,127.000000,127.000000,22.000000,1.000000,7.000000
1303455.083300,-1.000000,-3.000000,-29.000000,-93.000000,-24.000000,-3.000000,-7.000000,-32.000000
1303455.083800,17.000000,4.000000,-25.000000,-21.000000,-3.000000,-10.000000,10.000000,47.000000
1303455.083808,-8.000000,-1.000000,-33.000000,-56.000000,-16.000000,-7.000000,0.000000,-8.000000
1303455.085041,-9.000000,7.000000,-1.000000,-79.000000,-22.000000,-16.000000,-58.000000,-38.000000
1303455.085049,-10.000000,3.000000,1.000000,51.000000,13.000000,-5.000000,67.000000,18.000000
1303455.086135,-11.000000,-1.000000,-70.000000,-128.000000,-75.000000,-37.000000,-43.000000,-18.000000
1303455.086145,12.000000,-6.000000,58.000000,35.000000,54.000000,48.000000,40.000000,-4.000000
1303455.104673,-15.000000,8.000000,69.000000,127.000000,127.000000,34.000000,-8.000000,47.000000
1303455.104718,-14.000000,1.000000,-44.000000,-65.000000,-23.000000,-19.000000,-62.000000,-85.000000
1303455.142269,62.000000,-10.000000,-14.000000,-34.000000,-10.000000,-3.000000,13.000000,14.000000
1303455.142284,16.000000,7.000000,50.000000,122.000000,12.000000,-7.000000,-4.000000,13.000000
1303455.149726,-8.000000,-6.000000,-54.000000,-12.000000,5.000000,10.000000,-35.000000,35.000000
1303455.149743,15.000000,3.000000,-10.000000,-22.000000,-18.000000,-30.000000,-46.000000,-51.000000
1303455.187274,-46.000000,-4.000000,-12.000000,4.000000,-5.000000,-8.000000,-4.000000,8.000000
1303455.187322,4.000000,6.000000,-1.000000,-74.000000,-23.000000,-7.000000,-62.000000,-51.000000
1303455.187925,-1.000000,-6.000000,38.000000,37.000000,15.000000,14.000000,-91.000000,-41.000000
1303455.187933,25.000000,3.000000,-32.000000,-38.000000,-12.000000,-16.000000,97.000000,104.000000
1303455.188796,-16.000000,2.000000,-16.000000,57.000000,-31.000000,-8.000000,67.000000,58.000000
1303455.188804,0.000000,-7.000000,5.000000,-128.000000,-59.000000,-15.000000,32.000000,-23.000000
1303455.189458,33.000000,0.000000,69.000000,119.000000,59.000000,19.000000,19.000000,-23.000000
1303455.189466,8.000000,-6.000000,19.000000,-75.000000,-34.000000,1.000000,-2.000000,-32.000000
1303455.190129,-2.000000,2.000000,21.000000,-62.000000,-29.000000,-17.000000,-69.000000,-7.000000
1303455.190156,2.000000,7.000000,-43.000000,-34.000000,-4.000000,-1.000000,62.000000,5.000000
1303455.202041,-18.000000,1.000000,-4.000000,-57.000000,-18.000000,-7.000000,-61.000000,-28.000000
1303455.202051,-17.000000,-4.000000,15.000000,34.000000,-10.000000,0.000000,116.000000,-9.000000
1303455.209903,3.000000,-2.000000,-41.000000,-50.000000,-15.000000,-31.000000,-60.000000,-15.000000
1303455.209914,-8.000000,1.000000,17.000000,47.000000,28.000000,-8.000000,-24.000000,18.000000
1303455.247533,-16.000000,-6.000000,15.000000,97.000000,23.000000,16.000000,-12.000000,46.000000
1303455.247569,-3.000000,-2.000000,-8.000000,-12.000000,-13.000000,-15.000000,5.000000,-15.000000
1303455.262294,-3.000000,-3.000000,61.000000,-11.000000,2.000000,-6.000000,-27.000000,-23.000000
1303455.262325,-8.000000,-6.000000,22.000000,49.000000,-3.000000,-2.000000,8.000000,-10.000000
1303455.285032,3.000000,5.000000,-63.000000,-125.000000,-75.000000,-30.000000,-91.000000,-63.000000
1303455.285041,21.000000,2.000000,1.000000,127.000000,127.000000,74.000000,127.000000,70.000000
1303455.285849,-28.000000,-3.000000,14.000000,-49.000000,-32.000000,-17.000000,12.000000,10.000000
1303455.285861,-3.000000,-4.000000,-5.000000,-107.000000,-8.000000,5.000000,-102.000000,-75.000000
1303455.287432,12.000000,5.000000,32.000000,127.000000,94.000000,19.000000,120.000000,46.000000
1303455.287442,2.000000,2.000000,-41.000000,-45.000000,-21.000000,-24.000000,-49.000000,-5.000000
1303455.287966,22.000000,7.000000,-60.000000,-32.000000,-22.000000,-13.000000,-20.000000,-35.000000
1303455.287997,15.000000,-2.000000,50.000000,67.000000,40.000000,22.000000,13.000000,33.000000
1303455.288574,13.000000,0.000000,34.000000,6.000000,-8.000000,-7.000000,-11.000000,-33.000000
1303455.288582,8.000000,-8.000000,-17.000000,1.000000,-13.000000,12.000000,5.000000,-13.000000
1303455.299918,19.000000,-1.000000,12.000000,-62.000000,-37.000000,-32.000000,-90.000000,-18.000000
1303455.299966,62.000000,-1.000000,86.000000,-35.000000,-53.000000,-5.000000,10.000000,-20.000000
1303455.307504,-37.000000,-5.000000,12.000000,-34.000000,40.000000,35.000000,-15.000000,10.000000
1303455.307557,9.000000,-5.000000,-12.000000,121.000000,-13.000000,-16.000000,-7.000000,8.000000
1303455.323015,-33.000000,-6.000000,32.000000,-41.000000,-22.000000,-8.000000,-6.000000,0.000000
1303455.323038,-7.000000,-2.000000,-33.000000,-77.000000,-36.000000,-4.000000,-49.000000,-32.000000
1303455.344514,-25.000000,12.000000,27.000000,-50.000000,-17.000000,-22.000000,-52.000000,8.000000
1303455.344525,-7.000000,-1.000000,23.000000,19.000000,5.000000,4.000000,-15.000000,17.000000
1303455.359532,-8.000000,5.000000,-10.000000,17.000000,-4.000000,0.000000,-10.000000,-4.000000
1303455.359542,20.000000,0.000000,38.000000,68.000000,-7.000000,-1.000000,-5.000000,-14.000000
1303455.374851,-1.000000,-4.000000,-23.000000,-54.000000,-32.000000,-16.000000,-8.000000,5.000000
1303455.374864,-81.000000,5.000000,-31.000000,-3.000000,26.000000,3.000000,0.000000,-27.000000
1303455.404623,4.000000,-4.000000,7.000000,127.000000,56.000000,24.000000,25.000000,43.000000
1303455.404642,36.000000,4.000000,10.000000,-60.000000,-34.000000,8.000000,30.000000,29.000000
1303455.404941,-6.000000,2.000000,1.000000,-26.000000,-11.000000,-28.000000,-90.000000,-68.000000
1303455.404949,9.000000,-6.000000,6.000000,14.000000,-12.000000,-6.000000,1.000000,-35.000000
1303455.406280,-12.000000,-3.000000,46.000000,-103.000000,-28.000000,-9.000000,14.000000,67.000000
1303455.406289,-14.000000,0.000000,-33.000000,0.000000,36.000000,10.000000,30.000000,42.000000
1303455.406904,-15.000000,2.000000,13.000000,45.000000,17.000000,8.000000,-81.000000,-57.000000
1303455.406922,68.000000,3.000000,56.000000,71.000000,-2.000000,22.000000,99.000000,44.000000
1303455.408280,-59.000000,-9.000000,28.000000,-36.000000,-12.000000,-17.000000,-36.000000,-1.000000
1303455.408288,-2.000000,0.000000,55.000000,-109.000000,-23.000000,-35.000000,-72.000000,-57.000000
1303455.420355,-22.000000,0.000000,2.000000,49.000000,9.000000,-1.000000,-28.000000,-35.000000
1303455.420364,21.000000,-4.000000,-20.000000,-32.000000,-1.000000,1.000000,5.000000,10.000000
1303455.427359,15.000000,-5.000000,-13.000000,-67.000000,-22.000000,-4.000000,-1.000000,-12.000000
1303455.427370,0.000000,1.000000,7.000000,16.000000,-2.000000,-9.000000,-46.000000,-39.000000
1303455.442696,-5.000000,0.000000,-47.000000,-128.000000,-30.000000,-20.000000,-31.000000,0.000000
1303455.442717,23.000000,7.000000,55.000000,127.000000,59.000000,35.000000,64.000000,47.000000
1303455.449283,34.000000,1.000000,-10.000000,-116.000000,-31.000000,-30.000000,-37.000000,23.000000
1303455.449293,-3.000000,6.000000,-25.000000,-37.000000,-7.000000,2.000000,-12.000000,-2.000000
1303455.479734,8.000000,6.000000,7.000000,-10.000000,-23.000000,-6.000000,-62.000000,-78.000000
1303455.479746,9.000000,0.000000,-14.000000,8.000000,-4.000000,-20.000000,-115.000000,-14.000000
1303455.487154,127.000000,-4.000000,-8.000000,17.000000,-7.000000,17.000000,95.000000,33.000000
1303455.487164,-32.000000,-2.000000,69.000000,50.000000,31.000000,29.000000,127.000000,89.000000
1303455.517235,-42.000000,-10.000000,38.000000,-12.000000,7.000000,8.000000,-38.000000,33.000000
1303455.517246,6.000000,-1.000000,-24.000000,-44.000000,-33.000000,-10.000000,-20.000000,-15.000000
1303455.524632,30.000000,1.000000,46.000000,-33.000000,-26.000000,1.000000,-55.000000,-34.000000
1303455.524642,5.000000,-3.000000,27.000000,1.000000,-4.000000,5.000000,-19.000000,-20.000000
1303455.539676,-14.000000,2.000000,-29.000000,-87.000000,-30.000000,1.000000,-27.000000,-15.000000
1303455.539692,22.000000,-5.000000,48.000000,127.000000,57.000000,9.000000,25.000000,12.000000
1303455.562312,-44.000000,2.000000,15.000000,-19.000000,-16.000000,-6.000000,-35.000000,-27.000000
1303455.562323,11.000000,3.000000,-1.000000,-38.000000,-8.000000,10.000000,-3.000000,-6.000000
1303455.563206,113.000000,4.000000,0.000000,-24.000000,-22.000000,14.000000,89.000000,14.000000
1303455.563214,-11.000000,6.000000,-5.000000,-9.000000,-17.000000,34.000000,100.000000,127.000000
1303455.584561,-34.000000,-2.000000,29.000000,-35.000000,15.000000,49.000000,-72.000000,-41.000000
1303455.584576,127.000000,1.000000,-12.000000,63.000000,28.000000,-7.000000,-27.000000,-21.000000
1303455.599631,127.000000,0.000000,-7.000000,-4.000000,4.000000,22.000000,22.000000,42.000000
1303455.599649,-128.000000,-4.000000,37.000000,-49.000000,-43.000000,-23.000000,-51.000000,-64.000000
1303455.614966,19.000000,4.000000,-10.000000,51.000000,24.000000,20.000000,24.000000,13.000000
1303455.614981,-7.000000,1.000000,-8.000000,12.000000,-7.000000,-10.000000,-21.000000,-21.000000
1303455.637184,20.000000,3.000000,-17.000000,-26.000000,-9.000000,17.000000,2.000000,-5.000000
1303455.637196,61.000000,6.000000,-33.000000,-115.000000,-29.000000,-13.000000,-128.000000,-85.000000
1303455.660179,17.000000,0.000000,93.000000,-21.000000,0.000000,-6.000000,-74.000000,-55.000000
1303455.660189,1.000000,-6.000000,-125.000000,-93.000000,-40.000000,-1.000000,-70.000000,-28.000000
1303455.661208,8.000000,0.000000,9.000000,22.000000,19.000000,12.000000,28.000000,21.000000
1303455.661216,8.000000,-3.000000,-104.000000,-72.000000,5.000000,-21.000000,2.000000,4.000000
1303455.662629,-64.000000,7.000000,118.000000,61.000000,-8.000000,24.000000,-38.000000,-55.000000
1303455.662637,-50.000000,-6.000000,-66.000000,6.000000,53.000000,-84.000000,-23.000000,49.000000
1303455.682185,9.000000,-6.000000,16.000000,-64.000000,-11.000000,-6.000000,22.000000,18.000000
1303455.682196,12.000000,-5.000000,9.000000,51.000000,14.000000,12.000000,2.000000,4.000000
1303455.704790,-7.000000,3.000000,47.000000,79.000000,23.000000,-26.000000,-48.000000,-24.000000
1303455.704800,-25.000000,-1.000000,-1.000000,-9.000000,-4.000000,7.000000,-5.000000,-12.000000
1303455.720110,26.000000,2.000000,1.000000,33.000000,5.000000,14.000000,0.000000,5.000000
1303455.720127,-42.000000,-9.000000,59.000000,-26.000000,0.000000,5.000000,14.000000,1.000000
1303455.757509,-32.000000,-2.000000,-76.000000,-4.000000,3.000000,8.000000,32.000000,35.000000
1303455.757523,-38.000000,-1.000000,42.000000,41.000000,13.000000,-51.000000,-43.000000,-16.000000
1303455.764755,-20.000000,3.000000,-128.000000,-52.000000,19.000000,-4.000000,-34.000000,-32.000000
1303455.764767,34.000000,-2.000000,96.000000,29.000000,-8.000000,-13.000000,-5.000000,31.000000
1303455.779496,30.000000,14.000000,-74.000000,7.000000,18.000000,29.000000,48.000000,-15.000000
1303455.779521,-128.000000,0.000000,127.000000,17.000000,-12.000000,-55.000000,-20.000000,-3.000000
1303455.795452,91.000000,-6.000000,9.000000,11.000000,23.000000,66.000000,-37.000000,-27.000000
1303455.795465,-97.000000,-10.000000,-105.000000,-128.000000,-38.000000,-54.000000,-92.000000,-92.000000
1303455.802714,-3.000000,-19.000000,21.000000,-77.000000,-13.000000,-4.000000,-1.000000,-4.000000
1303455.802726,-20.000000,-5.000000,127.000000,-4.000000,-6.000000,2.000000,8.000000,4.000000
1303455.803938,2.000000,8.000000,-37.000000,24.000000,-1.000000,-8.000000,6.000000,11.000000
1303455.803948,-2.000000,3.000000,127.000000,45.000000,23.000000,44.000000,50.000000,-3.000000
1303455.804515,-44.000000,3.000000,11.000000,-11.000000,-39.000000,-24.000000,-26.000000,-27.000000
1303455.804524,-11.000000,-9.000000,-128.000000,74.000000,10.000000,-87.000000,-29.000000,-84.000000
1303455.809823,-33.000000,-7.000000,52.000000,83.000000,6.000000,-48.000000,3.000000,12.000000
1303455.809835,-16.000000,-19.000000,111.000000,86.000000,-11.000000,-24.000000,-25.000000,-9.000000
1303455.832275,37.000000,-14.000000,8.000000,-70.000000,-8.000000,47.000000,24.000000,18.000000
1303455.832291,-57.000000,-9.000000,-10.000000,2.000000,7.000000,5.000000,-1.000000,-3.000000
1303455.839528,-79.000000,-5.000000,-128.000000,-83.000000,-8.000000,-16.000000,-19.000000,-30.000000
1303455.839556,-6.000000,2.000000,127.000000,77.000000,-3.000000,-12.000000,-43.000000,-13.000000
1303455.862060,16.000000,5.000000,-57.000000,-17.000000,4.000000,1.000000,-4.000000,-5.000000
1303455.862080,-6.000000,6.000000,-72.000000,-62.000000,-13.000000,-13.000000,-16.000000,-10.000000
1303455.877141,35.000000,9.000000,-19.000000,24.000000,6.000000,15.000000,7.000000,8.000000
1303455.877158,-37.000000,-17.000000,-73.000000,-85.000000,-12.000000,13.000000,30.000000,11.000000
1303455.892257,-39.000000,5.000000,-11.000000,-39.000000,10.000000,-92.000000,-85.000000,-19.000000
1303455.892296,14.000000,-8.000000,-39.000000,5.000000,-12.000000,-29.000000,-12.000000,-1.000000
1303455.899503,-14.000000,-9.000000,-16.000000,-62.000000,-14.000000,77.000000,72.000000,2.000000
1303455.899513,15.000000,1.000000,2.000000,-128.000000,-72.000000,-20.000000,-8.000000,3.000000
1303455.900599,11.000000,-17.000000,53.000000,127.000000,121.000000,35.000000,48.000000,24.000000
1303455.900608,32.000000,0.000000,-68.000000,-73.000000,-15.000000,-42.000000,-13.000000,17.000000
1303455.901260,-31.000000,1.000000,78.000000,127.000000,-7.000000,3.000000,42.000000,27.000000
1303455.901269,-35.000000,-16.000000,-128.000000,-128.000000,-51.000000,-16.000000,-20.000000,-22.000000
1303455.902953,-13.000000,-12.000000,-102.000000,-33.000000,4.000000,3.000000,-23.000000,-10.000000
1303455.902972,-11.000000,12.000000,-31.000000,57.000000,-3.000000,-7.000000,-45.000000,-30.000000
1303455.914490,30.000000,14.000000,127.000000,126.000000,-5.000000,-2.000000,16.000000,-17.000000
1303455.914500,-16.000000,7.000000,-128.000000,-128.000000,-9.000000,8.000000,9.000000,37.000000
1303455.937358,-1.000000,-5.000000,-12.000000,-53.000000,15.000000,11.000000,-19.000000,-15.000000
1303455.937368,-23.000000,1.000000,48.000000,21.000000,-11.000000,25.000000,-128.000000,-89.000000
1303455.959624,-3.000000,-6.000000,-18.000000,8.000000,24.000000,-5.000000,127.000000,7.000000
1303455.959653,-16.000000,35.000000,9.000000,127.000000,23.000000,41.000000,-9.000000,82.000000
1303455.982326,72.000000,-17.000000,114.000000,-1.000000,4.000000,-10.000000,-128.000000,-68.000000
1303455.982340,-126.000000,47.000000,-9.000000,-35.000000,-24.000000,-57.000000,-121.000000,-54.000000
1303455.997307,-61.000000,-24.000000,-59.000000,5.000000,-15.000000,19.000000,127.000000,39.000000
1303455.997326,51.000000,5.000000,31.000000,-18.000000,21.000000,52.000000,127.000000,127.000000
1303455.998338,81.000000,11.000000,-8.000000,69.000000,12.000000,49.000000,87.000000,-3.000000
1303455.998360,-11.000000,11.000000,-9.000000,-104.000000,-17.000000,-23.000000,-128.000000,-100.000000
1303455.998782,11.000000,-23.000000,5.000000,104.000000,17.000000,16.000000,127.000000,-41.000000
1303455.998791,-1.000000,-4.000000,-16.000000,-95.000000,-11.000000,14.000000,-70.000000,37.000000
1303456.000625,-9.000000,0.000000,-3.000000,-128.000000,-21.000000,0.000000,-38.000000,-61.000000
1303456.000664,-17.000000,-5.000000,-126.000000,-99.000000,14.000000,-7.000000,-35.000000,-11.000000
1303456.012221,66.000000,-30.000000,51.000000,-11.000000,33.000000,127.000000,127.000000,127.000000
1303456.012232,-18.000000,-3.000000,-31.000000,10.000000,-13.000000,-63.000000,52.000000,-106.000000
1303456.020338,29.000000,-6.000000,25.000000,-2.000000,3.000000,-17.000000,-128.000000,66.000000
1303456.020351,1.000000,-11.000000,-85.000000,-73.000000,-24.000000,9.000000,127.000000,-6.000000
1303456.034587,67.000000,-1.000000,27.000000,107.000000,-2.000000,-4.000000,-128.000000,-104.000000
1303456.034598,0.000000,8.000000,20.000000,22.000000,17.000000,53.000000,127.000000,127.000000
1303456.042321,10.000000,11.000000,72.000000,-5.000000,-10.000000,-39.000000,-128.000000,-128.000000
1303456.042332,84.000000,-8.000000,-52.000000,-38.000000,-9.000000,0.000000,63.000000,127.000000
1303456.057279,-128.000000,-14.000000,28.000000,92.000000,22.000000,13.000000,6.000000,-92.000000
1303456.057308,6.000000,4.000000,-128.000000,-113.000000,-36.000000,-23.000000,-36.000000,-10.000000
1303456.095004,-3.000000,0.000000,-26.000000,127.000000,36.000000,-26.000000,-128.000000,-64.000000
1303456.095022,4.000000,0.000000,-42.000000,-128.000000,-20.000000,35.000000,127.000000,-53.000000
1303456.117326,2.000000,-1.000000,8.000000,-24.000000,-12.000000,-12.000000,35.000000,-37.000000
1303456.117356,28.000000,-23.000000,-13.000000,64.000000,21.000000,10.000000,127.000000,-37.000000
1303456.118184,52.000000,-3.000000,50.000000,0.000000,11.000000,10.000000,17.000000,127.000000
1303456.118214,-17.000000,19.000000,32.000000,12.000000,-36.000000,-5.000000,-128.000000,-128.000000
1303456.119066,6.000000,6.000000,11.000000,-5.000000,-19.000000,-26.000000,-128.000000,-128.000000
1303456.119099,-51.000000,-6.000000,-36.000000,-128.000000,-44.000000,-30.000000,-89.000000,-128.000000
1303456.120327,-16.000000,-4.000000,24.000000,29.000000,23.000000,0.000000,-128.000000,3.000000
1303456.120355,28.000000,-1.000000,-74.000000,-43.000000,-15.000000,26.000000,127.000000,127.000000
1303456.121315,22.000000,3.000000,20.000000,56.000000,8.000000,-13.000000,-128.000000,17.000000
1303456.121324,27.000000,-7.000000,65.000000,-128.000000,-45.000000,15.000000,127.000000,110.000000
1303456.132174,97.000000,-27.000000,-7.000000,-68.000000,-21.000000,5.000000,-128.000000,93.000000
1303456.132184,-58.000000,-128.000000,-48.000000,-12.000000,-1.000000,31.000000,127.000000,-42.000000
1303456.139892,33.000000,-8.000000,48.000000,73.000000,17.000000,-5.000000,-118.000000,95.000000
1303456.139939,21.000000,7.000000,53.000000,2.000000,-4.000000,-5.000000,-105.000000,-101.000000
1303456.147356,-70.000000,-8.000000,-34.000000,-128.000000,-49.000000,-26.000000,-57.000000,-44.000000
1303456.147369,7.000000,-13.000000,60.000000,127.000000,105.000000,36.000000,16.000000,-12.000000
1303456.162309,9.000000,15.000000,-111.000000,-49.000000,1.000000,-20.000000,36.000000,7.000000
1303456.162330,14.000000,-3.000000,4.000000,-12.000000,4.000000,2.000000,29.000000,25.000000
1303456.177419,11.000000,17.000000,-9.000000,-44.000000,-40.000000,-51.000000,-128.000000,-128.000000
1303456.177433,127.000000,-6.000000,-22.000000,-3.000000,7.000000,57.000000,127.000000,127.000000
1303456.214654,-7.000000,-1.000000,48.000000,40.000000,1.000000,-18.000000,-128.000000,-128.000000
1303456.214683,12.000000,-17.000000,-36.000000,-91.000000,-4.000000,30.000000,127.000000,127.000000
1303456.237108,24.000000,-9.000000,69.000000,117.000000,36.000000,-20.000000,-128.000000,31.000000
1303456.237119,-13.000000,3.000000,-51.000000,-54.000000,-29.000000,-15.000000,-30.000000,-112.000000
1303456.238202,1.000000,-54.000000,13.000000,-5.000000,1.000000,8.000000,-12.000000,21.000000
1303456.238221,-11.000000,26.000000,7.000000,127.000000,18.000000,15.000000,25.000000,0.000000
1303456.238843,-20.000000,12.000000,36.000000,-128.000000,-27.000000,-6.000000,-24.000000,8.000000
1303456.238852,11.000000,3.000000,54.000000,35.000000,16.000000,11.000000,-13.000000,-15.000000
1303456.240250,-14.000000,-1.000000,36.000000,98.000000,21.000000,6.000000,-15.000000,-32.000000
1303456.240264,7.000000,6.000000,-96.000000,32.000000,-29.000000,-13.000000,20.000000,0.000000
1303456.241101,36.000000,-5.000000,23.000000,30.000000,13.000000,-1.000000,-24.000000,14.000000
1303456.241113,26.000000,-6.000000,42.000000,-60.000000,-7.000000,11.000000,107.000000,56.000000
1303456.252139,-7.000000,-5.000000,-24.000000,-76.000000,-27.000000,-5.000000,88.000000,-108.000000
1303456.252151,43.000000,13.000000,57.000000,103.000000,89.000000,48.000000,-49.000000,127.000000
1303456.274482,11.000000,17.000000,-11.000000,-15.000000,2.000000,-23.000000,-128.000000,-128.000000
1303456.274494,44.000000,-1.000000,-6.000000,-73.000000,-47.000000,-31.000000,-128.000000,-128.000000
1303456.274992,-78.000000,-2.000000,-9.000000,-49.000000,2.000000,-17.000000,127.000000,127.000000
1303456.275002,35.000000,80.000000,-14.000000,14.000000,0.000000,1.000000,12.000000,102.000000
1303456.289569,-39.000000,-7.000000,4.000000,86.000000,-25.000000,-35.000000,-128.000000,-128.000000
1303456.289598,5.000000,-7.000000,-62.000000,44.000000,-20.000000,-2.000000,49.000000,91.000000
1303456.297163,-2.000000,-2.000000,48.000000,-27.000000,4.000000,21.000000,127.000000,-47.000000
1303456.297172,21.000000,-10.000000,28.000000,30.000000,-1.000000,-3.000000,39.000000,-76.000000
1303456.312517,5.000000,-3.000000,24.000000,-122.000000,-16.000000,7.000000,-1.000000,3.000000
1303456.312529,-6.000000,-2.000000,-34.000000,46.000000,-8.000000,-3.000000,-49.000000,-28.000000
1303456.313119,-20.000000,1.000000,-37.000000,-66.000000,-24.000000,-16.000000,-48.000000,-20.000000
1303456.313127,-3.000000,-5.000000,14.000000,127.000000,64.000000,3.000000,74.000000,-38.000000
1303456.319753,21.000000,9.000000,82.000000,7.000000,2.000000,0.000000,-71.000000,89.000000
1303456.319763,-11.000000,-3.000000,38.000000,-46.000000,-20.000000,-59.000000,19.000000,-66.000000
1303456.334759,-42.000000,8.000000,-23.000000,-30.000000,5.000000,71.000000,-59.000000,-17.000000
1303456.334774,47.000000,2.000000,-22.000000,13.000000,-3.000000,-3.000000,127.000000,19.000000
1303456.357103,8.000000,-2.000000,-16.000000,-71.000000,-22.000000,9.000000,127.000000,127.000000
1303456.357113,78.000000,-1.000000,3.000000,127.000000,50.000000,-6.000000,-128.000000,111.000000
1303456.364667,41.000000,-3.000000,62.000000,-69.000000,-22.000000,-48.000000,-74.000000,-80.000000
1303456.364676,-40.000000,-18.000000,10.000000,127.000000,6.000000,6.000000,-128.000000,-87.000000
1303456.394370,28.000000,-6.000000,23.000000,17.000000,-14.000000,-31.000000,-128.000000,-53.000000
1303456.394381,-5.000000,-2.000000,-4.000000,-43.000000,3.000000,39.000000,127.000000,110.000000
1303456.394939,5.000000,2.000000,-36.000000,-17.000000,17.000000,9.000000,-89.000000,78.000000
1303456.394946,-4.000000,3.000000,-26.000000,-13.000000,-16.000000,-22.000000,-128.000000,-70.000000
1303456.396129,-6.000000,1.000000,31.000000,73.000000,0.000000,-4.000000,26.000000,-48.000000
1303456.396137,-19.000000,-2.000000,-57.000000,127.000000,-30.000000,-25.000000,-1.000000,-1.000000
1303456.396785,-27.000000,0.000000,10.000000,-128.000000,-13.000000,-7.000000,-127.000000,-69.000000
1303456.396793,58.000000,2.000000,-55.000000,127.000000,7.000000,46.000000,127.000000,120.000000
1303456.409706,-4.000000,-5.000000,42.000000,-53.000000,13.000000,11.000000,-22.000000,-14.000000
1303456.409716,-37.000000,0.000000,-27.000000,-37.000000,-31.000000,-25.000000,-76.000000,-61.000000
1303456.417111,37.000000,3.000000,-44.000000,63.000000,29.000000,12.000000,127.000000,-58.000000
1303456.417134,-52.000000,14.000000,-24.000000,73.000000,22.000000,15.000000,-68.000000,84.000000
1303456.455221,7.000000,11.000000,14.000000,-16.000000,-21.000000,-44.000000,-128.000000,-32.000000
1303456.455231,-2.000000,6.000000,-8.000000,-60.000000,4.000000,3.000000,127.000000,125.000000
1303456.455495,-12.000000,-3.000000,8.000000,35.000000,-11.000000,46.000000,-55.000000,-82.000000
1303456.455507,2.000000,-4.000000,-13.000000,-61.000000,2.000000,21.000000,-106.000000,9.000000
1303456.456290,18.000000,-17.000000,2.000000,-63.000000,-5.000000,-16.000000,127.000000,51.000000
1303456.456298,-15.000000,-11.000000,-31.000000,-66.000000,-10.000000,-20.000000,-98.000000,-75.000000
1303456.456893,5.000000,11.000000,64.000000,70.000000,4.000000,-6.000000,127.000000,-10.000000
1303456.456901,0.000000,-7.000000,27.000000,-9.000000,3.000000,8.000000,-45.000000,-22.000000
1303456.469706,-6.000000,-3.000000,44.000000,-25.000000,-12.000000,-3.000000,-8.000000,-13.000000
1303456.469771,-25.000000,-3.000000,-77.000000,-128.000000,-35.000000,-40.000000,-85.000000,-74.000000
1303456.470231,18.000000,3.000000,-40.000000,96.000000,110.000000,53.000000,127.000000,60.000000
1303456.470247,-27.000000,-2.000000,7.000000,-50.000000,-21.000000,-4.000000,-51.000000,-15.000000
1303456.492427,-9.000000,-3.000000,7.000000,-28.000000,-3.000000,-10.000000,-95.000000,-90.000000
1303456.492440,44.000000,-5.000000,-17.000000,2.000000,11.000000,18.000000,127.000000,113.000000
1303456.492843,-10.000000,8.000000,39.000000,-30.000000,-31.000000,-59.000000,-128.000000,-128.000000
1303456.492854,-24.000000,-5.000000,-37.000000,-10.000000,22.000000,69.000000,127.000000,127.000000
1303456.514636,52.000000,0.000000,4.000000,-3.000000,7.000000,-4.000000,-128.000000,-2.000000
1303456.514654,0.000000,12.000000,-4.000000,-44.000000,-9.000000,-2.000000,27.000000,-7.000000
1303456.515776,-25.000000,-5.000000,1.000000,112.000000,27.000000,-12.000000,-68.000000,-35.000000
1303456.515784,-6.000000,3.000000,1.000000,-4.000000,-13.000000,-4.000000,-43.000000,-73.000000
1303456.529639,15.000000,-3.000000,31.000000,84.000000,11.000000,20.000000,127.000000,34.000000
1303456.529650,-40.000000,1.000000,-41.000000,64.000000,10.000000,-15.000000,-86.000000,-68.000000
1303456.574521,-19.000000,-1.000000,-12.000000,-102.000000,-19.000000,5.000000,90.000000,4.000000
1303456.574542,8.000000,-6.000000,26.000000,-15.000000,-24.000000,-22.000000,-108.000000,-40.000000
1303456.575132,-1.000000,2.000000,-22.000000,57.000000,10.000000,6.000000,79.000000,38.000000
1303456.575150,-7.000000,3.000000,-34.000000,72.000000,36.000000,31.000000,-21.000000,-20.000000
1303456.576219,5.000000,-3.000000,49.000000,-67.000000,-40.000000,-14.000000,-7.000000,-29.000000
1303456.576232,-18.000000,6.000000,-65.000000,55.000000,28.000000,11.000000,40.000000,-14.000000
1303456.576803,26.000000,7.000000,-19.000000,-100.000000,-23.000000,-2.000000,-30.000000,126.000000
1303456.576812,-26.000000,-2.000000,14.000000,72.000000,2.000000,-39.000000,-45.000000,11.000000
1303456.578337,29.000000,2.000000,2.000000,127.000000,56.000000,10.000000,50.000000,21.000000
1303456.578346,-15.000000,-10.000000,-33.000000,-43.000000,-33.000000,-14.000000,-59.000000,-52.000000
1303456.589813,46.000000,-3.000000,4.000000,27.000000,17.000000,30.000000,15.000000,127.000000
1303456.589825,5.000000,5.000000,18.000000,-20.000000,-16.000000,-3.000000,-25.000000,-44.000000
1303456.590968,-24.000000,2.000000,-16.000000,-1.000000,-7.000000,-18.000000,-115.000000,-105.000000
1303456.590978,-33.000000,-3.000000,-41.000000,-42.000000,-11.000000,-3.000000,-48.000000,-62.000000
1303456.597195,28.000000,0.000000,-21.000000,85.000000,10.000000,11.000000,85.000000,11.000000
1303456.597207,32.000000,-1.000000,82.000000,-40.000000,-6.000000,23.000000,49.000000,97.000000
1303456.612742,-16.000000,4.000000,8.000000,50.000000,-23.000000,-25.000000,-63.000000,-26.000000
1303456.612766,-20.000000,1.000000,15.000000,-7.000000,-11.000000,0.000000,10.000000,-13.000000
1303456.627054,-24.000000,-3.000000,-16.000000,15.000000,-6.000000,2.000000,-12.000000,-12.000000
1303456.627065,34.000000,1.000000,-78.000000,-82.000000,-19.000000,-6.000000,-27.000000,-15.000000
1303456.642224,-21.000000,-1.000000,36.000000,26.000000,-25.000000,-10.000000,22.000000,16.000000
1303456.642236,27.000000,-4.000000,-27.000000,-88.000000,0.000000,11.000000,-39.000000,-51.000000
1303456.649757,-4.000000,1.000000,8.000000,1.000000,2.000000,1.000000,11.000000,65.000000
1303456.649775,-2.000000,3.000000,-32.000000,-77.000000,-16.000000,-18.000000,-128.000000,-33.000000
1303456.664575,-5.000000,-1.000000,-15.000000,-44.000000,-14.000000,-2.000000,127.000000,2.000000
1303456.664592,-15.000000,2.000000,19.000000,87.000000,46.000000,29.000000,119.000000,106.000000
1303456.679848,76.000000,0.000000,2.000000,103.000000,49.000000,-10.000000,-90.000000,61.000000
1303456.679859,-23.000000,8.000000,64.000000,127.000000,-10.000000,-9.000000,127.000000,-20.000000
1303456.694761,-3.000000,-6.000000,38.000000,-116.000000,-13.000000,-3.000000,-66.000000,58.000000
1303456.694772,-30.000000,2.000000,-19.000000,83.000000,5.000000,-20.000000,-52.000000,-105.000000
1303456.709690,-15.000000,-4.000000,-96.000000,-74.000000,-31.000000,2.000000,-47.000000,-22.000000
1303456.709700,7.000000,-1.000000,49.000000,21.000000,3.000000,1.000000,24.000000,-36.000000
1303456.732704,21.000000,2.000000,70.000000,44.000000,15.000000,23.000000,67.000000,56.000000
1303456.732714,-25.000000,7.000000,43.000000,-80.000000,-14.000000,-50.000000,-83.000000,-18.000000
1303456.733312,-14.000000,-3.000000,-128.000000,-19.000000,27.000000,-5.000000,-67.000000,-42.000000
1303456.733320,-28.000000,-2.000000,68.000000,106.000000,42.000000,23.000000,58.000000,-3.000000
1303456.734327,57.000000,-1.000000,-22.000000,-75.000000,-7.000000,0.000000,10.000000,46.000000
1303456.734335,-4.000000,-3.000000,5.000000,7.000000,-8.000000,-4.000000,-106.000000,-41.000000
1303456.735144,-18.000000,-6.000000,0.000000,-35.000000,-9.000000,3.000000,6.000000,-63.000000
1303456.735154,-35.000000,-5.000000,-32.000000,25.000000,15.000000,9.000000,111.000000,127.000000
1303456.747204,5.000000,3.000000,62.000000,-20.000000,-9.000000,20.000000,127.000000,88.000000
1303456.747214,66.000000,0.000000,27.000000,49.000000,13.000000,19.000000,-14.000000,16.000000
1303456.792350,-45.000000,-1.000000,-34.000000,30.000000,11.000000,-21.000000,-85.000000,-82.000000
1303456.792364,-9.000000,-4.000000,-52.000000,-21.000000,-25.000000,2.000000,44.000000,2.000000
1303456.807263,2.000000,0.000000,-27.000000,-53.000000,-14.000000,-12.000000,11.000000,33.000000
1303456.807272,12.000000,-2.000000,15.000000,80.000000,82.000000,30.000000,27.000000,-5.000000
1303456.852170,6.000000,3.000000,-44.000000,-128.000000,-58.000000,-14.000000,-24.000000,-4.000000
1303456.852189,32.000000,1.000000,57.000000,127.000000,127.000000,18.000000,32.000000,3.000000
1303456.867297,-21.000000,-12.000000,8.000000,-114.000000,-41.000000,-26.000000,-107.000000,-12.000000
1303456.867308,-13.000000,3.000000,-4.000000,-14.000000,-31.000000,-9.000000,127.000000,56.000000
1303456.882221,7.000000,2.000000,20.000000,-12.000000,0.000000,-2.000000,32.000000,25.000000
1303456.882231,-5.000000,-4.000000,10.000000,-3.000000,-6.000000,-2.000000,-16.000000,-37.000000
1303456.919696,-14.000000,-5.000000,-17.000000,-63.000000,-30.000000,-12.000000,-28.000000,-48.000000
1303456.919706,-11.000000,4.000000,4.000000,41.000000,11.000000,-5.000000,-13.000000,-25.000000
1303456.949922,-38.000000,2.000000,13.000000,-128.000000,-61.000000,-21.000000,-59.000000,-128.000000
1303456.949942,19.000000,-8.000000,8.000000,127.000000,54.000000,-1.000000,-61.000000,-24.000000
1303456.972327,6.000000,4.000000,-21.000000,-26.000000,-20.000000,-19.000000,-35.000000,28.000000
1303456.972338,-10.000000,7.000000,25.000000,64.000000,-7.000000,-8.000000,-78.000000,-73.000000
1303457.009655,15.000000,-5.000000,-12.000000,10.000000,-6.000000,15.000000,73.000000,75.000000
1303457.009677,-4.000000,-6.000000,33.000000,-17.000000,-2.000000,-23.000000,31.000000,16.000000
1303457.024862,-40.000000,1.000000,19.000000,43.000000,18.000000,-1.000000,-26.000000,-37.000000
1303457.024873,-10.000000,-9.000000,14.000000,-41.000000,-6.000000,-6.000000,-3.000000,22.000000
1303457.039619,-36.000000,-3.000000,0.000000,-83.000000,-24.000000,-15.000000,-33.000000,-44.000000
1303457.039648,23.000000,3.000000,-5.000000,-29.000000,-12.000000,20.000000,45.000000,31.000000
1303457.046992,-27.000000,0.000000,-1.000000,-7.000000,-13.000000,-3.000000,-28.000000,26.000000
1303457.047008,32.000000,-6.000000,-18.000000,-42.000000,-18.000000,-2.000000,21.000000,-30.000000
1303457.077395,8.000000,1.000000,-10.000000,61.000000,-23.000000,-15.000000,-54.000000,-8.000000
1303457.077412,-8.000000,-6.000000,-18.000000,-89.000000,-23.000000,-3.000000,10.000000,-17.000000
1303457.092062,-24.000000,-4.000000,-25.000000,44.000000,18.000000,13.000000,14.000000,53.000000
1303457.092073,14.000000,-7.000000,-29.000000,-110.000000,-36.000000,-22.000000,-11.000000,-6.000000
1303457.107213,66.000000,-5.000000,87.000000,27.000000,9.000000,35.000000,127.000000,114.000000
1303457.107231,-5.000000,5.000000,-23.000000,10.000000,-9.000000,-15.000000,48.000000,36.000000
1303457.144665,5.000000,-1.000000,-12.000000,-13.000000,-37.000000,-24.000000,-55.000000,-54.000000
1303457.144675,-6.000000,-2.000000,-16.000000,-69.000000,-28.000000,-10.000000,-65.000000,-42.000000
1303457.151949,-23.000000,-2.000000,-56.000000,-76.000000,0.000000,-12.000000,-22.000000,-21.000000
1303457.151959,-1.000000,-5.000000,-52.000000,-128.000000,-62.000000,-16.000000,-24.000000,-28.000000
1303457.189827,0.000000,11.000000,-7.000000,-4.000000,-4.000000,9.000000,33.000000,42.000000
1303457.189899,-16.000000,1.000000,27.000000,46.000000,23.000000,-1.000000,-58.000000,-40.000000
1303457.190510,-21.000000,3.000000,-21.000000,-45.000000,-34.000000,-7.000000,-47.000000,-57.000000
1303457.190519,32.000000,1.000000,-1.000000,-3.000000,-13.000000,4.000000,23.000000,-8.000000
1303457.191253,-21.000000,-2.000000,-55.000000,-75.000000,16.000000,-44.000000,-53.000000,67.000000
1303457.191273,51.000000,0.000000,28.000000,127.000000,-4.000000,1.000000,127.000000,34.000000
1303457.191968,-62.000000,-10.000000,-43.000000,-15.000000,-3.000000,-5.000000,-16.000000,-60.000000
1303457.191976,21.000000,11.000000,38.000000,-27.000000,-8.000000,11.000000,39.000000,94.000000
1303457.193377,38.000000,-3.000000,-12.000000,17.000000,13.000000,10.000000,-21.000000,48.000000
1303457.193398,6.000000,5.000000,-3.000000,-11.000000,-14.000000,24.000000,47.000000,81.000000
1303457.204631,-41.000000,2.000000,-38.000000,-12.000000,-3.000000,-13.000000,-69.000000,-53.000000
1303457.204641,-5.000000,-6.000000,35.000000,-61.000000,-26.000000,2.000000,-44.000000,11.000000
1303457.242204,13.000000,-2.000000,-12.000000,29.000000,22.000000,8.000000,82.000000,51.000000
1303457.242224,-26.000000,-6.000000,-10.000000,-103.000000,-47.000000,-15.000000,-36.000000,-37.000000
1303457.249617,33.000000,-2.000000,109.000000,127.000000,38.000000,28.000000,5.000000,4.000000
1303457.249628,6.000000,-1.000000,-87.000000,-35.000000,0.000000,5.000000,33.000000,40.000000
1303457.279693,-13.000000,3.000000,-13.000000,36.000000,21.000000,-4.000000,-110.000000,-65.000000
1303457.279723,10.000000,0.000000,-21.000000,-30.000000,-15.000000,5.000000,110.000000,62.000000
1303457.286843,-11.000000,-2.000000,-16.000000,-112.000000,-35.000000,-16.000000,-8.000000,3.000000
1303457.286866,-20.000000,-6.000000,1.000000,15.000000,9.000000,2.000000,-29.000000,-22.000000
1303457.288123,6.000000,5.000000,22.000000,124.000000,57.000000,28.000000,-13.000000,-22.000000
1303457.288138,28.000000,1.000000,86.000000,85.000000,-43.000000,-18.000000,-7.000000,27.000000
1303457.288741,27.000000,-9.000000,74.000000,11.000000,-13.000000,6.000000,-8.000000,-1.000000
1303457.288759,-19.000000,0.000000,-32.000000,26.000000,17.000000,-19.000000,-23.000000,-32.000000
1303457.290205,12.000000,-6.000000,9.000000,56.000000,35.000000,8.000000,-18.000000,-8.000000
1303457.290232,6.000000,5.000000,22.000000,-40.000000,-21.000000,-9.000000,-18.000000,-22.000000
1303457.302129,8.000000,12.000000,12.000000,25.000000,1.000000,9.000000,85.000000,57.000000
1303457.302145,-10.000000,-13.000000,-12.000000,-19.000000,14.000000,-5.000000,-58.000000,-40.000000
1303457.302710,25.000000,10.000000,-1.000000,6.000000,-5.000000,18.000000,127.000000,75.000000
1303457.302717,-22.000000,-2.000000,50.000000,-128.000000,-50.000000,-20.000000,-84.000000,-20.000000
1303457.317785,-15.000000,-8.000000,28.000000,127.000000,62.000000,0.000000,27.000000,-4.000000
1303457.317802,10.000000,-5.000000,14.000000,-23.000000,-7.000000,5.000000,-19.000000,-13.000000
1303457.324609,-1.000000,-4.000000,-2.000000,-9.000000,-18.000000,-8.000000,-36.000000,-19.000000
1303457.324620,-10.000000,-10.000000,39.000000,-117.000000,-56.000000,-27.000000,-9.000000,-8.000000
1303457.362264,-13.000000,-1.000000,-58.000000,28.000000,30.000000,22.000000,23.000000,7.000000
1303457.362293,25.000000,3.000000,-17.000000,-56.000000,-4.000000,-1.000000,-4.000000,-3.000000
1303457.369958,4.000000,-9.000000,-7.000000,-33.000000,-23.000000,-14.000000,-14.000000,-14.000000
1303457.369978,-17.000000,-5.000000,-35.000000,55.000000,-12.000000,5.000000,-14.000000,-23.000000
1303457.392633,16.000000,2.000000,71.000000,107.000000,47.000000,19.000000,55.000000,50.000000
1303457.392651,-20.000000,-1.000000,-37.000000,-65.000000,-7.000000,6.000000,-85.000000,-32.000000
1303457.399728,35.000000,-10.000000,-20.000000,-8.000000,-60.000000,6.000000,122.000000,-28.000000
1303457.399741,6.000000,8.000000,23.000000,55.000000,75.000000,22.000000,104.000000,108.000000
1303457.408009,3.000000,6.000000,-6.000000,-37.000000,-38.000000,-10.000000,-35.000000,-14.000000
1303457.408058,-24.000000,-5.000000,-38.000000,-59.000000,-35.000000,-47.000000,-12.000000,-56.000000
1303457.408613,-22.000000,8.000000,4.000000,1.000000,-8.000000,-1.000000,-88.000000,-81.000000
1303457.408632,13.000000,0.000000,-8.000000,21.000000,12.000000,16.000000,91.000000,67.000000
1303457.409536,-2.000000,-2.000000,4.000000,-112.000000,-49.000000,-9.000000,-36.000000,-22.000000
1303457.409563,8.000000,0.000000,27.000000,90.000000,37.000000,21.000000,-7.000000,1.000000
1303457.422140,5.000000,-6.000000,11.000000,-59.000000,-20.000000,-2.000000,29.000000,37.000000
1303457.422150,-5.000000,2.000000,-67.000000,7.000000,-13.000000,3.000000,-18.000000,-11.000000
1303457.422816,-1.000000,-3.000000,12.000000,68.000000,47.000000,12.000000,24.000000,-24.000000
1303457.422841,11.000000,7.000000,45.000000,28.000000,20.000000,-7.000000,-38.000000,-3.000000
1303457.430363,-3.000000,-2.000000,79.000000,42.000000,-4.000000,-2.000000,-18.000000,-26.000000
1303457.430406,6.000000,0.000000,12.000000,67.000000,19.000000,2.000000,-46.000000,58.000000
1303457.444925,-17.000000,2.000000,30.000000,-32.000000,-20.000000,0.000000,99.000000,-30.000000
1303457.444945,8.000000,5.000000,6.000000,-39.000000,-24.000000,-4.000000,84.000000,-3.000000
1303457.482417,-43.000000,-4.000000,-11.000000,-67.000000,-15.000000,10.000000,-83.000000,12.000000
1303457.482436,36.000000,-4.000000,9.000000,-4.000000,10.000000,25.000000,127.000000,113.000000
1303457.504685,-34.000000,0.000000,-5.000000,-26.000000,-11.000000,-6.000000,-31.000000,-31.000000
1303457.504696,-21.000000,-7.000000,-13.000000,7.000000,10.000000,-48.000000,-106.000000,-71.000000
1303457.519542,4.000000,-8.000000,-3.000000,-15.000000,-21.000000,7.000000,63.000000,-1.000000
1303457.519559,-31.000000,-16.000000,-9.000000,21.000000,-12.000000,-13.000000,-40.000000,-28.000000
1303457.520017,-1.000000,-21.000000,72.000000,-15.000000,-2.000000,-5.000000,-82.000000,-14.000000
1303457.520025,-13.000000,-11.000000,-54.000000,35.000000,36.000000,-14.000000,-123.000000,-66.000000
1303457.521125,0.000000,-2.000000,8.000000,-86.000000,-18.000000,19.000000,127.000000,49.000000
1303457.521133,13.000000,-2.000000,-2.000000,-54.000000,-11.000000,-9.000000,-6.000000,14.000000
1303457.521925,19.000000,-3.000000,82.000000,104.000000,59.000000,23.000000,1.000000,50.000000
1303457.521937,-18.000000,5.000000,-31.000000,-99.000000,-32.000000,-16.000000,-66.000000,-65.000000
1303457.522717,-3.000000,-3.000000,-9.000000,-9.000000,-9.000000,-38.000000,-37.000000,-64.000000
1303457.522729,-78.000000,-5.000000,-56.000000,-49.000000,-6.000000,2.000000,2.000000,6.000000
1303457.542883,-4.000000,-5.000000,14.000000,93.000000,75.000000,23.000000,127.000000,31.000000
1303457.542912,-9.000000,-4.000000,-18.000000,-50.000000,-17.000000,-10.000000,-44.000000,-51.000000
1303457.543377,1.000000,1.000000,13.000000,90.000000,14.000000,7.000000,57.000000,1.000000
1303457.543385,12.000000,-5.000000,41.000000,74.000000,35.000000,10.000000,-88.000000,-11.000000
1303457.564445,17.000000,-6.000000,-70.000000,-26.000000,20.000000,-22.000000,119.000000,8.000000
1303457.564455,-7.000000,3.000000,-14.000000,-105.000000,-42.000000,-13.000000,-30.000000,7.000000
1303457.565195,0.000000,3.000000,-12.000000,-68.000000,-2.000000,15.000000,-30.000000,-25.000000
1303457.565225,-12.000000,-4.000000,-18.000000,-102.000000,3.000000,8.000000,-8.000000,2.000000
1303457.602185,1.000000,1.000000,25.000000,64.000000,7.000000,0.000000,-5.000000,-5.000000
1303457.602206,7.000000,2.000000,43.000000,-89.000000,-33.000000,-21.000000,-19.000000,-15.000000
1303457.624800,-19.000000,7.000000,-7.000000,-40.000000,-15.000000,-10.000000,-26.000000,-33.000000
1303457.624811,7.000000,2.000000,29.000000,-1.000000,-11.000000,-11.000000,-66.000000,-39.000000
1303457.662271,10.000000,2.000000,37.000000,29.000000,23.000000,43.000000,127.000000,127.000000
1303457.662292,10.000000,7.000000,-3.000000,11.000000,6.000000,0.000000,-90.000000,-10.000000
1303457.685289,-63.000000,-1.000000,-18.000000,22.000000,-4.000000,1.000000,-19.000000,-64.000000
1303457.685302,38.000000,-1.000000,-16.000000,-24.000000,6.000000,-3.000000,48.000000,101.000000
1303457.685985,0.000000,2.000000,7.000000,5.000000,-7.000000,7.000000,41.000000,-31.000000
1303457.686007,-27.000000,7.000000,-12.000000,-13.000000,-4.000000,-6.000000,-56.000000,-80.000000
1303457.686550,0.000000,-8.000000,-35.000000,-77.000000,-32.000000,-5.000000,47.000000,30.000000
1303457.686577,-35.000000,1.000000,34.000000,122.000000,54.000000,13.000000,8.000000,5.000000
1303457.686983,2.000000,2.000000,29.000000,55.000000,27.000000,4.000000,-24.000000,-14.000000
1303457.686991,4.000000,-2.000000,9.000000,-68.000000,-20.000000,-2.000000,50.000000,-14.000000
1303457.688056,-17.000000,-1.000000,17.000000,-94.000000,-35.000000,-22.000000,-9.000000,19.000000
1303457.688068,-4.000000,-2.000000,5.000000,-38.000000,-17.000000,-18.000000,-39.000000,-19.000000
1303457.699730,15.000000,5.000000,23.000000,27.000000,-12.000000,0.000000,-42.000000,-55.000000
1303457.699740,-31.000000,4.000000,-40.000000,-31.000000,-14.000000,-35.000000,-24.000000,53.000000
1303457.714634,29.000000,1.000000,-17.000000,90.000000,26.000000,-8.000000,95.000000,13.000000
1303457.714648,17.000000,2.000000,7.000000,-9.000000,-24.000000,-26.000000,-48.000000,13.000000
1303457.722342,-44.000000,-14.000000,-12.000000,48.000000,19.000000,3.000000,5.000000,-9.000000
1303457.722352,5.000000,-10.000000,62.000000,-40.000000,-16.000000,-7.000000,-59.000000,-27.000000
1303457.752180,13.000000,-9.000000,-10.000000,5.000000,-16.000000,-2.000000,44.000000,-38.000000
1303457.752209,-19.000000,-10.000000,-54.000000,-59.000000,-14.000000,5.000000,-18.000000,46.000000
1303457.759437,-14.000000,-5.000000,51.000000,127.000000,39.000000,10.000000,4.000000,14.000000
1303457.759453,7.000000,11.000000,-64.000000,-128.000000,-39.000000,-22.000000,-29.000000,-19.000000
1303457.760599,10.000000,-1.000000,32.000000,77.000000,54.000000,7.000000,3.000000,0.000000
1303457.760626,-3.000000,1.000000,-17.000000,-2.000000,-8.000000,-8.000000,-10.000000,-7.000000
1303457.761321,-5.000000,5.000000,-31.000000,127.000000,65.000000,21.000000,9.000000,2.000000
1303457.761335,-7.000000,-4.000000,-68.000000,-89.000000,-7.000000,-6.000000,-6.000000,-9.000000
1303457.782136,42.000000,-1.000000,48.000000,63.000000,27.000000,36.000000,127.000000,127.000000
1303457.782188,33.000000,-2.000000,23.000000,14.000000,26.000000,9.000000,2.000000,51.000000
1303457.783011,-29.000000,3.000000,-67.000000,-72.000000,-23.000000,-59.000000,-128.000000,-128.000000
1303457.783019,27.000000,-1.000000,83.000000,78.000000,35.000000,46.000000,127.000000,85.000000
1303457.784059,19.000000,0.000000,35.000000,70.000000,12.000000,3.000000,-55.000000,22.000000
1303457.784069,3.000000,-1.000000,-49.000000,-23.000000,-7.000000,5.000000,-48.000000,-73.000000
1303457.804510,-45.000000,4.000000,47.000000,-6.000000,1.000000,-12.000000,-19.000000,-10.000000
1303457.804520,13.000000,2.000000,28.000000,124.000000,11.000000,2.000000,-4.000000,-15.000000
1303457.834852,-9.000000,-8.000000,-96.000000,-86.000000,-36.000000,-13.000000,-10.000000,-20.000000
1303457.834864,-9.000000,-2.000000,-24.000000,125.000000,58.000000,14.000000,9.000000,-12.000000
1303457.857151,10.000000,0.000000,35.000000,-52.000000,-32.000000,-17.000000,4.000000,-1.000000
1303457.857161,-5.000000,-4.000000,-11.000000,35.000000,40.000000,4.000000,6.000000,-20.000000
1303457.879458,-3.000000,9.000000,21.000000,127.000000,14.000000,2.000000,-2.000000,21.000000
1303457.879542,-6.000000,-6.000000,23.000000,107.000000,43.000000,-11.000000,10.000000,-13.000000
1303457.902013,7.000000,5.000000,2.000000,-60.000000,-36.000000,-11.000000,-7.000000,44.000000
1303457.902022,-5.000000,-4.000000,-22.000000,-46.000000,-15.000000,8.000000,-39.000000,-42.000000
1303457.917202,-1.000000,1.000000,5.000000,-70.000000,-29.000000,-14.000000,3.000000,-52.000000
1303457.917218,22.000000,4.000000,5.000000,74.000000,33.000000,17.000000,117.000000,88.000000
1303457.918466,-7.000000,1.000000,55.000000,23.000000,-5.000000,-4.000000,-42.000000,-22.000000
1303457.918476,-8.000000,3.000000,-17.000000,-24.000000,-16.000000,6.000000,10.000000,-1.000000
1303457.919467,5.000000,6.000000,-44.000000,-128.000000,-16.000000,-11.000000,32.000000,57.000000
1303457.919475,13.000000,-3.000000,39.000000,82.000000,4.000000,15.000000,-22.000000,-6.000000
1303457.924583,44.000000,5.000000,127.000000,125.000000,48.000000,15.000000,24.000000,67.000000
1303457.924600,-3.000000,1.000000,9.000000,-38.000000,-37.000000,-6.000000,-6.000000,17.000000
1303457.954867,2.000000,0.000000,-29.000000,-21.000000,-16.000000,-12.000000,-1.000000,-20.000000
1303457.954884,-3.000000,4.000000,12.000000,-44.000000,-9.000000,-6.000000,-128.000000,-75.000000
1303457.962298,-1.000000,0.000000,-12.000000,-15.000000,8.000000,-14.000000,58.000000,57.000000
1303457.962330,-8.000000,-3.000000,33.000000,-10.000000,-9.000000,-4.000000,-66.000000,8.000000
1303457.984719,15.000000,-4.000000,-11.000000,58.000000,18.000000,-1.000000,127.000000,9.000000
1303457.984730,1.000000,2.000000,19.000000,51.000000,6.000000,-1.000000,-63.000000,-67.000000
1303457.999805,20.000000,3.000000,9.000000,-52.000000,-28.000000,-17.000000,-19.000000,41.000000
1303457.999819,-5.000000,-8.000000,-21.000000,68.000000,17.000000,-1.000000,-19.000000,-21.000000
1303458.000832,-7.000000,9.000000,40.000000,-9.000000,-15.000000,-3.000000,-18.000000,-30.000000
1303458.000845,-12.000000,-1.000000,-21.000000,-118.000000,-21.000000,-9.000000,-17.000000,-19.000000
1303458.001642,20.000000,2.000000,-13.000000,-21.000000,25.000000,6.000000,5.000000,-4.000000
1303458.001653,-55.000000,6.000000,-27.000000,51.000000,-6.000000,-3.000000,-10.000000,-3.000000
1303458.002906,-1.000000,4.000000,-12.000000,-128.000000,-31.000000,-16.000000,-7.000000,-8.000000
1303458.002917,8.000000,-5.000000,36.000000,127.000000,49.000000,6.000000,65.000000,39.000000
1303458.014826,25.000000,-5.000000,17.000000,-16.000000,2.000000,14.000000,-32.000000,-9.000000
1303458.014836,-5.000000,2.000000,20.000000,-5.000000,-10.000000,-5.000000,-3.000000,-32.000000
1303458.022523,-3.000000,-2.000000,-15.000000,-7.000000,-16.000000,-1.000000,4.000000,25.000000
1303458.022536,-1.000000,2.000000,-31.000000,-76.000000,-6.000000,-5.000000,-44.000000,-33.000000
1303458.023380,43.000000,4.000000,8.000000,127.000000,67.000000,30.000000,34.000000,48.000000
1303458.023389,0.000000,2.000000,18.000000,-30.000000,-18.000000,1.000000,127.000000,3.000000
1303458.037761,-21.000000,-3.000000,-5.000000,-19.000000,-15.000000,-8.000000,-47.000000,-65.000000
1303458.037788,18.000000,-9.000000,-13.000000,-61.000000,-19.000000,-6.000000,-30.000000,6.000000
1303458.074720,22.000000,-2.000000,-7.000000,40.000000,17.000000,1.000000,16.000000,6.000000
1303458.074749,-34.000000,5.000000,-44.000000,-28.000000,12.000000,13.000000,4.000000,20.000000
1303458.097345,-4.000000,1.000000,-8.000000,-23.000000,-10.000000,-1.000000,-12.000000,-18.000000
1303458.097356,-12.000000,1.000000,-14.000000,-78.000000,-27.000000,-22.000000,-18.000000,-12.000000
1303458.119617,15.000000,0.000000,-2.000000,39.000000,41.000000,20.000000,18.000000,8.000000
1303458.119678,3.000000,-5.000000,3.000000,46.000000,25.000000,6.000000,-6.000000,-18.000000
1303458.120623,-12.000000,-5.000000,-11.000000,-29.000000,-12.000000,-4.000000,-7.000000,9.000000
1303458.120742,-15.000000,-3.000000,-40.000000,32.000000,-13.000000,-25.000000,-95.000000,-31.000000
1303458.121135,9.000000,0.000000,-14.000000,-23.000000,1.000000,5.000000,116.000000,33.000000
1303458.121144,-23.000000,-3.000000,5.000000,23.000000,18.000000,8.000000,5.000000,14.000000
1303458.122635,-11.000000,0.000000,-6.000000,-49.000000,-13.000000,-16.000000,-73.000000,-29.000000
1303458.122651,11.000000,-6.000000,15.000000,-18.000000,-12.000000,-9.000000,-70.000000,-60.000000
1303458.134630,13.000000,1.000000,52.000000,38.000000,-5.000000,25.000000,127.000000,52.000000
1303458.134647,-15.000000,-6.000000,-6.000000,11.000000,2.000000,-12.000000,-49.000000,-35.000000
1303458.135843,-42.000000,-13.000000,-4.000000,-76.000000,-35.000000,-16.000000,-47.000000,-40.000000
1303458.135857,-19.000000,3.000000,-20.000000,-24.000000,3.000000,-6.000000,-24.000000,-63.000000
1303458.157093,7.000000,0.000000,4.000000,-30.000000,8.000000,1.000000,8.000000,45.000000
1303458.157103,1.000000,-6.000000,4.000000,-44.000000,-27.000000,-3.000000,-9.000000,-8.000000
1303458.195003,18.000000,-1.000000,38.000000,-47.000000,-21.000000,-2.000000,-47.000000,-18.000000
1303458.195049,-1.000000,-4.000000,16.000000,102.000000,45.000000,11.000000,53.000000,-2.000000
1303458.202331,1.000000,1.000000,23.000000,39.000000,2.000000,-6.000000,-2.000000,3.000000
1303458.202360,18.000000,-2.000000,-41.000000,53.000000,-1.000000,-19.000000,-67.000000,-22.000000
1303458.232158,-15.000000,0.000000,11.000000,-34.000000,-19.000000,-6.000000,37.000000,12.000000
1303458.232189,10.000000,2.000000,-15.000000,-20.000000,-13.000000,-3.000000,80.000000,60.000000
1303458.239922,-27.000000,0.000000,-14.000000,-19.000000,-6.000000,-6.000000,-23.000000,-28.000000
1303458.239936,-21.000000,-3.000000,33.000000,-7.000000,-5.000000,-14.000000,-23.000000,-5.000000
1303458.262046,18.000000,0.000000,-14.000000,-21.000000,-12.000000,-15.000000,-128.000000,-57.000000
1303458.262059,33.000000,-2.000000,7.000000,0.000000,-6.000000,17.000000,127.000000,71.000000
1303458.277290,-5.000000,1.000000,-18.000000,-25.000000,-7.000000,-2.000000,-35.000000,-35.000000
1303458.277301,20.000000,7.000000,19.000000,-2.000000,-32.000000,-2.000000,35.000000,25.000000
1303458.278265,19.000000,-2.000000,-3.000000,-84.000000,-26.000000,-21.000000,-6.000000,-3.000000
1303458.278272,-21.000000,-4.000000,-36.000000,-29.000000,-10.000000,-7.000000,-3.000000,-12.000000
1303458.278775,-4.000000,3.000000,-11.000000,-50.000000,-11.000000,-12.000000,-59.000000,-62.000000
1303458.278783,5.000000,-6.000000,-16.000000,28.000000,6.000000,22.000000,55.000000,62.000000
1303458.280720,0.000000,1.000000,9.000000,-5.000000,-8.000000,-1.000000,-31.000000,4.000000
1303458.280731,-10.000000,1.000000,11.000000,-6.000000,-2.000000,10.000000,-19.000000,-31.000000
1303458.314708,2.000000,1.000000,11.000000,1.000000,-3.000000,0.000000,18.000000,17.000000
1303458.314729,-4.000000,2.000000,-18.000000,-114.000000,-43.000000,-12.000000,-65.000000,-75.000000
1303458.352145,6.000000,-4.000000,-11.000000,21.000000,60.000000,19.000000,38.000000,55.000000
1303458.352158,7.000000,0.000000,10.000000,31.000000,26.000000,10.000000,107.000000,36.000000
1303458.359422,-3.000000,0.000000,5.000000,-12.000000,-12.000000,-4.000000,-35.000000,-25.000000
1303458.359431,-21.000000,2.000000,14.000000,-42.000000,-13.000000,-5.000000,-23.000000,-31.000000
1303458.375114,7.000000,-7.000000,-32.000000,1.000000,-17.000000,-7.000000,-10.000000,-14.000000
1303458.375128,-5.000000,0.000000,-27.000000,-97.000000,-21.000000,-15.000000,-17.000000,-17.000000
1303458.375672,2.000000,-1.000000,23.000000,117.000000,38.000000,16.000000,9.000000,-3.000000
1303458.375680,18.000000,-13.000000,11.000000,24.000000,19.000000,-9.000000,27.000000,37.000000
1303458.377853,-10.000000,-2.000000,-39.000000,-17.000000,-17.000000,-15.000000,-73.000000,-62.000000
1303458.377863,-8.000000,-2.000000,-6.000000,-10.000000,-5.000000,7.000000,96.000000,61.000000
1303458.378485,5.000000,9.000000,45.000000,23.000000,-8.000000,-14.000000,-18.000000,19.000000
1303458.378493,-28.000000,-4.000000,21.000000,-40.000000,-19.000000,-10.000000,-41.000000,-43.000000
1303458.382050,-4.000000,0.000000,-3.000000,65.000000,3.000000,-2.000000,-30.000000,-29.000000
1303458.382060,-6.000000,-4.000000,0.000000,3.000000,-14.000000,0.000000,-14.000000,-11.000000
1303458.397087,-9.000000,-5.000000,49.000000,-89.000000,-55.000000,-15.000000,-9.000000,-16.000000
1303458.397121,5.000000,0.000000,-22.000000,34.000000,37.000000,27.000000,20.000000,21.000000
1303458.412105,4.000000,7.000000,7.000000,-120.000000,-46.000000,-9.000000,-2.000000,5.000000
1303458.412143,-17.000000,0.000000,45.000000,-77.000000,-51.000000,-13.000000,-41.000000,-11.000000
1303458.457187,20.000000,1.000000,41.000000,127.000000,61.000000,15.000000,112.000000,53.000000
1303458.457208,-8.000000,-9.000000,-15.000000,-75.000000,-20.000000,-12.000000,-43.000000,-73.000000
1303458.472598,1.000000,-1.000000,3.000000,-37.000000,-17.000000,-2.000000,4.000000,40.000000
1303458.472634,-38.000000,-3.000000,-51.000000,-35.000000,3.000000,-61.000000,-108.000000,-15.000000
1303458.473356,15.000000,-9.000000,15.000000,12.000000,-5.000000,16.000000,127.000000,31.000000
1303458.473364,6.000000,-6.000000,32.000000,31.000000,6.000000,2.000000,-12.000000,4.000000
1303458.473799,-18.000000,3.000000,-30.000000,-12.000000,-20.000000,-30.000000,-128.000000,-86.000000
1303458.473808,12.000000,-4.000000,60.000000,21.000000,7.000000,17.000000,82.000000,31.000000
1303458.475091,10.000000,2.000000,5.000000,2.000000,-13.000000,9.000000,22.000000,63.000000
1303458.475100,13.000000,6.000000,-22.000000,-27.000000,12.000000,3.000000,-47.000000,-28.000000
1303458.494519,5.000000,2.000000,112.000000,127.000000,49.000000,0.000000,-1.000000,-4.000000
1303458.494542,-14.000000,-5.000000,-17.000000,-95.000000,-20.000000,7.000000,-27.000000,-22.000000
1303458.495792,-24.000000,1.000000,-54.000000,-34.000000,-14.000000,19.000000,42.000000,-1.000000
1303458.495834,7.000000,0.000000,58.000000,43.000000,6.000000,-15.000000,15.000000,43.000000
1303458.517276,5.000000,2.000000,27.000000,33.000000,19.000000,0.000000,21.000000,16.000000
1303458.517288,-16.000000,-1.000000,-27.000000,-11.000000,-9.000000,-10.000000,-26.000000,-30.000000
1303458.518357,-4.000000,-7.000000,-14.000000,5.000000,7.000000,8.000000,-43.000000,-59.000000
1303458.518368,8.000000,0.000000,4.000000,-10.000000,-16.000000,26.000000,-12.000000,26.000000
1303458.532197,1.000000,-3.000000,39.000000,21.000000,5.000000,-17.000000,-31.000000,46.000000
1303458.532207,25.000000,-6.000000,-28.000000,-39.000000,9.000000,7.000000,57.000000,55.000000
1303458.547081,-4.000000,-3.000000,12.000000,-17.000000,-6.000000,-14.000000,-61.000000,-17.000000
1303458.547159,-13.000000,1.000000,0.000000,118.000000,54.000000,9.000000,-37.000000,-40.000000
1303458.554553,-1.000000,1.000000,-52.000000,6.000000,0.000000,1.000000,-9.000000,-16.000000
1303458.554562,-7.000000,-2.000000,60.000000,5.000000,-1.000000,-3.000000,-14.000000,-18.000000
1303458.592053,-2.000000,-15.000000,-43.000000,-65.000000,-12.000000,14.000000,27.000000,15.000000
1303458.592063,-7.000000,-7.000000,-35.000000,-57.000000,-36.000000,-13.000000,-6.000000,-8.000000
1303458.592568,2.000000,-1.000000,87.000000,127.000000,81.000000,21.000000,9.000000,0.000000
1303458.592583,-5.000000,5.000000,4.000000,-73.000000,-30.000000,-5.000000,-10.000000,-18.000000
1303458.593741,-11.000000,6.000000,23.000000,-72.000000,-15.000000,-3.000000,-21.000000,-6.000000
1303458.593755,6.000000,4.000000,-49.000000,-17.000000,14.000000,-6.000000,-19.000000,-44.000000
1303458.594323,5.000000,-3.000000,-4.000000,84.000000,29.000000,21.000000,68.000000,117.000000
1303458.594331,13.000000,4.000000,50.000000,-11.000000,-8.000000,-14.000000,-67.000000,-54.000000
1303458.595997,-42.000000,2.000000,-33.000000,-23.000000,-15.000000,-1.000000,27.000000,-16.000000
1303458.596013,-4.000000,-4.000000,-11.000000,-8.000000,3.000000,9.000000,-11.000000,11.000000
1303458.614411,16.000000,3.000000,-1.000000,-24.000000,-8.000000,11.000000,127.000000,40.000000
1303458.614422,-12.000000,-4.000000,23.000000,-41.000000,-14.000000,-15.000000,-118.000000,-61.000000
1303458.615815,23.000000,-5.000000,14.000000,113.000000,30.000000,32.000000,127.000000,-21.000000
1303458.615824,11.000000,-1.000000,-9.000000,-58.000000,-29.000000,-14.000000,15.000000,55.000000
1303458.629592,1.000000,-2.000000,28.000000,-8.000000,-13.000000,-8.000000,-10.000000,-15.000000
1303458.629607,-20.000000,4.000000,-27.000000,-5.000000,5.000000,0.000000,-35.000000,-22.000000
1303458.637153,-13.000000,-7.000000,15.000000,-25.000000,-7.000000,-3.000000,-28.000000,-16.000000
1303458.637184,1.000000,-6.000000,-29.000000,0.000000,-8.000000,-11.000000,-44.000000,-37.000000
1303458.674761,0.000000,-5.000000,-52.000000,14.000000,-30.000000,-13.000000,62.000000,17.000000
1303458.674778,22.000000,0.000000,73.000000,93.000000,61.000000,28.000000,13.000000,34.000000
1303458.712193,-4.000000,11.000000,-14.000000,29.000000,2.000000,7.000000,-6.000000,-14.000000
1303458.712216,-3.000000,-9.000000,15.000000,-46.000000,2.000000,-5.000000,-14.000000,-20.000000
1303458.719501,-23.000000,-3.000000,-32.000000,-41.000000,-15.000000,3.000000,-29.000000,-43.000000
1303458.719519,-30.000000,2.000000,23.000000,33.000000,12.000000,4.000000,48.000000,35.000000
1303458.734932,14.000000,2.000000,42.000000,23.000000,9.000000,17.000000,10.000000,14.000000
1303458.734943,6.000000,-7.000000,-26.000000,-60.000000,3.000000,1.000000,-100.000000,-86.000000
1303458.735590,8.000000,2.000000,-9.000000,16.000000,6.000000,-1.000000,127.000000,73.000000
1303458.735598,6.000000,4.000000,11.000000,-28.000000,-3.000000,2.000000,-24.000000,14.000000
1303458.736880,-18.000000,-2.000000,11.000000,127.000000,62.000000,19.000000,-2.000000,-17.000000
1303458.736889,3.000000,-1.000000,14.000000,6.000000,4.000000,4.000000,25.000000,37.000000
1303458.737460,0.000000,-1.000000,32.000000,-30.000000,-14.000000,-5.000000,-31.000000,-11.000000
1303458.737467,-9.000000,-1.000000,-24.000000,2.000000,13.000000,4.000000,-3.000000,-7.000000
1303458.749734,31.000000,4.000000,24.000000,16.000000,-6.000000,10.000000,41.000000,2.000000
1303458.749745,-44.000000,-2.000000,-13.000000,-28.000000,-6.000000,-12.000000,-26.000000,76.000000
1303458.757355,-5.000000,15.000000,15.000000,-13.000000,-9.000000,-4.000000,-33.000000,-38.000000
1303458.757373,-22.000000,1.000000,5.000000,17.000000,2.000000,-2.000000,-87.000000,-73.000000
1303458.772212,26.000000,2.000000,-3.000000,25.000000,12.000000,5.000000,113.000000,74.000000
1303458.772242,-13.000000,-1.000000,-6.000000,-8.000000,-7.000000,-9.000000,-42.000000,-3.000000
1303458.787145,-10.000000,-1.000000,26.000000,-11.000000,-14.000000,-31.000000,-53.000000,-39.000000
1303458.787175,9.000000,-3.000000,3.000000,-21.000000,-8.000000,3.000000,20.000000,17.000000
1303458.794854,-1.000000,0.000000,-16.000000,-19.000000,-19.000000,-3.000000,-15.000000,-14.000000
1303458.794865,6.000000,1.000000,38.000000,44.000000,28.000000,3.000000,-21.000000,-9.000000
1303458.817423,-1.000000,-1.000000,-22.000000,-40.000000,-12.000000,-7.000000,2.000000,-20.000000
1303458.817434,-2.000000,-9.000000,-39.000000,79.000000,8.000000,0.000000,-1.000000,17.000000
1303458.832162,-1.000000,-6.000000,6.000000,-102.000000,-50.000000,-20.000000,-17.000000,-15.000000
1303458.832180,9.000000,1.000000,91.000000,127.000000,105.000000,44.000000,32.000000,15.000000
1303458.855080,-14.000000,1.000000,-70.000000,-110.000000,-30.000000,-22.000000,-40.000000,-17.000000
1303458.855093,12.000000,-3.000000,-29.000000,11.000000,19.000000,5.000000,33.000000,22.000000
1303458.855518,-3.000000,-2.000000,23.000000,3.000000,-3.000000,7.000000,-2.000000,3.000000
1303458.855526,4.000000,3.000000,-1.000000,-22.000000,-9.000000,2.000000,-18.000000,-21.000000
1303458.857054,18.000000,-6.000000,-1.000000,10.000000,2.000000,2.000000,7.000000,6.000000
1303458.857065,4.000000,-1.000000,-46.000000,-28.000000,-8.000000,-1.000000,52.000000,44.000000
1303458.857624,-2.000000,-6.000000,48.000000,68.000000,24.000000,14.000000,37.000000,24.000000
1303458.857634,1.000000,-1.000000,14.000000,-72.000000,-26.000000,-3.000000,-49.000000,-12.000000
1303458.869500,6.000000,-7.000000,68.000000,30.000000,-11.000000,-2.000000,-14.000000,-1.000000
1303458.869510,-17.000000,-5.000000,-40.000000,0.000000,-15.000000,-4.000000,-22.000000,-24.000000
1303458.892328,21.000000,0.000000,31.000000,-9.000000,-12.000000,8.000000,-6.000000,-6.000000
1303458.892339,-18.000000,-5.000000,-46.000000,-10.000000,-7.000000,-1.000000,-5.000000,-12.000000
1303458.900047,1.000000,-5.000000,-2.000000,62.000000,22.000000,2.000000,-16.000000,-15.000000
1303458.900058,-13.000000,3.000000,36.000000,-66.000000,-29.000000,-5.000000,-41.000000,-18.000000
1303458.914661,24.000000,7.000000,14.000000,-58.000000,-21.000000,-8.000000,97.000000,47.000000
1303458.914671,2.000000,-2.000000,21.000000,67.000000,2.000000,17.000000,25.000000,22.000000
1303458.929622,-14.000000,4.000000,-6.000000,-56.000000,-34.000000,-8.000000,-50.000000,-52.000000
1303458.929632,-16.000000,2.000000,-42.000000,60.000000,22.000000,-27.000000,55.000000,18.000000
1303458.944819,1.000000,8.000000,8.000000,-43.000000,-26.000000,-10.000000,-16.000000,-10.000000
1303458.944858,14.000000,-6.000000,-41.000000,-29.000000,-6.000000,-8.000000,-13.000000,32.000000
1303458.952401,1.000000,1.000000,10.000000,-7.000000,-9.000000,-4.000000,-40.000000,-46.000000
1303458.952421,-31.000000,1.000000,1.000000,-31.000000,-4.000000,1.000000,5.000000,-36.000000
1303458.974634,4.000000,-9.000000,24.000000,47.000000,17.000000,3.000000,-27.000000,-18.000000
1303458.974657,22.000000,2.000000,-50.000000,127.000000,20.000000,5.000000,26.000000,31.000000
1303458.982432,-11.000000,3.000000,18.000000,-73.000000,-13.000000,-26.000000,-39.000000,-25.000000
1303458.982445,2.000000,3.000000,15.000000,32.000000,14.000000,-2.000000,-9.000000,-22.000000
1303458.990007,-3.000000,0.000000,-12.000000,-84.000000,-18.000000,2.000000,-3.000000,-1.000000
1303458.990020,-4.000000,-5.000000,22.000000,-42.000000,18.000000,5.000000,7.000000,-14.000000
1303458.990735,3.000000,-7.000000,23.000000,-2.000000,-7.000000,-3.000000,2.000000,7.000000
1303458.990751,-2.000000,-11.000000,-42.000000,-51.000000,-20.000000,-6.000000,0.000000,-5.000000
1303458.992037,29.000000,10.000000,-13.000000,127.000000,59.000000,1.000000,41.000000,85.000000
1303458.992047,-1.000000,9.000000,49.000000,-17.000000,-7.000000,-7.000000,-40.000000,-23.000000
1303459.012149,-7.000000,0.000000,-20.000000,-31.000000,-19.000000,11.000000,-15.000000,-28.000000
1303459.012170,54.000000,-2.000000,-7.000000,6.000000,-6.000000,-1.000000,81.000000,32.000000
1303459.019569,-30.000000,2.000000,62.000000,69.000000,31.000000,4.000000,-31.000000,15.000000
1303459.019578,16.000000,2.000000,-28.000000,42.000000,5.000000,0.000000,-60.000000,-51.000000
1303459.034685,-13.000000,-4.000000,-7.000000,-5.000000,-4.000000,9.000000,38.000000,19.000000
1303459.034695,-7.000000,-3.000000,30.000000,21.000000,0.000000,-13.000000,8.000000,-2.000000
1303459.049700,27.000000,-2.000000,20.000000,-46.000000,-20.000000,2.000000,27.000000,24.000000
1303459.049711,-10.000000,6.000000,-62.000000,72.000000,7.000000,5.000000,-17.000000,-15.000000
1303459.072757,-7.000000,-4.000000,-5.000000,-11.000000,6.000000,4.000000,-19.000000,-13.000000
1303459.072768,2.000000,2.000000,15.000000,-26.000000,-25.000000,-1.000000,-20.000000,-7.000000
1303459.073244,-13.000000,-7.000000,-58.000000,-74.000000,-23.000000,-19.000000,34.000000,3.000000
1303459.073256,5.000000,2.000000,-11.000000,-38.000000,-9.000000,3.000000,5.000000,36.000000
1303459.074484,-6.000000,-4.000000,-8.000000,-32.000000,-3.000000,-15.000000,-30.000000,-32.000000
1303459.074494,5.000000,4.000000,23.000000,31.000000,-4.000000,15.000000,15.000000,4.000000
1303459.075080,-28.000000,-3.000000,-20.000000,-34.000000,-13.000000,-8.000000,29.000000,41.000000
1303459.075089,-1.000000,4.000000,2.000000,-23.000000,-20.000000,1.000000,-16.000000,-21.000000
1303459.087439,13.000000,-1.000000,-27.000000,26.000000,8.000000,10.000000,75.000000,-10.000000
1303459.087475,10.000000,6.000000,2.000000,-43.000000,-9.000000,20.000000,16.000000,29.000000
1303459.087897,12.000000,-9.000000,-35.000000,15.000000,26.000000,-2.000000,-73.000000,18.000000
1303459.087941,3.000000,1.000000,23.000000,22.000000,4.000000,-5.000000,68.000000,11.000000
1303459.094573,4.000000,-6.000000,7.000000,19.000000,-5.000000,-5.000000,-63.000000,-57.000000
1303459.094593,9.000000,1.000000,-1.000000,2.000000,6.000000,2.000000,3.000000,44.000000
1303459.109493,-17.000000,1.000000,-13.000000,-19.000000,2.000000,-1.000000,-4.000000,-14.000000
1303459.109521,49.000000,0.000000,-27.000000,82.000000,56.000000,24.000000,46.000000,38.000000
1303459.132487,0.000000,-4.000000,-40.000000,-25.000000,1.000000,9.000000,-4.000000,-35.000000
1303459.132514,-6.000000,0.000000,1.000000,-29.000000,-8.000000,2.000000,-30.000000,24.000000
1303459.147020,7.000000,-4.000000,-18.000000,82.000000,14.000000,0.000000,24.000000,10.000000
1303459.147031,-2.000000,-2.000000,-10.000000,-82.000000,-26.000000,-14.000000,-8.000000,-3.000000
1303459.184431,0.000000,4.000000,-21.000000,127.000000,24.000000,9.000000,-2.000000,-14.000000
1303459.184442,2.000000,0.000000,3.000000,-83.000000,-30.000000,5.000000,4.000000,3.000000
1303459.184910,-3.000000,2.000000,-7.000000,1.000000,-17.000000,-12.000000,-87.000000,-34.000000
1303459.184918,-27.000000,1.000000,-57.000000,30.000000,-33.000000,-37.000000,55.000000,-54.000000
1303459.186268,28.000000,-4.000000,-10.000000,-62.000000,-10.000000,5.000000,100.000000,127.000000
1303459.186275,-4.000000,-5.000000,20.000000,-48.000000,-20.000000,-24.000000,-128.000000,1.000000
1303459.186843,-22.000000,0.000000,-32.000000,-19.000000,-1.000000,2.000000,23.000000,-79.000000
1303459.186858,5.000000,1.000000,15.000000,26.000000,5.000000,-8.000000,-2.000000,44.000000
1303459.188375,-57.000000,-2.000000,1.000000,25.000000,6.000000,6.000000,-41.000000,-24.000000
1303459.188409,-7.000000,5.000000,-9.000000,19.000000,-1.000000,8.000000,41.000000,-21.000000
1303459.207321,4.000000,0.000000,-16.000000,-13.000000,-3.000000,-7.000000,-11.000000,3.000000
1303459.207334,21.000000,-12.000000,4.000000,-109.000000,-43.000000,-17.000000,28.000000,18.000000
1303459.207773,8.000000,-11.000000,127.000000,127.000000,85.000000,15.000000,-39.000000,-25.000000
1303459.207786,-6.000000,-4.000000,8.000000,-63.000000,-18.000000,-4.000000,74.000000,16.000000
1303459.222211,6.000000,-2.000000,-24.000000,-94.000000,-38.000000,-14.000000,-6.000000,32.000000
1303459.222224,16.000000,1.000000,24.000000,117.000000,49.000000,13.000000,16.000000,2.000000
1303459.229454,0.000000,-6.000000,90.000000,82.000000,19.000000,8.000000,0.000000,-8.000000
1303459.229465,-17.000000,-1.000000,12.000000,-14.000000,-19.000000,-6.000000,-50.000000,-5.000000
1303459.244609,4.000000,6.000000,-28.000000,-122.000000,-42.000000,-53.000000,-86.000000,-68.000000
1303459.244628,-33.000000,7.000000,33.000000,121.000000,46.000000,38.000000,69.000000,95.000000
1303459.259871,1.000000,-5.000000,11.000000,2.000000,-22.000000,-9.000000,-51.000000,-15.000000
1303459.259883,-11.000000,-1.000000,-7.000000,-28.000000,-17.000000,-1.000000,27.000000,-26.000000
1303459.289536,-15.000000,-3.000000,-14.000000,-13.000000,-12.000000,-5.000000,-20.000000,-13.000000
1303459.289546,-3.000000,8.000000,-15.000000,10.000000,-7.000000,8.000000,26.000000,-4.000000
1303459.304786,-10.000000,-5.000000,-11.000000,16.000000,-17.000000,-9.000000,-15.000000,-2.000000
1303459.304800,0.000000,7.000000,-10.000000,-60.000000,-36.000000,-12.000000,-22.000000,-23.000000
1303459.305701,6.000000,-1.000000,-4.000000,74.000000,39.000000,3.000000,12.000000,42.000000
1303459.305711,-3.000000,0.000000,14.000000,-67.000000,-19.000000,-4.000000,40.000000,-10.000000
1303459.306260,4.000000,2.000000,-67.000000,-74.000000,-25.000000,-8.000000,-11.000000,23.000000
1303459.306270,15.000000,7.000000,-22.000000,67.000000,40.000000,12.000000,-7.000000,-3.000000
1303459.307787,-1.000000,2.000000,-13.000000,16.000000,-4.000000,1.000000,13.000000,-6.000000
1303459.307798,3.000000,-2.000000,23.000000,-16.000000,-11.000000,-9.000000,-43.000000,-21.000000
1303459.308585,-22.000000,4.000000,-54.000000,5.000000,1.000000,-5.000000,15.000000,-2.000000
1303459.308594,13.000000,2.000000,45.000000,24.000000,30.000000,8.000000,-13.000000,17.000000
1303459.327123,5.000000,-1.000000,-7.000000,-21.000000,-14.000000,-7.000000,-91.000000,-53.000000
1303459.327140,16.000000,-2.000000,-11.000000,-36.000000,-22.000000,-3.000000,81.000000,56.000000
1303459.327425,-38.000000,6.000000,-4.000000,-6.000000,3.000000,-15.000000,-26.000000,30.000000
1303459.327433,8.000000,3.000000,26.000000,-17.000000,-2.000000,1.000000,-41.000000,-38.000000
1303459.334592,26.000000,0.000000,-31.000000,7.000000,9.000000,-2.000000,20.000000,-12.000000
1303459.334609,19.000000,2.000000,7.000000,-5.000000,-1.000000,-3.000000,-16.000000,-1.000000
1303459.349786,-38.000000,-5.000000,29.000000,-20.000000,-4.000000,-9.000000,-13.000000,-30.000000
1303459.349798,-5.000000,5.000000,4.000000,77.000000,31.000000,30.000000,127.000000,61.000000
1303459.364684,-3.000000,0.000000,-8.000000,-15.000000,-5.000000,3.000000,-9.000000,-12.000000
1303459.364694,1.000000,-3.000000,66.000000,-30.000000,-38.000000,-26.000000,-44.000000,-36.000000
1303459.372062,11.000000,2.000000,49.000000,-106.000000,-26.000000,-7.000000,1.000000,-2.000000
1303459.372091,14.000000,2.000000,3.000000,97.000000,56.000000,25.000000,10.000000,-7.000000
1303459.409693,2.000000,7.000000,-36.000000,-28.000000,-20.000000,-2.000000,13.000000,10.000000
1303459.409703,10.000000,-2.000000,-11.000000,-87.000000,-25.000000,-7.000000,-14.000000,21.000000
1303459.417308,-6.000000,-1.000000,23.000000,92.000000,37.000000,14.000000,24.000000,7.000000
1303459.417319,7.000000,2.000000,3.000000,-45.000000,-24.000000,-3.000000,-11.000000,-2.000000
1303459.425019,-25.000000,-6.000000,-88.000000,-81.000000,-30.000000,-28.000000,-15.000000,-30.000000
1303459.425028,10.000000,-5.000000,22.000000,127.000000,73.000000,32.000000,28.000000,10.000000
1303459.425673,32.000000,-2.000000,8.000000,-13.000000,-16.000000,4.000000,-4.000000,40.000000
1303459.425681,-9.000000,-1.000000,-7.000000,-37.000000,-16.000000,-32.000000,-64.000000,-50.000000
1303459.426848,-14.000000,-4.000000,-2.000000,-21.000000,-1.000000,5.000000,-3.000000,38.000000
1303459.426868,-10.000000,4.000000,-1.000000,-16.000000,-4.000000,1.000000,-13.000000,-13.000000
1303459.427858,2.000000,-1.000000,15.000000,45.000000,21.000000,16.000000,6.000000,-11.000000
1303459.427875,3.000000,-1.000000,-3.000000,-43.000000,-21.000000,-32.000000,-116.000000,-45.000000
1303459.462173,-8.000000,-6.000000,-24.000000,-44.000000,-13.000000,11.000000,121.000000,38.000000
1303459.462189,15.000000,-3.000000,11.000000,127.000000,54.000000,21.000000,15.000000,32.000000
1303459.469699,-28.000000,-5.000000,-44.000000,-70.000000,-17.000000,-10.000000,-16.000000,-21.000000
1303459.469722,10.000000,-10.000000,-47.000000,30.000000,18.000000,11.000000,-11.000000,-22.000000
1303459.507153,-41.000000,-7.000000,11.000000,-5.000000,-5.000000,-9.000000,-25.000000,-2.000000
1303459.507181,-16.000000,1.000000,-88.000000,-67.000000,-14.000000,-15.000000,-6.000000,-10.000000
1303459.522486,-12.000000,-9.000000,-32.000000,8.000000,-16.000000,-17.000000,-121.000000,-45.000000
1303459.522531,15.000000,-3.000000,42.000000,72.000000,45.000000,11.000000,127.000000,53.000000
1303459.567567,5.000000,-1.000000,-18.000000,-46.000000,-26.000000,-3.000000,11.000000,54.000000
1303459.567580,18.000000,-4.000000,0.000000,-43.000000,-28.000000,-12.000000,-25.000000,-43.000000
1303459.582394,-44.000000,-6.000000,14.000000,-22.000000,3.000000,-1.000000,-61.000000,-53.000000
1303459.582495,21.000000,6.000000,29.000000,30.000000,20.000000,7.000000,18.000000,7.000000
1303459.583553,-4.000000,7.000000,-38.000000,1.000000,-11.000000,-9.000000,2.000000,40.000000
1303459.583625,-4.000000,6.000000,34.000000,-4.000000,6.000000,6.000000,17.000000,-20.000000
1303459.584362,9.000000,1.000000,-31.000000,-79.000000,-36.000000,-16.000000,-50.000000,16.000000
1303459.584564,-21.000000,-1.000000,29.000000,22.000000,5.000000,8.000000,79.000000,-1.000000
1303459.584764,-7.000000,1.000000,16.000000,7.000000,-11.000000,0.000000,0.000000,17.000000
1303459.584774,9.000000,1.000000,-73.000000,61.000000,33.000000,9.000000,7.000000,-1.000000
1303459.585497,-32.000000,0.000000,3.000000,-66.000000,-25.000000,-6.000000,-44.000000,23.000000
1303459.585505,4.000000,2.000000,-4.000000,66.000000,26.000000,21.000000,94.000000,4.000000
1303459.589501,-19.000000,-3.000000,-35.000000,-5.000000,-4.000000,-8.000000,-64.000000,-57.000000
1303459.589510,-3.000000,2.000000,-14.000000,-64.000000,-39.000000,-1.000000,-4.000000,-26.000000
1303459.627425,34.000000,2.000000,67.000000,127.000000,93.000000,30.000000,49.000000,48.000000
1303459.627454,-12.000000,-8.000000,-23.000000,-69.000000,-21.000000,-17.000000,17.000000,27.000000
1303459.642470,-18.000000,0.000000,8.000000,84.000000,11.000000,5.000000,-37.000000,-46.000000
1303459.642488,1.000000,-5.000000,14.000000,-81.000000,-42.000000,-10.000000,-2.000000,4.000000
1303459.664831,1.000000,-11.000000,-3.000000,14.000000,25.000000,16.000000,0.000000,-3.000000
1303459.664849,-3.000000,-2.000000,-5.000000,-46.000000,-18.000000,-10.000000,-21.000000,-20.000000
1303459.679821,10.000000,1.000000,9.000000,-16.000000,-5.000000,-5.000000,-4.000000,-2.000000
1303459.679856,-37.000000,-5.000000,4.000000,55.000000,27.000000,10.000000,2.000000,-17.000000
1303459.687710,-13.000000,1.000000,-50.000000,51.000000,-13.000000,-1.000000,-9.000000,-3.000000
1303459.687738,-4.000000,-2.000000,-2.000000,1.000000,0.000000,19.000000,17.000000,22.000000
1303459.702684,4.000000,11.000000,-1.000000,-9.000000,-12.000000,5.000000,21.000000,6.000000
1303459.702694,13.000000,-8.000000,-22.000000,-12.000000,-18.000000,-11.000000,-34.000000,35.000000
1303459.703776,13.000000,0.000000,20.000000,-73.000000,-32.000000,-10.000000,-49.000000,-41.000000
1303459.703784,-7.000000,4.000000,50.000000,61.000000,48.000000,6.000000,18.000000,-22.000000
1303459.705427,-23.000000,-8.000000,-33.000000,-8.000000,-3.000000,-1.000000,-11.000000,-9.000000
1303459.705435,14.000000,-6.000000,32.000000,-1.000000,18.000000,-1.000000,-3.000000,6.000000
1303459.739874,2.000000,-9.000000,-20.000000,-4.000000,-7.000000,6.000000,-2.000000,-17.000000
1303459.739885,7.000000,3.000000,-21.000000,-35.000000,-6.000000,3.000000,15.000000,28.000000
1303459.747395,-11.000000,-9.000000,1.000000,-18.000000,-5.000000,-3.000000,-93.000000,-33.000000
1303459.747406,-12.000000,-1.000000,43.000000,6.000000,-12.000000,-8.000000,9.000000,-74.000000
1303459.769692,55.000000,-1.000000,2.000000,73.000000,15.000000,9.000000,127.000000,127.000000
1303459.769711,-14.000000,7.000000,56.000000,49.000000,1.000000,-11.000000,-105.000000,-24.000000
1303459.784804,-4.000000,-8.000000,-12.000000,56.000000,-4.000000,20.000000,126.000000,-19.000000
1303459.784818,0.000000,-2.000000,9.000000,-26.000000,1.000000,-9.000000,-56.000000,17.000000
1303459.785747,29.000000,-4.000000,-49.000000,-79.000000,-22.000000,-10.000000,45.000000,4.000000
1303459.785757,-33.000000,-7.000000,56.000000,90.000000,29.000000,4.000000,-40.000000,-11.000000
1303459.786230,-12.000000,3.000000,-19.000000,26.000000,9.000000,-5.000000,20.000000,-20.000000
1303459.786239,18.000000,-2.000000,-14.000000,2.000000,-9.000000,10.000000,37.000000,33.000000
1303459.788277,2.000000,4.000000,-11.000000,-14.000000,-6.000000,-7.000000,-16.000000,-17.000000
1303459.788290,-2.000000,-6.000000,-17.000000,-10.000000,-5.000000,3.000000,9.000000,13.000000
1303459.800598,-15.000000,7.000000,0.000000,-32.000000,-12.000000,-8.000000,-24.000000,-40.000000
1303459.800614,24.000000,1.000000,32.000000,18.000000,-15.000000,-6.000000,4.000000,25.000000
1303459.800992,-13.000000,-1.000000,-19.000000,-46.000000,-7.000000,-9.000000,49.000000,-3.000000
1303459.801003,2.000000,-3.000000,-1.000000,-70.000000,-24.000000,-10.000000,-88.000000,-36.000000
1303459.822583,11.000000,5.000000,58.000000,-62.000000,-6.000000,-7.000000,82.000000,30.000000
1303459.822601,21.000000,4.000000,36.000000,-1.000000,-19.000000,-7.000000,-49.000000,-12.000000
1303459.823409,-36.000000,-5.000000,54.000000,42.000000,8.000000,27.000000,-62.000000,-57.000000
1303459.823427,-9.000000,-4.000000,9.000000,-41.000000,-10.000000,-12.000000,101.000000,62.000000
1303459.859512,-6.000000,1.000000,-10.000000,-40.000000,-27.000000,-6.000000,-20.000000,-2.000000
1303459.859523,18.000000,-4.000000,7.000000,-26.000000,-1.000000,-1.000000,-19.000000,-25.000000
1303459.867168,-21.000000,-5.000000,0.000000,-14.000000,1.000000,2.000000,-16.000000,-36.000000
1303459.867178,15.000000,5.000000,4.000000,-5.000000,4.000000,3.000000,-31.000000,4.000000
1303459.897087,-3.000000,-9.000000,7.000000,33.000000,-10.000000,-2.000000,32.000000,37.000000
1303459.897105,24.000000,-2.000000,-17.000000,-34.000000,-15.000000,6.000000,-34.000000,-35.000000
1303459.904584,-71.000000,-4.000000,-12.000000,16.000000,-1.000000,-15.000000,-3.000000,-8.000000
1303459.904603,12.000000,6.000000,-17.000000,49.000000,29.000000,10.000000,-1.000000,34.000000
1303459.905619,-3.000000,5.000000,-49.000000,-28.000000,-3.000000,-4.000000,-15.000000,-11.000000
1303459.905628,-22.000000,-2.000000,-28.000000,32.000000,7.000000,-3.000000,59.000000,-29.000000
1303459.906269,6.000000,-2.000000,-1.000000,-21.000000,-16.000000,-15.000000,-72.000000,-32.000000
1303459.906296,23.000000,8.000000,12.000000,83.000000,52.000000,25.000000,97.000000,76.000000
1303459.907829,-48.000000,-5.000000,-7.000000,15.000000,16.000000,21.000000,84.000000,40.000000
1303459.907846,-47.000000,-3.000000,-4.000000,-23.000000,-3.000000,-4.000000,30.000000,18.000000
1303459.920187,39.000000,2.000000,-20.000000,30.000000,20.000000,8.000000,-58.000000,-17.000000
1303459.920197,-8.000000,3.000000,45.000000,15.000000,-3.000000,-13.000000,14.000000,18.000000
1303459.920981,-15.000000,5.000000,30.000000,42.000000,10.000000,13.000000,-85.000000,-110.000000
1303459.920998,17.000000,1.000000,-16.000000,-26.000000,2.000000,-20.000000,54.000000,117.000000
1303459.934670,24.000000,-5.000000,15.000000,59.000000,17.000000,9.000000,21.000000,16.000000
1303459.934682,-10.000000,-1.000000,-26.000000,-44.000000,-22.000000,-11.000000,-54.000000,-40.000000
1303459.942162,-44.000000,5.000000,-3.000000,21.000000,-9.000000,-12.000000,-10.000000,-31.000000
1303459.942172,21.000000,-6.000000,37.000000,33.000000,17.000000,10.000000,-9.000000,2.000000
1303459.979924,-11.000000,2.000000,-29.000000,-50.000000,-14.000000,1.000000,-13.000000,-17.000000
1303459.979937,5.000000,-11.000000,-8.000000,-22.000000,-7.000000,-11.000000,8.000000,14.000000
1303460.002156,-7.000000,7.000000,11.000000,-11.000000,-6.000000,-4.000000,-11.000000,-15.000000
1303460.002168,9.000000,-4.000000,-13.000000,-8.000000,3.000000,1.000000,-40.000000,-5.000000
1303460.017409,-4.000000,1.000000,-15.000000,17.000000,8.000000,-1.000000,30.000000,-35.000000
1303460.017418,21.000000,-8.000000,17.000000,-12.000000,-18.000000,4.000000,-4.000000,34.000000
1303460.018070,-38.000000,0.000000,-9.000000,-39.000000,-15.000000,-12.000000,10.000000,5.000000
1303460.018078,26.000000,2.000000,-15.000000,127.000000,38.000000,2.000000,40.000000,-26.000000
1303460.019775,-5.000000,-7.000000,-8.000000,-23.000000,-12.000000,0.000000,-43.000000,55.000000
1303460.019787,5.000000,0.000000,-12.000000,-51.000000,-19.000000,-3.000000,-47.000000,-36.000000
1303460.020400,9.000000,0.000000,5.000000,13.000000,-4.000000,-15.000000,-11.000000,-2.000000
1303460.020411,-7.000000,-8.000000,-23.000000,38.000000,14.000000,6.000000,28.000000,14.000000
1303460.021018,2.000000,-1.000000,122.000000,60.000000,16.000000,0.000000,9.000000,18.000000
1303460.021026,2.000000,-2.000000,-22.000000,-19.000000,-13.000000,7.000000,9.000000,24.000000
1303460.040097,19.000000,1.000000,12.000000,13.000000,-9.000000,-6.000000,-5.000000,-3.000000
1303460.040114,5.000000,-2.000000,-33.000000,-33.000000,8.000000,-13.000000,-24.000000,-17.000000
1303460.040787,-46.000000,-5.000000,-10.000000,-22.000000,-4.000000,-2.000000,-47.000000,-31.000000
1303460.040795,28.000000,1.000000,-2.000000,-45.000000,-4.000000,8.000000,18.000000,-7.000000
1303460.062025,-32.000000,-1.000000,-29.000000,-56.000000,-12.000000,-22.000000,63.000000,46.000000
1303460.062037,-12.000000,-4.000000,55.000000,-8.000000,3.000000,9.000000,12.000000,-5.000000
1303460.077191,-11.000000,6.000000,-38.000000,-27.000000,-27.000000,-3.000000,-23.000000,24.000000
1303460.077215,13.000000,0.000000,89.000000,-27.000000,-6.000000,-8.000000,-21.000000,-37.000000
1303460.122336,18.000000,-2.000000,4.000000,0.000000,6.000000,2.000000,53.000000,77.000000
1303460.122349,-5.000000,-6.000000,1.000000,-12.000000,-8.000000,8.000000,-17.000000,-25.000000
1303460.122696,2.000000,3.000000,-22.000000,3.000000,-10.000000,-5.000000,-30.000000,-9.000000
1303460.122705,8.000000,-5.000000,11.000000,-36.000000,-24.000000,-11.000000,-23.000000,-4.000000
1303460.123774,16.000000,-2.000000,-26.000000,17.000000,15.000000,10.000000,23.000000,7.000000
1303460.123783,-39.000000,-3.000000,4.000000,-24.000000,-33.000000,-18.000000,-27.000000,-24.000000
1303460.124425,5.000000,-5.000000,67.000000,127.000000,82.000000,20.000000,-9.000000,-12.000000
1303460.124434,5.000000,-8.000000,-67.000000,-90.000000,-34.000000,-4.000000,-17.000000,-1.000000
1303460.125957,-1.000000,3.000000,13.000000,90.000000,35.000000,10.000000,-11.000000,-1.000000
1303460.125967,-14.000000,-3.000000,30.000000,-2.000000,-6.000000,2.000000,-9.000000,-24.000000
1303460.137510,29.000000,-3.000000,32.000000,-12.000000,-5.000000,-1.000000,-66.000000,-6.000000
1303460.137580,-24.000000,3.000000,52.000000,-25.000000,-12.000000,18.000000,127.000000,36.000000
1303460.138197,13.000000,-6.000000,-7.000000,-9.000000,-7.000000,-21.000000,-86.000000,-26.000000
1303460.138205,-6.000000,7.000000,27.000000,-6.000000,-10.000000,-4.000000,8.000000,50.000000
1303460.167097,24.000000,-8.000000,-9.000000,-7.000000,-4.000000,-1.000000,73.000000,6.000000
1303460.167107,-18.000000,-1.000000,-17.000000,-26.000000,-2.000000,-9.000000,-91.000000,-108.000000
1303460.182019,-22.000000,2.000000,-12.000000,8.000000,5.000000,4.000000,124.000000,-5.000000
1303460.182029,48.000000,-7.000000,2.000000,88.000000,32.000000,13.000000,96.000000,83.000000
1303460.204702,-12.000000,-7.000000,35.000000,-13.000000,-22.000000,-19.000000,-128.000000,-62.000000
1303460.204714,-22.000000,-1.000000,-49.000000,-11.000000,-10.000000,-19.000000,-86.000000,-75.000000
1303460.219781,-9.000000,-2.000000,21.000000,-34.000000,-12.000000,9.000000,79.000000,-1.000000
1303460.219801,-12.000000,-4.000000,1.000000,1.000000,8.000000,-4.000000,-33.000000,-10.000000
1303460.242448,-15.000000,-6.000000,-33.000000,-67.000000,-6.000000,-7.000000,-17.000000,-11.000000
1303460.242459,27.000000,10.000000,60.000000,1.000000,10.000000,13.000000,23.000000,21.000000
1303460.249744,-9.000000,2.000000,24.000000,-11.000000,-11.000000,-4.000000,-20.000000,-2.000000
1303460.249754,2.000000,2.000000,-78.000000,-48.000000,-11.000000,-5.000000,14.000000,25.000000
1303460.280034,-5.000000,-4.000000,-38.000000,-59.000000,-24.000000,-6.000000,-26.000000,-40.000000
1303460.280070,46.000000,1.000000,49.000000,75.000000,16.000000,3.000000,10.000000,32.000000
1303460.280625,-54.000000,-10.000000,11.000000,-27.000000,-19.000000,-31.000000,-128.000000,-75.000000
1303460.280655,13.000000,8.000000,25.000000,116.000000,28.000000,29.000000,117.000000,48.000000
1303460.281265,-1.000000,-2.000000,-19.000000,-18.000000,-3.000000,-9.000000,10.000000,1.000000
1303460.281274,-17.000000,-8.000000,-29.000000,-8.000000,-6.000000,15.000000,-3.000000,-25.000000
1303460.282539,15.000000,5.000000,8.000000,34.000000,49.000000,19.000000,72.000000,69.000000
1303460.282567,-8.000000,-8.000000,-14.000000,118.000000,22.000000,5.000000,-18.000000,-15.000000
1303460.295349,-30.000000,4.000000,28.000000,23.000000,1.000000,10.000000,29.000000,75.000000
1303460.295358,28.000000,5.000000,9.000000,5.000000,18.000000,3.000000,-128.000000,-78.000000
1303460.302199,30.000000,-1.000000,30.000000,-27.000000,-13.000000,9.000000,127.000000,119.000000
1303460.302209,-30.000000,3.000000,-10.000000,-21.000000,-7.000000,-12.000000,-13.000000,-7.000000
1303460.339849,-3.000000,-3.000000,36.000000,-11.000000,-5.000000,-14.000000,-95.000000,-19.000000
1303460.339860,1.000000,1.000000,-54.000000,-6.000000,-5.000000,0.000000,84.000000,-4.000000
1303460.354621,30.000000,3.000000,-1.000000,6.000000,2.000000,4.000000,-26.000000,5.000000
1303460.354645,14.000000,3.000000,1.000000,5.000000,5.000000,12.000000,0.000000,4.000000
1303460.355579,-20.000000,0.000000,-25.000000,-67.000000,-13.000000,-23.000000,12.000000,-51.000000
1303460.355588,12.000000,-3.000000,31.000000,127.000000,50.000000,15.000000,23.000000,45.000000
1303460.356141,-44.000000,-3.000000,-36.000000,-62.000000,-15.000000,-6.000000,-5.000000,0.000000
1303460.356149,26.000000,-3.000000,47.000000,42.000000,40.000000,9.000000,-23.000000,-19.000000
1303460.357759,-34.000000,-1.000000,32.000000,-3.000000,-22.000000,-1.000000,22.000000,-10.000000
1303460.357774,-11.000000,4.000000,-23.000000,-20.000000,59.000000,7.000000,-21.000000,14.000000
1303460.369475,2.000000,-9.000000,20.000000,-42.000000,-24.000000,-13.000000,32.000000,7.000000
1303460.369494,11.000000,-2.000000,22.000000,-31.000000,-11.000000,-14.000000,-69.000000,-5.000000
1303460.377701,8.000000,0.000000,-49.000000,-32.000000,2.000000,9.000000,112.000000,35.000000
1303460.377727,1.000000,-1.000000,39.000000,127.000000,-10.000000,-13.000000,-42.000000,-19.000000
1303460.378386,4.000000,-6.000000,-9.000000,-72.000000,-14.000000,18.000000,78.000000,7.000000
1303460.378396,1.000000,0.000000,0.000000,-48.000000,-21.000000,-2.000000,-8.000000,-11.000000
1303460.400439,-26.000000,3.000000,-8.000000,-36.000000,-24.000000,-42.000000,-19.000000,16.000000
1303460.400453,9.000000,-2.000000,35.000000,2.000000,11.000000,-9.000000,-60.000000,-40.000000
1303460.401028,16.000000,-4.000000,26.000000,20.000000,8.000000,8.000000,37.000000,58.000000
1303460.401038,-10.000000,0.000000,-18.000000,8.000000,-5.000000,-7.000000,-2.000000,-25.000000
1303460.414551,-12.000000,-1.000000,-3.000000,-19.000000,-9.000000,0.000000,-15.000000,-11.000000
1303460.414565,24.000000,-8.000000,22.000000,14.000000,7.000000,11.000000,-23.000000,-8.000000
1303460.421938,-9.000000,-9.000000,-2.000000,54.000000,31.000000,-7.000000,-15.000000,-7.000000
1303460.421948,-3.000000,-1.000000,-13.000000,22.000000,-8.000000,4.000000,32.000000,28.000000
1303460.459535,9.000000,-4.000000,23.000000,-30.000000,11.000000,9.000000,14.000000,40.000000
1303460.459546,8.000000,-5.000000,-13.000000,-10.000000,-10.000000,-3.000000,-10.000000,-13.000000
1303460.467031,-5.000000,-9.000000,19.000000,-26.000000,-6.000000,-1.000000,-35.000000,-27.000000
1303460.467042,2.000000,1.000000,-38.000000,-66.000000,-19.000000,-16.000000,-38.000000,-12.000000
1303460.482717,5.000000,0.000000,-90.000000,87.000000,63.000000,25.000000,98.000000,36.000000
1303460.482729,8.000000,5.000000,11.000000,59.000000,2.000000,-1.000000,-4.000000,-39.000000
1303460.483235,-11.000000,-3.000000,56.000000,-29.000000,-19.000000,-8.000000,-11.000000,73.000000
1303460.483248,-5.000000,-1.000000,-17.000000,-63.000000,-14.000000,-9.000000,-53.000000,-33.000000
1303460.484450,1.000000,-1.000000,9.000000,96.000000,14.000000,14.000000,92.000000,-2.000000
1303460.484460,3.000000,4.000000,9.000000,5.000000,-3.000000,-20.000000,-31.000000,17.000000
1303460.485300,-18.000000,0.000000,1.000000,3.000000,14.000000,10.000000,31.000000,-16.000000
1303460.485310,-16.000000,8.000000,-12.000000,-32.000000,7.000000,-13.000000,-28.000000,-35.000000
1303460.497558,18.000000,2.000000,7.000000,15.000000,-5.000000,18.000000,56.000000,58.000000
1303460.497573,10.000000,5.000000,-15.000000,-29.000000,-9.000000,-10.000000,-88.000000,-66.000000
1303460.498354,-19.000000,-6.000000,-7.000000,-78.000000,-38.000000,-9.000000,13.000000,32.000000
1303460.498364,-13.000000,-1.000000,-19.000000,-67.000000,11.000000,7.000000,-25.000000,-13.000000
1303460.519944,24.000000,-1.000000,42.000000,127.000000,87.000000,30.000000,-6.000000,9.000000
1303460.519952,8.000000,-5.000000,-17.000000,-2.000000,-5.000000,-5.000000,-43.000000,-32.000000
1303460.520708,12.000000,2.000000,74.000000,-39.000000,-21.000000,-3.000000,56.000000,38.000000
1303460.520716,-10.000000,-2.000000,-49.000000,-4.000000,-5.000000,-16.000000,-28.000000,-2.000000
1303460.557214,-14.000000,-1.000000,14.000000,37.000000,14.000000,-6.000000,-8.000000,-20.000000
1303460.557236,5.000000,-4.000000,-13.000000,2.000000,-4.000000,-17.000000,-77.000000,-14.000000
1303460.564726,23.000000,4.000000,39.000000,35.000000,10.000000,25.000000,127.000000,59.000000
1303460.564745,-16.000000,0.000000,-34.000000,-36.000000,-17.000000,1.000000,8.000000,38.000000
1303460.594752,-23.000000,-2.000000,-9.000000,3.000000,-6.000000,-4.000000,-42.000000,-56.000000
1303460.594769,-11.000000,3.000000,19.000000,4.000000,-9.000000,7.000000,-34.000000,-24.000000
1303460.595204,27.000000,0.000000,5.000000,-39.000000,-7.000000,-8.000000,60.000000,45.000000
1303460.595219,-20.000000,-3.000000,-11.000000,49.000000,19.000000,7.000000,13.000000,13.000000
1303460.596154,3.000000,12.000000,-6.000000,-1.000000,6.000000,-14.000000,-46.000000,-19.000000
1303460.596163,-8.000000,-1.000000,12.000000,-15.000000,-12.000000,-7.000000,18.000000,-15.000000
1303460.596851,0.000000,0.000000,-33.000000,-17.000000,-8.000000,0.000000,-8.000000,-4.000000
1303460.596860,-2.000000,-3.000000,24.000000,-128.000000,-60.000000,-20.000000,-43.000000,-32.000000
1303460.617100,7.000000,-1.000000,-10.000000,-66.000000,-18.000000,-16.000000,-8.000000,17.000000
1303460.617110,-15.000000,-11.000000,-55.000000,-30.000000,-22.000000,-14.000000,1.000000,-26.000000
1303460.633144,5.000000,6.000000,20.000000,-11.000000,-10.000000,9.000000,-13.000000,-38.000000
1303460.633161,12.000000,-5.000000,-25.000000,74.000000,6.000000,-12.000000,31.000000,35.000000
1303460.633551,-21.000000,0.000000,-12.000000,-21.000000,-14.000000,9.000000,-60.000000,-30.000000
1303460.633564,11.000000,-8.000000,1.000000,10.000000,11.000000,7.000000,45.000000,17.000000
1303460.634668,-10.000000,5.000000,-6.000000,-30.000000,-14.000000,0.000000,-50.000000,-5.000000
1303460.634676,3.000000,-11.000000,-8.000000,-1.000000,32.000000,-6.000000,-2.000000,1.000000
1303460.654722,-6.000000,-5.000000,-11.000000,52.000000,-2.000000,-8.000000,3.000000,6.000000
1303460.654732,-7.000000,-1.000000,-11.000000,-28.000000,-13.000000,-4.000000,-8.000000,-7.000000
1303460.692508,-8.000000,-2.000000,22.000000,41.000000,6.000000,-4.000000,-65.000000,-50.000000
1303460.692537,-24.000000,-4.000000,-69.000000,-30.000000,-11.000000,5.000000,71.000000,38.000000
1303460.699659,11.000000,-2.000000,11.000000,-3.000000,-3.000000,-6.000000,13.000000,8.000000
1303460.699668,12.000000,4.000000,-21.000000,-73.000000,-28.000000,-14.000000,18.000000,43.000000
1303460.737012,7.000000,-3.000000,43.000000,49.000000,37.000000,5.000000,-35.000000,-11.000000
1303460.737030,-27.000000,4.000000,-29.000000,-10.000000,19.000000,8.000000,-5.000000,-25.000000
1303460.737542,-4.000000,2.000000,-15.000000,81.000000,14.000000,5.000000,-12.000000,2.000000
1303460.737554,10.000000,8.000000,10.000000,-36.000000,-25.000000,-7.000000,-79.000000,-29.000000
1303460.738789,-1.000000,4.000000,41.000000,-16.000000,10.000000,4.000000,24.000000,8.000000
1303460.738796,19.000000,5.000000,6.000000,-16.000000,-10.000000,4.000000,9.000000,29.000000
1303460.740195,0.000000,6.000000,12.000000,-9.000000,1.000000,0.000000,66.000000,31.000000
1303460.740204,-2.000000,-1.000000,2.000000,-34.000000,-18.000000,-12.000000,-1.000000,-12.000000
1303460.752042,-11.000000,-9.000000,67.000000,-10.000000,13.000000,7.000000,7.000000,-6.000000
1303460.752061,11.000000,3.000000,21.000000,76.000000,20.000000,13.000000,6.000000,9.000000
1303460.775063,-30.000000,-5.000000,-64.000000,-45.000000,-16.000000,-6.000000,-24.000000,-20.000000
1303460.775080,-1.000000,-16.000000,-30.000000,-19.000000,-27.000000,-12.000000,6.000000,-9.000000
1303460.789635,-9.000000,2.000000,-6.000000,-38.000000,11.000000,17.000000,-2.000000,-9.000000
1303460.789646,3.000000,-3.000000,-9.000000,-30.000000,-16.000000,-2.000000,5.000000,23.000000
1303460.804839,-5.000000,0.000000,24.000000,-39.000000,-21.000000,-18.000000,6.000000,-10.000000
1303460.804852,-16.000000,4.000000,-26.000000,-42.000000,-7.000000,6.000000,-56.000000,-3.000000
1303460.812435,23.000000,-4.000000,19.000000,-38.000000,-20.000000,-14.000000,53.000000,9.000000
1303460.812448,16.000000,-4.000000,53.000000,49.000000,16.000000,8.000000,13.000000,46.000000
1303460.849639,-12.000000,2.000000,-48.000000,4.000000,-3.000000,-5.000000,1.000000,-27.000000
1303460.849649,-12.000000,-2.000000,-10.000000,-13.000000,-20.000000,1.000000,-67.000000,-49.000000
1303460.857355,33.000000,-7.000000,38.000000,-2.000000,0.000000,-8.000000,22.000000,6.000000
1303460.857367,-5.000000,9.000000,-9.000000,-16.000000,4.000000,9.000000,-32.000000,-11.000000
1303460.872416,-9.000000,-7.000000,2.000000,-6.000000,19.000000,1.000000,-29.000000,-12.000000
1303460.872425,54.000000,-3.000000,-8.000000,56.000000,23.000000,7.000000,15.000000,12.000000
1303460.873069,-5.000000,-5.000000,-24.000000,-28.000000,-19.000000,-5.000000,38.000000,42.000000
1303460.873079,-3.000000,14.000000,-57.000000,2.000000,-5.000000,0.000000,-18.000000,-19.000000
1303460.875085,-8.000000,6.000000,-9.000000,-9.000000,-17.000000,-3.000000,-4.000000,16.000000
1303460.875103,-1.000000,5.000000,21.000000,15.000000,23.000000,8.000000,-55.000000,-37.000000
1303460.894885,-52.000000,3.000000,-21.000000,25.000000,8.000000,-1.000000,-23.000000,-47.000000
1303460.894898,-4.000000,8.000000,22.000000,-16.000000,3.000000,19.000000,20.000000,33.000000
1303460.924580,10.000000,-6.000000,-11.000000,-34.000000,-4.000000,-7.000000,13.000000,-32.000000
1303460.924591,12.000000,0.000000,13.000000,32.000000,-3.000000,3.000000,4.000000,23.000000
1303460.932005,1.000000,-4.000000,-6.000000,-75.000000,-24.000000,-10.000000,19.000000,-33.000000
1303460.932015,-2.000000,3.000000,24.000000,78.000000,36.000000,30.000000,32.000000,29.000000
1303460.969714,-16.000000,-1.000000,-31.000000,-128.000000,-15.000000,-20.000000,-41.000000,-2.000000
1303460.969768,0.000000,-10.000000,38.000000,127.000000,89.000000,24.000000,127.000000,-11.000000
1303460.970038,58.000000,-2.000000,-14.000000,5.000000,23.000000,14.000000,-33.000000,70.000000
1303460.970067,-64.000000,4.000000,-11.000000,-39.000000,-27.000000,-8.000000,-102.000000,-32.000000
1303460.971316,-2.000000,-1.000000,-4.000000,-110.000000,-47.000000,-22.000000,102.000000,-9.000000
1303460.971361,-8.000000,2.000000,-15.000000,96.000000,69.000000,22.000000,-8.000000,-19.000000
1303460.971947,5.000000,-10.000000,-21.000000,-22.000000,-17.000000,-11.000000,-22.000000,7.000000
1303460.971963,5.000000,0.000000,-12.000000,1.000000,11.000000,2.000000,44.000000,35.000000
1303460.992126,-1.000000,0.000000,7.000000,-21.000000,-20.000000,-13.000000,-36.000000,-21.000000
1303460.992138,-3.000000,3.000000,-22.000000,-25.000000,-6.000000,-8.000000,-70.000000,-45.000000
1303460.993787,-4.000000,-11.000000,36.000000,-21.000000,-18.000000,1.000000,24.000000,28.000000
1303460.993800,6.000000,6.000000,-48.000000,53.000000,33.000000,15.000000,73.000000,21.000000
1303461.015215,11.000000,-6.000000,8.000000,-28.000000,-12.000000,4.000000,1.000000,4.000000
1303461.015228,-4.000000,-5.000000,-2.000000,69.000000,-1.000000,-11.000000,-28.000000,-19.000000
1303461.037077,-27.000000,-4.000000,-60.000000,-105.000000,-40.000000,-8.000000,-98.000000,-108.000000
1303461.037087,22.000000,-3.000000,-10.000000,85.000000,41.000000,13.000000,85.000000,115.000000
1303461.044517,15.000000,5.000000,-30.000000,-35.000000,-2.000000,-10.000000,-28.000000,73.000000
1303461.044537,-17.000000,-1.000000,21.000000,-26.000000,-14.000000,7.000000,40.000000,-18.000000
1303461.074600,5.000000,-6.000000,-4.000000,-12.000000,-2.000000,-11.000000,-27.000000,0.000000
1303461.074668,2.000000,4.000000,11.000000,-38.000000,-16.000000,-15.000000,-55.000000,-37.000000
1303461.075041,-9.000000,3.000000,-54.000000,76.000000,1.000000,13.000000,42.000000,-7.000000
1303461.075069,8.000000,-2.000000,-24.000000,-41.000000,-17.000000,-1.000000,-77.000000,3.000000
1303461.076196,21.000000,3.000000,44.000000,-57.000000,-27.000000,2.000000,97.000000,25.000000
1303461.076211,-5.000000,5.000000,99.000000,102.000000,55.000000,26.000000,-10.000000,-1.000000
1303461.076841,11.000000,-1.000000,0.000000,-45.000000,-17.000000,-7.000000,-30.000000,-13.000000
1303461.076850,-4.000000,5.000000,-23.000000,-48.000000,-13.000000,-13.000000,-14.000000,-14.000000
1303461.078319,2.000000,-7.000000,1.000000,-14.000000,-6.000000,0.000000,-24.000000,6.000000
1303461.078328,-1.000000,-2.000000,-31.000000,35.000000,0.000000,-1.000000,-6.000000,-13.000000
1303461.082238,-5.000000,-3.000000,-10.000000,-38.000000,-7.000000,-11.000000,-11.000000,4.000000
1303461.082251,18.000000,-13.000000,13.000000,65.000000,0.000000,-1.000000,-29.000000,19.000000
1303461.112540,-16.000000,6.000000,10.000000,22.000000,22.000000,16.000000,24.000000,8.000000
1303461.112550,-4.000000,1.000000,16.000000,18.000000,-13.000000,-5.000000,-4.000000,9.000000
1303461.113207,57.000000,4.000000,23.000000,1.000000,16.000000,2.000000,16.000000,3.000000
1303461.113299,-16.000000,2.000000,-22.000000,-1.000000,26.000000,2.000000,1.000000,31.000000
1303461.114693,2.000000,1.000000,-18.000000,-41.000000,-21.000000,-11.000000,5.000000,-13.000000
1303461.114709,-11.000000,0.000000,6.000000,47.000000,-1.000000,-10.000000,-17.000000,-22.000000
1303461.119523,11.000000,-3.000000,-52.000000,29.000000,-11.000000,10.000000,13.000000,-3.000000
1303461.119543,-4.000000,0.000000,51.000000,-101.000000,-28.000000,-12.000000,-35.000000,-9.000000
1303461.134646,5.000000,-3.000000,29.000000,116.000000,33.000000,25.000000,35.000000,14.000000
1303461.134656,8.000000,2.000000,-12.000000,-20.000000,-26.000000,-22.000000,-128.000000,-107.000000
1303461.149629,-1.000000,1.000000,55.000000,-31.000000,1.000000,26.000000,127.000000,103.000000
1303461.149639,21.000000,-3.000000,7.000000,-37.000000,-16.000000,5.000000,127.000000,49.000000
1303461.187151,-42.000000,-6.000000,-29.000000,99.000000,55.000000,2.000000,-53.000000,-23.000000
1303461.187163,5.000000,3.000000,-2.000000,-46.000000,-22.000000,-5.000000,-51.000000,-58.000000
1303461.209430,-12.000000,-1.000000,-27.000000,11.000000,-4.000000,-14.000000,-20.000000,15.000000
1303461.209466,-9.000000,6.000000,-13.000000,-128.000000,-46.000000,-25.000000,-29.000000,-27.000000
1303461.210646,49.000000,2.000000,14.000000,127.000000,127.000000,50.000000,72.000000,28.000000
1303461.210666,-23.000000,4.000000,-12.000000,-45.000000,-21.000000,-10.000000,-43.000000,3.000000
1303461.211293,21.000000,0.000000,-16.000000,-31.000000,-1.000000,-11.000000,56.000000,8.000000
1303461.211302,5.000000,-7.000000,18.000000,-22.000000,-8.000000,-10.000000,28.000000,33.000000
1303461.212462,-6.000000,0.000000,-15.000000,-15.000000,-20.000000,-7.000000,-42.000000,-19.000000
1303461.212470,-36.000000,0.000000,-18.000000,33.000000,-5.000000,-9.000000,10.000000,-13.000000
1303461.213389,-14.000000,1.000000,0.000000,-52.000000,-14.000000,-6.000000,-21.000000,-39.000000
1303461.213407,2.000000,-3.000000,-38.000000,24.000000,9.000000,5.000000,-3.000000,20.000000
1303461.247380,-7.000000,2.000000,-36.000000,-13.000000,-5.000000,2.000000,56.000000,0.000000
1303461.247392,4.000000,-1.000000,-25.000000,-5.000000,-11.000000,-2.000000,63.000000,37.000000
1303461.292081,9.000000,-5.000000,-10.000000,26.000000,-1.000000,5.000000,42.000000,13.000000
1303461.292116,-19.000000,3.000000,-27.000000,-29.000000,-11.000000,-5.000000,-28.000000,-4.000000
1303461.307299,11.000000,2.000000,-24.000000,-46.000000,-8.000000,-2.000000,-11.000000,-8.000000
1303461.307309,-14.000000,-5.000000,-4.000000,22.000000,14.000000,2.000000,80.000000,50.000000
1303461.329674,0.000000,-1.000000,-29.000000,8.000000,13.000000,-8.000000,-34.000000,-30.000000
1303461.329686,-13.000000,-1.000000,-5.000000,43.000000,-18.000000,-7.000000,-22.000000,22.000000
1303461.330037,-19.000000,-8.000000,-1.000000,-46.000000,-12.000000,6.000000,9.000000,8.000000
1303461.330046,3.000000,-5.000000,-32.000000,-28.000000,-6.000000,-6.000000,-24.000000,-23.000000
1303461.331568,18.000000,5.000000,-7.000000,50.000000,34.000000,2.000000,11.000000,8.000000
1303461.331581,-45.000000,-2.000000,-35.000000,-128.000000,-46.000000,-13.000000,-22.000000,-21.000000
1303461.332680,-18.000000,3.000000,18.000000,-1.000000,-6.000000,-5.000000,6.000000,4.000000
1303461.332691,-6.000000,1.000000,7.000000,-29.000000,-20.000000,-13.000000,-118.000000,-72.000000
1303461.352106,-81.000000,5.000000,1.000000,-30.000000,-26.000000,-10.000000,-23.000000,-2.000000
1303461.352116,40.000000,5.000000,-16.000000,-3.000000,12.000000,18.000000,40.000000,15.000000
1303461.367326,-17.000000,-1.000000,-23.000000,71.000000,52.000000,4.000000,-38.000000,-34.000000
1303461.367337,1.000000,-1.000000,-5.000000,-36.000000,-9.000000,-1.000000,-39.000000,-23.000000
1303461.389716,-6.000000,0.000000,42.000000,-73.000000,-48.000000,-22.000000,-72.000000,-36.000000
1303461.389735,21.000000,-5.000000,26.000000,127.000000,96.000000,49.000000,112.000000,53.000000
1303461.412431,17.000000,5.000000,6.000000,-70.000000,-34.000000,-9.000000,-17.000000,-7.000000
1303461.412444,-2.000000,-4.000000,32.000000,62.000000,10.000000,0.000000,-56.000000,-25.000000
1303461.427094,6.000000,0.000000,-62.000000,-50.000000,-18.000000,-18.000000,51.000000,1.000000
1303461.427106,-14.000000,0.000000,-1.000000,83.000000,24.000000,4.000000,-31.000000,-17.000000
1303461.428281,10.000000,-3.000000,47.000000,-3.000000,2.000000,5.000000,21.000000,18.000000
1303461.428295,-8.000000,-4.000000,1.000000,-97.000000,-21.000000,6.000000,-10.000000,-19.000000
1303461.428962,-6.000000,0.000000,-21.000000,-4.000000,19.000000,7.000000,9.000000,-10.000000
1303461.428987,3.000000,0.000000,-19.000000,71.000000,37.000000,3.000000,3.000000,40.000000
1303461.430128,0.000000,-4.000000,13.000000,1.000000,6.000000,-11.000000,-32.000000,-21.000000
1303461.430137,6.000000,-2.000000,34.000000,-9.000000,-7.000000,13.000000,17.000000,11.000000
1303461.449655,11.000000,0.000000,2.000000,23.000000,8.000000,-1.000000,-11.000000,10.000000
1303461.449665,-33.000000,0.000000,-40.000000,-99.000000,-41.000000,-26.000000,-95.000000,-128.000000
1303461.464657,124.000000,-5.000000,70.000000,127.000000,70.000000,53.000000,127.000000,127.000000
1303461.464669,-8.000000,-1.000000,-13.000000,66.000000,54.000000,24.000000,20.000000,-4.000000
1303461.487071,-17.000000,-6.000000,-15.000000,-29.000000,-17.000000,-13.000000,-39.000000,-15.000000
1303461.487091,2.000000,3.000000,-44.000000,-128.000000,-26.000000,-22.000000,-51.000000,-24.000000
1303461.502238,-6.000000,-2.000000,-21.000000,126.000000,54.000000,11.000000,-52.000000,-28.000000
1303461.502251,-4.000000,-4.000000,-28.000000,-13.000000,-8.000000,3.000000,87.000000,-1.000000
1303461.524755,13.000000,8.000000,-56.000000,-70.000000,-27.000000,-8.000000,17.000000,33.000000
1303461.524766,-13.000000,-8.000000,3.000000,-6.000000,12.000000,-17.000000,-37.000000,-11.000000
1303461.532227,-14.000000,5.000000,28.000000,101.000000,49.000000,24.000000,34.000000,34.000000
1303461.532238,-2.000000,-1.000000,15.000000,-50.000000,-19.000000,7.000000,-83.000000,-36.000000
1303461.562331,5.000000,0.000000,8.000000,-24.000000,0.000000,9.000000,19.000000,3.000000
1303461.562343,5.000000,0.000000,-18.000000,-13.000000,-8.000000,3.000000,6.000000,16.000000
1303461.562903,0.000000,7.000000,40.000000,-29.000000,-23.000000,-21.000000,-32.000000,-14.000000
1303461.562911,26.000000,0.000000,-11.000000,42.000000,-19.000000,0.000000,-8.000000,-67.000000
1303461.563299,-15.000000,-3.000000,-3.000000,-2.000000,-19.000000,-11.000000,-42.000000,-24.000000
1303461.563306,-11.000000,3.000000,3.000000,58.000000,21.000000,2.000000,-46.000000,-53.000000
1303461.569995,7.000000,1.000000,-9.000000,-22.000000,-11.000000,0.000000,23.000000,14.000000
1303461.570006,-2.000000,-2.000000,-15.000000,-41.000000,-13.000000,0.000000,-33.000000,-14.000000
1303461.571281,-7.000000,-1.000000,-20.000000,-99.000000,-19.000000,-9.000000,-15.000000,-22.000000
1303461.571311,20.000000,-3.000000,32.000000,75.000000,11.000000,15.000000,28.000000,7.000000
1303461.584403,-29.000000,-10.000000,-9.000000,-47.000000,-5.000000,-4.000000,-8.000000,12.000000
1303461.584414,6.000000,-3.000000,48.000000,18.000000,3.000000,3.000000,-22.000000,-17.000000
1303461.585172,-1.000000,2.000000,-28.000000,-15.000000,-26.000000,-2.000000,-8.000000,-38.000000
1303461.585182,-18.000000,2.000000,16.000000,-32.000000,-7.000000,-5.000000,9.000000,22.000000
1303461.629695,25.000000,0.000000,-60.000000,50.000000,19.000000,17.000000,124.000000,76.000000
1303461.629706,6.000000,4.000000,18.000000,-24.000000,-10.000000,-10.000000,-70.000000,2.000000
1303461.637104,-37.000000,6.000000,-36.000000,-26.000000,7.000000,-15.000000,127.000000,-13.000000
1303461.637115,5.000000,-4.000000,8.000000,-34.000000,-15.000000,-11.000000,-53.000000,-23.000000
1303461.682359,-9.000000,-4.000000,-19.000000,-28.000000,-23.000000,-9.000000,-66.000000,-61.000000
1303461.682389,9.000000,-4.000000,2.000000,32.000000,43.000000,22.000000,21.000000,6.000000
1303461.682836,-5.000000,-5.000000,-29.000000,-63.000000,-10.000000,-17.000000,3.000000,53.000000
1303461.682851,-1.000000,0.000000,-20.000000,38.000000,15.000000,-3.000000,-51.000000,-35.000000
1303461.683953,-11.000000,1.000000,6.000000,-24.000000,-6.000000,5.000000,98.000000,39.000000
1303461.683962,-1.000000,-7.000000,34.000000,-19.000000,-18.000000,4.000000,18.000000,31.000000
1303461.684485,7.000000,-11.000000,-4.000000,18.000000,14.000000,2.000000,-15.000000,-15.000000
1303461.684512,20.000000,-3.000000,33.000000,12.000000,-6.000000,-4.000000,-12.000000,-9.000000
1303461.685324,7.000000,-4.000000,-11.000000,-65.000000,-26.000000,-16.000000,-128.000000,-63.000000
1303461.685346,-28.000000,-8.000000,-10.000000,-11.000000,5.000000,17.000000,127.000000,84.000000
1303461.686216,35.000000,-2.000000,30.000000,6.000000,10.000000,4.000000,-18.000000,-2.000000
1303461.686247,-36.000000,5.000000,9.000000,-52.000000,-42.000000,-32.000000,-51.000000,-25.000000
1303461.704504,27.000000,0.000000,-14.000000,2.000000,-2.000000,-1.000000,-24.000000,62.000000
1303461.704546,-36.000000,-2.000000,-36.000000,-12.000000,-12.000000,-7.000000,20.000000,16.000000
1303461.705105,13.000000,1.000000,14.000000,0.000000,-18.000000,0.000000,19.000000,-6.000000
1303461.705113,-9.000000,-8.000000,-15.000000,18.000000,21.000000,0.000000,-26.000000,-15.000000
1303461.712634,-7.000000,6.000000,6.000000,6.000000,-2.000000,-4.000000,-86.000000,-61.000000
1303461.712671,9.000000,-10.000000,-49.000000,-104.000000,-40.000000,-3.000000,46.000000,64.000000
1303461.727406,-14.000000,-2.000000,79.000000,127.000000,52.000000,11.000000,-23.000000,-57.000000
1303461.727435,27.000000,-4.000000,10.000000,-23.000000,-1.000000,25.000000,127.000000,64.000000
1303461.764958,1.000000,-3.000000,-19.000000,-86.000000,-34.000000,-16.000000,-43.000000,-27.000000
1303461.764975,19.000000,-1.000000,13.000000,-41.000000,-11.000000,0.000000,-25.000000,19.000000
1303461.787317,-32.000000,5.000000,-31.000000,-9.000000,-17.000000,-7.000000,-25.000000,-23.000000
1303461.787370,0.000000,-2.000000,-12.000000,4.000000,2.000000,-4.000000,-26.000000,-45.000000
1303461.788245,-12.000000,-3.000000,-29.000000,-49.000000,-16.000000,-6.000000,5.000000,37.000000
1303461.788257,28.000000,-2.000000,-76.000000,95.000000,44.000000,26.000000,94.000000,48.000000
1303461.788783,7.000000,-8.000000,28.000000,93.000000,-8.000000,0.000000,-38.000000,20.000000
1303461.788792,-12.000000,3.000000,-11.000000,-15.000000,-8.000000,-19.000000,-7.000000,-27.000000
1303461.794977,-3.000000,-3.000000,-4.000000,-33.000000,-10.000000,-1.000000,-36.000000,-41.000000
1303461.794985,14.000000,-1.000000,6.000000,-3.000000,-3.000000,-4.000000,38.000000,24.000000
1303461.795789,-33.000000,4.000000,-14.000000,-11.000000,-1.000000,-8.000000,-4.000000,-2.000000
1303461.795820,-7.000000,3.000000,-3.000000,-24.000000,-7.000000,-12.000000,-43.000000,-11.000000
1303461.801982,3.000000,3.000000,-8.000000,0.000000,10.000000,15.000000,9.000000,-44.000000
1303461.801993,33.000000,-4.000000,31.000000,-65.000000,-26.000000,-11.000000,7.000000,19.000000
1303461.802883,-14.000000,-1.000000,53.000000,10.000000,10.000000,-5.000000,-6.000000,37.000000
1303461.802911,-2.000000,1.000000,-24.000000,-83.000000,-27.000000,-9.000000,-71.000000,-30.000000
1303461.824626,-17.000000,-7.000000,-22.000000,-14.000000,22.000000,16.000000,95.000000,8.000000
1303461.824671,2.000000,-4.000000,7.000000,33.000000,-17.000000,-13.000000,-27.000000,-9.000000
1303461.825123,-4.000000,-2.000000,23.000000,-7.000000,-18.000000,-3.000000,-31.000000,-37.000000
1303461.825139,-2.000000,-2.000000,-26.000000,-128.000000,-19.000000,-21.000000,19.000000,31.000000
1303461.847382,9.000000,7.000000,26.000000,127.000000,52.000000,13.000000,12.000000,24.000000
1303461.847393,10.000000,7.000000,19.000000,-38.000000,-12.000000,9.000000,23.000000,2.000000
1303461.862236,-6.000000,1.000000,17.000000,6.000000,-7.000000,-8.000000,-5.000000,15.000000
1303461.862257,-10.000000,5.000000,-14.000000,14.000000,5.000000,-1.000000,-21.000000,13.000000
1303461.884640,-12.000000,-1.000000,-7.000000,-19.000000,-10.000000,-7.000000,-37.000000,-49.000000
1303461.884650,1.000000,-2.000000,0.000000,12.000000,10.000000,-22.000000,93.000000,51.000000
1303461.907846,15.000000,-1.000000,33.000000,-22.000000,18.000000,5.000000,46.000000,2.000000
1303461.907862,4.000000,0.000000,-23.000000,-5.000000,1.000000,-4.000000,-37.000000,9.000000
1303461.908717,-9.000000,-7.000000,5.000000,-78.000000,-62.000000,-16.000000,-33.000000,-18.000000
1303461.908726,25.000000,-4.000000,18.000000,23.000000,29.000000,10.000000,-20.000000,2.000000
1303461.909298,-22.000000,0.000000,-35.000000,-5.000000,1.000000,-7.000000,-19.000000,-5.000000
1303461.909306,-15.000000,-1.000000,-5.000000,-31.000000,-4.000000,-5.000000,5.000000,4.000000
1303461.910706,-3.000000,-2.000000,24.000000,-10.000000,5.000000,0.000000,-27.000000,-23.000000
1303461.910723,10.000000,-2.000000,12.000000,-92.000000,-34.000000,-27.000000,-19.000000,-21.000000
1303461.911573,-5.000000,1.000000,-97.000000,53.000000,39.000000,7.000000,25.000000,15.000000
1303461.911581,14.000000,2.000000,22.000000,30.000000,7.000000,5.000000,4.000000,-5.000000
1303461.922135,-2.000000,0.000000,15.000000,20.000000,5.000000,6.000000,0.000000,-13.000000
1303461.922150,-6.000000,-4.000000,-22.000000,-33.000000,-21.000000,-12.000000,-68.000000,-17.000000
1303461.922619,1.000000,-2.000000,2.000000,-19.000000,-9.000000,3.000000,19.000000,-16.000000
1303461.922628,-6.000000,2.000000,40.000000,-1.000000,-5.000000,-11.000000,-13.000000,8.000000
1303461.945141,5.000000,-3.000000,-9.000000,11.000000,-7.000000,-4.000000,-125.000000,-26.000000
1303461.945155,21.000000,3.000000,100.000000,10.000000,-2.000000,2.000000,127.000000,49.000000
1303461.945848,-28.000000,1.000000,20.000000,-33.000000,-9.000000,-13.000000,-21.000000,18.000000
1303461.945876,6.000000,1.000000,1.000000,-7.000000,-6.000000,12.000000,1.000000,11.000000
1303461.959843,-19.000000,1.000000,-52.000000,-56.000000,-38.000000,-13.000000,-27.000000,-20.000000
1303461.959874,5.000000,-2.000000,11.000000,58.000000,23.000000,23.000000,-3.000000,13.000000
1303461.967257,-1.000000,-3.000000,12.000000,-77.000000,-27.000000,-6.000000,-13.000000,-24.000000
1303461.967275,-1.000000,0.000000,15.000000,-48.000000,-9.000000,-5.000000,-4.000000,-13.000000
1303461.989643,3.000000,3.000000,-19.000000,28.000000,0.000000,-8.000000,0.000000,-7.000000
1303461.989661,-6.000000,-2.000000,-11.000000,-20.000000,-6.000000,-9.000000,-15.000000,-5.000000
1303462.004509,2.000000,7.000000,-34.000000,-128.000000,-43.000000,3.000000,22.000000,25.000000
1303462.004519,12.000000,-5.000000,22.000000,127.000000,73.000000,18.000000,18.000000,22.000000
1303462.027219,-5.000000,1.000000,-18.000000,-82.000000,-31.000000,-23.000000,-83.000000,-62.000000
1303462.027229,4.000000,-3.000000,-103.000000,-43.000000,-38.000000,16.000000,127.000000,54.000000
1303462.042880,-3.000000,-3.000000,20.000000,4.000000,3.000000,-12.000000,-31.000000,24.000000
1303462.042917,-4.000000,-1.000000,-27.000000,-20.000000,-15.000000,-9.000000,-84.000000,-33.000000
1303462.043619,-3.000000,2.000000,9.000000,-48.000000,-14.000000,4.000000,39.000000,-20.000000
1303462.043652,-8.000000,-2.000000,0.000000,37.000000,17.000000,6.000000,58.000000,35.000000
1303462.043911,26.000000,-4.000000,50.000000,34.000000,-5.000000,-2.000000,-23.000000,-7.000000
1303462.043918,7.000000,-2.000000,21.000000,-11.000000,-10.000000,1.000000,-6.000000,-16.000000
1303462.045150,-25.000000,1.000000,16.000000,-19.000000,-8.000000,-21.000000,-30.000000,-30.000000
1303462.045158,14.000000,5.000000,-24.000000,38.000000,6.000000,14.000000,62.000000,14.000000
1303462.046093,-35.000000,2.000000,-5.000000,-11.000000,-12.000000,-12.000000,11.000000,-2.000000
1303462.046133,4.000000,-4.000000,-8.000000,-43.000000,-13.000000,-14.000000,-37.000000,-29.000000
1303462.064469,12.000000,-1.000000,21.000000,87.000000,56.000000,12.000000,8.000000,28.000000
1303462.064501,5.000000,2.000000,-50.000000,-93.000000,-39.000000,-13.000000,-3.000000,6.000000
1303462.064913,3.000000,1.000000,-11.000000,76.000000,13.000000,8.000000,13.000000,6.000000
1303462.064940,-8.000000,0.000000,24.000000,-38.000000,-16.000000,-6.000000,-22.000000,-8.000000
1303462.079921,9.000000,-3.000000,5.000000,44.000000,-5.000000,6.000000,-1.000000,-4.000000
1303462.079935,-23.000000,4.000000,-18.000000,-24.000000,-22.000000,-9.000000,9.000000,1.000000
1303462.087337,6.000000,-2.000000,13.000000,3.000000,-19.000000,7.000000,7.000000,-1.000000
1303462.087350,-4.000000,-1.000000,-4.000000,59.000000,5.000000,-2.000000,-14.000000,3.000000
1303462.124844,33.000000,1.000000,8.000000,-9.000000,-10.000000,0.000000,106.000000,18.000000
1303462.124855,-4.000000,-7.000000,33.000000,-30.000000,-18.000000,5.000000,6.000000,-4.000000
1303462.139752,-25.000000,-4.000000,-37.000000,-41.000000,-14.000000,-8.000000,-78.000000,-54.000000
1303462.139766,27.000000,3.000000,-10.000000,-2.000000,8.000000,5.000000,-58.000000,16.000000
1303462.162091,11.000000,-4.000000,-1.000000,41.000000,17.000000,-6.000000,60.000000,9.000000
1303462.162104,-22.000000,-3.000000,11.000000,-2.000000,1.000000,-3.000000,-58.000000,-15.000000
1303462.177408,-9.000000,1.000000,-17.000000,17.000000,-4.000000,-4.000000,-9.000000,-50.000000
1303462.177437,11.000000,-4.000000,17.000000,-15.000000,-10.000000,-8.000000,28.000000,36.000000
1303462.192214,7.000000,-5.000000,-23.000000,58.000000,33.000000,11.000000,21.000000,11.000000
1303462.192227,0.000000,-3.000000,10.000000,76.000000,15.000000,-6.000000,-21.000000,-21.000000
1303462.199462,-7.000000,3.000000,32.000000,-25.000000,-22.000000,-4.000000,-20.000000,-24.000000
1303462.199472,-1.000000,0.000000,-35.000000,10.000000,-4.000000,7.000000,19.000000,-4.000000
1303462.222580,16.000000,1.000000,-4.000000,-19.000000,-1.000000,-1.000000,11.000000,35.000000
1303462.222591,6.000000,-4.000000,27.000000,-6.000000,-14.000000,-8.000000,-22.000000,-28.000000
1303462.230083,5.000000,-11.000000,2.000000,-119.000000,-37.000000,-22.000000,-76.000000,-1.000000
1303462.230119,14.000000,-1.000000,31.000000,127.000000,109.000000,58.000000,127.000000,41.000000
1303462.237200,-1.000000,-1.000000,47.000000,-91.000000,-29.000000,-19.000000,-27.000000,24.000000
1303462.237221,-5.000000,-9.000000,38.000000,126.000000,24.000000,-19.000000,-55.000000,-31.000000
1303462.244491,2.000000,6.000000,-16.000000,-26.000000,-9.000000,-23.000000,-51.000000,-33.000000
1303462.244507,-14.000000,-3.000000,0.000000,46.000000,-5.000000,15.000000,127.000000,56.000000
1303462.244887,18.000000,-5.000000,18.000000,-7.000000,-6.000000,-3.000000,-40.000000,-25.000000
1303462.244895,-5.000000,2.000000,23.000000,-3.000000,-3.000000,5.000000,-2.000000,-6.000000
1303462.246252,-21.000000,2.000000,-6.000000,-68.000000,-33.000000,-32.000000,-42.000000,-40.000000
1303462.246297,-6.000000,-6.000000,17.000000,6.000000,14.000000,8.000000,9.000000,-16.000000
1303462.247008,-4.000000,-4.000000,23.000000,87.000000,64.000000,2.000000,11.000000,11.000000
1303462.247017,15.000000,6.000000,-1.000000,-89.000000,-26.000000,-12.000000,-9.000000,2.000000
1303462.247711,-54.000000,-1.000000,-4.000000,73.000000,27.000000,0.000000,-106.000000,-73.000000
1303462.247748,12.000000,-3.000000,-22.000000,-17.000000,-4.000000,-3.000000,127.000000,63.000000
1303462.259469,-22.000000,0.000000,-25.000000,32.000000,-12.000000,-4.000000,-75.000000,-57.000000
1303462.259478,6.000000,7.000000,-7.000000,27.000000,17.000000,14.000000,106.000000,35.000000
1303462.267219,22.000000,1.000000,18.000000,-64.000000,-11.000000,-7.000000,-18.000000,-3.000000
1303462.267229,-17.000000,-3.000000,-10.000000,21.000000,9.000000,-2.000000,-40.000000,-20.000000
1303462.275383,7.000000,-1.000000,-3.000000,16.000000,16.000000,-8.000000,-54.000000,-6.000000
1303462.275394,0.000000,-5.000000,10.000000,-17.000000,-15.000000,-14.000000,64.000000,10.000000
1303462.282380,-17.000000,-3.000000,-8.000000,8.000000,7.000000,6.000000,-30.000000,15.000000
1303462.282399,-3.000000,-1.000000,4.000000,-87.000000,-36.000000,-12.000000,-14.000000,-27.000000
1303462.297823,7.000000,-3.000000,73.000000,127.000000,62.000000,13.000000,-25.000000,-16.000000
1303462.297852,-6.000000,-10.000000,6.000000,-41.000000,-34.000000,-15.000000,-39.000000,1.000000
1303462.319735,11.000000,-6.000000,-19.000000,-50.000000,-26.000000,-4.000000,93.000000,10.000000
1303462.319748,-9.000000,2.000000,-3.000000,-7.000000,-3.000000,-6.000000,-16.000000,-4.000000
1303462.357336,-10.000000,-3.000000,1.000000,5.000000,-7.000000,0.000000,-20.000000,-23.000000
1303462.357348,7.000000,-7.000000,-24.000000,76.000000,-11.000000,-6.000000,-6.000000,-3.000000
1303462.364859,2.000000,-2.000000,-31.000000,23.000000,-13.000000,6.000000,-4.000000,-3.000000
1303462.364869,-2.000000,7.000000,-24.000000,29.000000,19.000000,9.000000,24.000000,10.000000
1303462.379978,-8.000000,-2.000000,-38.000000,-25.000000,-6.000000,14.000000,-32.000000,-32.000000
1303462.379987,10.000000,-3.000000,9.000000,30.000000,10.000000,0.000000,18.000000,16.000000
1303462.380967,5.000000,3.000000,4.000000,-26.000000,-7.000000,0.000000,64.000000,52.000000
