# participant_id: P8
# gesture: hard
# trial_number: 1
# stream_name: Myo_EMG
# stream_type: emg
# timestamp: 20260420_152144
# samples: 5288
# duration_sec: 30.435
# nominal_sample_rate: 200.0
# effective_sample_rate: 173.71
#
timestamp,emg_1,emg_2,emg_3,emg_4,emg_5,emg_6,emg_7,emg_8
1303196.189371,-3.000000,-12.000000,-32.000000,-128.000000,-48.000000,-23.000000,-22.000000,-44.000000
1303196.189391,30.000000,5.000000,65.000000,127.000000,85.000000,49.000000,-2.000000,82.000000
1303196.196641,16.000000,-3.000000,26.000000,-51.000000,-11.000000,3.000000,-32.000000,-25.000000
1303196.196660,30.000000,5.000000,-47.000000,-23.000000,-4.000000,0.000000,19.000000,-16.000000
1303196.220175,2.000000,4.000000,18.000000,-20.000000,-8.000000,-16.000000,-85.000000,-23.000000
1303196.220204,-3.000000,-5.000000,4.000000,47.000000,10.000000,12.000000,21.000000,11.000000
1303196.220594,27.000000,1.000000,-12.000000,-12.000000,-2.000000,0.000000,-6.000000,-17.000000
1303196.220621,-72.000000,-5.000000,-9.000000,-29.000000,-46.000000,-26.000000,-88.000000,-33.000000
1303196.221568,74.000000,-1.000000,-3.000000,-3.000000,29.000000,33.000000,86.000000,67.000000
1303196.221576,14.000000,0.000000,-23.000000,-36.000000,-19.000000,-8.000000,-14.000000,3.000000
1303196.222464,-6.000000,-1.000000,13.000000,9.000000,4.000000,-7.000000,4.000000,4.000000
1303196.222472,0.000000,-3.000000,-8.000000,-52.000000,-16.000000,-7.000000,-47.000000,-28.000000
1303196.234555,-70.000000,-2.000000,-4.000000,-15.000000,-7.000000,-5.000000,-4.000000,-23.000000
1303196.234588,15.000000,1.000000,10.000000,-62.000000,-17.000000,-6.000000,17.000000,52.000000
1303196.235425,5.000000,-6.000000,8.000000,76.000000,28.000000,8.000000,-9.000000,-13.000000
1303196.235434,-7.000000,-6.000000,26.000000,54.000000,-8.000000,-4.000000,17.000000,-10.000000
1303196.256586,-2.000000,5.000000,-11.000000,-74.000000,-20.000000,-5.000000,-31.000000,-14.000000
1303196.256596,-18.000000,-4.000000,-20.000000,-4.000000,-13.000000,-14.000000,-6.000000,11.000000
1303196.257340,1.000000,2.000000,1.000000,4.000000,6.000000,-7.000000,9.000000,22.000000
1303196.257348,-7.000000,-1.000000,3.000000,-3.000000,-19.000000,-5.000000,2.000000,-34.000000
1303196.279300,-12.000000,6.000000,-38.000000,-67.000000,-41.000000,-3.000000,65.000000,43.000000
1303196.279332,31.000000,-6.000000,12.000000,119.000000,40.000000,26.000000,-10.000000,17.000000
1303196.294393,3.000000,2.000000,-7.000000,-14.000000,11.000000,15.000000,-7.000000,-9.000000
1303196.294403,-10.000000,-1.000000,23.000000,56.000000,4.000000,-6.000000,-32.000000,-4.000000
1303196.331964,0.000000,-4.000000,-23.000000,-25.000000,-12.000000,-5.000000,8.000000,-13.000000
1303196.332020,-40.000000,-5.000000,-9.000000,-18.000000,-6.000000,-7.000000,28.000000,-9.000000
1303196.339316,-12.000000,-2.000000,3.000000,-2.000000,-7.000000,7.000000,48.000000,77.000000
1303196.339338,-3.000000,1.000000,-42.000000,16.000000,-24.000000,-7.000000,-49.000000,-14.000000
1303196.340151,9.000000,-4.000000,3.000000,-32.000000,-13.000000,-2.000000,-9.000000,-17.000000
1303196.340178,-5.000000,-2.000000,11.000000,-15.000000,-16.000000,-6.000000,47.000000,-5.000000
1303196.340855,14.000000,-6.000000,24.000000,9.000000,-2.000000,7.000000,1.000000,48.000000
1303196.340870,18.000000,3.000000,-21.000000,1.000000,-9.000000,-7.000000,-26.000000,-30.000000
1303196.342444,-18.000000,2.000000,4.000000,17.000000,9.000000,11.000000,19.000000,9.000000
1303196.342511,14.000000,6.000000,-35.000000,-12.000000,-25.000000,1.000000,31.000000,-15.000000
1303196.354845,-27.000000,3.000000,-7.000000,46.000000,10.000000,10.000000,-49.000000,-27.000000
1303196.354853,2.000000,-6.000000,-48.000000,-57.000000,-16.000000,-9.000000,32.000000,-22.000000
1303196.355559,-12.000000,-8.000000,24.000000,-1.000000,-1.000000,-20.000000,-40.000000,30.000000
1303196.355567,11.000000,1.000000,-22.000000,-36.000000,-16.000000,10.000000,-19.000000,-25.000000
1303196.376705,20.000000,-6.000000,-18.000000,-15.000000,-2.000000,-16.000000,84.000000,21.000000
1303196.376723,-41.000000,-3.000000,3.000000,-1.000000,1.000000,-5.000000,-29.000000,-24.000000
1303196.377343,-3.000000,4.000000,-1.000000,27.000000,6.000000,3.000000,-17.000000,1.000000
1303196.377351,24.000000,-4.000000,-23.000000,-91.000000,-40.000000,-20.000000,-82.000000,-48.000000
1303196.414849,-1.000000,-2.000000,-5.000000,-20.000000,18.000000,25.000000,127.000000,54.000000
1303196.414860,29.000000,-8.000000,22.000000,25.000000,5.000000,5.000000,-24.000000,5.000000
1303196.421802,11.000000,1.000000,-35.000000,-20.000000,-15.000000,-9.000000,-23.000000,-46.000000
1303196.421821,-15.000000,-3.000000,-6.000000,-39.000000,-7.000000,-5.000000,11.000000,23.000000
1303196.452105,-12.000000,3.000000,10.000000,9.000000,1.000000,-4.000000,-34.000000,-8.000000
1303196.452129,-10.000000,-6.000000,16.000000,-38.000000,-5.000000,16.000000,28.000000,22.000000
1303196.452469,3.000000,1.000000,20.000000,-66.000000,-33.000000,-29.000000,-23.000000,-10.000000
1303196.452476,36.000000,4.000000,15.000000,14.000000,16.000000,17.000000,1.000000,12.000000
1303196.453308,-15.000000,-4.000000,-38.000000,-23.000000,-10.000000,4.000000,-9.000000,-23.000000
1303196.453315,8.000000,0.000000,6.000000,-12.000000,-7.000000,-16.000000,41.000000,29.000000
1303196.453976,-3.000000,7.000000,-24.000000,13.000000,-1.000000,3.000000,-23.000000,-24.000000
1303196.453984,-12.000000,-1.000000,24.000000,9.000000,6.000000,-8.000000,-11.000000,-24.000000
1303196.459415,-3.000000,5.000000,0.000000,-74.000000,-40.000000,-24.000000,-68.000000,-2.000000
1303196.459425,21.000000,0.000000,-31.000000,115.000000,88.000000,35.000000,127.000000,27.000000
1303196.474624,2.000000,7.000000,10.000000,-22.000000,-10.000000,-5.000000,-14.000000,-14.000000
1303196.474641,-15.000000,-1.000000,-10.000000,-87.000000,-21.000000,-16.000000,-52.000000,-13.000000
1303196.475367,-19.000000,-1.000000,-9.000000,67.000000,37.000000,8.000000,36.000000,9.000000
1303196.475377,15.000000,-1.000000,9.000000,2.000000,-11.000000,-17.000000,-26.000000,3.000000
1303196.511756,22.000000,-1.000000,-17.000000,-21.000000,-12.000000,-4.000000,-5.000000,-14.000000
1303196.511766,15.000000,-5.000000,-14.000000,10.000000,1.000000,4.000000,-28.000000,-19.000000
1303196.519227,16.000000,-1.000000,16.000000,4.000000,11.000000,4.000000,21.000000,21.000000
1303196.519236,-2.000000,8.000000,-6.000000,-22.000000,-7.000000,-7.000000,-38.000000,-5.000000
1303196.541915,-10.000000,-3.000000,-43.000000,-16.000000,-11.000000,-2.000000,-5.000000,-27.000000
1303196.541925,27.000000,4.000000,20.000000,3.000000,15.000000,5.000000,55.000000,36.000000
1303196.549281,-31.000000,1.000000,-46.000000,-13.000000,-17.000000,-19.000000,-42.000000,-61.000000
1303196.549291,8.000000,1.000000,5.000000,-25.000000,-3.000000,-19.000000,-64.000000,35.000000
1303196.579320,-24.000000,3.000000,-10.000000,5.000000,-3.000000,24.000000,124.000000,19.000000
1303196.579331,24.000000,1.000000,-11.000000,-61.000000,-15.000000,-17.000000,-49.000000,-17.000000
1303196.594536,-48.000000,-6.000000,-29.000000,-56.000000,-20.000000,-6.000000,-41.000000,-43.000000
1303196.594548,46.000000,-3.000000,-10.000000,56.000000,36.000000,13.000000,2.000000,10.000000
1303196.609581,4.000000,3.000000,-39.000000,-12.000000,8.000000,3.000000,-3.000000,-15.000000
1303196.609590,2.000000,-4.000000,24.000000,-26.000000,-10.000000,-3.000000,-46.000000,7.000000
1303196.610205,15.000000,1.000000,31.000000,-3.000000,6.000000,2.000000,79.000000,7.000000
1303196.610213,0.000000,3.000000,0.000000,-29.000000,-1.000000,-3.000000,-5.000000,27.000000
1303196.611604,13.000000,-10.000000,-35.000000,-85.000000,-27.000000,-10.000000,-58.000000,7.000000
1303196.611622,2.000000,1.000000,-11.000000,127.000000,41.000000,6.000000,43.000000,-2.000000
1303196.612422,-3.000000,-1.000000,-15.000000,-92.000000,-20.000000,-5.000000,-19.000000,-44.000000
1303196.612430,19.000000,4.000000,10.000000,117.000000,38.000000,-8.000000,-3.000000,-10.000000
1303196.616649,-24.000000,9.000000,-24.000000,-40.000000,-2.000000,4.000000,40.000000,48.000000
1303196.616667,5.000000,1.000000,12.000000,-25.000000,-4.000000,-3.000000,-46.000000,-23.000000
1303196.631901,18.000000,3.000000,-23.000000,-11.000000,-1.000000,5.000000,36.000000,1.000000
1303196.631911,33.000000,-9.000000,8.000000,1.000000,1.000000,0.000000,-6.000000,24.000000
1303196.669315,-75.000000,-7.000000,18.000000,13.000000,-4.000000,-5.000000,-21.000000,-35.000000
1303196.669331,30.000000,-2.000000,30.000000,62.000000,48.000000,7.000000,-8.000000,5.000000
1303196.676505,3.000000,-3.000000,30.000000,8.000000,14.000000,8.000000,-7.000000,-5.000000
1303196.676514,18.000000,1.000000,4.000000,-35.000000,-21.000000,-7.000000,-3.000000,-9.000000
1303196.677854,-3.000000,-9.000000,-15.000000,-54.000000,-11.000000,0.000000,-6.000000,-17.000000
1303196.677863,-11.000000,-9.000000,14.000000,127.000000,59.000000,26.000000,39.000000,32.000000
1303196.678511,-9.000000,0.000000,29.000000,-21.000000,-4.000000,0.000000,1.000000,17.000000
1303196.678523,15.000000,6.000000,-29.000000,-20.000000,-14.000000,-8.000000,-10.000000,-29.000000
1303196.680040,-2.000000,2.000000,8.000000,51.000000,8.000000,-7.000000,-7.000000,2.000000
1303196.680049,-57.000000,2.000000,0.000000,-25.000000,-4.000000,5.000000,-16.000000,-27.000000
1303196.692332,32.000000,1.000000,-13.000000,60.000000,17.000000,-9.000000,18.000000,23.000000
1303196.692341,-36.000000,-3.000000,-11.000000,-14.000000,-5.000000,-10.000000,-10.000000,-24.000000
1303196.699493,22.000000,4.000000,-13.000000,-80.000000,-19.000000,3.000000,53.000000,20.000000
1303196.699503,-12.000000,4.000000,10.000000,51.000000,30.000000,6.000000,-24.000000,1.000000
1303196.729220,12.000000,-3.000000,-3.000000,-18.000000,2.000000,9.000000,-24.000000,-18.000000
1303196.729272,-5.000000,-2.000000,-34.000000,-1.000000,-5.000000,-1.000000,-9.000000,-16.000000
1303196.729975,-7.000000,-4.000000,5.000000,-20.000000,-10.000000,-6.000000,-10.000000,13.000000
1303196.729983,-7.000000,-6.000000,43.000000,12.000000,-8.000000,-1.000000,19.000000,8.000000
1303196.731463,-3.000000,7.000000,-19.000000,-24.000000,8.000000,5.000000,-42.000000,-13.000000
1303196.731474,13.000000,3.000000,6.000000,24.000000,2.000000,-10.000000,63.000000,-12.000000
1303196.752064,6.000000,-5.000000,-2.000000,-77.000000,-20.000000,-5.000000,-26.000000,13.000000
1303196.752079,-17.000000,-9.000000,-6.000000,127.000000,47.000000,18.000000,-16.000000,-14.000000
1303196.789562,2.000000,-3.000000,2.000000,10.000000,2.000000,10.000000,71.000000,52.000000
1303196.789776,-10.000000,-1.000000,8.000000,18.000000,0.000000,-2.000000,-38.000000,-3.000000
1303196.790084,-25.000000,-10.000000,-16.000000,-12.000000,5.000000,-5.000000,-21.000000,-37.000000
1303196.790093,20.000000,3.000000,-5.000000,-12.000000,-7.000000,-3.000000,28.000000,37.000000
1303196.791057,-16.000000,-13.000000,41.000000,-7.000000,-5.000000,-13.000000,-41.000000,-56.000000
1303196.791073,-12.000000,-7.000000,-29.000000,-10.000000,-16.000000,-5.000000,37.000000,31.000000
1303196.791600,-1.000000,-3.000000,39.000000,-36.000000,-6.000000,-4.000000,-56.000000,-4.000000
1303196.791608,-8.000000,-3.000000,-6.000000,55.000000,35.000000,15.000000,64.000000,4.000000
1303196.793185,10.000000,1.000000,16.000000,-22.000000,-8.000000,-9.000000,-9.000000,-9.000000
1303196.793214,-26.000000,-1.000000,-26.000000,-42.000000,-17.000000,-4.000000,-36.000000,-54.000000
1303196.796923,20.000000,0.000000,22.000000,101.000000,9.000000,6.000000,15.000000,27.000000
1303196.796942,-20.000000,2.000000,18.000000,-13.000000,-2.000000,-1.000000,33.000000,-10.000000
1303196.812313,-28.000000,3.000000,17.000000,-12.000000,-13.000000,-8.000000,-34.000000,13.000000
1303196.812350,9.000000,-9.000000,12.000000,33.000000,-9.000000,-8.000000,21.000000,-30.000000
1303196.834469,-4.000000,-3.000000,-45.000000,-48.000000,-12.000000,-5.000000,-6.000000,-11.000000
1303196.834479,23.000000,-1.000000,11.000000,14.000000,0.000000,-7.000000,38.000000,61.000000
1303196.835492,20.000000,2.000000,33.000000,127.000000,73.000000,27.000000,-21.000000,-15.000000
1303196.835500,13.000000,-3.000000,17.000000,-39.000000,-19.000000,-30.000000,-128.000000,-64.000000
1303196.836298,-42.000000,4.000000,-79.000000,-69.000000,-19.000000,-5.000000,127.000000,75.000000
1303196.836306,11.000000,-4.000000,-7.000000,58.000000,17.000000,3.000000,-11.000000,-1.000000
1303196.849945,10.000000,-7.000000,34.000000,2.000000,-14.000000,-4.000000,-60.000000,-22.000000
1303196.849993,-7.000000,6.000000,-26.000000,15.000000,-10.000000,-3.000000,21.000000,-12.000000
1303196.856630,-5.000000,-1.000000,-2.000000,-23.000000,-14.000000,-2.000000,27.000000,12.000000
1303196.856659,-1.000000,-4.000000,6.000000,-10.000000,-1.000000,-1.000000,-4.000000,-1.000000
1303196.886901,7.000000,0.000000,-20.000000,-30.000000,-8.000000,-5.000000,-14.000000,-16.000000
1303196.886913,-33.000000,-3.000000,-8.000000,13.000000,0.000000,-13.000000,-49.000000,-60.000000
1303196.894423,13.000000,1.000000,9.000000,42.000000,4.000000,4.000000,33.000000,47.000000
1303196.894434,11.000000,-5.000000,-8.000000,-27.000000,-17.000000,-8.000000,-24.000000,1.000000
1303196.931899,-64.000000,-5.000000,17.000000,-7.000000,-6.000000,-4.000000,18.000000,-8.000000
1303196.931978,28.000000,-1.000000,-2.000000,-29.000000,-15.000000,3.000000,3.000000,-2.000000
1303196.932153,-1.000000,0.000000,2.000000,-7.000000,-13.000000,12.000000,18.000000,0.000000
1303196.932161,-25.000000,-7.000000,2.000000,-20.000000,-20.000000,-15.000000,-97.000000,-59.000000
1303196.933457,-36.000000,2.000000,1.000000,-59.000000,-25.000000,-4.000000,118.000000,36.000000
1303196.933472,24.000000,-4.000000,7.000000,127.000000,65.000000,22.000000,8.000000,52.000000
1303196.934006,-12.000000,8.000000,-4.000000,-28.000000,-20.000000,-2.000000,-21.000000,-38.000000
1303196.934057,14.000000,-7.000000,5.000000,-18.000000,4.000000,-10.000000,-41.000000,12.000000
1303196.935497,-50.000000,-6.000000,-15.000000,-24.000000,-11.000000,-4.000000,-1.000000,-55.000000
1303196.935507,15.000000,-7.000000,9.000000,52.000000,5.000000,-5.000000,23.000000,34.000000
1303196.939109,-1.000000,3.000000,8.000000,-29.000000,11.000000,14.000000,-10.000000,-17.000000
1303196.939118,30.000000,0.000000,-17.000000,-55.000000,-18.000000,3.000000,-4.000000,18.000000
1303196.947254,9.000000,-7.000000,-42.000000,3.000000,-3.000000,-4.000000,-11.000000,-4.000000
1303196.947263,9.000000,-8.000000,-6.000000,-31.000000,-10.000000,-17.000000,-9.000000,-18.000000
1303196.969455,4.000000,0.000000,-14.000000,-43.000000,-11.000000,-4.000000,-1.000000,1.000000
1303196.969465,-52.000000,-1.000000,38.000000,40.000000,10.000000,5.000000,-4.000000,-19.000000
1303197.006691,-1.000000,-12.000000,-45.000000,-88.000000,-20.000000,-4.000000,-7.000000,6.000000
1303197.006701,-16.000000,-3.000000,24.000000,-11.000000,15.000000,3.000000,-7.000000,-19.000000
1303197.014268,31.000000,8.000000,-2.000000,-56.000000,-8.000000,5.000000,29.000000,36.000000
1303197.014278,8.000000,-2.000000,10.000000,127.000000,48.000000,5.000000,0.000000,-8.000000
1303197.051955,-17.000000,-8.000000,-6.000000,-36.000000,-15.000000,5.000000,-3.000000,8.000000
1303197.051966,37.000000,2.000000,-3.000000,-17.000000,-11.000000,-7.000000,-4.000000,10.000000
1303197.066988,22.000000,-6.000000,1.000000,9.000000,-5.000000,4.000000,-7.000000,-11.000000
1303197.066999,-4.000000,-8.000000,-4.000000,-15.000000,-6.000000,-4.000000,-31.000000,-22.000000
1303197.074887,8.000000,-5.000000,19.000000,-4.000000,2.000000,-6.000000,37.000000,2.000000
1303197.074897,-10.000000,-1.000000,-12.000000,-13.000000,2.000000,-4.000000,19.000000,13.000000
1303197.075356,18.000000,3.000000,7.000000,10.000000,-2.000000,-1.000000,6.000000,34.000000
1303197.075369,48.000000,-7.000000,-27.000000,-64.000000,-1.000000,-4.000000,-16.000000,-14.000000
1303197.075866,-71.000000,3.000000,-11.000000,127.000000,60.000000,6.000000,-23.000000,-35.000000
1303197.075875,20.000000,-11.000000,-9.000000,-45.000000,-12.000000,-7.000000,-11.000000,-10.000000
1303197.089218,13.000000,-4.000000,22.000000,36.000000,2.000000,-1.000000,-6.000000,11.000000
1303197.089240,10.000000,6.000000,10.000000,-18.000000,1.000000,5.000000,-16.000000,-13.000000
1303197.149486,19.000000,-4.000000,-7.000000,12.000000,-3.000000,1.000000,-2.000000,0.000000
1303197.149515,-4.000000,-3.000000,22.000000,15.000000,-3.000000,5.000000,-4.000000,8.000000
1303197.164484,7.000000,5.000000,-21.000000,-26.000000,-2.000000,-7.000000,7.000000,-4.000000
1303197.164501,-17.000000,3.000000,10.000000,23.000000,-37.000000,-8.000000,-7.000000,-12.000000
1303197.187151,20.000000,-1.000000,21.000000,-23.000000,-7.000000,-3.000000,-3.000000,13.000000
1303197.187201,-6.000000,2.000000,11.000000,-18.000000,-12.000000,-5.000000,-8.000000,-3.000000
1303197.209430,-13.000000,4.000000,10.000000,15.000000,10.000000,-9.000000,-83.000000,-69.000000
1303197.209455,-10.000000,-2.000000,17.000000,-31.000000,3.000000,9.000000,127.000000,102.000000
1303197.224441,-29.000000,-1.000000,5.000000,-13.000000,21.000000,7.000000,6.000000,37.000000
1303197.224460,19.000000,-10.000000,-1.000000,-51.000000,-15.000000,5.000000,20.000000,-15.000000
1303197.239582,1.000000,2.000000,-44.000000,-9.000000,-2.000000,-14.000000,-37.000000,-29.000000
1303197.239612,13.000000,3.000000,22.000000,114.000000,58.000000,14.000000,96.000000,86.000000
1303197.269500,-5.000000,1.000000,-6.000000,-27.000000,-15.000000,-18.000000,-19.000000,-19.000000
1303197.269615,-5.000000,-8.000000,-6.000000,-4.000000,-8.000000,-7.000000,-4.000000,-4.000000
1303197.270447,-57.000000,7.000000,15.000000,-33.000000,-18.000000,-19.000000,13.000000,-20.000000
1303197.270478,1.000000,-2.000000,2.000000,4.000000,-11.000000,3.000000,31.000000,38.000000
1303197.284163,25.000000,-6.000000,25.000000,-24.000000,0.000000,-13.000000,-37.000000,-38.000000
1303197.284183,-8.000000,2.000000,-9.000000,-3.000000,-12.000000,9.000000,24.000000,-3.000000
1303197.284755,37.000000,3.000000,7.000000,20.000000,23.000000,7.000000,18.000000,58.000000
1303197.284763,-13.000000,-2.000000,-11.000000,-111.000000,-18.000000,-6.000000,1.000000,-8.000000
1303197.285459,30.000000,2.000000,4.000000,69.000000,28.000000,10.000000,-20.000000,0.000000
1303197.285473,-11.000000,-3.000000,-1.000000,-14.000000,-10.000000,-12.000000,-24.000000,-38.000000
1303197.286589,-2.000000,-8.000000,-36.000000,26.000000,5.000000,5.000000,-5.000000,-11.000000
1303197.286611,-26.000000,-5.000000,7.000000,-24.000000,-6.000000,-19.000000,-16.000000,-6.000000
1303197.291796,2.000000,3.000000,83.000000,51.000000,-20.000000,-12.000000,-5.000000,-19.000000
1303197.291805,-6.000000,-7.000000,-18.000000,-47.000000,3.000000,13.000000,8.000000,20.000000
1303197.299480,5.000000,2.000000,26.000000,-36.000000,-16.000000,-9.000000,-7.000000,0.000000
1303197.299492,-21.000000,6.000000,-17.000000,-11.000000,-1.000000,1.000000,-42.000000,-22.000000
1303197.307463,11.000000,-4.000000,-2.000000,-15.000000,-14.000000,0.000000,4.000000,-6.000000
1303197.307472,8.000000,5.000000,0.000000,0.000000,-8.000000,-6.000000,42.000000,55.000000
1303197.329158,21.000000,9.000000,18.000000,39.000000,22.000000,11.000000,18.000000,33.000000
1303197.329168,-37.000000,-1.000000,-2.000000,51.000000,3.000000,-1.000000,-27.000000,-11.000000
1303197.366817,15.000000,-2.000000,-7.000000,-35.000000,-12.000000,-6.000000,-2.000000,7.000000
1303197.366837,-12.000000,2.000000,-24.000000,9.000000,7.000000,0.000000,-13.000000,-8.000000
1303197.389324,6.000000,-5.000000,-32.000000,-26.000000,1.000000,-5.000000,-50.000000,-17.000000
1303197.389334,-38.000000,-3.000000,18.000000,-14.000000,2.000000,6.000000,37.000000,-11.000000
1303197.404974,19.000000,3.000000,6.000000,41.000000,9.000000,-13.000000,-3.000000,22.000000
1303197.404984,18.000000,1.000000,-19.000000,11.000000,-1.000000,5.000000,12.000000,11.000000
1303197.406117,-56.000000,-2.000000,-1.000000,4.000000,1.000000,0.000000,-9.000000,-12.000000
1303197.406131,27.000000,2.000000,25.000000,-76.000000,-19.000000,2.000000,-10.000000,-3.000000
1303197.406548,-11.000000,0.000000,7.000000,70.000000,19.000000,8.000000,-7.000000,-5.000000
1303197.406556,-7.000000,-10.000000,-2.000000,-65.000000,-10.000000,-1.000000,-2.000000,-13.000000
1303197.407209,-19.000000,1.000000,-4.000000,31.000000,10.000000,-7.000000,4.000000,11.000000
1303197.407217,23.000000,-4.000000,-8.000000,-40.000000,-8.000000,-5.000000,-3.000000,1.000000
1303197.408044,1.000000,-5.000000,-29.000000,75.000000,34.000000,11.000000,43.000000,-9.000000
1303197.408053,2.000000,-2.000000,19.000000,-6.000000,-6.000000,1.000000,6.000000,21.000000
1303197.411879,2.000000,0.000000,21.000000,37.000000,26.000000,-3.000000,-24.000000,-3.000000
1303197.411891,-4.000000,0.000000,6.000000,-4.000000,-14.000000,-4.000000,10.000000,19.000000
1303197.426877,23.000000,9.000000,-37.000000,0.000000,-3.000000,5.000000,-15.000000,-28.000000
1303197.426891,-1.000000,-4.000000,5.000000,-13.000000,-3.000000,5.000000,12.000000,24.000000
1303197.427999,0.000000,0.000000,46.000000,-5.000000,-8.000000,-3.000000,-18.000000,-35.000000
1303197.428008,-30.000000,9.000000,-39.000000,-5.000000,1.000000,-11.000000,-14.000000,-10.000000
1303197.441643,12.000000,-5.000000,40.000000,-9.000000,3.000000,18.000000,20.000000,6.000000
1303197.441653,9.000000,7.000000,-20.000000,16.000000,-4.000000,-3.000000,-3.000000,-15.000000
1303197.464264,1.000000,2.000000,8.000000,-4.000000,-5.000000,-1.000000,0.000000,2.000000
1303197.464284,-17.000000,5.000000,-5.000000,-48.000000,-11.000000,-19.000000,-101.000000,-33.000000
1303197.494634,30.000000,2.000000,-25.000000,-46.000000,-12.000000,6.000000,127.000000,10.000000
1303197.494645,-22.000000,-3.000000,20.000000,36.000000,20.000000,-7.000000,30.000000,38.000000
1303197.524340,-13.000000,2.000000,-4.000000,-29.000000,-12.000000,-5.000000,-29.000000,-19.000000
1303197.524356,20.000000,-1.000000,4.000000,-16.000000,-20.000000,-11.000000,-21.000000,17.000000
1303197.524622,-22.000000,-6.000000,-33.000000,114.000000,53.000000,12.000000,7.000000,-7.000000
1303197.524630,-45.000000,3.000000,-5.000000,-51.000000,-13.000000,-17.000000,-21.000000,-14.000000
1303197.525990,15.000000,-7.000000,9.000000,-35.000000,-14.000000,-4.000000,-10.000000,-14.000000
1303197.526023,-32.000000,-8.000000,20.000000,21.000000,30.000000,17.000000,-6.000000,-5.000000
1303197.526641,7.000000,-3.000000,-10.000000,37.000000,12.000000,-3.000000,6.000000,-4.000000
1303197.526654,4.000000,4.000000,5.000000,-16.000000,0.000000,5.000000,7.000000,7.000000
1303197.527227,3.000000,4.000000,-39.000000,-23.000000,-10.000000,-5.000000,-12.000000,0.000000
1303197.527235,2.000000,-5.000000,5.000000,44.000000,2.000000,5.000000,32.000000,13.000000
1303197.546611,4.000000,-7.000000,7.000000,7.000000,-9.000000,-7.000000,-13.000000,-5.000000
1303197.546622,29.000000,7.000000,-33.000000,10.000000,-5.000000,-12.000000,25.000000,22.000000
1303197.561996,20.000000,4.000000,1.000000,-10.000000,7.000000,1.000000,-22.000000,-10.000000
1303197.562007,-1.000000,0.000000,4.000000,22.000000,8.000000,8.000000,1.000000,-24.000000
1303197.606837,1.000000,-6.000000,-15.000000,-28.000000,-7.000000,-1.000000,103.000000,79.000000
1303197.606866,31.000000,-3.000000,4.000000,10.000000,5.000000,2.000000,-38.000000,-2.000000
1303197.621869,-9.000000,1.000000,-13.000000,-47.000000,-5.000000,-2.000000,-8.000000,-38.000000
1303197.621889,1.000000,-2.000000,-6.000000,66.000000,15.000000,8.000000,24.000000,18.000000
1303197.644437,-5.000000,5.000000,-1.000000,-78.000000,-15.000000,-8.000000,-12.000000,-8.000000
1303197.644550,53.000000,9.000000,10.000000,43.000000,8.000000,15.000000,-21.000000,-23.000000
1303197.644894,-27.000000,-2.000000,3.000000,64.000000,-3.000000,-8.000000,34.000000,13.000000
1303197.644911,3.000000,-12.000000,-19.000000,-36.000000,-6.000000,-7.000000,2.000000,52.000000
1303197.646060,6.000000,1.000000,6.000000,-14.000000,-1.000000,-4.000000,-14.000000,-6.000000
1303197.646080,-5.000000,-1.000000,-5.000000,-9.000000,3.000000,-6.000000,-48.000000,-51.000000
1303197.646555,9.000000,-4.000000,13.000000,-2.000000,-11.000000,-2.000000,-12.000000,-13.000000
1303197.646563,-5.000000,1.000000,-16.000000,-7.000000,0.000000,-3.000000,-9.000000,-4.000000
1303197.647248,4.000000,0.000000,-6.000000,5.000000,1.000000,3.000000,17.000000,-21.000000
1303197.647256,11.000000,4.000000,51.000000,71.000000,1.000000,7.000000,-32.000000,-2.000000
1303197.658957,7.000000,-6.000000,-9.000000,-36.000000,4.000000,8.000000,10.000000,13.000000
1303197.658985,6.000000,5.000000,17.000000,-45.000000,-2.000000,0.000000,-2.000000,-7.000000
1303197.666783,-25.000000,0.000000,-13.000000,53.000000,22.000000,4.000000,-26.000000,-52.000000
1303197.666793,11.000000,2.000000,34.000000,1.000000,-1.000000,-2.000000,21.000000,63.000000
1303197.681934,4.000000,-1.000000,-4.000000,30.000000,0.000000,-3.000000,5.000000,14.000000
1303197.681944,5.000000,2.000000,-24.000000,-60.000000,-29.000000,-6.000000,-27.000000,-26.000000
1303197.689572,-11.000000,3.000000,-1.000000,123.000000,45.000000,-4.000000,-4.000000,-5.000000
1303197.689588,-23.000000,3.000000,-24.000000,-33.000000,-9.000000,-10.000000,-23.000000,-12.000000
1303197.719199,33.000000,4.000000,19.000000,-19.000000,-2.000000,-6.000000,0.000000,-16.000000
1303197.719208,3.000000,-5.000000,34.000000,15.000000,2.000000,-7.000000,26.000000,18.000000
1303197.726900,11.000000,2.000000,-3.000000,-7.000000,-8.000000,-12.000000,-17.000000,1.000000
1303197.726913,-16.000000,-4.000000,2.000000,-63.000000,-11.000000,-1.000000,2.000000,1.000000
1303197.741974,-23.000000,5.000000,5.000000,123.000000,28.000000,3.000000,13.000000,1.000000
1303197.741991,8.000000,5.000000,2.000000,-31.000000,-5.000000,7.000000,-32.000000,-14.000000
1303197.764422,29.000000,-1.000000,29.000000,-27.000000,-13.000000,-10.000000,63.000000,28.000000
1303197.764442,-9.000000,7.000000,19.000000,57.000000,14.000000,13.000000,0.000000,3.000000
1303197.779550,-18.000000,0.000000,-17.000000,-4.000000,-10.000000,5.000000,-34.000000,-47.000000
1303197.779568,16.000000,-7.000000,-1.000000,-2.000000,-5.000000,-2.000000,27.000000,46.000000
1303197.786754,27.000000,-6.000000,13.000000,-29.000000,-11.000000,-4.000000,-24.000000,-18.000000
1303197.786764,-28.000000,-1.000000,2.000000,7.000000,8.000000,0.000000,19.000000,-11.000000
1303197.802378,4.000000,10.000000,10.000000,-24.000000,-16.000000,-15.000000,-8.000000,4.000000
1303197.802387,11.000000,4.000000,9.000000,67.000000,23.000000,4.000000,14.000000,8.000000
1303197.802942,-19.000000,1.000000,27.000000,90.000000,5.000000,-5.000000,2.000000,3.000000
1303197.802950,8.000000,6.000000,-14.000000,16.000000,-9.000000,-7.000000,-15.000000,-24.000000
1303197.803336,0.000000,-3.000000,-12.000000,12.000000,1.000000,-16.000000,-20.000000,-5.000000
1303197.803344,1.000000,3.000000,-26.000000,17.000000,7.000000,-9.000000,-15.000000,-9.000000
1303197.803953,-8.000000,-6.000000,6.000000,-30.000000,-7.000000,4.000000,1.000000,-6.000000
1303197.804024,4.000000,-4.000000,-15.000000,-10.000000,-11.000000,-5.000000,7.000000,23.000000
1303197.804625,-29.000000,-2.000000,-10.000000,-37.000000,-20.000000,-9.000000,-30.000000,-40.000000
1303197.804632,-7.000000,0.000000,12.000000,0.000000,-11.000000,13.000000,58.000000,57.000000
1303197.816835,4.000000,-4.000000,30.000000,-10.000000,-5.000000,-6.000000,-6.000000,-3.000000
1303197.816848,26.000000,-1.000000,-42.000000,-15.000000,-7.000000,5.000000,-1.000000,-31.000000
1303197.817519,-14.000000,3.000000,5.000000,-19.000000,-3.000000,-13.000000,6.000000,29.000000
1303197.817527,-3.000000,-3.000000,7.000000,-24.000000,5.000000,3.000000,9.000000,22.000000
1303197.839311,2.000000,-3.000000,6.000000,23.000000,-11.000000,-2.000000,-36.000000,-41.000000
1303197.839331,-16.000000,-2.000000,-30.000000,-9.000000,18.000000,0.000000,31.000000,14.000000
1303197.839679,15.000000,-8.000000,10.000000,31.000000,2.000000,2.000000,37.000000,14.000000
1303197.839706,22.000000,-4.000000,8.000000,-26.000000,-5.000000,-7.000000,-18.000000,4.000000
1303197.846729,-7.000000,5.000000,-22.000000,-24.000000,-15.000000,-7.000000,-20.000000,-25.000000
1303197.846740,2.000000,-5.000000,49.000000,15.000000,9.000000,1.000000,-13.000000,-7.000000
1303197.861769,8.000000,-1.000000,-25.000000,29.000000,-10.000000,1.000000,3.000000,4.000000
1303197.861779,-14.000000,2.000000,-25.000000,-2.000000,-7.000000,0.000000,-37.000000,-26.000000
1303197.884745,58.000000,-2.000000,20.000000,-8.000000,-6.000000,6.000000,50.000000,54.000000
1303197.884759,-1.000000,-2.000000,13.000000,-41.000000,-2.000000,-3.000000,-5.000000,3.000000
1303197.885293,-31.000000,-3.000000,2.000000,1.000000,-6.000000,1.000000,-6.000000,1.000000
1303197.885340,-10.000000,-1.000000,-34.000000,16.000000,-2.000000,-3.000000,-6.000000,-9.000000
1303197.899308,6.000000,-5.000000,5.000000,55.000000,24.000000,16.000000,-4.000000,5.000000
1303197.899332,-1.000000,-3.000000,-9.000000,-24.000000,-12.000000,-3.000000,-4.000000,-15.000000
1303197.906952,29.000000,0.000000,-8.000000,-69.000000,-14.000000,-1.000000,7.000000,4.000000
1303197.906963,12.000000,7.000000,31.000000,91.000000,33.000000,6.000000,-8.000000,10.000000
1303197.944516,7.000000,1.000000,-4.000000,0.000000,-19.000000,-2.000000,35.000000,-13.000000
1303197.944541,0.000000,7.000000,-34.000000,-8.000000,-4.000000,4.000000,11.000000,32.000000
1303197.966874,-16.000000,-6.000000,-2.000000,-22.000000,-16.000000,-13.000000,-33.000000,-13.000000
1303197.966890,11.000000,-5.000000,-3.000000,71.000000,46.000000,26.000000,42.000000,14.000000
1303197.968029,-9.000000,2.000000,-9.000000,-45.000000,-15.000000,-16.000000,-1.000000,-19.000000
1303197.968043,6.000000,0.000000,50.000000,-17.000000,-9.000000,-3.000000,-24.000000,-27.000000
1303197.968703,-60.000000,-5.000000,33.000000,37.000000,22.000000,16.000000,7.000000,-5.000000
1303197.968729,-3.000000,-4.000000,-17.000000,-33.000000,-3.000000,-7.000000,9.000000,30.000000
1303197.969935,8.000000,7.000000,-12.000000,2.000000,-4.000000,3.000000,-9.000000,-15.000000
1303197.969943,-12.000000,1.000000,3.000000,-75.000000,-25.000000,-25.000000,-2.000000,-1.000000
1303197.970995,-11.000000,-5.000000,-6.000000,37.000000,8.000000,5.000000,-20.000000,-18.000000
1303197.971002,0.000000,3.000000,-5.000000,-10.000000,-1.000000,3.000000,-1.000000,-9.000000
1303197.981759,13.000000,1.000000,34.000000,-24.000000,-3.000000,-3.000000,28.000000,50.000000
1303197.981780,-17.000000,-4.000000,-4.000000,40.000000,-3.000000,-3.000000,-7.000000,-10.000000
1303197.982148,14.000000,3.000000,-15.000000,-8.000000,-1.000000,-10.000000,-28.000000,-16.000000
1303197.982175,-10.000000,-2.000000,4.000000,-19.000000,-10.000000,-3.000000,12.000000,-23.000000
1303197.996671,2.000000,-6.000000,15.000000,10.000000,4.000000,4.000000,7.000000,28.000000
1303197.996681,14.000000,-2.000000,-14.000000,-23.000000,-17.000000,-9.000000,-37.000000,-24.000000
1303198.004336,-61.000000,-4.000000,-1.000000,-13.000000,18.000000,-14.000000,-4.000000,-2.000000
1303198.004348,-11.000000,-5.000000,0.000000,-30.000000,-3.000000,12.000000,13.000000,23.000000
1303198.019255,28.000000,2.000000,-3.000000,39.000000,11.000000,7.000000,-3.000000,3.000000
1303198.019265,15.000000,-1.000000,-33.000000,-11.000000,7.000000,-3.000000,-10.000000,-11.000000
1303198.042025,8.000000,5.000000,20.000000,-2.000000,-4.000000,4.000000,-5.000000,-8.000000
1303198.042037,-8.000000,3.000000,-53.000000,-46.000000,7.000000,1.000000,-17.000000,-10.000000
1303198.079247,-15.000000,-5.000000,26.000000,19.000000,-1.000000,12.000000,22.000000,4.000000
1303198.079258,-1.000000,0.000000,10.000000,-1.000000,-2.000000,-7.000000,-5.000000,-7.000000
1303198.094355,-1.000000,1.000000,13.000000,-48.000000,-1.000000,5.000000,10.000000,33.000000
1303198.094366,-6.000000,2.000000,-9.000000,21.000000,10.000000,3.000000,-30.000000,-32.000000
1303198.117049,-6.000000,-4.000000,-18.000000,1.000000,-19.000000,-20.000000,-22.000000,-17.000000
1303198.117059,-28.000000,6.000000,1.000000,-27.000000,-1.000000,-11.000000,-29.000000,12.000000
1303198.117716,-26.000000,0.000000,-18.000000,20.000000,13.000000,4.000000,51.000000,-10.000000
1303198.117726,37.000000,0.000000,3.000000,-4.000000,1.000000,0.000000,-15.000000,-2.000000
1303198.119060,31.000000,1.000000,11.000000,-26.000000,-18.000000,1.000000,-6.000000,10.000000
1303198.119077,-43.000000,7.000000,-13.000000,10.000000,-7.000000,-17.000000,-11.000000,-11.000000
1303198.119803,4.000000,-2.000000,25.000000,-10.000000,-7.000000,3.000000,-11.000000,-20.000000
1303198.119819,10.000000,4.000000,-11.000000,44.000000,8.000000,5.000000,8.000000,12.000000
1303198.120534,9.000000,-3.000000,-3.000000,31.000000,10.000000,-4.000000,0.000000,-1.000000
1303198.120542,3.000000,-3.000000,-1.000000,-20.000000,0.000000,-1.000000,-9.000000,3.000000
1303198.123835,-12.000000,1.000000,-6.000000,8.000000,-9.000000,1.000000,-3.000000,7.000000
1303198.123844,6.000000,-6.000000,-37.000000,-2.000000,2.000000,3.000000,-4.000000,3.000000
1303198.139550,20.000000,4.000000,19.000000,52.000000,3.000000,-4.000000,-24.000000,-9.000000
1303198.139563,-27.000000,-1.000000,10.000000,-30.000000,-11.000000,-11.000000,-14.000000,5.000000
1303198.161880,7.000000,4.000000,-7.000000,3.000000,9.000000,10.000000,37.000000,-19.000000
1303198.161891,8.000000,3.000000,-19.000000,-12.000000,-4.000000,-6.000000,-4.000000,50.000000
1303198.176670,-9.000000,-5.000000,-40.000000,-28.000000,-21.000000,-10.000000,-15.000000,-11.000000
1303198.176680,18.000000,-7.000000,0.000000,28.000000,25.000000,9.000000,13.000000,7.000000
1303198.184275,-11.000000,-4.000000,12.000000,16.000000,7.000000,-3.000000,-27.000000,-19.000000
1303198.184286,-18.000000,-2.000000,18.000000,-41.000000,-36.000000,-15.000000,18.000000,-13.000000
1303198.206633,35.000000,2.000000,4.000000,80.000000,56.000000,18.000000,4.000000,7.000000
1303198.206643,9.000000,1.000000,-43.000000,-61.000000,-14.000000,3.000000,-6.000000,10.000000
1303198.214084,-54.000000,-3.000000,-13.000000,-6.000000,-7.000000,-20.000000,10.000000,-10.000000
1303198.214093,7.000000,7.000000,-14.000000,-8.000000,-9.000000,1.000000,5.000000,-26.000000
1303198.222136,-20.000000,2.000000,3.000000,-48.000000,-12.000000,0.000000,19.000000,33.000000
1303198.222145,-17.000000,0.000000,-1.000000,15.000000,11.000000,4.000000,19.000000,12.000000
1303198.222772,7.000000,4.000000,-22.000000,-5.000000,-1.000000,-5.000000,-17.000000,-6.000000
1303198.222781,-2.000000,-8.000000,-8.000000,-31.000000,-5.000000,-8.000000,-22.000000,-18.000000
1303198.223992,-7.000000,-4.000000,-5.000000,8.000000,-1.000000,4.000000,-2.000000,-30.000000
1303198.224020,7.000000,-6.000000,-9.000000,-5.000000,13.000000,8.000000,18.000000,34.000000
1303198.224649,-34.000000,-4.000000,-17.000000,-45.000000,-4.000000,-3.000000,-23.000000,-27.000000
1303198.224677,20.000000,4.000000,17.000000,-2.000000,-4.000000,-1.000000,-13.000000,-13.000000
1303198.229104,23.000000,0.000000,0.000000,11.000000,-1.000000,6.000000,3.000000,-6.000000
1303198.229132,1.000000,-2.000000,34.000000,-9.000000,-8.000000,-2.000000,46.000000,29.000000
1303198.245245,-23.000000,0.000000,3.000000,-25.000000,-13.000000,-10.000000,-51.000000,-30.000000
1303198.245256,-1.000000,0.000000,-35.000000,2.000000,3.000000,0.000000,6.000000,-2.000000
1303198.251691,-8.000000,3.000000,41.000000,40.000000,6.000000,3.000000,8.000000,-7.000000
1303198.251700,-5.000000,8.000000,-35.000000,-44.000000,-16.000000,-3.000000,3.000000,4.000000
1303198.281963,-24.000000,-5.000000,-17.000000,-41.000000,-23.000000,-5.000000,-16.000000,-12.000000
1303198.281974,33.000000,-7.000000,-5.000000,1.000000,1.000000,-18.000000,-21.000000,-17.000000
1303198.289632,-48.000000,-7.000000,2.000000,2.000000,-9.000000,-14.000000,21.000000,17.000000
1303198.289643,-4.000000,-6.000000,-10.000000,11.000000,-5.000000,10.000000,3.000000,0.000000
1303198.319589,13.000000,-1.000000,-7.000000,-26.000000,-11.000000,-14.000000,-9.000000,-4.000000
1303198.319611,-7.000000,2.000000,-16.000000,-1.000000,-7.000000,3.000000,2.000000,0.000000
1303198.334257,-11.000000,8.000000,4.000000,-17.000000,1.000000,3.000000,-5.000000,-16.000000
1303198.334267,2.000000,0.000000,-25.000000,10.000000,4.000000,-1.000000,-5.000000,2.000000
1303198.356997,25.000000,2.000000,8.000000,-30.000000,-10.000000,-4.000000,24.000000,20.000000
1303198.357110,-9.000000,-1.000000,15.000000,13.000000,4.000000,9.000000,25.000000,10.000000
1303198.357335,14.000000,5.000000,-5.000000,-2.000000,1.000000,10.000000,29.000000,9.000000
1303198.357348,-11.000000,2.000000,-12.000000,-13.000000,-14.000000,-9.000000,-20.000000,-25.000000
1303198.358458,-13.000000,2.000000,-4.000000,-23.000000,-10.000000,1.000000,-12.000000,-6.000000
1303198.358468,-8.000000,-4.000000,10.000000,31.000000,1.000000,-1.000000,-10.000000,-12.000000
1303198.359160,22.000000,-2.000000,-52.000000,-27.000000,-26.000000,-19.000000,-15.000000,-5.000000
1303198.359171,4.000000,-4.000000,-6.000000,76.000000,56.000000,19.000000,22.000000,12.000000
1303198.360176,-45.000000,-3.000000,22.000000,-14.000000,-3.000000,-11.000000,0.000000,17.000000
1303198.360196,5.000000,-6.000000,-30.000000,10.000000,12.000000,1.000000,-19.000000,-7.000000
1303198.379426,11.000000,-6.000000,-20.000000,-32.000000,-5.000000,-14.000000,-11.000000,-5.000000
1303198.379437,-43.000000,2.000000,38.000000,20.000000,0.000000,-1.000000,11.000000,-18.000000
1303198.394551,-3.000000,2.000000,-25.000000,-21.000000,-8.000000,2.000000,-31.000000,-3.000000
1303198.394712,5.000000,9.000000,9.000000,23.000000,-15.000000,2.000000,21.000000,15.000000
1303198.395443,12.000000,-5.000000,15.000000,28.000000,-2.000000,6.000000,27.000000,13.000000
1303198.395471,6.000000,-1.000000,-1.000000,-24.000000,-8.000000,-11.000000,-21.000000,-8.000000
1303198.396031,-3.000000,-5.000000,-36.000000,-41.000000,-5.000000,-4.000000,-25.000000,-15.000000
1303198.396058,-52.000000,6.000000,-12.000000,9.000000,-15.000000,-1.000000,7.000000,-7.000000
1303198.416639,43.000000,1.000000,1.000000,-19.000000,-5.000000,4.000000,-9.000000,5.000000
1303198.416669,8.000000,-1.000000,11.000000,40.000000,19.000000,2.000000,4.000000,-4.000000
1303198.439311,-5.000000,-6.000000,-27.000000,-24.000000,-17.000000,-2.000000,-10.000000,-8.000000
1303198.439329,55.000000,-1.000000,8.000000,47.000000,30.000000,2.000000,-22.000000,-2.000000
1303198.461835,-30.000000,-6.000000,-24.000000,20.000000,8.000000,10.000000,48.000000,29.000000
1303198.461845,-11.000000,3.000000,10.000000,-2.000000,25.000000,2.000000,-7.000000,-26.000000
1303198.477416,35.000000,8.000000,11.000000,-9.000000,-5.000000,-7.000000,10.000000,20.000000
1303198.477434,-36.000000,2.000000,14.000000,-8.000000,5.000000,4.000000,-2.000000,-5.000000
1303198.478660,11.000000,0.000000,1.000000,-3.000000,1.000000,9.000000,-3.000000,-20.000000
1303198.478676,-8.000000,-9.000000,-7.000000,-57.000000,-25.000000,-9.000000,-29.000000,-2.000000
1303198.478850,18.000000,-4.000000,16.000000,114.000000,62.000000,25.000000,23.000000,17.000000
1303198.478859,-31.000000,-7.000000,-19.000000,-45.000000,-8.000000,-4.000000,-19.000000,-32.000000
1303198.480122,-2.000000,-3.000000,7.000000,-1.000000,2.000000,-2.000000,-3.000000,-4.000000
1303198.480132,-11.000000,-2.000000,3.000000,-29.000000,-3.000000,2.000000,-26.000000,-12.000000
1303198.484914,45.000000,0.000000,0.000000,-62.000000,-10.000000,-2.000000,41.000000,18.000000
1303198.484956,-40.000000,1.000000,15.000000,51.000000,42.000000,21.000000,-2.000000,1.000000
1303198.499300,22.000000,1.000000,30.000000,-32.000000,-21.000000,-7.000000,-4.000000,4.000000
1303198.499317,-9.000000,2.000000,-8.000000,-35.000000,-18.000000,-4.000000,2.000000,15.000000
1303198.521972,-38.000000,-2.000000,31.000000,15.000000,8.000000,3.000000,-5.000000,-12.000000
1303198.521983,3.000000,6.000000,-3.000000,-35.000000,-8.000000,-4.000000,24.000000,41.000000
1303198.536664,-26.000000,-6.000000,-26.000000,17.000000,2.000000,-5.000000,-47.000000,-42.000000
1303198.536674,8.000000,-8.000000,-8.000000,-11.000000,-1.000000,-6.000000,15.000000,16.000000
1303198.559469,-16.000000,1.000000,-10.000000,-16.000000,0.000000,-10.000000,2.000000,13.000000
1303198.559481,-4.000000,-6.000000,8.000000,-8.000000,-3.000000,3.000000,-9.000000,-9.000000
1303198.566845,11.000000,-4.000000,-2.000000,-3.000000,-10.000000,-10.000000,-11.000000,-12.000000
1303198.566856,-14.000000,-6.000000,39.000000,20.000000,8.000000,-12.000000,-14.000000,-11.000000
1303198.574981,-46.000000,-4.000000,-24.000000,-51.000000,-14.000000,-7.000000,-14.000000,-7.000000
1303198.574995,-8.000000,6.000000,1.000000,127.000000,71.000000,30.000000,21.000000,-2.000000
1303198.575381,22.000000,2.000000,9.000000,-31.000000,-23.000000,-18.000000,12.000000,24.000000
1303198.575399,-18.000000,11.000000,-12.000000,-28.000000,-12.000000,-7.000000,-31.000000,-27.000000
1303198.577003,-9.000000,-2.000000,-2.000000,26.000000,0.000000,6.000000,3.000000,-6.000000
1303198.577023,5.000000,-5.000000,3.000000,-4.000000,1.000000,0.000000,-2.000000,-6.000000
1303198.597371,28.000000,-1.000000,-13.000000,7.000000,6.000000,-5.000000,21.000000,44.000000
1303198.597407,-32.000000,0.000000,-11.000000,10.000000,7.000000,7.000000,-47.000000,-36.000000
1303198.598043,-39.000000,3.000000,35.000000,0.000000,-4.000000,3.000000,55.000000,0.000000
1303198.598088,0.000000,1.000000,-22.000000,40.000000,8.000000,3.000000,-17.000000,-14.000000
1303198.619193,8.000000,-4.000000,3.000000,53.000000,11.000000,-8.000000,-14.000000,6.000000
1303198.619203,4.000000,-10.000000,38.000000,-13.000000,-5.000000,-10.000000,5.000000,4.000000
1303198.634157,25.000000,-1.000000,-39.000000,-31.000000,3.000000,-4.000000,-58.000000,-25.000000
1303198.634175,-21.000000,-2.000000,-2.000000,5.000000,-11.000000,-13.000000,77.000000,-8.000000
1303198.657055,22.000000,-4.000000,3.000000,27.000000,-1.000000,15.000000,-13.000000,3.000000
1303198.657067,9.000000,4.000000,11.000000,-13.000000,6.000000,17.000000,10.000000,20.000000
1303198.671664,-12.000000,-5.000000,-28.000000,-70.000000,-30.000000,-23.000000,-41.000000,-44.000000
1303198.671674,15.000000,3.000000,-4.000000,40.000000,20.000000,16.000000,38.000000,26.000000
1303198.679686,-10.000000,-9.000000,-10.000000,-5.000000,-6.000000,-5.000000,16.000000,19.000000
1303198.679709,3.000000,-2.000000,-32.000000,-4.000000,-12.000000,-13.000000,-40.000000,-5.000000
1303198.680221,-23.000000,1.000000,20.000000,-60.000000,-6.000000,-12.000000,-26.000000,-40.000000
1303198.680248,18.000000,-4.000000,28.000000,40.000000,9.000000,6.000000,6.000000,17.000000
1303198.681540,30.000000,-2.000000,19.000000,-25.000000,-10.000000,5.000000,72.000000,66.000000
1303198.681582,-24.000000,-8.000000,-18.000000,-14.000000,-9.000000,-8.000000,-11.000000,-23.000000
1303198.694250,1.000000,-3.000000,-5.000000,-11.000000,-4.000000,1.000000,-4.000000,-5.000000
1303198.694283,-9.000000,0.000000,26.000000,9.000000,-15.000000,-11.000000,-12.000000,-15.000000
1303198.717269,26.000000,0.000000,-4.000000,-12.000000,26.000000,7.000000,11.000000,24.000000
1303198.717304,-31.000000,-11.000000,21.000000,113.000000,16.000000,-1.000000,-32.000000,-32.000000
1303198.717909,14.000000,0.000000,-12.000000,-19.000000,-7.000000,-1.000000,32.000000,34.000000
1303198.717936,24.000000,0.000000,16.000000,50.000000,21.000000,1.000000,-14.000000,-18.000000
1303198.739259,-15.000000,-5.000000,8.000000,-36.000000,-16.000000,-2.000000,10.000000,-3.000000
1303198.739288,16.000000,7.000000,0.000000,10.000000,-3.000000,0.000000,5.000000,10.000000
1303198.754456,10.000000,2.000000,-25.000000,-12.000000,-13.000000,3.000000,10.000000,-18.000000
1303198.754467,-35.000000,2.000000,17.000000,-61.000000,-18.000000,-8.000000,-24.000000,-25.000000
1303198.791664,22.000000,6.000000,1.000000,103.000000,39.000000,20.000000,22.000000,53.000000
1303198.791674,-22.000000,-3.000000,13.000000,-100.000000,-28.000000,-17.000000,-31.000000,-26.000000
1303198.792313,-12.000000,6.000000,-10.000000,2.000000,7.000000,8.000000,1.000000,-15.000000
1303198.792322,-19.000000,-7.000000,-34.000000,18.000000,19.000000,14.000000,1.000000,18.000000
1303198.793495,10.000000,2.000000,40.000000,23.000000,2.000000,7.000000,-16.000000,-20.000000
1303198.793503,1.000000,0.000000,-53.000000,-35.000000,6.000000,10.000000,17.000000,9.000000
1303198.794282,-3.000000,-7.000000,5.000000,10.000000,21.000000,6.000000,0.000000,4.000000
1303198.794292,-5.000000,6.000000,4.000000,-47.000000,-12.000000,8.000000,14.000000,-5.000000
1303198.799882,48.000000,-3.000000,-7.000000,10.000000,0.000000,2.000000,-5.000000,-2.000000
1303198.799891,-27.000000,2.000000,-28.000000,-26.000000,-13.000000,-4.000000,-3.000000,-21.000000
1303198.801374,25.000000,5.000000,19.000000,41.000000,32.000000,-2.000000,-21.000000,18.000000
1303198.801386,-10.000000,2.000000,-5.000000,22.000000,14.000000,3.000000,-3.000000,-40.000000
1303198.814366,-12.000000,-10.000000,1.000000,-41.000000,-20.000000,5.000000,52.000000,58.000000
1303198.814389,15.000000,3.000000,7.000000,79.000000,38.000000,4.000000,18.000000,26.000000
1303198.829531,-34.000000,-6.000000,31.000000,9.000000,-3.000000,5.000000,-45.000000,-26.000000
1303198.829541,0.000000,2.000000,4.000000,-40.000000,3.000000,-3.000000,12.000000,-28.000000
1303198.830509,-31.000000,-3.000000,-8.000000,40.000000,-8.000000,-9.000000,-7.000000,2.000000
1303198.830528,-3.000000,4.000000,-13.000000,-20.000000,3.000000,-8.000000,-17.000000,0.000000
1303198.874290,-4.000000,-4.000000,-38.000000,-17.000000,-5.000000,8.000000,-6.000000,6.000000
1303198.874301,-11.000000,1.000000,24.000000,3.000000,-37.000000,-30.000000,-26.000000,-25.000000
1303198.889466,27.000000,-5.000000,-4.000000,70.000000,46.000000,22.000000,26.000000,15.000000
1303198.889478,-20.000000,1.000000,2.000000,-27.000000,-4.000000,8.000000,-5.000000,-22.000000
1303198.911811,-12.000000,-2.000000,10.000000,-14.000000,1.000000,-8.000000,-11.000000,-19.000000
1303198.911822,4.000000,-4.000000,12.000000,-9.000000,1.000000,-15.000000,20.000000,29.000000
1303198.912175,-7.000000,-1.000000,-15.000000,-6.000000,-12.000000,-8.000000,-24.000000,-23.000000
1303198.912184,46.000000,-1.000000,17.000000,52.000000,16.000000,2.000000,8.000000,14.000000
1303198.913670,-53.000000,0.000000,-67.000000,-40.000000,-12.000000,0.000000,0.000000,-7.000000
1303198.913687,4.000000,-1.000000,-4.000000,-27.000000,-10.000000,-16.000000,-37.000000,-8.000000
1303198.914096,-15.000000,0.000000,-6.000000,53.000000,8.000000,3.000000,15.000000,-23.000000
1303198.914105,36.000000,2.000000,-8.000000,-24.000000,-11.000000,14.000000,50.000000,59.000000
1303198.916056,3.000000,-3.000000,-22.000000,-67.000000,-19.000000,-16.000000,-82.000000,-19.000000
1303198.916105,30.000000,-4.000000,10.000000,89.000000,36.000000,17.000000,104.000000,61.000000
1303198.934080,-23.000000,-2.000000,12.000000,-1.000000,5.000000,-7.000000,-25.000000,-11.000000
1303198.934104,0.000000,4.000000,-12.000000,-6.000000,0.000000,-1.000000,-14.000000,-3.000000
1303198.934681,-2.000000,1.000000,-19.000000,-48.000000,-6.000000,0.000000,9.000000,-27.000000
1303198.934688,-19.000000,-7.000000,36.000000,6.000000,26.000000,-9.000000,-9.000000,21.000000
1303198.950292,4.000000,3.000000,-2.000000,59.000000,5.000000,6.000000,3.000000,-12.000000
1303198.950327,-2.000000,-3.000000,10.000000,1.000000,-16.000000,-2.000000,-25.000000,-14.000000
1303198.956501,17.000000,-6.000000,-42.000000,-34.000000,-2.000000,2.000000,31.000000,28.000000
1303198.956510,-17.000000,4.000000,27.000000,-23.000000,-12.000000,-5.000000,-12.000000,-13.000000
1303198.971724,-4.000000,3.000000,-11.000000,42.000000,12.000000,-8.000000,-9.000000,-6.000000
1303198.971733,16.000000,-6.000000,1.000000,-24.000000,-12.000000,-16.000000,-10.000000,10.000000
1303198.994460,-18.000000,-7.000000,33.000000,1.000000,0.000000,8.000000,-20.000000,-28.000000
1303198.994472,8.000000,3.000000,-30.000000,17.000000,4.000000,10.000000,69.000000,28.000000
1303199.016791,19.000000,0.000000,-11.000000,-38.000000,-6.000000,0.000000,10.000000,6.000000
1303199.016802,-1.000000,-4.000000,32.000000,39.000000,15.000000,4.000000,-18.000000,-3.000000
1303199.031912,6.000000,7.000000,-7.000000,-40.000000,-9.000000,-4.000000,9.000000,-4.000000
1303199.031922,0.000000,2.000000,3.000000,24.000000,-6.000000,-11.000000,-29.000000,-20.000000
1303199.069203,8.000000,-6.000000,-8.000000,1.000000,-9.000000,-3.000000,1.000000,-32.000000
1303199.069212,-9.000000,-2.000000,1.000000,-14.000000,-7.000000,1.000000,-8.000000,17.000000
1303199.076923,3.000000,-6.000000,8.000000,14.000000,-1.000000,0.000000,-7.000000,-6.000000
1303199.076934,-13.000000,-7.000000,12.000000,-7.000000,-10.000000,-2.000000,2.000000,-10.000000
1303199.078102,0.000000,-4.000000,-21.000000,-33.000000,-14.000000,-15.000000,-20.000000,-11.000000
1303199.078111,-25.000000,4.000000,-44.000000,-23.000000,-7.000000,4.000000,7.000000,-14.000000
1303199.078483,36.000000,1.000000,-23.000000,101.000000,8.000000,11.000000,14.000000,51.000000
1303199.078491,-4.000000,-2.000000,-16.000000,-3.000000,13.000000,-15.000000,-21.000000,-36.000000
1303199.079072,-7.000000,-2.000000,-11.000000,-45.000000,-20.000000,6.000000,-19.000000,-22.000000
1303199.079081,30.000000,-3.000000,4.000000,32.000000,5.000000,-4.000000,3.000000,34.000000
1303199.079838,-6.000000,-1.000000,11.000000,2.000000,-6.000000,-10.000000,-15.000000,-12.000000
1303199.079846,-4.000000,0.000000,1.000000,-21.000000,-11.000000,-1.000000,-21.000000,-27.000000
1303199.106671,-3.000000,-1.000000,-2.000000,2.000000,-1.000000,3.000000,23.000000,15.000000
1303199.106683,70.000000,3.000000,2.000000,8.000000,-7.000000,-2.000000,9.000000,22.000000
1303199.114139,-56.000000,-3.000000,-6.000000,17.000000,2.000000,-1.000000,-9.000000,-21.000000
1303199.114150,6.000000,3.000000,31.000000,-23.000000,-22.000000,1.000000,1.000000,0.000000
1303199.129535,16.000000,-1.000000,-44.000000,-14.000000,4.000000,2.000000,-12.000000,-14.000000
1303199.129548,-22.000000,2.000000,9.000000,-43.000000,-14.000000,-7.000000,4.000000,13.000000
1303199.151716,41.000000,-4.000000,17.000000,75.000000,6.000000,11.000000,14.000000,4.000000
1303199.151726,-30.000000,-7.000000,35.000000,25.000000,18.000000,10.000000,-6.000000,-31.000000
1303199.166962,33.000000,7.000000,21.000000,16.000000,6.000000,-3.000000,25.000000,71.000000
1303199.166974,-15.000000,5.000000,-7.000000,-20.000000,-7.000000,-4.000000,-29.000000,-27.000000
1303199.167446,21.000000,-1.000000,40.000000,19.000000,4.000000,3.000000,-27.000000,-27.000000
1303199.167455,-25.000000,2.000000,-16.000000,-91.000000,-17.000000,-11.000000,73.000000,23.000000
1303199.168317,1.000000,-2.000000,-29.000000,88.000000,37.000000,15.000000,-20.000000,6.000000
1303199.168447,-7.000000,3.000000,1.000000,-21.000000,-10.000000,-8.000000,-17.000000,-5.000000
1303199.169021,-3.000000,2.000000,27.000000,-17.000000,-3.000000,1.000000,0.000000,-5.000000
1303199.169029,3.000000,1.000000,-49.000000,-40.000000,-10.000000,-9.000000,-20.000000,-13.000000
1303199.169837,-38.000000,4.000000,19.000000,49.000000,9.000000,3.000000,-5.000000,-16.000000
1303199.169845,8.000000,0.000000,22.000000,-2.000000,-5.000000,5.000000,58.000000,23.000000
1303199.174471,-23.000000,4.000000,7.000000,-4.000000,2.000000,-3.000000,-28.000000,-5.000000
1303199.174482,4.000000,2.000000,-31.000000,-37.000000,-8.000000,-9.000000,-20.000000,-26.000000
1303199.189738,16.000000,-6.000000,4.000000,-4.000000,-23.000000,0.000000,35.000000,44.000000
1303199.189747,13.000000,-2.000000,4.000000,0.000000,10.000000,12.000000,5.000000,8.000000
1303199.196774,-12.000000,-5.000000,-15.000000,-8.000000,2.000000,7.000000,-14.000000,-16.000000
1303199.196784,19.000000,-5.000000,7.000000,16.000000,-4.000000,-6.000000,-10.000000,5.000000
1303199.227026,20.000000,-6.000000,7.000000,-14.000000,-6.000000,-2.000000,-4.000000,1.000000
1303199.227040,-4.000000,-1.000000,-3.000000,-22.000000,-7.000000,7.000000,18.000000,20.000000
1303199.234609,-4.000000,2.000000,1.000000,35.000000,1.000000,-11.000000,24.000000,47.000000
1303199.234633,1.000000,-5.000000,15.000000,22.000000,-7.000000,-6.000000,-21.000000,-25.000000
1303199.242240,-41.000000,-3.000000,-27.000000,-53.000000,-13.000000,7.000000,-27.000000,-38.000000
1303199.242260,-7.000000,3.000000,-5.000000,4.000000,24.000000,-1.000000,2.000000,9.000000
1303199.249218,2.000000,-7.000000,4.000000,3.000000,-9.000000,-2.000000,1.000000,-4.000000
1303199.249235,-5.000000,-1.000000,22.000000,-29.000000,1.000000,11.000000,7.000000,-3.000000
1303199.272161,-11.000000,-2.000000,-5.000000,-1.000000,-4.000000,-1.000000,-15.000000,-20.000000
1303199.272190,29.000000,0.000000,16.000000,-3.000000,-13.000000,-19.000000,15.000000,32.000000
1303199.272828,9.000000,2.000000,16.000000,50.000000,11.000000,13.000000,10.000000,8.000000
1303199.272856,0.000000,-2.000000,2.000000,-27.000000,-21.000000,-1.000000,-33.000000,-14.000000
1303199.274127,-4.000000,1.000000,28.000000,35.000000,8.000000,4.000000,26.000000,4.000000
1303199.274155,2.000000,6.000000,1.000000,-24.000000,-11.000000,-1.000000,-13.000000,-14.000000
1303199.275156,-54.000000,0.000000,-1.000000,-4.000000,-3.000000,-4.000000,-9.000000,-4.000000
1303199.275185,24.000000,-5.000000,-25.000000,6.000000,-11.000000,-12.000000,-63.000000,-41.000000
1303199.286926,3.000000,-1.000000,-16.000000,31.000000,24.000000,-7.000000,97.000000,91.000000
1303199.286956,-19.000000,-4.000000,2.000000,-25.000000,-6.000000,1.000000,-15.000000,-4.000000
1303199.294510,-3.000000,-2.000000,-41.000000,-54.000000,-20.000000,-13.000000,-49.000000,-28.000000
1303199.294531,-7.000000,0.000000,-23.000000,16.000000,11.000000,-4.000000,2.000000,-29.000000
1303199.309258,-18.000000,-8.000000,0.000000,-4.000000,-5.000000,-4.000000,3.000000,16.000000
1303199.309287,0.000000,-6.000000,19.000000,2.000000,-4.000000,-3.000000,-17.000000,-11.000000
1303199.331976,2.000000,4.000000,-27.000000,-3.000000,-4.000000,-4.000000,1.000000,3.000000
1303199.331997,-14.000000,-5.000000,3.000000,-21.000000,-6.000000,-3.000000,18.000000,-4.000000
1303199.354133,-9.000000,2.000000,2.000000,-3.000000,2.000000,-8.000000,-25.000000,-10.000000
1303199.354143,11.000000,0.000000,-7.000000,12.000000,-4.000000,4.000000,2.000000,9.000000
1303199.369396,2.000000,-4.000000,1.000000,68.000000,16.000000,3.000000,7.000000,-2.000000
1303199.369413,7.000000,-3.000000,12.000000,-40.000000,-10.000000,-1.000000,-25.000000,-24.000000
1303199.384254,-14.000000,-4.000000,2.000000,4.000000,-12.000000,-6.000000,15.000000,34.000000
1303199.384264,17.000000,4.000000,-24.000000,-33.000000,-17.000000,-3.000000,18.000000,-22.000000
1303199.391874,-13.000000,-11.000000,-13.000000,31.000000,35.000000,6.000000,40.000000,71.000000
1303199.391926,11.000000,-1.000000,-18.000000,-49.000000,-12.000000,1.000000,-2.000000,8.000000
1303199.407566,0.000000,-3.000000,-36.000000,23.000000,-6.000000,-9.000000,-19.000000,-29.000000
1303199.407595,18.000000,-1.000000,18.000000,-22.000000,-2.000000,4.000000,-29.000000,-7.000000
1303199.407916,-3.000000,0.000000,8.000000,14.000000,-7.000000,10.000000,65.000000,-6.000000
1303199.407925,0.000000,5.000000,3.000000,-6.000000,-5.000000,-5.000000,-8.000000,29.000000
1303199.409151,1.000000,4.000000,-8.000000,-48.000000,-8.000000,0.000000,2.000000,4.000000
1303199.409179,5.000000,-6.000000,-6.000000,127.000000,12.000000,-12.000000,-7.000000,-8.000000
1303199.410852,18.000000,2.000000,20.000000,-62.000000,-15.000000,-4.000000,9.000000,5.000000
1303199.410863,16.000000,4.000000,-25.000000,-16.000000,1.000000,0.000000,-2.000000,3.000000
1303199.429301,-27.000000,-4.000000,3.000000,-21.000000,-7.000000,3.000000,3.000000,4.000000
1303199.429318,-24.000000,-10.000000,12.000000,51.000000,4.000000,-9.000000,-39.000000,-38.000000
1303199.430985,-5.000000,5.000000,-10.000000,-25.000000,-3.000000,-3.000000,15.000000,17.000000
1303199.430995,16.000000,7.000000,-1.000000,-8.000000,-12.000000,-12.000000,-14.000000,1.000000
1303199.444318,33.000000,-2.000000,-11.000000,-19.000000,-7.000000,-1.000000,6.000000,19.000000
1303199.444330,-4.000000,-4.000000,9.000000,13.000000,-6.000000,-2.000000,2.000000,-2.000000
1303199.459620,10.000000,-5.000000,48.000000,-8.000000,6.000000,12.000000,10.000000,9.000000
1303199.459652,1.000000,-3.000000,20.000000,3.000000,-13.000000,-3.000000,-20.000000,-19.000000
1303199.467211,22.000000,-3.000000,-12.000000,-8.000000,0.000000,-4.000000,-2.000000,-1.000000
1303199.467223,-23.000000,-11.000000,3.000000,-17.000000,-8.000000,-4.000000,-27.000000,-27.000000
1303199.489084,19.000000,3.000000,-44.000000,-21.000000,-6.000000,1.000000,32.000000,28.000000
1303199.489101,-19.000000,-1.000000,12.000000,3.000000,-10.000000,-4.000000,-19.000000,-21.000000
1303199.504455,3.000000,1.000000,11.000000,-45.000000,-7.000000,0.000000,-17.000000,-6.000000
1303199.504467,7.000000,7.000000,12.000000,69.000000,23.000000,-7.000000,13.000000,7.000000
1303199.505330,-28.000000,6.000000,-3.000000,-9.000000,3.000000,-6.000000,-5.000000,0.000000
1303199.505340,-25.000000,-2.000000,-15.000000,-40.000000,-10.000000,-5.000000,-37.000000,-46.000000
1303199.506132,11.000000,8.000000,11.000000,18.000000,10.000000,-3.000000,27.000000,52.000000
1303199.506147,-1.000000,-1.000000,-2.000000,29.000000,-36.000000,-9.000000,-27.000000,-38.000000
1303199.507475,2.000000,-10.000000,28.000000,127.000000,80.000000,36.000000,23.000000,-8.000000
1303199.507484,-2.000000,-1.000000,16.000000,-16.000000,-10.000000,-18.000000,1.000000,16.000000
1303199.512342,-9.000000,-2.000000,-44.000000,-62.000000,-13.000000,-11.000000,-19.000000,-21.000000
1303199.512373,-4.000000,1.000000,-1.000000,9.000000,1.000000,-3.000000,6.000000,13.000000
1303199.527719,-9.000000,-3.000000,-1.000000,-16.000000,-1.000000,2.000000,-14.000000,-13.000000
1303199.527729,-2.000000,-2.000000,-30.000000,-18.000000,0.000000,-1.000000,-13.000000,-42.000000
1303199.549436,16.000000,2.000000,-15.000000,3.000000,2.000000,5.000000,58.000000,60.000000
1303199.549447,-11.000000,0.000000,12.000000,2.000000,13.000000,12.000000,-26.000000,-25.000000
1303199.550519,16.000000,-1.000000,21.000000,8.000000,-4.000000,4.000000,-1.000000,0.000000
1303199.550527,11.000000,3.000000,20.000000,6.000000,-9.000000,-5.000000,-21.000000,1.000000
1303199.564317,9.000000,-1.000000,-14.000000,24.000000,10.000000,0.000000,23.000000,-27.000000
1303199.564332,-42.000000,2.000000,-6.000000,0.000000,-10.000000,3.000000,4.000000,23.000000
1303199.586900,22.000000,-2.000000,10.000000,-68.000000,-28.000000,-6.000000,3.000000,2.000000
1303199.586912,24.000000,4.000000,22.000000,127.000000,54.000000,19.000000,9.000000,17.000000
1303199.587336,7.000000,0.000000,17.000000,-66.000000,-21.000000,-7.000000,-19.000000,-13.000000
1303199.587346,10.000000,2.000000,56.000000,51.000000,13.000000,5.000000,12.000000,8.000000
1303199.588922,25.000000,-8.000000,0.000000,-32.000000,-10.000000,-6.000000,6.000000,-9.000000
1303199.588933,-32.000000,-4.000000,-6.000000,-24.000000,-17.000000,-1.000000,-3.000000,7.000000
1303199.594358,4.000000,3.000000,-16.000000,6.000000,0.000000,8.000000,11.000000,18.000000
1303199.594368,25.000000,-6.000000,-24.000000,-16.000000,9.000000,-17.000000,-44.000000,-42.000000
1303199.624414,-50.000000,-1.000000,-4.000000,2.000000,-1.000000,-1.000000,4.000000,22.000000
1303199.624443,8.000000,-6.000000,32.000000,31.000000,14.000000,15.000000,26.000000,8.000000
1303199.631744,12.000000,-3.000000,-12.000000,-19.000000,-15.000000,-6.000000,-10.000000,11.000000
1303199.631772,-8.000000,-5.000000,6.000000,14.000000,-3.000000,-17.000000,-8.000000,-18.000000
1303199.661687,-27.000000,-4.000000,-7.000000,-10.000000,2.000000,-1.000000,-12.000000,-24.000000
1303199.661697,-5.000000,0.000000,-1.000000,-19.000000,-6.000000,-6.000000,5.000000,8.000000
1303199.669077,20.000000,3.000000,23.000000,12.000000,7.000000,9.000000,7.000000,9.000000
1303199.669087,18.000000,-4.000000,-31.000000,-4.000000,1.000000,-8.000000,-23.000000,-18.000000
1303199.684476,-2.000000,0.000000,7.000000,18.000000,12.000000,5.000000,7.000000,15.000000
1303199.684486,-3.000000,-3.000000,-10.000000,-7.000000,12.000000,1.000000,20.000000,7.000000
1303199.706743,-5.000000,-3.000000,20.000000,-81.000000,-19.000000,-7.000000,-27.000000,-19.000000
1303199.706760,-34.000000,-3.000000,-8.000000,54.000000,15.000000,17.000000,2.000000,-23.000000
1303199.729444,25.000000,0.000000,2.000000,-6.000000,-14.000000,-4.000000,-12.000000,8.000000
1303199.729455,-7.000000,-2.000000,6.000000,-37.000000,-10.000000,-7.000000,6.000000,-12.000000
1303199.744842,-10.000000,1.000000,-13.000000,97.000000,23.000000,4.000000,-3.000000,4.000000
1303199.744858,-2.000000,3.000000,-19.000000,-16.000000,-8.000000,-12.000000,-9.000000,3.000000
1303199.781936,6.000000,1.000000,-14.000000,-13.000000,-8.000000,9.000000,28.000000,23.000000
1303199.781948,7.000000,2.000000,-3.000000,14.000000,5.000000,-2.000000,-2.000000,-17.000000
1303199.783373,5.000000,3.000000,22.000000,-17.000000,2.000000,-5.000000,-13.000000,-31.000000
1303199.783381,-39.000000,-3.000000,-45.000000,-44.000000,-16.000000,-3.000000,22.000000,5.000000
1303199.784028,1.000000,-2.000000,-9.000000,-16.000000,-11.000000,7.000000,46.000000,10.000000
1303199.784036,11.000000,0.000000,-42.000000,-29.000000,-10.000000,-3.000000,-20.000000,-16.000000
1303199.804620,-6.000000,4.000000,2.000000,-19.000000,-9.000000,-6.000000,21.000000,42.000000
1303199.804632,32.000000,-1.000000,-3.000000,-7.000000,-1.000000,2.000000,-24.000000,-1.000000
1303199.841953,-40.000000,2.000000,-20.000000,-32.000000,8.000000,11.000000,4.000000,-20.000000
1303199.841983,-11.000000,-5.000000,1.000000,-8.000000,-5.000000,-18.000000,-97.000000,-43.000000
1303199.849300,18.000000,-1.000000,8.000000,-55.000000,-20.000000,4.000000,127.000000,25.000000
1303199.849320,18.000000,-8.000000,-1.000000,-23.000000,0.000000,-3.000000,-93.000000,37.000000
1303199.850176,-27.000000,1.000000,-13.000000,1.000000,-1.000000,-7.000000,-128.000000,-63.000000
1303199.850185,9.000000,2.000000,-45.000000,-31.000000,-13.000000,0.000000,127.000000,-62.000000
1303199.850914,49.000000,2.000000,26.000000,2.000000,1.000000,7.000000,-98.000000,127.000000
1303199.850923,-52.000000,2.000000,22.000000,27.000000,-3.000000,-9.000000,-128.000000,-93.000000
1303199.852428,15.000000,0.000000,-35.000000,-32.000000,-4.000000,15.000000,127.000000,11.000000
1303199.852456,-15.000000,-8.000000,2.000000,-10.000000,-10.000000,-19.000000,-44.000000,-34.000000
1303199.864056,-11.000000,-3.000000,-7.000000,-4.000000,2.000000,-2.000000,-42.000000,-23.000000
1303199.864088,-13.000000,-8.000000,-10.000000,-4.000000,2.000000,0.000000,49.000000,-7.000000
1303199.865398,10.000000,-1.000000,-19.000000,-33.000000,-13.000000,-16.000000,0.000000,-13.000000
1303199.865405,3.000000,0.000000,12.000000,73.000000,41.000000,21.000000,35.000000,50.000000
1303199.887021,14.000000,0.000000,39.000000,15.000000,5.000000,5.000000,-1.000000,2.000000
1303199.887136,5.000000,4.000000,7.000000,-37.000000,-16.000000,-9.000000,-14.000000,-16.000000
1303199.888042,2.000000,-3.000000,0.000000,-10.000000,-3.000000,-4.000000,6.000000,4.000000
1303199.888069,-7.000000,2.000000,-5.000000,34.000000,30.000000,9.000000,5.000000,-5.000000
1303199.901634,15.000000,9.000000,32.000000,9.000000,-1.000000,2.000000,-10.000000,-21.000000
1303199.901644,-22.000000,-9.000000,10.000000,0.000000,-1.000000,1.000000,25.000000,15.000000
1303199.909464,-3.000000,4.000000,-25.000000,-9.000000,-9.000000,-8.000000,-8.000000,-61.000000
1303199.909484,12.000000,2.000000,-3.000000,-27.000000,-2.000000,-7.000000,-13.000000,73.000000
1303199.916876,-11.000000,-2.000000,-30.000000,-6.000000,11.000000,9.000000,72.000000,16.000000
1303199.916886,0.000000,-7.000000,0.000000,-1.000000,-1.000000,-3.000000,-21.000000,-21.000000
1303199.939412,-9.000000,-1.000000,4.000000,-34.000000,-10.000000,-17.000000,-51.000000,-37.000000
1303199.939430,-1.000000,5.000000,-78.000000,53.000000,7.000000,-10.000000,-36.000000,-24.000000
1303199.946811,-40.000000,4.000000,22.000000,-38.000000,-15.000000,0.000000,19.000000,22.000000
1303199.946839,-7.000000,-3.000000,14.000000,-11.000000,-11.000000,-2.000000,-57.000000,-52.000000
1303199.962042,-3.000000,3.000000,-17.000000,-3.000000,16.000000,7.000000,74.000000,48.000000
1303199.962055,11.000000,1.000000,4.000000,15.000000,-11.000000,3.000000,-34.000000,-35.000000
1303199.984265,-9.000000,-6.000000,50.000000,26.000000,14.000000,15.000000,73.000000,69.000000
1303199.984277,5.000000,-5.000000,4.000000,-19.000000,-13.000000,-2.000000,-75.000000,-26.000000
1303199.985142,11.000000,3.000000,-16.000000,-71.000000,-22.000000,-13.000000,17.000000,-14.000000
1303199.985150,-12.000000,0.000000,104.000000,27.000000,10.000000,5.000000,3.000000,-7.000000
1303199.985951,18.000000,4.000000,-20.000000,104.000000,18.000000,1.000000,-36.000000,1.000000
1303199.985964,-11.000000,-4.000000,-1.000000,-35.000000,-5.000000,9.000000,33.000000,12.000000
1303199.987461,8.000000,-5.000000,16.000000,19.000000,2.000000,-10.000000,-41.000000,-1.000000
1303199.987470,17.000000,2.000000,0.000000,3.000000,-2.000000,6.000000,53.000000,-4.000000
1303199.999106,-61.000000,3.000000,10.000000,1.000000,-4.000000,3.000000,-30.000000,-17.000000
1303199.999129,25.000000,2.000000,9.000000,3.000000,12.000000,1.000000,2.000000,-9.000000
1303200.006918,14.000000,-2.000000,7.000000,0.000000,-4.000000,17.000000,36.000000,38.000000
1303200.006929,3.000000,-2.000000,-17.000000,-31.000000,-13.000000,-1.000000,33.000000,-7.000000
1303200.021666,-53.000000,3.000000,17.000000,27.000000,10.000000,-19.000000,-23.000000,18.000000
1303200.021676,8.000000,-1.000000,-51.000000,17.000000,11.000000,7.000000,-50.000000,-39.000000
1303200.044250,7.000000,3.000000,18.000000,-22.000000,8.000000,-1.000000,13.000000,16.000000
1303200.044262,34.000000,-7.000000,-12.000000,4.000000,-7.000000,4.000000,60.000000,6.000000
1303200.059382,-33.000000,2.000000,3.000000,-21.000000,-11.000000,-4.000000,-55.000000,-3.000000
1303200.059394,7.000000,-1.000000,-27.000000,-52.000000,-12.000000,-3.000000,33.000000,13.000000
1303200.081902,-3.000000,-3.000000,-33.000000,4.000000,0.000000,2.000000,-6.000000,-14.000000
1303200.081922,-5.000000,-1.000000,-1.000000,-45.000000,-15.000000,-8.000000,-26.000000,-24.000000
1303200.104405,9.000000,-13.000000,-25.000000,5.000000,10.000000,5.000000,17.000000,5.000000
1303200.104417,-19.000000,1.000000,-20.000000,6.000000,1.000000,-11.000000,-28.000000,-8.000000
1303200.105254,6.000000,1.000000,2.000000,-33.000000,-13.000000,-13.000000,-16.000000,-7.000000
1303200.105261,-3.000000,4.000000,3.000000,-5.000000,-5.000000,-1.000000,-4.000000,11.000000
1303200.105908,12.000000,-2.000000,6.000000,7.000000,-14.000000,-8.000000,-16.000000,-24.000000
1303200.105916,-5.000000,-6.000000,-26.000000,-58.000000,-6.000000,-1.000000,43.000000,22.000000
1303200.107467,0.000000,-7.000000,18.000000,82.000000,22.000000,7.000000,-12.000000,2.000000
1303200.107477,-4.000000,-3.000000,-4.000000,-9.000000,-5.000000,-4.000000,-3.000000,-5.000000
1303200.108260,-41.000000,5.000000,-33.000000,-29.000000,-5.000000,4.000000,-21.000000,-44.000000
1303200.108268,19.000000,-8.000000,-9.000000,-11.000000,-11.000000,-8.000000,4.000000,56.000000
1303200.119584,-9.000000,-14.000000,-1.000000,30.000000,-4.000000,-1.000000,6.000000,-15.000000
1303200.119602,3.000000,3.000000,-10.000000,-22.000000,-18.000000,-10.000000,15.000000,6.000000
1303200.126851,0.000000,-1.000000,9.000000,-34.000000,-13.000000,-3.000000,-7.000000,-5.000000
1303200.126860,-4.000000,3.000000,-17.000000,17.000000,-21.000000,-7.000000,-18.000000,-5.000000
1303200.141730,0.000000,-12.000000,-6.000000,-33.000000,-11.000000,9.000000,13.000000,-3.000000
1303200.141892,-5.000000,-2.000000,-2.000000,-6.000000,-1.000000,1.000000,-6.000000,5.000000
1303200.164393,-14.000000,-5.000000,6.000000,24.000000,-2.000000,4.000000,29.000000,-24.000000
1303200.164405,12.000000,-1.000000,-14.000000,-29.000000,-4.000000,-7.000000,-4.000000,28.000000
1303200.179277,-12.000000,2.000000,6.000000,114.000000,25.000000,-5.000000,-23.000000,-11.000000
1303200.179296,-1.000000,6.000000,-1.000000,-22.000000,-22.000000,1.000000,-9.000000,-41.000000
1303200.194432,18.000000,-5.000000,-5.000000,-13.000000,-7.000000,-28.000000,-40.000000,30.000000
1303200.194443,-10.000000,4.000000,-30.000000,-42.000000,-10.000000,-8.000000,-52.000000,3.000000
1303200.201971,-1.000000,2.000000,12.000000,5.000000,-2.000000,13.000000,127.000000,35.000000
1303200.201983,-15.000000,-1.000000,-25.000000,-9.000000,-5.000000,-11.000000,-53.000000,-27.000000
1303200.217255,20.000000,1.000000,17.000000,-4.000000,-10.000000,0.000000,20.000000,10.000000
1303200.217280,5.000000,4.000000,30.000000,2.000000,5.000000,1.000000,-19.000000,-7.000000
1303200.217816,11.000000,-1.000000,-5.000000,8.000000,5.000000,-5.000000,-53.000000,-33.000000
1303200.217824,10.000000,-5.000000,-21.000000,-30.000000,-5.000000,3.000000,112.000000,17.000000
1303200.218983,6.000000,1.000000,12.000000,31.000000,22.000000,13.000000,11.000000,15.000000
1303200.219000,11.000000,1.000000,4.000000,-22.000000,-4.000000,6.000000,32.000000,14.000000
1303200.219904,-6.000000,5.000000,-14.000000,-38.000000,-5.000000,-7.000000,-47.000000,-18.000000
1303200.219938,-12.000000,-7.000000,-10.000000,77.000000,33.000000,13.000000,89.000000,55.000000
1303200.224816,23.000000,-1.000000,4.000000,-44.000000,-16.000000,3.000000,-7.000000,3.000000
1303200.224825,-11.000000,-2.000000,7.000000,101.000000,36.000000,4.000000,-61.000000,-38.000000
1303200.239352,2.000000,2.000000,-17.000000,-24.000000,-11.000000,-6.000000,104.000000,23.000000
1303200.239367,10.000000,-1.000000,5.000000,-9.000000,-21.000000,-8.000000,-10.000000,-39.000000
1303200.261821,-21.000000,-9.000000,-38.000000,-11.000000,8.000000,0.000000,-1.000000,24.000000
1303200.261850,-2.000000,-2.000000,9.000000,12.000000,-1.000000,-23.000000,-51.000000,-22.000000
1303200.284315,-2.000000,-6.000000,46.000000,7.000000,2.000000,-6.000000,-78.000000,-26.000000
1303200.284325,18.000000,-1.000000,-1.000000,14.000000,-9.000000,2.000000,11.000000,-47.000000
1303200.306735,-14.000000,3.000000,-30.000000,-17.000000,-5.000000,7.000000,127.000000,127.000000
1303200.306745,-5.000000,2.000000,18.000000,22.000000,0.000000,-3.000000,-55.000000,-62.000000
1303200.314258,-5.000000,-2.000000,-28.000000,-20.000000,-3.000000,-9.000000,-122.000000,-47.000000
1303200.314274,18.000000,-2.000000,7.000000,5.000000,-8.000000,10.000000,127.000000,7.000000
1303200.336895,-37.000000,-6.000000,-3.000000,-62.000000,-6.000000,-10.000000,-48.000000,1.000000
1303200.336924,-13.000000,-7.000000,11.000000,103.000000,22.000000,18.000000,-19.000000,-5.000000
1303200.344556,17.000000,-6.000000,8.000000,4.000000,6.000000,-16.000000,-48.000000,-11.000000
1303200.344585,-6.000000,9.000000,-40.000000,-53.000000,-10.000000,1.000000,-65.000000,-28.000000
1303200.374410,23.000000,2.000000,-21.000000,-128.000000,-34.000000,-22.000000,-106.000000,-95.000000
1303200.374428,1.000000,-3.000000,19.000000,127.000000,85.000000,19.000000,87.000000,49.000000
1303200.404241,-16.000000,-2.000000,-7.000000,20.000000,34.000000,15.000000,-23.000000,-10.000000
1303200.404263,21.000000,1.000000,-21.000000,-38.000000,4.000000,-23.000000,-40.000000,-14.000000
1303200.419257,-34.000000,-5.000000,-17.000000,-24.000000,-8.000000,-7.000000,-12.000000,-13.000000
1303200.419292,2.000000,-7.000000,-8.000000,-10.000000,-7.000000,-6.000000,-8.000000,-9.000000
1303200.434460,-1.000000,1.000000,5.000000,-30.000000,-18.000000,-5.000000,12.000000,-5.000000
1303200.434471,20.000000,0.000000,12.000000,18.000000,28.000000,18.000000,127.000000,114.000000
1303200.456593,10.000000,-1.000000,43.000000,4.000000,-12.000000,4.000000,66.000000,-2.000000
1303200.456603,-2.000000,-3.000000,-6.000000,0.000000,2.000000,-2.000000,-27.000000,-10.000000
1303200.457025,-5.000000,4.000000,-12.000000,-35.000000,-10.000000,-8.000000,-19.000000,-17.000000
1303200.457033,21.000000,-1.000000,16.000000,4.000000,4.000000,-12.000000,13.000000,23.000000
1303200.457927,-6.000000,-5.000000,-16.000000,-34.000000,-10.000000,-9.000000,-13.000000,-3.000000
1303200.457944,-6.000000,4.000000,1.000000,-20.000000,-10.000000,-6.000000,-46.000000,-30.000000
1303200.458358,-19.000000,0.000000,-13.000000,-5.000000,0.000000,1.000000,-10.000000,9.000000
1303200.458366,-5.000000,-3.000000,28.000000,8.000000,-2.000000,1.000000,76.000000,27.000000
1303200.459017,5.000000,-5.000000,2.000000,-23.000000,-9.000000,-4.000000,-37.000000,-32.000000
1303200.459026,-22.000000,3.000000,13.000000,-3.000000,-10.000000,-1.000000,-20.000000,-21.000000
1303200.459625,24.000000,-1.000000,-7.000000,-17.000000,-9.000000,-11.000000,-18.000000,-5.000000
1303200.459634,-8.000000,1.000000,-22.000000,-6.000000,4.000000,-1.000000,19.000000,4.000000
1303200.460387,25.000000,-3.000000,-7.000000,8.000000,7.000000,12.000000,-22.000000,-14.000000
1303200.460395,-14.000000,0.000000,6.000000,25.000000,13.000000,2.000000,13.000000,17.000000
1303200.464881,1.000000,1.000000,29.000000,-74.000000,-22.000000,-14.000000,-13.000000,1.000000
1303200.464911,-9.000000,-10.000000,2.000000,89.000000,26.000000,4.000000,-18.000000,-15.000000
1303200.479370,-6.000000,-2.000000,-2.000000,-20.000000,6.000000,3.000000,-10.000000,-37.000000
1303200.479383,2.000000,0.000000,-10.000000,-30.000000,-5.000000,-3.000000,32.000000,45.000000
1303200.494331,-21.000000,5.000000,-5.000000,-16.000000,-14.000000,-8.000000,-27.000000,-43.000000
1303200.494346,10.000000,-3.000000,30.000000,-4.000000,-7.000000,-14.000000,-2.000000,38.000000
1303200.502054,-17.000000,-1.000000,0.000000,-4.000000,4.000000,3.000000,-3.000000,-25.000000
1303200.502072,-11.000000,5.000000,-24.000000,-7.000000,-3.000000,5.000000,21.000000,17.000000
1303200.539698,3.000000,2.000000,2.000000,52.000000,8.000000,6.000000,7.000000,-38.000000
1303200.539742,10.000000,-3.000000,-6.000000,-47.000000,-11.000000,5.000000,-12.000000,11.000000
1303200.547136,-14.000000,-1.000000,-11.000000,9.000000,-1.000000,-9.000000,-1.000000,-11.000000
1303200.547203,-3.000000,-4.000000,-2.000000,-117.000000,-21.000000,-12.000000,-15.000000,-14.000000
1303200.561658,-30.000000,6.000000,1.000000,90.000000,48.000000,21.000000,9.000000,-4.000000
1303200.561677,12.000000,0.000000,7.000000,37.000000,10.000000,-7.000000,9.000000,4.000000
1303200.562262,2.000000,-4.000000,6.000000,-17.000000,-7.000000,-4.000000,5.000000,18.000000
1303200.562293,2.000000,2.000000,4.000000,5.000000,-6.000000,-4.000000,-4.000000,-5.000000
1303200.563394,-5.000000,-6.000000,-14.000000,-17.000000,-12.000000,-6.000000,-3.000000,-6.000000
1303200.563403,-1.000000,-3.000000,2.000000,-3.000000,2.000000,2.000000,7.000000,2.000000
1303200.563978,-5.000000,3.000000,2.000000,11.000000,7.000000,2.000000,-7.000000,-3.000000
1303200.564005,-6.000000,-7.000000,-22.000000,7.000000,-1.000000,-3.000000,-7.000000,-3.000000
1303200.576697,2.000000,1.000000,-8.000000,1.000000,6.000000,5.000000,7.000000,-1.000000
1303200.576710,-2.000000,0.000000,37.000000,-2.000000,-8.000000,-3.000000,0.000000,-7.000000
1303200.577267,6.000000,8.000000,32.000000,63.000000,26.000000,22.000000,38.000000,18.000000
1303200.577275,-1.000000,7.000000,-31.000000,1.000000,-3.000000,-9.000000,-39.000000,-52.000000
1303200.613987,6.000000,-6.000000,-9.000000,-36.000000,-1.000000,-4.000000,-21.000000,31.000000
1303200.614000,-3.000000,1.000000,14.000000,-9.000000,-8.000000,3.000000,127.000000,58.000000
1303200.614656,-6.000000,0.000000,-13.000000,-2.000000,-22.000000,-16.000000,-48.000000,-38.000000
1303200.614673,5.000000,1.000000,-15.000000,58.000000,45.000000,17.000000,-15.000000,-16.000000
1303200.616015,41.000000,-3.000000,38.000000,26.000000,10.000000,2.000000,5.000000,-10.000000
1303200.616023,-8.000000,0.000000,-8.000000,-3.000000,-13.000000,5.000000,7.000000,12.000000
1303200.621824,33.000000,-6.000000,-7.000000,-12.000000,20.000000,-3.000000,-24.000000,-17.000000
1303200.621883,-10.000000,1.000000,-8.000000,12.000000,-2.000000,-1.000000,4.000000,-17.000000
1303200.659143,-5.000000,1.000000,-34.000000,-34.000000,-2.000000,1.000000,-14.000000,17.000000
1303200.659154,-10.000000,5.000000,8.000000,13.000000,-7.000000,-11.000000,-32.000000,-7.000000
1303200.674218,8.000000,0.000000,-16.000000,14.000000,1.000000,-5.000000,23.000000,2.000000
1303200.674227,-18.000000,-2.000000,-78.000000,-18.000000,7.000000,0.000000,-68.000000,-16.000000
1303200.696749,21.000000,2.000000,-16.000000,-24.000000,-4.000000,-1.000000,55.000000,-32.000000
1303200.696765,-26.000000,1.000000,30.000000,86.000000,20.000000,7.000000,53.000000,112.000000
1303200.697224,-35.000000,-2.000000,4.000000,1.000000,3.000000,7.000000,-52.000000,-51.000000
1303200.697237,18.000000,-5.000000,-33.000000,-36.000000,-10.000000,-4.000000,16.000000,32.000000
1303200.698331,13.000000,-1.000000,-2.000000,-3.000000,6.000000,2.000000,-19.000000,-25.000000
1303200.698361,-1.000000,-9.000000,-3.000000,-26.000000,6.000000,5.000000,-28.000000,-15.000000
1303200.698949,-17.000000,15.000000,-64.000000,40.000000,-6.000000,-5.000000,27.000000,-10.000000
1303200.698977,-6.000000,-3.000000,24.000000,3.000000,2.000000,5.000000,23.000000,22.000000
1303200.699623,16.000000,2.000000,-30.000000,-32.000000,-13.000000,-12.000000,-17.000000,-17.000000
1303200.699631,-4.000000,-4.000000,-12.000000,-14.000000,-8.000000,6.000000,82.000000,-9.000000
1303200.700745,5.000000,1.000000,-12.000000,19.000000,7.000000,5.000000,-12.000000,17.000000
1303200.700754,-6.000000,-1.000000,-29.000000,-59.000000,-15.000000,-7.000000,-24.000000,-16.000000
1303200.711797,11.000000,-4.000000,56.000000,81.000000,26.000000,4.000000,-17.000000,3.000000
1303200.711806,20.000000,-1.000000,-53.000000,-23.000000,-11.000000,-3.000000,27.000000,2.000000
1303200.719195,1.000000,-6.000000,19.000000,-30.000000,-7.000000,-5.000000,-32.000000,10.000000
1303200.719206,-2.000000,-6.000000,-71.000000,-3.000000,1.000000,-5.000000,53.000000,9.000000
1303200.734330,10.000000,2.000000,-22.000000,0.000000,16.000000,0.000000,-13.000000,19.000000
1303200.734342,6.000000,-3.000000,10.000000,-27.000000,-15.000000,-19.000000,-45.000000,-36.000000
1303200.741754,-34.000000,-4.000000,-19.000000,18.000000,9.000000,13.000000,28.000000,-3.000000
1303200.741765,42.000000,-1.000000,19.000000,-13.000000,-6.000000,-2.000000,-29.000000,25.000000
1303200.779561,-24.000000,-5.000000,-24.000000,-42.000000,1.000000,-9.000000,19.000000,5.000000
1303200.779580,8.000000,2.000000,16.000000,81.000000,16.000000,-1.000000,5.000000,0.000000
1303200.794214,3.000000,3.000000,6.000000,-36.000000,-7.000000,-15.000000,-29.000000,-12.000000
1303200.794224,-22.000000,5.000000,-22.000000,17.000000,-1.000000,-3.000000,-22.000000,-26.000000
1303200.817115,5.000000,-3.000000,-15.000000,-9.000000,-5.000000,-9.000000,0.000000,13.000000
1303200.817124,-18.000000,0.000000,13.000000,9.000000,8.000000,8.000000,36.000000,24.000000
1303200.817792,18.000000,-5.000000,-5.000000,6.000000,-1.000000,-3.000000,8.000000,11.000000
1303200.817800,-48.000000,1.000000,4.000000,-6.000000,-10.000000,-5.000000,-56.000000,-23.000000
1303200.819097,2.000000,-6.000000,21.000000,17.000000,2.000000,10.000000,83.000000,24.000000
1303200.819105,12.000000,-3.000000,-8.000000,2.000000,-1.000000,7.000000,-22.000000,21.000000
1303200.819743,-5.000000,-5.000000,15.000000,11.000000,-16.000000,-7.000000,-21.000000,-21.000000
1303200.819751,75.000000,-6.000000,9.000000,16.000000,4.000000,6.000000,14.000000,27.000000
1303200.820458,-37.000000,-9.000000,-29.000000,-23.000000,-14.000000,-6.000000,-6.000000,6.000000
1303200.820570,-7.000000,1.000000,0.000000,-5.000000,-8.000000,-8.000000,-10.000000,-12.000000
1303200.832736,28.000000,3.000000,-16.000000,6.000000,-7.000000,1.000000,54.000000,21.000000
1303200.832762,17.000000,-2.000000,5.000000,-14.000000,-13.000000,-5.000000,10.000000,-7.000000
1303200.838930,-11.000000,2.000000,-20.000000,-16.000000,4.000000,5.000000,-10.000000,13.000000
1303200.838939,7.000000,1.000000,42.000000,32.000000,5.000000,1.000000,2.000000,10.000000
1303200.854353,9.000000,10.000000,-47.000000,7.000000,-25.000000,-4.000000,-4.000000,-16.000000
1303200.854374,-23.000000,5.000000,20.000000,-25.000000,-10.000000,2.000000,-3.000000,-12.000000
1303200.869509,-4.000000,-4.000000,0.000000,12.000000,10.000000,-1.000000,-34.000000,-14.000000
1303200.869553,8.000000,-2.000000,18.000000,-14.000000,-9.000000,-8.000000,42.000000,6.000000
1303200.899471,25.000000,-9.000000,-44.000000,-20.000000,-10.000000,-3.000000,10.000000,30.000000
1303200.899483,8.000000,3.000000,16.000000,3.000000,-4.000000,-13.000000,-6.000000,2.000000
1303200.906977,-2.000000,-4.000000,-14.000000,-13.000000,-6.000000,-2.000000,-18.000000,-3.000000
1303200.906989,-1.000000,-1.000000,-25.000000,-33.000000,-13.000000,5.000000,9.000000,-20.000000
1303200.937067,7.000000,2.000000,-4.000000,50.000000,0.000000,-8.000000,-7.000000,11.000000
1303200.937077,-7.000000,-9.000000,1.000000,46.000000,16.000000,7.000000,10.000000,21.000000
1303200.951706,26.000000,4.000000,-19.000000,-40.000000,-10.000000,-6.000000,2.000000,-1.000000
1303200.951716,-6.000000,-4.000000,-1.000000,-1.000000,4.000000,-6.000000,1.000000,-8.000000
1303200.952787,-2.000000,5.000000,6.000000,-4.000000,-3.000000,5.000000,-5.000000,5.000000
1303200.952795,2.000000,-5.000000,-17.000000,-13.000000,-8.000000,-4.000000,-1.000000,-11.000000
1303200.953451,-13.000000,1.000000,-27.000000,-1.000000,-1.000000,-11.000000,-6.000000,0.000000
1303200.953459,27.000000,2.000000,35.000000,52.000000,18.000000,14.000000,-3.000000,-11.000000
1303200.954721,-10.000000,-1.000000,-6.000000,0.000000,-1.000000,14.000000,26.000000,47.000000
1303200.954850,2.000000,-3.000000,-2.000000,20.000000,-8.000000,-15.000000,-6.000000,-11.000000
1303200.955441,12.000000,2.000000,-28.000000,64.000000,27.000000,10.000000,101.000000,28.000000
1303200.955567,-24.000000,1.000000,14.000000,-3.000000,-9.000000,-7.000000,-16.000000,1.000000
1303200.959413,19.000000,0.000000,-19.000000,-24.000000,-13.000000,-7.000000,-12.000000,-3.000000
1303200.959423,-11.000000,-1.000000,10.000000,20.000000,17.000000,4.000000,18.000000,33.000000
1303200.996676,-31.000000,-6.000000,4.000000,-23.000000,-10.000000,-2.000000,-33.000000,-47.000000
1303200.996687,8.000000,1.000000,-26.000000,-12.000000,2.000000,6.000000,2.000000,19.000000
1303201.011669,21.000000,6.000000,27.000000,-13.000000,-2.000000,7.000000,22.000000,2.000000
1303201.011679,-4.000000,-4.000000,-8.000000,16.000000,1.000000,-13.000000,-18.000000,-3.000000
1303201.034128,-18.000000,-3.000000,1.000000,-19.000000,3.000000,1.000000,5.000000,-7.000000
1303201.034138,6.000000,2.000000,35.000000,20.000000,0.000000,-2.000000,-2.000000,30.000000
1303201.034638,14.000000,2.000000,-6.000000,-21.000000,-7.000000,-7.000000,-11.000000,-11.000000
1303201.034646,5.000000,-2.000000,-8.000000,-7.000000,-5.000000,-15.000000,-35.000000,-15.000000
1303201.035802,-15.000000,-8.000000,0.000000,39.000000,23.000000,10.000000,80.000000,-34.000000
1303201.035810,11.000000,-2.000000,12.000000,5.000000,-3.000000,19.000000,14.000000,70.000000
1303201.036475,-3.000000,-4.000000,2.000000,-16.000000,-19.000000,-13.000000,-27.000000,-37.000000
1303201.036597,4.000000,-7.000000,30.000000,9.000000,-13.000000,-13.000000,-31.000000,-1.000000
1303201.037542,11.000000,-1.000000,-13.000000,-36.000000,-16.000000,-3.000000,-2.000000,-16.000000
1303201.037552,-1.000000,3.000000,-14.000000,-22.000000,-9.000000,-3.000000,1.000000,7.000000
1303201.049231,-5.000000,-3.000000,-29.000000,8.000000,3.000000,3.000000,8.000000,-15.000000
1303201.049260,23.000000,-2.000000,13.000000,-6.000000,-7.000000,1.000000,19.000000,26.000000
1303201.050656,-11.000000,4.000000,-17.000000,-1.000000,-8.000000,1.000000,6.000000,-11.000000
1303201.050664,4.000000,-5.000000,5.000000,21.000000,2.000000,-5.000000,0.000000,9.000000
1303201.056544,14.000000,-1.000000,2.000000,-9.000000,-6.000000,5.000000,1.000000,14.000000
1303201.056553,18.000000,0.000000,4.000000,30.000000,3.000000,-4.000000,-4.000000,-8.000000
1303201.071609,-19.000000,0.000000,-6.000000,33.000000,5.000000,-7.000000,-26.000000,-26.000000
1303201.071621,-1.000000,-3.000000,6.000000,-34.000000,-11.000000,1.000000,1.000000,20.000000
1303201.094399,13.000000,8.000000,9.000000,-5.000000,-10.000000,-12.000000,-40.000000,-6.000000
1303201.094412,7.000000,-1.000000,-6.000000,-18.000000,3.000000,3.000000,43.000000,-27.000000
1303201.095589,1.000000,2.000000,39.000000,75.000000,7.000000,11.000000,-7.000000,43.000000
1303201.095599,2.000000,-9.000000,-42.000000,-22.000000,-3.000000,7.000000,66.000000,-5.000000
1303201.109673,-26.000000,-5.000000,12.000000,-19.000000,-7.000000,-3.000000,-18.000000,-2.000000
1303201.109684,9.000000,2.000000,28.000000,-7.000000,-14.000000,2.000000,-14.000000,-7.000000
1303201.110530,0.000000,4.000000,11.000000,31.000000,26.000000,14.000000,5.000000,2.000000
1303201.110540,9.000000,1.000000,-13.000000,-2.000000,10.000000,-10.000000,-11.000000,-17.000000
1303201.116645,-42.000000,-11.000000,4.000000,-6.000000,9.000000,3.000000,6.000000,12.000000
1303201.116655,9.000000,2.000000,30.000000,-7.000000,-2.000000,-6.000000,-19.000000,-16.000000
1303201.146879,10.000000,0.000000,-36.000000,-28.000000,-10.000000,-5.000000,8.000000,4.000000
1303201.146888,-7.000000,-6.000000,-5.000000,38.000000,1.000000,3.000000,5.000000,-16.000000
1303201.154257,0.000000,-1.000000,19.000000,-19.000000,-5.000000,8.000000,2.000000,27.000000
1303201.154278,-21.000000,-3.000000,-12.000000,-27.000000,-5.000000,-17.000000,17.000000,-21.000000
1303201.169082,15.000000,-10.000000,-11.000000,0.000000,-15.000000,-4.000000,-2.000000,2.000000
1303201.169111,10.000000,-6.000000,-3.000000,48.000000,14.000000,8.000000,-11.000000,-18.000000
1303201.176718,11.000000,3.000000,10.000000,-29.000000,-3.000000,-3.000000,-20.000000,-43.000000
1303201.176728,-24.000000,2.000000,-15.000000,-4.000000,-4.000000,9.000000,74.000000,65.000000
1303201.192343,31.000000,-9.000000,-18.000000,-30.000000,-3.000000,-14.000000,-7.000000,19.000000
1303201.192353,-14.000000,8.000000,5.000000,28.000000,-20.000000,2.000000,-21.000000,-29.000000
1303201.192832,11.000000,0.000000,-11.000000,-11.000000,-1.000000,-2.000000,0.000000,-2.000000
1303201.192840,-17.000000,-1.000000,1.000000,-5.000000,3.000000,-4.000000,-30.000000,-28.000000
1303201.194637,5.000000,-8.000000,-5.000000,-36.000000,-4.000000,12.000000,27.000000,39.000000
1303201.194648,15.000000,5.000000,-8.000000,25.000000,0.000000,-12.000000,-23.000000,-12.000000
1303201.214367,9.000000,-3.000000,-22.000000,-21.000000,-13.000000,-3.000000,-14.000000,-9.000000
1303201.214379,5.000000,2.000000,37.000000,39.000000,21.000000,9.000000,7.000000,-7.000000
1303201.215354,-6.000000,-7.000000,-2.000000,-13.000000,-10.000000,-3.000000,8.000000,-16.000000
1303201.215363,-16.000000,10.000000,-28.000000,-3.000000,-4.000000,-4.000000,-2.000000,11.000000
1303201.229144,26.000000,1.000000,-16.000000,-48.000000,-10.000000,-2.000000,8.000000,18.000000
1303201.229164,-13.000000,0.000000,7.000000,20.000000,8.000000,8.000000,-38.000000,-34.000000
1303201.230446,13.000000,1.000000,31.000000,34.000000,12.000000,-1.000000,20.000000,28.000000
1303201.230473,2.000000,3.000000,-1.000000,-25.000000,3.000000,-10.000000,-12.000000,16.000000
1303201.236876,-8.000000,-2.000000,-6.000000,-19.000000,3.000000,4.000000,-22.000000,-16.000000
1303201.236888,21.000000,4.000000,-19.000000,0.000000,-14.000000,1.000000,65.000000,-22.000000
1303201.259400,-25.000000,3.000000,-3.000000,34.000000,13.000000,14.000000,49.000000,55.000000
1303201.259421,2.000000,2.000000,-6.000000,7.000000,-5.000000,-12.000000,-56.000000,-36.000000
1303201.274366,-14.000000,-8.000000,0.000000,1.000000,-2.000000,5.000000,28.000000,10.000000
1303201.274382,23.000000,-1.000000,4.000000,-32.000000,-13.000000,-1.000000,-7.000000,8.000000
1303201.289511,-5.000000,-2.000000,-6.000000,-13.000000,-5.000000,1.000000,-13.000000,-16.000000
1303201.289522,-8.000000,3.000000,23.000000,14.000000,3.000000,3.000000,-11.000000,-8.000000
1303201.296792,-3.000000,1.000000,-57.000000,-46.000000,-5.000000,-16.000000,-37.000000,-37.000000
1303201.296802,50.000000,-1.000000,79.000000,25.000000,-8.000000,-10.000000,41.000000,53.000000
1303201.312213,-55.000000,-1.000000,43.000000,-22.000000,-12.000000,0.000000,-16.000000,-35.000000
1303201.312231,20.000000,-2.000000,-33.000000,-1.000000,8.000000,13.000000,39.000000,58.000000
1303201.312825,9.000000,-3.000000,27.000000,-1.000000,-7.000000,-11.000000,-15.000000,-9.000000
1303201.312843,-6.000000,-1.000000,-7.000000,-17.000000,-7.000000,-7.000000,-21.000000,-23.000000
1303201.314205,-11.000000,3.000000,-5.000000,-17.000000,1.000000,-7.000000,-25.000000,-27.000000
1303201.314232,-13.000000,-1.000000,2.000000,-10.000000,-2.000000,-6.000000,-8.000000,-4.000000
1303201.326681,15.000000,-4.000000,21.000000,11.000000,11.000000,-3.000000,-4.000000,-4.000000
1303201.326710,-2.000000,-1.000000,-17.000000,-23.000000,-2.000000,3.000000,-7.000000,-19.000000
1303201.327856,-10.000000,-4.000000,17.000000,57.000000,18.000000,11.000000,26.000000,41.000000
1303201.327863,-2.000000,2.000000,-21.000000,-51.000000,-14.000000,-11.000000,10.000000,4.000000
1303201.350324,-1.000000,4.000000,21.000000,19.000000,7.000000,5.000000,-11.000000,-11.000000
1303201.350350,-5.000000,-4.000000,10.000000,10.000000,2.000000,0.000000,-7.000000,-8.000000
1303201.371859,0.000000,4.000000,-2.000000,7.000000,-14.000000,-9.000000,4.000000,-30.000000
1303201.371871,-6.000000,2.000000,-56.000000,-15.000000,-15.000000,4.000000,2.000000,44.000000
1303201.394670,11.000000,-3.000000,30.000000,1.000000,9.000000,6.000000,-30.000000,-33.000000
1303201.394736,0.000000,-2.000000,8.000000,-30.000000,-9.000000,-7.000000,-9.000000,-18.000000
1303201.409509,-12.000000,-6.000000,-13.000000,-5.000000,-2.000000,-8.000000,-9.000000,-1.000000
1303201.409529,-5.000000,-2.000000,-2.000000,1.000000,-2.000000,-9.000000,-9.000000,4.000000
1303201.431971,3.000000,1.000000,6.000000,-9.000000,-3.000000,-5.000000,4.000000,5.000000
1303201.431988,27.000000,3.000000,18.000000,41.000000,-7.000000,-3.000000,2.000000,2.000000
1303201.432389,-8.000000,0.000000,12.000000,-3.000000,2.000000,0.000000,-19.000000,-11.000000
1303201.432409,7.000000,1.000000,-6.000000,-23.000000,-3.000000,-12.000000,18.000000,4.000000
1303201.433465,-31.000000,-4.000000,-16.000000,26.000000,9.000000,4.000000,7.000000,12.000000
1303201.433493,19.000000,-1.000000,6.000000,-39.000000,-3.000000,-3.000000,-13.000000,-6.000000
1303201.434315,1.000000,-7.000000,28.000000,-1.000000,8.000000,1.000000,-26.000000,-24.000000
1303201.434328,-20.000000,2.000000,-14.000000,-8.000000,-13.000000,-17.000000,-61.000000,-30.000000
1303201.435843,-4.000000,2.000000,2.000000,-31.000000,15.000000,6.000000,53.000000,0.000000
1303201.435889,20.000000,-7.000000,24.000000,9.000000,10.000000,15.000000,34.000000,86.000000
1303201.454368,8.000000,0.000000,-14.000000,-21.000000,-3.000000,-2.000000,-21.000000,17.000000
1303201.454390,3.000000,5.000000,2.000000,0.000000,1.000000,5.000000,-21.000000,-21.000000
1303201.455048,1.000000,2.000000,-2.000000,-32.000000,-6.000000,-5.000000,-10.000000,-10.000000
1303201.455056,-2.000000,-4.000000,67.000000,32.000000,21.000000,11.000000,5.000000,-7.000000
1303201.492036,-3.000000,1.000000,22.000000,39.000000,1.000000,-3.000000,-15.000000,-11.000000
1303201.492065,9.000000,12.000000,-14.000000,-15.000000,2.000000,5.000000,20.000000,30.000000
1303201.507050,-1.000000,-4.000000,24.000000,-15.000000,-7.000000,1.000000,-15.000000,-17.000000
1303201.507071,19.000000,1.000000,0.000000,-13.000000,-9.000000,-4.000000,-32.000000,-12.000000
1303201.529529,-10.000000,-5.000000,-9.000000,-7.000000,-4.000000,-21.000000,-13.000000,-38.000000
1303201.529540,21.000000,-6.000000,2.000000,-9.000000,9.000000,2.000000,-3.000000,49.000000
1303201.544339,30.000000,4.000000,62.000000,19.000000,7.000000,3.000000,23.000000,19.000000
1303201.544368,5.000000,2.000000,9.000000,9.000000,9.000000,1.000000,10.000000,20.000000
1303201.552238,-6.000000,-9.000000,-4.000000,10.000000,-6.000000,0.000000,-46.000000,-26.000000
1303201.552248,-4.000000,-5.000000,8.000000,6.000000,3.000000,10.000000,24.000000,25.000000
1303201.553014,-17.000000,-8.000000,-4.000000,-2.000000,0.000000,-5.000000,-25.000000,-10.000000
1303201.553061,-1.000000,4.000000,0.000000,18.000000,-11.000000,-5.000000,0.000000,-4.000000
1303201.554250,-6.000000,4.000000,-5.000000,-45.000000,-7.000000,-3.000000,-5.000000,-10.000000
1303201.554267,16.000000,6.000000,3.000000,77.000000,0.000000,-4.000000,7.000000,6.000000
1303201.555856,-37.000000,6.000000,14.000000,10.000000,11.000000,11.000000,8.000000,0.000000
1303201.555867,34.000000,-6.000000,18.000000,-37.000000,-12.000000,-6.000000,-9.000000,17.000000
1303201.567305,-26.000000,-1.000000,11.000000,27.000000,7.000000,6.000000,37.000000,-20.000000
1303201.567334,25.000000,4.000000,3.000000,-12.000000,-5.000000,7.000000,49.000000,42.000000
1303201.568016,13.000000,-5.000000,1.000000,2.000000,-6.000000,-4.000000,-28.000000,-11.000000
1303201.568025,5.000000,8.000000,29.000000,9.000000,5.000000,6.000000,0.000000,-26.000000
1303201.604503,-10.000000,-4.000000,11.000000,-13.000000,-8.000000,-3.000000,-12.000000,-11.000000
1303201.604512,-13.000000,-7.000000,-18.000000,-5.000000,-7.000000,-8.000000,-21.000000,-6.000000
1303201.611975,24.000000,2.000000,20.000000,4.000000,6.000000,-7.000000,26.000000,12.000000
1303201.611986,1.000000,-4.000000,9.000000,25.000000,10.000000,13.000000,-12.000000,6.000000
1303201.649164,8.000000,3.000000,-37.000000,-23.000000,-7.000000,-10.000000,-4.000000,-2.000000
1303201.649175,-18.000000,1.000000,-14.000000,-15.000000,-1.000000,-4.000000,-9.000000,-1.000000
1303201.656920,11.000000,-5.000000,8.000000,-28.000000,0.000000,0.000000,2.000000,3.000000
1303201.656931,1.000000,1.000000,0.000000,69.000000,17.000000,5.000000,-8.000000,-7.000000
1303201.686848,4.000000,5.000000,5.000000,12.000000,-10.000000,-9.000000,-1.000000,-2.000000
1303201.686869,-17.000000,6.000000,-2.000000,-15.000000,-2.000000,-3.000000,27.000000,15.000000
1303201.709234,-6.000000,5.000000,1.000000,-15.000000,-17.000000,2.000000,-20.000000,-3.000000
1303201.709244,17.000000,-14.000000,-7.000000,-26.000000,-3.000000,-18.000000,-3.000000,0.000000
1303201.731789,-16.000000,1.000000,-1.000000,30.000000,11.000000,6.000000,2.000000,-2.000000
1303201.731799,18.000000,1.000000,-14.000000,-13.000000,-17.000000,-6.000000,-21.000000,-20.000000
1303201.769723,6.000000,-2.000000,-9.000000,-27.000000,-1.000000,5.000000,46.000000,29.000000
1303201.769738,-13.000000,-5.000000,8.000000,-1.000000,-3.000000,-8.000000,-21.000000,-15.000000
1303201.772259,-8.000000,-2.000000,5.000000,31.000000,-4.000000,5.000000,6.000000,2.000000
1303201.772268,-10.000000,-2.000000,8.000000,-35.000000,-2.000000,5.000000,0.000000,-17.000000
1303201.784942,-7.000000,-3.000000,28.000000,-12.000000,-11.000000,-5.000000,21.000000,4.000000
1303201.784951,-9.000000,-6.000000,-52.000000,21.000000,12.000000,-4.000000,-27.000000,-13.000000
1303201.791663,14.000000,-1.000000,-8.000000,-10.000000,-5.000000,7.000000,29.000000,25.000000
1303201.791673,-31.000000,1.000000,-10.000000,-61.000000,-6.000000,-7.000000,-23.000000,-28.000000
1303201.807794,9.000000,-3.000000,-32.000000,49.000000,20.000000,6.000000,22.000000,4.000000
1303201.807808,9.000000,6.000000,-18.000000,-55.000000,-9.000000,-10.000000,-28.000000,-4.000000
1303201.829203,-12.000000,-22.000000,5.000000,6.000000,1.000000,-4.000000,-4.000000,10.000000
1303201.829213,7.000000,-3.000000,-16.000000,-25.000000,-12.000000,-8.000000,-28.000000,-9.000000
1303201.852032,17.000000,3.000000,-26.000000,5.000000,2.000000,10.000000,92.000000,12.000000
1303201.852045,-33.000000,-3.000000,14.000000,-11.000000,4.000000,4.000000,9.000000,21.000000
1303201.881516,17.000000,-3.000000,-13.000000,18.000000,8.000000,2.000000,-26.000000,-23.000000
1303201.881528,5.000000,-2.000000,-5.000000,-14.000000,-9.000000,-20.000000,-16.000000,4.000000
1303201.882619,-35.000000,-4.000000,14.000000,-6.000000,12.000000,13.000000,-3.000000,-12.000000
1303201.882627,13.000000,3.000000,3.000000,44.000000,13.000000,7.000000,17.000000,13.000000
1303201.883267,-17.000000,4.000000,-2.000000,-38.000000,-19.000000,-13.000000,-3.000000,-16.000000
1303201.883294,18.000000,-4.000000,-21.000000,6.000000,19.000000,4.000000,-3.000000,11.000000
1303201.884563,-3.000000,2.000000,-9.000000,11.000000,-4.000000,0.000000,-9.000000,-16.000000
1303201.884570,13.000000,-7.000000,0.000000,27.000000,-2.000000,-8.000000,12.000000,23.000000
1303201.885429,-1.000000,-2.000000,-3.000000,-26.000000,-7.000000,-3.000000,-6.000000,-2.000000
1303201.885436,18.000000,3.000000,-4.000000,10.000000,-7.000000,-6.000000,-25.000000,-6.000000
1303201.889022,-19.000000,-6.000000,13.000000,1.000000,-2.000000,2.000000,-12.000000,33.000000
1303201.889030,-23.000000,5.000000,31.000000,-45.000000,-11.000000,-10.000000,-34.000000,-33.000000
1303201.904936,17.000000,-1.000000,-14.000000,83.000000,20.000000,0.000000,53.000000,3.000000
1303201.904946,-16.000000,2.000000,8.000000,-13.000000,-5.000000,6.000000,-24.000000,-9.000000
1303201.926886,15.000000,10.000000,-1.000000,-24.000000,-11.000000,0.000000,2.000000,10.000000
1303201.926897,2.000000,-3.000000,-7.000000,23.000000,5.000000,-4.000000,-16.000000,0.000000
1303201.927894,-10.000000,-8.000000,7.000000,-15.000000,-11.000000,-3.000000,8.000000,-11.000000
1303201.927922,-1.000000,4.000000,11.000000,0.000000,4.000000,2.000000,-4.000000,-3.000000
1303201.941847,-8.000000,6.000000,-14.000000,24.000000,-12.000000,-6.000000,-27.000000,-7.000000
1303201.941858,23.000000,5.000000,-8.000000,-5.000000,-1.000000,4.000000,64.000000,24.000000
1303201.964376,-11.000000,3.000000,19.000000,-18.000000,4.000000,0.000000,-9.000000,-4.000000
1303201.964402,-23.000000,-4.000000,2.000000,24.000000,10.000000,18.000000,21.000000,23.000000
1303201.986867,20.000000,3.000000,-37.000000,-54.000000,-13.000000,-12.000000,-12.000000,-9.000000
1303201.986877,-47.000000,1.000000,-24.000000,-2.000000,2.000000,5.000000,-3.000000,-6.000000
1303202.009217,7.000000,-2.000000,-9.000000,-22.000000,-8.000000,-10.000000,-33.000000,-21.000000
1303202.009227,-33.000000,-5.000000,-14.000000,-2.000000,5.000000,4.000000,40.000000,-3.000000
1303202.016607,-6.000000,-2.000000,19.000000,28.000000,4.000000,4.000000,29.000000,6.000000
1303202.016617,11.000000,0.000000,-23.000000,-55.000000,-6.000000,-6.000000,-6.000000,38.000000
1303202.024870,2.000000,-6.000000,3.000000,10.000000,-1.000000,2.000000,-20.000000,-18.000000
1303202.024881,-6.000000,-4.000000,7.000000,-6.000000,2.000000,0.000000,-10.000000,-16.000000
1303202.025706,-17.000000,-4.000000,-8.000000,-36.000000,-10.000000,-3.000000,-9.000000,-13.000000
1303202.025715,0.000000,-2.000000,-19.000000,19.000000,10.000000,3.000000,-3.000000,-25.000000
1303202.027978,30.000000,-9.000000,-2.000000,26.000000,17.000000,2.000000,7.000000,21.000000
1303202.027989,-6.000000,1.000000,6.000000,0.000000,-1.000000,-1.000000,-4.000000,-10.000000
1303202.047138,-2.000000,0.000000,15.000000,3.000000,-15.000000,-5.000000,-2.000000,6.000000
1303202.047160,-4.000000,3.000000,-20.000000,-19.000000,-2.000000,-5.000000,-14.000000,-14.000000
1303202.048027,15.000000,0.000000,4.000000,-27.000000,0.000000,5.000000,17.000000,16.000000
1303202.048035,9.000000,0.000000,14.000000,34.000000,-2.000000,-5.000000,-22.000000,-8.000000
1303202.061821,-26.000000,3.000000,-1.000000,50.000000,0.000000,4.000000,-12.000000,-25.000000
1303202.061831,3.000000,-5.000000,-3.000000,-17.000000,8.000000,9.000000,7.000000,-12.000000
1303202.084590,14.000000,-7.000000,-6.000000,-36.000000,-12.000000,1.000000,24.000000,66.000000
1303202.084601,-7.000000,1.000000,-34.000000,9.000000,-7.000000,-5.000000,-22.000000,-40.000000
1303202.099387,-16.000000,-13.000000,-2.000000,5.000000,-12.000000,-7.000000,-47.000000,-28.000000
1303202.099397,-9.000000,-2.000000,-26.000000,-11.000000,-3.000000,3.000000,40.000000,-13.000000
1303202.121716,0.000000,1.000000,-6.000000,2.000000,7.000000,3.000000,6.000000,4.000000
1303202.121725,-14.000000,0.000000,-11.000000,0.000000,4.000000,5.000000,-7.000000,-7.000000
1303202.129234,7.000000,-5.000000,7.000000,21.000000,4.000000,9.000000,27.000000,18.000000
1303202.129244,12.000000,-6.000000,-5.000000,-23.000000,-7.000000,6.000000,0.000000,0.000000
1303202.130163,-13.000000,3.000000,-42.000000,-55.000000,-10.000000,-24.000000,-26.000000,-6.000000
1303202.130173,-23.000000,-7.000000,24.000000,64.000000,20.000000,13.000000,29.000000,5.000000
1303202.130825,-8.000000,-11.000000,4.000000,-20.000000,-14.000000,-1.000000,-13.000000,-7.000000
1303202.130833,0.000000,3.000000,-28.000000,-36.000000,-6.000000,-6.000000,-15.000000,-19.000000
1303202.132882,1.000000,-5.000000,-31.000000,6.000000,12.000000,12.000000,0.000000,8.000000
1303202.132893,3.000000,-9.000000,-18.000000,6.000000,-6.000000,-2.000000,22.000000,-1.000000
1303202.144582,28.000000,-4.000000,8.000000,-14.000000,6.000000,4.000000,-1.000000,33.000000
1303202.144619,-18.000000,-3.000000,-22.000000,-26.000000,-8.000000,-13.000000,-33.000000,-31.000000
1303202.159114,-7.000000,7.000000,-5.000000,33.000000,-6.000000,-4.000000,-3.000000,-17.000000
1303202.159128,13.000000,-5.000000,-31.000000,0.000000,24.000000,17.000000,21.000000,15.000000
1303202.160510,-17.000000,2.000000,-4.000000,-4.000000,-6.000000,-1.000000,-15.000000,1.000000
1303202.160519,15.000000,-5.000000,-22.000000,5.000000,-18.000000,0.000000,1.000000,-3.000000
1303202.181852,-7.000000,-2.000000,24.000000,-21.000000,-3.000000,0.000000,8.000000,8.000000
1303202.181863,5.000000,1.000000,6.000000,42.000000,4.000000,5.000000,-6.000000,7.000000
1303202.219583,11.000000,-4.000000,19.000000,106.000000,27.000000,-3.000000,-4.000000,-3.000000
1303202.219595,3.000000,-10.000000,11.000000,-22.000000,0.000000,-3.000000,1.000000,-3.000000
1303202.226940,5.000000,4.000000,-1.000000,-29.000000,-9.000000,-4.000000,-14.000000,6.000000
1303202.226951,-2.000000,10.000000,20.000000,29.000000,-8.000000,-7.000000,-10.000000,-12.000000
1303202.264655,-10.000000,-1.000000,9.000000,-30.000000,-9.000000,-6.000000,-39.000000,-22.000000
1303202.264669,-7.000000,-14.000000,-16.000000,-4.000000,0.000000,-5.000000,25.000000,33.000000
1303202.279464,1.000000,-6.000000,6.000000,-21.000000,-2.000000,-3.000000,-24.000000,4.000000
1303202.279482,9.000000,-1.000000,9.000000,39.000000,19.000000,8.000000,-16.000000,-26.000000
1303202.294674,-16.000000,6.000000,17.000000,-7.000000,2.000000,6.000000,16.000000,12.000000
1303202.294712,25.000000,-6.000000,16.000000,11.000000,13.000000,20.000000,43.000000,54.000000
1303202.301953,-4.000000,-4.000000,-5.000000,9.000000,-7.000000,0.000000,-13.000000,-21.000000
1303202.301997,-10.000000,4.000000,-27.000000,-40.000000,-10.000000,-6.000000,-19.000000,-34.000000
1303202.340697,-9.000000,-5.000000,-16.000000,-22.000000,-2.000000,7.000000,-11.000000,-21.000000
1303202.340713,-3.000000,4.000000,7.000000,-19.000000,-5.000000,0.000000,6.000000,13.000000
1303202.341638,23.000000,-11.000000,-32.000000,-16.000000,-4.000000,0.000000,78.000000,6.000000
1303202.341647,15.000000,-5.000000,12.000000,1.000000,6.000000,1.000000,8.000000,14.000000
1303202.362278,-26.000000,8.000000,1.000000,-20.000000,3.000000,-7.000000,-28.000000,-3.000000
1303202.362329,-1.000000,2.000000,6.000000,-7.000000,-8.000000,1.000000,6.000000,-6.000000
1303202.363589,0.000000,-7.000000,-50.000000,-11.000000,-2.000000,-11.000000,-31.000000,-31.000000
1303202.363616,4.000000,-4.000000,0.000000,-34.000000,-3.000000,-6.000000,13.000000,33.000000
1303202.369533,17.000000,2.000000,45.000000,20.000000,5.000000,1.000000,-16.000000,-4.000000
1303202.369550,0.000000,-2.000000,-6.000000,31.000000,-2.000000,0.000000,0.000000,9.000000
1303202.384273,4.000000,-3.000000,-18.000000,-63.000000,-18.000000,-14.000000,-7.000000,-4.000000
1303202.384302,-4.000000,-6.000000,3.000000,27.000000,6.000000,6.000000,11.000000,22.000000
1303202.399652,4.000000,-1.000000,21.000000,-6.000000,-14.000000,-13.000000,-41.000000,-19.000000
1303202.399664,-2.000000,5.000000,5.000000,-25.000000,0.000000,-3.000000,37.000000,3.000000
1303202.400560,0.000000,1.000000,-39.000000,20.000000,-2.000000,-2.000000,0.000000,6.000000
1303202.400570,-28.000000,1.000000,-4.000000,-2.000000,15.000000,-6.000000,-23.000000,-21.000000
1303202.414921,16.000000,-3.000000,1.000000,-4.000000,-14.000000,-4.000000,-31.000000,0.000000
1303202.414932,21.000000,3.000000,9.000000,13.000000,-2.000000,4.000000,59.000000,22.000000
1303202.422363,2.000000,-6.000000,-3.000000,-39.000000,-5.000000,-4.000000,-9.000000,0.000000
1303202.422421,-35.000000,4.000000,18.000000,21.000000,-5.000000,10.000000,-8.000000,-14.000000
1303202.429397,-5.000000,-3.000000,-18.000000,-10.000000,-4.000000,-4.000000,-7.000000,-16.000000
1303202.429407,-3.000000,-4.000000,17.000000,-9.000000,5.000000,1.000000,28.000000,30.000000
1303202.444304,-2.000000,3.000000,1.000000,-14.000000,1.000000,2.000000,-5.000000,-11.000000
1303202.444315,0.000000,-4.000000,-10.000000,7.000000,3.000000,2.000000,-37.000000,-43.000000
1303202.452078,0.000000,0.000000,13.000000,-2.000000,0.000000,-6.000000,52.000000,29.000000
1303202.452089,2.000000,-10.000000,16.000000,-1.000000,6.000000,5.000000,-11.000000,-10.000000
1303202.489298,0.000000,0.000000,12.000000,-3.000000,-4.000000,-6.000000,3.000000,15.000000
1303202.489308,-1.000000,-2.000000,-35.000000,-5.000000,0.000000,1.000000,-5.000000,-8.000000
1303202.497018,-5.000000,1.000000,6.000000,1.000000,-2.000000,-7.000000,2.000000,-10.000000
1303202.497029,3.000000,-9.000000,-30.000000,0.000000,-2.000000,-6.000000,-19.000000,16.000000
1303202.504994,-1.000000,5.000000,10.000000,1.000000,-28.000000,-7.000000,22.000000,2.000000
1303202.505004,-1.000000,-4.000000,4.000000,-16.000000,28.000000,10.000000,-10.000000,-7.000000
1303202.505352,16.000000,-5.000000,2.000000,24.000000,3.000000,4.000000,-10.000000,-25.000000
1303202.505360,-1.000000,1.000000,-59.000000,-48.000000,-9.000000,-2.000000,7.000000,18.000000
1303202.507193,10.000000,5.000000,43.000000,7.000000,0.000000,-4.000000,-10.000000,-6.000000
1303202.507205,-14.000000,-2.000000,-40.000000,3.000000,-2.000000,6.000000,-12.000000,-19.000000
1303202.519139,10.000000,-4.000000,9.000000,-35.000000,-20.000000,-7.000000,-22.000000,-16.000000
1303202.519150,10.000000,1.000000,1.000000,56.000000,14.000000,5.000000,9.000000,8.000000
1303202.520451,17.000000,0.000000,-6.000000,-1.000000,4.000000,6.000000,18.000000,53.000000
1303202.520468,13.000000,4.000000,-8.000000,-22.000000,-3.000000,-10.000000,-32.000000,-16.000000
1303202.534413,-43.000000,0.000000,-3.000000,-37.000000,-8.000000,-13.000000,-13.000000,-26.000000
1303202.534423,0.000000,-14.000000,-15.000000,16.000000,6.000000,-2.000000,33.000000,9.000000
1303202.542376,-6.000000,0.000000,55.000000,45.000000,0.000000,-3.000000,-28.000000,-11.000000
1303202.542387,3.000000,3.000000,-1.000000,-23.000000,-8.000000,-8.000000,-13.000000,4.000000
1303202.556902,-4.000000,-2.000000,12.000000,5.000000,-3.000000,-13.000000,1.000000,-4.000000
1303202.556915,-4.000000,4.000000,1.000000,-24.000000,-8.000000,6.000000,-19.000000,-19.000000
1303202.579298,25.000000,0.000000,17.000000,63.000000,5.000000,3.000000,-19.000000,-4.000000
1303202.579309,-29.000000,2.000000,12.000000,-36.000000,-7.000000,2.000000,20.000000,-1.000000
1303202.602210,7.000000,-1.000000,17.000000,-4.000000,8.000000,-7.000000,-6.000000,16.000000
1303202.602223,1.000000,0.000000,-42.000000,-29.000000,-4.000000,3.000000,-17.000000,-15.000000
1303202.617099,4.000000,-6.000000,-13.000000,-30.000000,-6.000000,-16.000000,-42.000000,-24.000000
1303202.617109,14.000000,-7.000000,-47.000000,-7.000000,-10.000000,-1.000000,60.000000,31.000000
1303202.617778,17.000000,4.000000,29.000000,16.000000,3.000000,10.000000,-10.000000,13.000000
1303202.617787,-15.000000,-2.000000,-23.000000,-25.000000,0.000000,-5.000000,-19.000000,-37.000000
1303202.618988,-17.000000,-4.000000,34.000000,-3.000000,-18.000000,-25.000000,-17.000000,9.000000
1303202.619026,-5.000000,4.000000,-7.000000,76.000000,14.000000,5.000000,10.000000,3.000000
1303202.619594,-5.000000,-6.000000,-23.000000,-95.000000,-10.000000,0.000000,-18.000000,-17.000000
1303202.619602,6.000000,17.000000,38.000000,32.000000,-11.000000,-7.000000,18.000000,18.000000
1303202.624022,35.000000,-3.000000,-21.000000,-4.000000,-1.000000,-14.000000,12.000000,19.000000
1303202.624031,-28.000000,1.000000,7.000000,-8.000000,-6.000000,3.000000,-11.000000,-23.000000
1303202.654445,-9.000000,-7.000000,-29.000000,0.000000,-14.000000,-15.000000,-8.000000,-2.000000
1303202.654455,1.000000,0.000000,-39.000000,-17.000000,-2.000000,-3.000000,-30.000000,-6.000000
1303202.662060,2.000000,6.000000,11.000000,-5.000000,3.000000,13.000000,28.000000,2.000000
1303202.662070,13.000000,-5.000000,14.000000,1.000000,-3.000000,-12.000000,40.000000,9.000000
1303202.662905,-4.000000,1.000000,4.000000,25.000000,13.000000,7.000000,-12.000000,10.000000
1303202.662945,6.000000,-1.000000,-27.000000,1.000000,-1.000000,-8.000000,-33.000000,19.000000
1303202.664313,4.000000,1.000000,-4.000000,4.000000,5.000000,13.000000,9.000000,-7.000000
1303202.664322,-20.000000,0.000000,0.000000,-14.000000,-8.000000,-2.000000,-22.000000,-34.000000
1303202.676636,-2.000000,-2.000000,-3.000000,15.000000,6.000000,4.000000,13.000000,22.000000
1303202.676664,10.000000,-3.000000,-8.000000,-11.000000,-5.000000,6.000000,8.000000,10.000000
1303202.714310,-5.000000,-3.000000,9.000000,49.000000,1.000000,-8.000000,-44.000000,-8.000000
1303202.714320,9.000000,2.000000,0.000000,-14.000000,-4.000000,-1.000000,17.000000,-2.000000
1303202.721774,-21.000000,4.000000,16.000000,-5.000000,-3.000000,6.000000,1.000000,-13.000000
1303202.721783,7.000000,-6.000000,-14.000000,-23.000000,-4.000000,-7.000000,-11.000000,-3.000000
1303202.737148,-1.000000,-4.000000,61.000000,52.000000,-4.000000,9.000000,-7.000000,8.000000
1303202.737156,9.000000,2.000000,-31.000000,-41.000000,-3.000000,0.000000,5.000000,1.000000
1303202.737746,26.000000,-4.000000,-26.000000,-14.000000,-13.000000,-6.000000,17.000000,7.000000
1303202.737754,-56.000000,1.000000,-25.000000,-13.000000,-6.000000,-1.000000,-1.000000,3.000000
1303202.759562,-11.000000,0.000000,31.000000,21.000000,22.000000,11.000000,3.000000,-12.000000
1303202.759578,-11.000000,-3.000000,8.000000,-16.000000,-3.000000,-8.000000,-22.000000,-10.000000
1303202.774250,2.000000,4.000000,-54.000000,-19.000000,-10.000000,-13.000000,0.000000,7.000000
1303202.774260,-11.000000,3.000000,-8.000000,-31.000000,5.000000,10.000000,0.000000,-8.000000
1303202.775180,14.000000,4.000000,58.000000,39.000000,7.000000,10.000000,2.000000,0.000000
1303202.775188,-12.000000,-4.000000,-32.000000,-22.000000,-10.000000,-6.000000,-26.000000,-19.000000
1303202.775769,8.000000,1.000000,13.000000,10.000000,3.000000,-1.000000,57.000000,20.000000
1303202.775777,14.000000,-2.000000,24.000000,22.000000,12.000000,5.000000,-16.000000,2.000000
1303202.777569,-31.000000,-1.000000,-5.000000,-4.000000,-12.000000,-1.000000,1.000000,5.000000
1303202.777585,6.000000,-5.000000,26.000000,-40.000000,-3.000000,-7.000000,-19.000000,-12.000000
1303202.778332,-2.000000,0.000000,-17.000000,0.000000,-2.000000,8.000000,14.000000,7.000000
1303202.778348,6.000000,-3.000000,13.000000,-2.000000,14.000000,4.000000,7.000000,-7.000000
1303202.782468,-22.000000,1.000000,-18.000000,45.000000,7.000000,-1.000000,-17.000000,19.000000
1303202.782478,18.000000,0.000000,23.000000,-9.000000,-10.000000,-4.000000,4.000000,-2.000000
1303202.796782,-15.000000,-5.000000,5.000000,-4.000000,4.000000,9.000000,13.000000,-3.000000
1303202.796793,8.000000,4.000000,14.000000,-17.000000,-7.000000,1.000000,-1.000000,20.000000
1303202.819383,-17.000000,3.000000,26.000000,-5.000000,-7.000000,-19.000000,-33.000000,-39.000000
1303202.819393,25.000000,-3.000000,3.000000,-17.000000,-12.000000,3.000000,11.000000,16.000000
1303202.834424,0.000000,7.000000,5.000000,39.000000,5.000000,4.000000,27.000000,15.000000
1303202.834434,-18.000000,-2.000000,-1.000000,-17.000000,-8.000000,4.000000,7.000000,15.000000
1303202.856806,6.000000,4.000000,25.000000,16.000000,7.000000,2.000000,-13.000000,-9.000000
1303202.856825,-4.000000,3.000000,-3.000000,-50.000000,-13.000000,-1.000000,-10.000000,-7.000000
1303202.879310,-5.000000,2.000000,-30.000000,41.000000,14.000000,6.000000,-1.000000,0.000000
1303202.879322,12.000000,1.000000,-5.000000,-12.000000,-11.000000,-2.000000,-42.000000,-21.000000
1303202.894230,-15.000000,-2.000000,31.000000,3.000000,-4.000000,-10.000000,29.000000,27.000000
1303202.894240,-1.000000,1.000000,-46.000000,-13.000000,-5.000000,0.000000,-23.000000,21.000000
1303202.901560,-4.000000,-5.000000,14.000000,-10.000000,-5.000000,0.000000,35.000000,-15.000000
1303202.901569,-11.000000,-2.000000,25.000000,5.000000,2.000000,-5.000000,-24.000000,1.000000
1303202.939323,22.000000,-8.000000,-42.000000,4.000000,-8.000000,-6.000000,10.000000,16.000000
1303202.939342,-33.000000,4.000000,-8.000000,-44.000000,-17.000000,-14.000000,-20.000000,-20.000000
1303202.946710,26.000000,-5.000000,0.000000,54.000000,18.000000,5.000000,9.000000,1.000000
1303202.946727,-1.000000,0.000000,14.000000,-2.000000,-15.000000,-6.000000,-1.000000,18.000000
1303202.961972,-59.000000,-1.000000,23.000000,-5.000000,-4.000000,0.000000,-8.000000,-25.000000
1303202.961983,13.000000,6.000000,-60.000000,-36.000000,-8.000000,-6.000000,21.000000,31.000000
1303202.977341,11.000000,2.000000,-34.000000,-23.000000,-10.000000,-8.000000,-31.000000,-14.000000
1303202.977359,-6.000000,-3.000000,14.000000,-72.000000,-13.000000,-6.000000,32.000000,5.000000
1303202.992095,-7.000000,-3.000000,-33.000000,-24.000000,0.000000,-14.000000,-82.000000,-34.000000
1303202.992123,37.000000,0.000000,30.000000,7.000000,12.000000,11.000000,92.000000,51.000000
1303202.992776,0.000000,-6.000000,25.000000,-7.000000,-7.000000,0.000000,-16.000000,-1.000000
1303202.992803,5.000000,-5.000000,-6.000000,-3.000000,-8.000000,4.000000,-14.000000,-17.000000
1303202.993467,-3.000000,5.000000,1.000000,-2.000000,7.000000,-2.000000,-19.000000,-26.000000
1303202.993475,8.000000,3.000000,-7.000000,13.000000,-6.000000,-14.000000,-31.000000,-16.000000
1303202.994656,-34.000000,-6.000000,-28.000000,2.000000,2.000000,-1.000000,37.000000,26.000000
1303202.994665,-27.000000,-2.000000,26.000000,30.000000,12.000000,3.000000,-8.000000,3.000000
1303202.995569,11.000000,-2.000000,2.000000,-48.000000,-17.000000,-5.000000,-18.000000,-14.000000
1303202.995577,-1.000000,0.000000,8.000000,-9.000000,-1.000000,3.000000,2.000000,-14.000000
1303203.014502,6.000000,2.000000,8.000000,-1.000000,-6.000000,0.000000,11.000000,9.000000
1303203.014516,-17.000000,-3.000000,22.000000,-5.000000,7.000000,-5.000000,-20.000000,-7.000000
1303203.015070,8.000000,-5.000000,-57.000000,-9.000000,-7.000000,-1.000000,5.000000,3.000000
1303203.015080,15.000000,-7.000000,18.000000,26.000000,-8.000000,-9.000000,-3.000000,13.000000
1303203.044111,16.000000,-3.000000,37.000000,-43.000000,9.000000,13.000000,10.000000,8.000000
1303203.044140,2.000000,1.000000,3.000000,105.000000,24.000000,4.000000,-13.000000,-11.000000
1303203.051820,14.000000,2.000000,-68.000000,-35.000000,-13.000000,2.000000,-17.000000,-14.000000
1303203.051830,13.000000,-4.000000,14.000000,-13.000000,-3.000000,1.000000,30.000000,24.000000
1303203.096788,-26.000000,-3.000000,-3.000000,-36.000000,-1.000000,-5.000000,9.000000,16.000000
1303203.096801,22.000000,12.000000,6.000000,2.000000,-8.000000,5.000000,-6.000000,-4.000000
1303203.111686,-19.000000,3.000000,8.000000,10.000000,2.000000,-11.000000,-19.000000,-16.000000
1303203.111696,3.000000,3.000000,24.000000,-4.000000,-10.000000,2.000000,-23.000000,-1.000000
1303203.119857,-7.000000,3.000000,8.000000,51.000000,-2.000000,7.000000,11.000000,5.000000
1303203.119866,47.000000,-6.000000,-13.000000,-11.000000,-7.000000,-8.000000,2.000000,19.000000
1303203.120301,-18.000000,1.000000,23.000000,11.000000,8.000000,6.000000,0.000000,-1.000000
1303203.120309,-1.000000,-1.000000,-33.000000,-41.000000,-19.000000,-12.000000,-5.000000,-21.000000
1303203.121590,32.000000,2.000000,11.000000,4.000000,3.000000,-5.000000,-28.000000,-5.000000
1303203.121599,-7.000000,-1.000000,21.000000,26.000000,6.000000,9.000000,44.000000,23.000000
1303203.122366,0.000000,-10.000000,-1.000000,36.000000,-1.000000,5.000000,35.000000,24.000000
1303203.122374,-2.000000,3.000000,7.000000,-55.000000,-4.000000,-10.000000,-32.000000,-30.000000
1303203.126714,-3.000000,8.000000,4.000000,17.000000,13.000000,7.000000,13.000000,22.000000
1303203.126723,13.000000,-2.000000,-37.000000,37.000000,3.000000,-7.000000,-24.000000,-18.000000
1303203.134195,-14.000000,-5.000000,54.000000,36.000000,10.000000,1.000000,17.000000,-14.000000
1303203.134206,-12.000000,-5.000000,-30.000000,-16.000000,10.000000,6.000000,-16.000000,-2.000000
1303203.172252,6.000000,6.000000,7.000000,5.000000,-1.000000,1.000000,7.000000,4.000000
1303203.172267,-2.000000,-4.000000,-20.000000,-2.000000,-3.000000,-8.000000,-35.000000,-5.000000
1303203.179459,0.000000,0.000000,31.000000,19.000000,5.000000,1.000000,42.000000,-13.000000
1303203.179470,-28.000000,2.000000,-43.000000,-10.000000,15.000000,4.000000,6.000000,21.000000
1303203.216919,19.000000,-9.000000,32.000000,-1.000000,-2.000000,8.000000,2.000000,5.000000
1303203.216929,-31.000000,-2.000000,-35.000000,-16.000000,2.000000,-8.000000,-18.000000,-19.000000
1303203.217526,-23.000000,-6.000000,1.000000,21.000000,5.000000,-5.000000,-32.000000,-44.000000
1303203.217535,37.000000,2.000000,-32.000000,-37.000000,-11.000000,-6.000000,19.000000,52.000000
1303203.218663,18.000000,-9.000000,10.000000,4.000000,2.000000,1.000000,2.000000,5.000000
1303203.218695,-40.000000,6.000000,16.000000,16.000000,4.000000,-2.000000,-31.000000,-22.000000
1303203.219392,-14.000000,-6.000000,-46.000000,-42.000000,-16.000000,-7.000000,-13.000000,-20.000000
1303203.219425,20.000000,-1.000000,-23.000000,27.000000,1.000000,0.000000,18.000000,31.000000
1303203.220832,5.000000,-2.000000,-19.000000,38.000000,7.000000,9.000000,7.000000,2.000000
1303203.220841,-28.000000,-2.000000,20.000000,-9.000000,-3.000000,-9.000000,-46.000000,-14.000000
1303203.231724,14.000000,-3.000000,35.000000,10.000000,14.000000,24.000000,76.000000,10.000000
1303203.231734,-7.000000,6.000000,-12.000000,-19.000000,-10.000000,-10.000000,-2.000000,25.000000
1303203.239207,2.000000,1.000000,-40.000000,-17.000000,-6.000000,-9.000000,-12.000000,-12.000000
1303203.239217,0.000000,0.000000,13.000000,-35.000000,-18.000000,3.000000,0.000000,-3.000000
1303203.254577,-33.000000,-9.000000,1.000000,6.000000,-1.000000,2.000000,-11.000000,-10.000000
1303203.254591,6.000000,1.000000,-2.000000,-22.000000,-15.000000,7.000000,11.000000,15.000000
1303203.255076,-13.000000,2.000000,-1.000000,-7.000000,2.000000,0.000000,-19.000000,-19.000000
1303203.255086,-17.000000,-5.000000,8.000000,-14.000000,-13.000000,-3.000000,-17.000000,-14.000000
1303203.277003,12.000000,1.000000,-15.000000,10.000000,-16.000000,-14.000000,55.000000,10.000000
1303203.277027,4.000000,-6.000000,-39.000000,-27.000000,8.000000,10.000000,8.000000,31.000000
1303203.291820,-6.000000,-10.000000,25.000000,-12.000000,2.000000,0.000000,-12.000000,-7.000000
1303203.291831,2.000000,-5.000000,18.000000,-1.000000,-4.000000,-7.000000,-10.000000,-15.000000
1303203.314372,-4.000000,0.000000,-20.000000,-2.000000,-6.000000,-10.000000,-14.000000,-13.000000
1303203.314383,-1.000000,-9.000000,3.000000,6.000000,5.000000,-6.000000,0.000000,-4.000000
1303203.329266,-2.000000,2.000000,-4.000000,-7.000000,-2.000000,-1.000000,-8.000000,-7.000000
1303203.329285,5.000000,-14.000000,7.000000,10.000000,-9.000000,-7.000000,-18.000000,-25.000000
1303203.332166,-3.000000,-5.000000,-5.000000,-12.000000,-3.000000,-1.000000,-17.000000,12.000000
1303203.332180,-15.000000,8.000000,-6.000000,-22.000000,-15.000000,-7.000000,27.000000,-1.000000
1303203.332555,-4.000000,0.000000,11.000000,20.000000,5.000000,-9.000000,-28.000000,1.000000
1303203.332570,18.000000,-5.000000,1.000000,-17.000000,-3.000000,9.000000,37.000000,6.000000
