# participant_id: P12
# gesture: baseline
# trial_number: 2
# stream_name: Myo_EMG
# stream_type: emg
# timestamp: 20260420_175824
# samples: 5734
# duration_sec: 30.429
# nominal_sample_rate: 200.0
# effective_sample_rate: 188.41
#
timestamp,emg_1,emg_2,emg_3,emg_4,emg_5,emg_6,emg_7,emg_8
1312596.704106,-6.000000,10.000000,-5.000000,-4.000000,-4.000000,-3.000000,-1.000000,-2.000000
1312596.704119,5.000000,-20.000000,8.000000,-8.000000,4.000000,1.000000,0.000000,3.000000
1312596.704514,1.000000,44.000000,2.000000,0.000000,-1.000000,0.000000,1.000000,-5.000000
1312596.704524,0.000000,-3.000000,-21.000000,-9.000000,-8.000000,-5.000000,-2.000000,-2.000000
1312596.705537,-6.000000,-4.000000,7.000000,6.000000,-3.000000,0.000000,0.000000,-5.000000
1312596.705546,1.000000,-7.000000,-10.000000,-4.000000,-1.000000,1.000000,3.000000,10.000000
1312596.706161,0.000000,-5.000000,-4.000000,-4.000000,0.000000,-2.000000,0.000000,4.000000
1312596.706169,-1.000000,-2.000000,-18.000000,-13.000000,2.000000,-3.000000,0.000000,-1.000000
1312596.707778,-1.000000,-3.000000,-10.000000,-6.000000,5.000000,-3.000000,-4.000000,1.000000
1312596.707787,-1.000000,-3.000000,-7.000000,-7.000000,0.000000,1.000000,1.000000,1.000000
1312596.719121,-4.000000,9.000000,2.000000,1.000000,-8.000000,-1.000000,-1.000000,1.000000
1312596.719169,-3.000000,-46.000000,-10.000000,-6.000000,-1.000000,-2.000000,-3.000000,-3.000000
1312596.726397,3.000000,16.000000,-5.000000,-1.000000,4.000000,1.000000,1.000000,3.000000
1312596.726420,0.000000,1.000000,14.000000,6.000000,-3.000000,-3.000000,-3.000000,1.000000
1312596.756743,0.000000,4.000000,-7.000000,-3.000000,-2.000000,-3.000000,0.000000,1.000000
1312596.756759,1.000000,-7.000000,-26.000000,-12.000000,2.000000,1.000000,-1.000000,-3.000000
1312596.764283,2.000000,1.000000,0.000000,7.000000,-5.000000,0.000000,2.000000,-1.000000
1312596.764307,-3.000000,3.000000,-7.000000,1.000000,-1.000000,-3.000000,-5.000000,1.000000
1312596.778737,1.000000,-11.000000,-7.000000,-18.000000,5.000000,1.000000,-3.000000,0.000000
1312596.778792,8.000000,16.000000,19.000000,5.000000,-2.000000,0.000000,-1.000000,-2.000000
1312596.779306,-2.000000,3.000000,-11.000000,4.000000,-3.000000,-1.000000,3.000000,-2.000000
1312596.779313,-6.000000,-15.000000,-13.000000,-13.000000,-2.000000,-3.000000,0.000000,-2.000000
1312596.780555,-2.000000,5.000000,11.000000,4.000000,3.000000,-5.000000,-1.000000,0.000000
1312596.780563,-5.000000,11.000000,-4.000000,0.000000,-5.000000,-1.000000,-3.000000,-5.000000
1312596.781388,1.000000,-6.000000,-1.000000,0.000000,-1.000000,2.000000,-1.000000,0.000000
1312596.781397,4.000000,1.000000,-8.000000,-4.000000,2.000000,-4.000000,-1.000000,-3.000000
1312596.786969,-3.000000,4.000000,23.000000,3.000000,0.000000,1.000000,2.000000,1.000000
1312596.786980,-6.000000,-23.000000,-1.000000,5.000000,-5.000000,-1.000000,-3.000000,-1.000000
1312596.801699,4.000000,-5.000000,16.000000,-8.000000,0.000000,-5.000000,-3.000000,-2.000000
1312596.801709,-4.000000,-9.000000,-13.000000,-2.000000,0.000000,1.000000,-3.000000,-1.000000
1312596.823898,-1.000000,2.000000,26.000000,4.000000,-2.000000,2.000000,0.000000,-1.000000
1312596.823908,-1.000000,5.000000,-19.000000,-2.000000,4.000000,-1.000000,-3.000000,-2.000000
1312596.839032,2.000000,-2.000000,9.000000,1.000000,0.000000,-1.000000,1.000000,-2.000000
1312596.839042,-2.000000,-1.000000,-48.000000,10.000000,-5.000000,-2.000000,-1.000000,-4.000000
1312596.861426,-1.000000,4.000000,2.000000,-2.000000,0.000000,1.000000,1.000000,-3.000000
1312596.861436,-2.000000,-16.000000,10.000000,-4.000000,4.000000,1.000000,0.000000,-3.000000
1312596.884410,-7.000000,3.000000,-25.000000,7.000000,0.000000,2.000000,-1.000000,1.000000
1312596.884436,-1.000000,6.000000,53.000000,8.000000,-3.000000,0.000000,-1.000000,0.000000
1312596.899787,2.000000,-4.000000,26.000000,-2.000000,4.000000,-3.000000,-1.000000,1.000000
1312596.899800,0.000000,-4.000000,-73.000000,-17.000000,-3.000000,1.000000,4.000000,-1.000000
1312596.900346,-4.000000,-8.000000,67.000000,24.000000,-3.000000,1.000000,-3.000000,-2.000000
1312596.900374,1.000000,-1.000000,-20.000000,-14.000000,-1.000000,-2.000000,0.000000,-1.000000
1312596.901456,3.000000,-9.000000,-6.000000,-3.000000,-1.000000,-1.000000,1.000000,1.000000
1312596.901479,-3.000000,-3.000000,10.000000,10.000000,-6.000000,-1.000000,-1.000000,0.000000
1312596.902200,0.000000,10.000000,-34.000000,-6.000000,2.000000,-2.000000,-2.000000,-1.000000
1312596.902207,-1.000000,8.000000,48.000000,-7.000000,0.000000,2.000000,1.000000,1.000000
1312596.903122,-4.000000,-6.000000,-26.000000,-25.000000,-1.000000,-2.000000,-2.000000,0.000000
1312596.903150,1.000000,-3.000000,-25.000000,-3.000000,-4.000000,0.000000,4.000000,0.000000
1312596.907135,0.000000,1.000000,21.000000,20.000000,-1.000000,-2.000000,-1.000000,-1.000000
1312596.907153,-2.000000,-6.000000,-90.000000,-19.000000,2.000000,-3.000000,-2.000000,3.000000
1312596.921345,2.000000,-2.000000,48.000000,4.000000,0.000000,-1.000000,-4.000000,1.000000
1312596.921355,-1.000000,-3.000000,2.000000,6.000000,-5.000000,-2.000000,-1.000000,-3.000000
1312596.936268,2.000000,-1.000000,5.000000,0.000000,-2.000000,2.000000,-1.000000,1.000000
1312596.936278,0.000000,-5.000000,-2.000000,-1.000000,3.000000,0.000000,2.000000,3.000000
1312596.937004,-1.000000,-4.000000,10.000000,0.000000,-7.000000,4.000000,-3.000000,1.000000
1312596.937012,2.000000,8.000000,0.000000,3.000000,-2.000000,-2.000000,0.000000,-2.000000
1312596.951713,-5.000000,-14.000000,5.000000,-14.000000,0.000000,-5.000000,0.000000,-6.000000
1312596.951742,1.000000,10.000000,18.000000,6.000000,0.000000,0.000000,-1.000000,2.000000
1312596.958970,-4.000000,12.000000,-4.000000,-1.000000,-7.000000,-2.000000,-5.000000,-1.000000
1312596.958993,-3.000000,0.000000,3.000000,-6.000000,-3.000000,-6.000000,-3.000000,-1.000000
1312596.996386,-1.000000,-6.000000,-8.000000,-5.000000,1.000000,2.000000,-3.000000,-3.000000
1312596.996397,-4.000000,-8.000000,-15.000000,3.000000,-9.000000,-2.000000,-1.000000,-4.000000
1312597.003804,0.000000,7.000000,16.000000,-1.000000,4.000000,0.000000,-1.000000,-1.000000
1312597.003817,-2.000000,-7.000000,20.000000,-8.000000,-2.000000,-2.000000,4.000000,0.000000
1312597.004878,2.000000,21.000000,7.000000,5.000000,-9.000000,-4.000000,1.000000,0.000000
1312597.004887,-1.000000,-1.000000,10.000000,1.000000,-1.000000,-2.000000,-1.000000,-2.000000
1312597.005505,0.000000,4.000000,-10.000000,-11.000000,1.000000,1.000000,-3.000000,0.000000
1312597.005513,1.000000,16.000000,11.000000,8.000000,3.000000,2.000000,0.000000,0.000000
1312597.019184,-8.000000,-48.000000,-15.000000,-10.000000,-9.000000,-4.000000,-3.000000,-2.000000
1312597.019199,0.000000,2.000000,6.000000,2.000000,2.000000,-1.000000,-1.000000,-1.000000
1312597.020160,-1.000000,1.000000,4.000000,1.000000,-1.000000,1.000000,-3.000000,-2.000000
1312597.020185,-3.000000,-1.000000,-6.000000,1.000000,-5.000000,4.000000,0.000000,-2.000000
1312597.042483,4.000000,-11.000000,0.000000,-1.000000,1.000000,1.000000,0.000000,-1.000000
1312597.042603,1.000000,16.000000,42.000000,-7.000000,-1.000000,1.000000,-2.000000,-1.000000
1312597.042845,0.000000,-10.000000,-43.000000,-1.000000,-10.000000,3.000000,-5.000000,-3.000000
1312597.042860,-5.000000,14.000000,24.000000,1.000000,4.000000,-5.000000,-5.000000,0.000000
1312597.056280,3.000000,4.000000,-25.000000,-9.000000,6.000000,0.000000,2.000000,3.000000
1312597.056310,0.000000,1.000000,-4.000000,0.000000,2.000000,-2.000000,-2.000000,-1.000000
1312597.056958,-4.000000,10.000000,1.000000,20.000000,-4.000000,0.000000,-1.000000,-3.000000
1312597.056966,1.000000,-9.000000,-8.000000,-19.000000,-8.000000,-1.000000,2.000000,-2.000000
1312597.079506,-3.000000,1.000000,6.000000,1.000000,-3.000000,1.000000,0.000000,-1.000000
1312597.079536,-2.000000,2.000000,-16.000000,1.000000,-6.000000,1.000000,-1.000000,-1.000000
1312597.101531,1.000000,5.000000,-8.000000,-6.000000,-6.000000,-3.000000,-1.000000,-3.000000
1312597.101544,-12.000000,-8.000000,5.000000,-6.000000,7.000000,1.000000,0.000000,-2.000000
1312597.116645,1.000000,0.000000,3.000000,-12.000000,-12.000000,2.000000,0.000000,-1.000000
1312597.116659,0.000000,-5.000000,-7.000000,-4.000000,-8.000000,-6.000000,-3.000000,0.000000
1312597.117066,7.000000,2.000000,13.000000,4.000000,25.000000,2.000000,-2.000000,1.000000
1312597.117075,-1.000000,-3.000000,21.000000,3.000000,17.000000,8.000000,3.000000,-3.000000
1312597.118151,-5.000000,-13.000000,-34.000000,-6.000000,-7.000000,-3.000000,-1.000000,-3.000000
1312597.118161,-3.000000,16.000000,2.000000,-10.000000,-4.000000,-6.000000,-4.000000,-5.000000
1312597.119207,-2.000000,-10.000000,-20.000000,-1.000000,-5.000000,-4.000000,-2.000000,-3.000000
1312597.119217,4.000000,21.000000,22.000000,-6.000000,-9.000000,1.000000,0.000000,-1.000000
1312597.138928,-5.000000,-19.000000,-10.000000,-5.000000,0.000000,-1.000000,-1.000000,-3.000000
1312597.138941,6.000000,4.000000,12.000000,2.000000,3.000000,-1.000000,-1.000000,1.000000
1312597.139413,-3.000000,4.000000,-20.000000,2.000000,-5.000000,0.000000,-2.000000,1.000000
1312597.139421,-2.000000,-2.000000,11.000000,3.000000,-2.000000,-4.000000,-1.000000,-1.000000
1312597.154273,-2.000000,-6.000000,1.000000,-10.000000,6.000000,1.000000,-1.000000,0.000000
1312597.154284,0.000000,-2.000000,0.000000,-1.000000,-2.000000,0.000000,-2.000000,1.000000
1312597.162064,-3.000000,-5.000000,-16.000000,2.000000,-5.000000,2.000000,-1.000000,1.000000
1312597.162074,1.000000,6.000000,25.000000,-4.000000,5.000000,-4.000000,-2.000000,-3.000000
1312597.176504,-3.000000,2.000000,8.000000,19.000000,11.000000,0.000000,-1.000000,-4.000000
1312597.176514,-2.000000,-9.000000,-8.000000,0.000000,-4.000000,3.000000,1.000000,-2.000000
1312597.183936,-1.000000,-3.000000,-7.000000,-7.000000,0.000000,-1.000000,-2.000000,-4.000000
1312597.183949,1.000000,1.000000,-3.000000,-4.000000,0.000000,-1.000000,-2.000000,-2.000000
1312597.214166,-4.000000,6.000000,-5.000000,-14.000000,-4.000000,1.000000,-4.000000,-1.000000
1312597.214177,-2.000000,-4.000000,-1.000000,13.000000,-5.000000,0.000000,0.000000,-3.000000
1312597.236279,0.000000,-1.000000,7.000000,-5.000000,4.000000,-2.000000,-1.000000,-3.000000
1312597.236294,0.000000,-1.000000,-3.000000,-1.000000,-6.000000,-1.000000,-1.000000,-2.000000
1312597.237435,-4.000000,3.000000,-2.000000,2.000000,-2.000000,-2.000000,-1.000000,-1.000000
1312597.237444,-1.000000,10.000000,-3.000000,-9.000000,0.000000,-4.000000,-3.000000,-1.000000
1312597.237981,-1.000000,-3.000000,-7.000000,1.000000,6.000000,0.000000,1.000000,-2.000000
1312597.237989,1.000000,-6.000000,-1.000000,6.000000,-5.000000,-3.000000,0.000000,-2.000000
1312597.239375,4.000000,0.000000,22.000000,3.000000,-4.000000,-3.000000,2.000000,1.000000
1312597.239384,-2.000000,-7.000000,-37.000000,-6.000000,2.000000,2.000000,1.000000,-1.000000
1312597.240268,-3.000000,4.000000,-1.000000,10.000000,3.000000,3.000000,-3.000000,-3.000000
1312597.240276,0.000000,3.000000,5.000000,-8.000000,-10.000000,-2.000000,-1.000000,-1.000000
1312597.259596,1.000000,-2.000000,5.000000,-12.000000,1.000000,-3.000000,0.000000,-3.000000
1312597.259610,3.000000,3.000000,8.000000,3.000000,-2.000000,0.000000,-2.000000,-2.000000
1312597.260251,0.000000,-2.000000,-20.000000,-3.000000,-6.000000,-1.000000,-4.000000,-3.000000
1312597.260261,0.000000,-2.000000,-2.000000,-9.000000,-2.000000,-5.000000,0.000000,0.000000
1312597.274892,3.000000,-1.000000,9.000000,-5.000000,1.000000,-1.000000,-3.000000,-2.000000
1312597.274922,0.000000,3.000000,10.000000,12.000000,2.000000,2.000000,1.000000,0.000000
1312597.281230,3.000000,-1.000000,-3.000000,-11.000000,5.000000,-1.000000,-1.000000,0.000000
1312597.281259,-1.000000,0.000000,-13.000000,-1.000000,-1.000000,-2.000000,0.000000,-3.000000
1312597.296475,-3.000000,0.000000,-11.000000,11.000000,-5.000000,3.000000,2.000000,2.000000
1312597.296505,0.000000,-1.000000,-5.000000,-7.000000,0.000000,-5.000000,2.000000,1.000000
1312597.297142,2.000000,4.000000,2.000000,-30.000000,-3.000000,0.000000,1.000000,1.000000
1312597.297149,3.000000,-4.000000,-7.000000,-6.000000,-5.000000,0.000000,1.000000,-2.000000
1312597.333949,0.000000,4.000000,1.000000,11.000000,-2.000000,1.000000,2.000000,-1.000000
1312597.333959,-13.000000,-7.000000,-3.000000,-5.000000,5.000000,-1.000000,0.000000,5.000000
1312597.341675,7.000000,-1.000000,-8.000000,-3.000000,0.000000,-1.000000,2.000000,3.000000
1312597.341685,-3.000000,-1.000000,0.000000,2.000000,-5.000000,-1.000000,-3.000000,-4.000000
1312597.342491,-5.000000,-2.000000,-1.000000,-7.000000,-2.000000,0.000000,-5.000000,-3.000000
1312597.342499,-1.000000,-2.000000,4.000000,11.000000,4.000000,3.000000,3.000000,0.000000
1312597.343028,0.000000,-1.000000,-7.000000,-3.000000,-6.000000,1.000000,1.000000,-1.000000
1312597.343036,-2.000000,0.000000,-5.000000,-2.000000,-2.000000,-3.000000,-4.000000,1.000000
1312597.356582,2.000000,-3.000000,-2.000000,-4.000000,3.000000,-2.000000,0.000000,-2.000000
1312597.356598,2.000000,10.000000,4.000000,4.000000,-2.000000,-2.000000,-2.000000,0.000000
1312597.357429,-6.000000,-4.000000,-4.000000,7.000000,0.000000,0.000000,-1.000000,-4.000000
1312597.357440,2.000000,-4.000000,-1.000000,-9.000000,-2.000000,-2.000000,-1.000000,-3.000000
1312597.379355,0.000000,6.000000,-5.000000,12.000000,0.000000,-2.000000,-7.000000,-9.000000
1312597.379366,-1.000000,2.000000,-2.000000,-22.000000,-10.000000,-4.000000,0.000000,-3.000000
1312597.380201,3.000000,-2.000000,-7.000000,-7.000000,-1.000000,-3.000000,-3.000000,4.000000
1312597.380228,-4.000000,-4.000000,-1.000000,0.000000,0.000000,1.000000,1.000000,-3.000000
1312597.394079,2.000000,1.000000,1.000000,9.000000,-2.000000,0.000000,0.000000,0.000000
1312597.394089,0.000000,2.000000,-4.000000,-6.000000,-1.000000,-4.000000,-2.000000,-5.000000
1312597.401440,4.000000,-2.000000,-10.000000,-9.000000,3.000000,0.000000,0.000000,-1.000000
1312597.401456,-15.000000,-5.000000,13.000000,6.000000,0.000000,1.000000,1.000000,1.000000
1312597.416484,0.000000,8.000000,0.000000,-4.000000,-4.000000,-2.000000,0.000000,2.000000
1312597.416504,1.000000,-4.000000,7.000000,-5.000000,5.000000,-2.000000,-3.000000,-1.000000
1312597.416996,1.000000,-7.000000,-8.000000,-4.000000,-2.000000,1.000000,-1.000000,-2.000000
1312597.417005,0.000000,1.000000,11.000000,6.000000,-7.000000,1.000000,-1.000000,-3.000000
1312597.439161,-1.000000,1.000000,-12.000000,-12.000000,2.000000,3.000000,-1.000000,-4.000000
1312597.439172,3.000000,-12.000000,-11.000000,-4.000000,-2.000000,-3.000000,-3.000000,8.000000
1312597.454092,5.000000,5.000000,2.000000,16.000000,-1.000000,1.000000,7.000000,10.000000
1312597.454103,1.000000,-2.000000,-7.000000,-2.000000,3.000000,-2.000000,-1.000000,1.000000
1312597.455181,-3.000000,-7.000000,7.000000,1.000000,2.000000,-4.000000,-5.000000,-4.000000
1312597.455189,-8.000000,-8.000000,-19.000000,-3.000000,-6.000000,2.000000,-3.000000,-4.000000
1312597.461605,-3.000000,-8.000000,32.000000,11.000000,0.000000,-4.000000,-2.000000,0.000000
1312597.461615,0.000000,-3.000000,-26.000000,-20.000000,0.000000,-3.000000,-4.000000,2.000000
1312597.491740,1.000000,-4.000000,33.000000,16.000000,3.000000,-5.000000,-5.000000,-6.000000
1312597.491753,0.000000,13.000000,3.000000,2.000000,-3.000000,4.000000,0.000000,1.000000
1312597.499047,-3.000000,-7.000000,-14.000000,-7.000000,0.000000,-4.000000,-4.000000,0.000000
1312597.499060,-2.000000,-9.000000,4.000000,1.000000,2.000000,-1.000000,0.000000,0.000000
1312597.536573,-1.000000,8.000000,-14.000000,3.000000,-6.000000,-1.000000,1.000000,0.000000
1312597.536601,-2.000000,-5.000000,17.000000,2.000000,2.000000,-2.000000,0.000000,-4.000000
1312597.551656,-1.000000,-2.000000,7.000000,-3.000000,3.000000,0.000000,6.000000,2.000000
1312597.551668,-3.000000,-1.000000,-6.000000,6.000000,-5.000000,-3.000000,-6.000000,-2.000000
1312597.574156,-2.000000,-2.000000,3.000000,0.000000,-3.000000,-7.000000,2.000000,-4.000000
1312597.574168,2.000000,-2.000000,-8.000000,-10.000000,3.000000,5.000000,-1.000000,2.000000
1312597.588832,-3.000000,-1.000000,-3.000000,-2.000000,-3.000000,9.000000,3.000000,-2.000000
1312597.588861,-1.000000,1.000000,-5.000000,5.000000,-3.000000,-3.000000,0.000000,-2.000000
1312597.596849,1.000000,-4.000000,30.000000,-4.000000,0.000000,-2.000000,1.000000,0.000000
1312597.596876,3.000000,-3.000000,-24.000000,0.000000,-2.000000,-3.000000,-4.000000,-3.000000
1312597.597630,-2.000000,-6.000000,-18.000000,-10.000000,6.000000,1.000000,1.000000,-1.000000
1312597.597643,3.000000,-5.000000,41.000000,11.000000,-3.000000,3.000000,-2.000000,0.000000
1312597.599086,2.000000,3.000000,6.000000,3.000000,-3.000000,2.000000,0.000000,6.000000
1312597.599114,0.000000,3.000000,32.000000,9.000000,-5.000000,-4.000000,-3.000000,-4.000000
1312597.599722,0.000000,-7.000000,3.000000,6.000000,-11.000000,-5.000000,14.000000,-1.000000
1312597.599731,-3.000000,7.000000,1.000000,-4.000000,0.000000,12.000000,18.000000,-1.000000
1312597.611264,9.000000,9.000000,-24.000000,-14.000000,-1.000000,1.000000,7.000000,-1.000000
1312597.611293,-6.000000,-1.000000,1.000000,9.000000,-6.000000,-2.000000,-16.000000,-9.000000
1312597.612679,2.000000,9.000000,18.000000,9.000000,3.000000,-5.000000,2.000000,3.000000
1312597.612688,5.000000,10.000000,0.000000,-6.000000,4.000000,0.000000,2.000000,23.000000
1312597.619024,-8.000000,-10.000000,-6.000000,0.000000,-2.000000,0.000000,-8.000000,-13.000000
1312597.619034,-3.000000,4.000000,2.000000,7.000000,-3.000000,-4.000000,1.000000,-3.000000
1312597.634782,4.000000,-1.000000,3.000000,-10.000000,2.000000,1.000000,12.000000,-2.000000
1312597.634793,-1.000000,1.000000,-8.000000,2.000000,2.000000,0.000000,-3.000000,-4.000000
1312597.657223,-2.000000,-17.000000,-28.000000,-4.000000,-11.000000,-1.000000,-2.000000,-4.000000
1312597.657246,7.000000,12.000000,23.000000,4.000000,0.000000,-4.000000,-1.000000,1.000000
1312597.672415,0.000000,6.000000,1.000000,-8.000000,1.000000,-1.000000,-3.000000,-4.000000
1312597.672440,-5.000000,-5.000000,-11.000000,7.000000,0.000000,-1.000000,0.000000,-1.000000
1312597.679717,0.000000,12.000000,0.000000,2.000000,0.000000,3.000000,-3.000000,-4.000000
1312597.679773,-13.000000,-13.000000,9.000000,-12.000000,4.000000,-3.000000,0.000000,-3.000000
1312597.716733,0.000000,9.000000,28.000000,12.000000,0.000000,-2.000000,-1.000000,2.000000
1312597.716746,-3.000000,0.000000,-37.000000,-8.000000,-9.000000,-1.000000,-4.000000,-2.000000
1312597.731361,1.000000,-5.000000,-18.000000,-21.000000,-1.000000,-4.000000,-2.000000,-1.000000
1312597.731373,-2.000000,-3.000000,37.000000,16.000000,-1.000000,-2.000000,-1.000000,-2.000000
1312597.732493,0.000000,-4.000000,-42.000000,0.000000,-2.000000,1.000000,1.000000,1.000000
1312597.732504,-1.000000,-1.000000,40.000000,-5.000000,-2.000000,-2.000000,0.000000,1.000000
1312597.733089,1.000000,-1.000000,-4.000000,-4.000000,3.000000,0.000000,3.000000,-1.000000
1312597.733099,-3.000000,-8.000000,-11.000000,-3.000000,-7.000000,0.000000,-2.000000,-4.000000
1312597.734611,-1.000000,-1.000000,-2.000000,9.000000,-10.000000,-5.000000,-3.000000,-1.000000
1312597.734625,-2.000000,2.000000,3.000000,1.000000,-7.000000,3.000000,-2.000000,-2.000000
1312597.735624,-1.000000,0.000000,-5.000000,-10.000000,-1.000000,-2.000000,-1.000000,1.000000
1312597.735639,-1.000000,-3.000000,-9.000000,1.000000,4.000000,2.000000,-2.000000,1.000000
1312597.738868,-4.000000,3.000000,14.000000,8.000000,-6.000000,-4.000000,-1.000000,0.000000
1312597.738879,-4.000000,-2.000000,6.000000,-7.000000,-2.000000,-2.000000,0.000000,0.000000
1312597.754680,1.000000,-1.000000,0.000000,1.000000,3.000000,2.000000,3.000000,-1.000000
1312597.754695,-1.000000,2.000000,1.000000,3.000000,-7.000000,-3.000000,-2.000000,-2.000000
1312597.768868,-2.000000,0.000000,-8.000000,-1.000000,-3.000000,-3.000000,-1.000000,0.000000
1312597.768882,2.000000,1.000000,13.000000,-7.000000,-4.000000,-4.000000,0.000000,-1.000000
1312597.770172,-1.000000,-4.000000,-21.000000,-2.000000,-1.000000,-2.000000,-1.000000,0.000000
1312597.770181,-3.000000,3.000000,16.000000,11.000000,0.000000,-2.000000,-5.000000,-3.000000
1312597.784212,0.000000,-2.000000,0.000000,-8.000000,2.000000,-1.000000,1.000000,-1.000000
1312597.784225,1.000000,0.000000,-7.000000,-5.000000,-3.000000,1.000000,-2.000000,0.000000
1312597.814062,0.000000,1.000000,-2.000000,-3.000000,-4.000000,0.000000,0.000000,-2.000000
1312597.814075,-3.000000,1.000000,9.000000,-1.000000,-4.000000,-1.000000,-2.000000,0.000000
1312597.829178,-1.000000,-4.000000,-2.000000,-6.000000,2.000000,0.000000,1.000000,1.000000
1312597.829192,-3.000000,-4.000000,-6.000000,6.000000,-3.000000,0.000000,0.000000,1.000000
1312597.830089,-7.000000,-17.000000,18.000000,16.000000,6.000000,2.000000,3.000000,-1.000000
1312597.830100,3.000000,-2.000000,-1.000000,-11.000000,-3.000000,-6.000000,-3.000000,0.000000
1312597.830618,0.000000,1.000000,-9.000000,2.000000,0.000000,0.000000,-1.000000,1.000000
1312597.830628,-6.000000,1.000000,-10.000000,-8.000000,-9.000000,-1.000000,-2.000000,-1.000000
1312597.832245,0.000000,1.000000,12.000000,-4.000000,2.000000,0.000000,-1.000000,2.000000
1312597.832255,1.000000,-6.000000,1.000000,-6.000000,-4.000000,2.000000,1.000000,0.000000
1312597.851375,-4.000000,-6.000000,-6.000000,16.000000,-4.000000,-2.000000,3.000000,-3.000000
1312597.851429,6.000000,6.000000,7.000000,-8.000000,-5.000000,-4.000000,-5.000000,0.000000
1312597.852768,0.000000,-1.000000,-18.000000,-11.000000,6.000000,-1.000000,1.000000,-1.000000
1312597.852778,-2.000000,1.000000,5.000000,13.000000,-6.000000,0.000000,-2.000000,-7.000000
1312597.858861,-1.000000,-1.000000,19.000000,9.000000,2.000000,-2.000000,-1.000000,2.000000
1312597.858873,6.000000,-4.000000,-2.000000,-12.000000,1.000000,-2.000000,-1.000000,3.000000
1312597.874780,0.000000,2.000000,-9.000000,-1.000000,1.000000,2.000000,-7.000000,1.000000
1312597.874791,-2.000000,-1.000000,-4.000000,-5.000000,-5.000000,-1.000000,3.000000,-1.000000
1312597.888910,-1.000000,-2.000000,-6.000000,-4.000000,0.000000,-1.000000,-4.000000,0.000000
1312597.888923,-1.000000,0.000000,13.000000,6.000000,-3.000000,0.000000,6.000000,1.000000
1312597.890250,-3.000000,-2.000000,9.000000,6.000000,-5.000000,1.000000,-4.000000,-1.000000
1312597.890260,0.000000,3.000000,10.000000,-1.000000,3.000000,-4.000000,-6.000000,0.000000
1312597.911495,5.000000,-1.000000,11.000000,7.000000,-3.000000,-8.000000,-3.000000,-1.000000
1312597.911507,0.000000,1.000000,-2.000000,-1.000000,-5.000000,-3.000000,-19.000000,-4.000000
1312597.948982,1.000000,-2.000000,-14.000000,-9.000000,-5.000000,-8.000000,9.000000,1.000000
1312597.949009,4.000000,1.000000,-22.000000,-19.000000,5.000000,-4.000000,-3.000000,-1.000000
1312597.956482,-8.000000,-17.000000,21.000000,2.000000,0.000000,1.000000,0.000000,0.000000
1312597.956494,-1.000000,2.000000,-10.000000,5.000000,-3.000000,-1.000000,-2.000000,0.000000
1312597.994399,2.000000,1.000000,1.000000,-3.000000,3.000000,-1.000000,-1.000000,0.000000
1312597.994415,1.000000,0.000000,-6.000000,-7.000000,-1.000000,2.000000,-1.000000,-3.000000
1312597.994926,-4.000000,-1.000000,0.000000,8.000000,-7.000000,0.000000,-1.000000,0.000000
1312597.994936,-1.000000,-1.000000,-1.000000,-8.000000,2.000000,-3.000000,-3.000000,-1.000000
1312597.996360,-1.000000,-3.000000,-3.000000,-1.000000,1.000000,0.000000,-2.000000,-2.000000
1312597.996371,-3.000000,1.000000,-1.000000,6.000000,-7.000000,-1.000000,-1.000000,0.000000
1312597.996857,-4.000000,-2.000000,7.000000,6.000000,2.000000,-3.000000,2.000000,-1.000000
1312597.996867,1.000000,1.000000,-4.000000,-10.000000,2.000000,1.000000,1.000000,0.000000
1312597.997792,-2.000000,-2.000000,-2.000000,1.000000,-4.000000,-3.000000,1.000000,-2.000000
1312597.997805,0.000000,2.000000,-1.000000,0.000000,-1.000000,-1.000000,0.000000,0.000000
1312598.009295,-1.000000,-7.000000,-9.000000,-6.000000,7.000000,4.000000,1.000000,1.000000
1312598.009308,2.000000,3.000000,3.000000,10.000000,-3.000000,1.000000,-1.000000,1.000000
1312598.031561,-4.000000,1.000000,7.000000,-5.000000,-8.000000,-3.000000,-6.000000,-3.000000
1312598.031574,5.000000,-3.000000,-16.000000,-10.000000,1.000000,-1.000000,-2.000000,4.000000
1312598.046481,-2.000000,1.000000,-5.000000,-6.000000,-13.000000,-3.000000,-2.000000,-3.000000
1312598.046493,-2.000000,-1.000000,1.000000,-2.000000,-8.000000,-4.000000,-4.000000,-1.000000
1312598.068946,0.000000,0.000000,-2.000000,-12.000000,2.000000,-3.000000,2.000000,0.000000
1312598.068958,-4.000000,-2.000000,1.000000,1.000000,0.000000,1.000000,-1.000000,0.000000
1312598.069388,-3.000000,-3.000000,0.000000,6.000000,-5.000000,0.000000,-3.000000,0.000000
1312598.069402,2.000000,0.000000,-1.000000,-8.000000,1.000000,-2.000000,-3.000000,1.000000
1312598.070593,-2.000000,-4.000000,-3.000000,-3.000000,-3.000000,-1.000000,-4.000000,0.000000
1312598.070603,-4.000000,0.000000,-1.000000,9.000000,-4.000000,2.000000,2.000000,-1.000000
1312598.071266,-1.000000,-2.000000,0.000000,-1.000000,0.000000,-2.000000,-2.000000,-4.000000
1312598.071276,-3.000000,1.000000,-2.000000,-9.000000,-6.000000,-4.000000,2.000000,-3.000000
1312598.072836,-4.000000,-3.000000,5.000000,8.000000,2.000000,3.000000,3.000000,-2.000000
1312598.072847,-3.000000,1.000000,-2.000000,-2.000000,-2.000000,-3.000000,1.000000,-2.000000
1312598.091336,6.000000,-1.000000,-3.000000,-17.000000,-4.000000,-3.000000,0.000000,0.000000
1312598.091349,-3.000000,-2.000000,0.000000,13.000000,10.000000,5.000000,3.000000,0.000000
1312598.092643,-4.000000,-3.000000,-3.000000,-1.000000,-7.000000,0.000000,-1.000000,-3.000000
1312598.092654,6.000000,1.000000,-2.000000,-6.000000,4.000000,2.000000,-2.000000,0.000000
1312598.106760,6.000000,1.000000,0.000000,-6.000000,-1.000000,-1.000000,2.000000,3.000000
1312598.106773,-2.000000,-5.000000,-5.000000,8.000000,-9.000000,-3.000000,-2.000000,-2.000000
1312598.129146,-5.000000,-3.000000,-1.000000,-28.000000,-18.000000,-5.000000,-2.000000,-2.000000
1312598.129168,0.000000,3.000000,5.000000,0.000000,3.000000,-2.000000,-3.000000,-2.000000
1312598.136595,-3.000000,-10.000000,-2.000000,-4.000000,-8.000000,-3.000000,-1.000000,1.000000
1312598.136607,-3.000000,0.000000,5.000000,19.000000,7.000000,3.000000,-1.000000,0.000000
1312598.167030,-1.000000,-2.000000,-3.000000,-10.000000,4.000000,-3.000000,-3.000000,-3.000000
1312598.167044,0.000000,-6.000000,-2.000000,-5.000000,-5.000000,0.000000,-3.000000,-3.000000
1312598.174177,-2.000000,1.000000,-2.000000,4.000000,-8.000000,0.000000,0.000000,-4.000000
1312598.174202,1.000000,-2.000000,2.000000,-3.000000,3.000000,-1.000000,0.000000,0.000000
1312598.189320,-1.000000,-2.000000,-1.000000,-1.000000,0.000000,2.000000,-5.000000,0.000000
1312598.189331,-3.000000,0.000000,-3.000000,6.000000,-7.000000,-3.000000,-2.000000,-1.000000
1312598.189893,0.000000,-2.000000,1.000000,7.000000,8.000000,0.000000,-1.000000,1.000000
1312598.189903,-2.000000,-2.000000,-2.000000,-8.000000,0.000000,3.000000,-1.000000,0.000000
1312598.191204,-7.000000,1.000000,-3.000000,5.000000,-5.000000,-2.000000,-5.000000,-1.000000
1312598.191214,0.000000,3.000000,-2.000000,2.000000,-3.000000,-1.000000,-1.000000,0.000000
1312598.191846,6.000000,-1.000000,1.000000,-8.000000,0.000000,-1.000000,-1.000000,1.000000
1312598.191855,-2.000000,-2.000000,-5.000000,-5.000000,-6.000000,-3.000000,0.000000,-3.000000
1312598.192688,-4.000000,2.000000,4.000000,26.000000,23.000000,2.000000,2.000000,-2.000000
1312598.192698,-6.000000,-5.000000,-2.000000,-14.000000,-2.000000,-3.000000,-1.000000,-2.000000
1312598.211467,-2.000000,-3.000000,-4.000000,-13.000000,-13.000000,-4.000000,0.000000,-2.000000
1312598.211485,-3.000000,-3.000000,0.000000,7.000000,-7.000000,0.000000,0.000000,-3.000000
1312598.212776,-1.000000,-1.000000,-3.000000,-22.000000,-23.000000,-6.000000,-5.000000,-2.000000
1312598.212786,9.000000,3.000000,3.000000,-10.000000,7.000000,1.000000,-2.000000,2.000000
1312598.226435,-8.000000,3.000000,0.000000,5.000000,-4.000000,1.000000,0.000000,0.000000
1312598.226460,-3.000000,0.000000,0.000000,-3.000000,0.000000,-3.000000,-1.000000,1.000000
1312598.233948,1.000000,-4.000000,-2.000000,-10.000000,2.000000,0.000000,0.000000,-2.000000
1312598.233961,-1.000000,1.000000,-1.000000,5.000000,-3.000000,-2.000000,-1.000000,0.000000
1312598.249261,4.000000,0.000000,-1.000000,5.000000,-5.000000,-4.000000,-1.000000,-2.000000
1312598.249274,2.000000,2.000000,4.000000,5.000000,26.000000,5.000000,0.000000,0.000000
1312598.264086,-3.000000,0.000000,-1.000000,-13.000000,-5.000000,4.000000,1.000000,-1.000000
1312598.264100,-4.000000,-2.000000,-2.000000,3.000000,-13.000000,-3.000000,1.000000,-1.000000
1312598.271629,-2.000000,1.000000,2.000000,11.000000,15.000000,0.000000,-4.000000,0.000000
1312598.271642,2.000000,-3.000000,-5.000000,-11.000000,-7.000000,1.000000,-2.000000,-2.000000
1312598.294267,0.000000,2.000000,-2.000000,1.000000,1.000000,0.000000,0.000000,-1.000000
1312598.294279,5.000000,5.000000,8.000000,30.000000,25.000000,4.000000,0.000000,1.000000
1312598.301526,-1.000000,-4.000000,-5.000000,-15.000000,-2.000000,-3.000000,-2.000000,3.000000
1312598.301539,-4.000000,-4.000000,-5.000000,-7.000000,-11.000000,-3.000000,-3.000000,0.000000
1312598.309581,-3.000000,0.000000,7.000000,18.000000,4.000000,5.000000,0.000000,-2.000000
1312598.309593,1.000000,3.000000,-2.000000,-7.000000,2.000000,-6.000000,-2.000000,-3.000000
1312598.310210,0.000000,-3.000000,-1.000000,-9.000000,-10.000000,-3.000000,0.000000,1.000000
1312598.310222,-3.000000,3.000000,0.000000,1.000000,-8.000000,3.000000,-2.000000,0.000000
1312598.311665,-3.000000,1.000000,1.000000,-5.000000,-4.000000,-3.000000,-3.000000,-1.000000
1312598.311694,4.000000,-1.000000,-3.000000,-9.000000,-5.000000,1.000000,-2.000000,-3.000000
1312598.323977,-1.000000,-3.000000,-8.000000,-5.000000,-10.000000,-3.000000,1.000000,-2.000000
1312598.323989,-2.000000,-3.000000,5.000000,-6.000000,-3.000000,0.000000,0.000000,0.000000
1312598.332048,2.000000,-3.000000,-9.000000,-16.000000,-1.000000,-2.000000,-1.000000,-1.000000
1312598.332060,-1.000000,-2.000000,-1.000000,5.000000,-5.000000,0.000000,0.000000,-4.000000
1312598.339256,-3.000000,0.000000,6.000000,5.000000,5.000000,1.000000,-3.000000,-1.000000
1312598.339269,2.000000,-1.000000,-12.000000,-8.000000,5.000000,-1.000000,0.000000,0.000000
1312598.368999,-3.000000,-3.000000,-1.000000,-2.000000,-1.000000,2.000000,0.000000,-3.000000
1312598.369011,-8.000000,-7.000000,0.000000,12.000000,1.000000,5.000000,0.000000,-2.000000
1312598.384064,1.000000,4.000000,-3.000000,-6.000000,-1.000000,-3.000000,-2.000000,1.000000
1312598.384076,3.000000,1.000000,-2.000000,-4.000000,-3.000000,-3.000000,-4.000000,0.000000
1312598.406787,-3.000000,2.000000,-6.000000,3.000000,-11.000000,-3.000000,-3.000000,-3.000000
1312598.406800,1.000000,-1.000000,3.000000,-4.000000,4.000000,-5.000000,0.000000,0.000000
1312598.413959,2.000000,-1.000000,2.000000,-16.000000,-8.000000,-5.000000,1.000000,1.000000
1312598.413969,1.000000,1.000000,-3.000000,-1.000000,0.000000,2.000000,2.000000,3.000000
1312598.429179,-2.000000,1.000000,-8.000000,5.000000,-6.000000,-3.000000,-2.000000,-3.000000
1312598.429193,0.000000,-2.000000,7.000000,-5.000000,-10.000000,-3.000000,-2.000000,-2.000000
1312598.429724,3.000000,-1.000000,2.000000,4.000000,16.000000,4.000000,1.000000,1.000000
1312598.429734,-3.000000,-1.000000,-1.000000,7.000000,-7.000000,-2.000000,0.000000,-2.000000
1312598.430914,-2.000000,-3.000000,-4.000000,-7.000000,-1.000000,-2.000000,2.000000,3.000000
1312598.430924,1.000000,-2.000000,0.000000,-3.000000,0.000000,-2.000000,0.000000,0.000000
1312598.444079,2.000000,2.000000,-5.000000,3.000000,-6.000000,-1.000000,-4.000000,-1.000000
1312598.444090,-2.000000,1.000000,-1.000000,4.000000,4.000000,-3.000000,-1.000000,0.000000
1312598.444762,2.000000,0.000000,2.000000,-15.000000,-2.000000,0.000000,0.000000,0.000000
1312598.444790,-4.000000,-2.000000,-4.000000,3.000000,-1.000000,2.000000,-4.000000,-3.000000
1312598.445229,-2.000000,-1.000000,-2.000000,2.000000,-6.000000,-4.000000,-1.000000,-3.000000
1312598.445243,-4.000000,-9.000000,2.000000,-8.000000,2.000000,1.000000,0.000000,-2.000000
1312598.451840,-1.000000,1.000000,-2.000000,-3.000000,-4.000000,-1.000000,2.000000,1.000000
1312598.451883,-3.000000,2.000000,0.000000,4.000000,-1.000000,2.000000,-1.000000,0.000000
1312598.466326,1.000000,0.000000,1.000000,-5.000000,-2.000000,-3.000000,-1.000000,-3.000000
1312598.466336,1.000000,-3.000000,-1.000000,0.000000,-3.000000,0.000000,0.000000,-2.000000
1312598.489152,-1.000000,3.000000,-3.000000,6.000000,-6.000000,1.000000,0.000000,1.000000
1312598.489162,-1.000000,-3.000000,0.000000,-3.000000,-2.000000,-1.000000,-1.000000,0.000000
1312598.496635,2.000000,-3.000000,-1.000000,-2.000000,5.000000,-1.000000,-3.000000,3.000000
1312598.496645,0.000000,2.000000,2.000000,3.000000,0.000000,0.000000,2.000000,1.000000
1312598.511347,-4.000000,-1.000000,0.000000,2.000000,-1.000000,0.000000,0.000000,-1.000000
1312598.511376,1.000000,-3.000000,0.000000,-8.000000,4.000000,-1.000000,-1.000000,1.000000
1312598.526691,-1.000000,-1.000000,-1.000000,-2.000000,2.000000,1.000000,-5.000000,-1.000000
1312598.526704,-2.000000,-3.000000,-2.000000,6.000000,-4.000000,-2.000000,-2.000000,-1.000000
1312598.541404,0.000000,2.000000,0.000000,-10.000000,-6.000000,-6.000000,-1.000000,-1.000000
1312598.541416,0.000000,-4.000000,-1.000000,2.000000,2.000000,-1.000000,0.000000,-4.000000
1312598.548821,-3.000000,5.000000,-4.000000,2.000000,-7.000000,0.000000,-1.000000,-1.000000
1312598.548835,-3.000000,-4.000000,-1.000000,-6.000000,-4.000000,-4.000000,-2.000000,-4.000000
1312598.549915,6.000000,-1.000000,0.000000,-8.000000,1.000000,-3.000000,-2.000000,2.000000
1312598.549925,-2.000000,-1.000000,1.000000,3.000000,2.000000,1.000000,-1.000000,2.000000
1312598.550574,0.000000,-1.000000,-1.000000,-3.000000,-8.000000,-3.000000,-2.000000,-3.000000
1312598.550613,3.000000,-3.000000,0.000000,-9.000000,-1.000000,-2.000000,0.000000,0.000000
1312598.564236,0.000000,-1.000000,2.000000,11.000000,4.000000,-1.000000,0.000000,2.000000
1312598.564284,-5.000000,-2.000000,1.000000,9.000000,-10.000000,0.000000,-6.000000,-1.000000
1312598.565170,-4.000000,-5.000000,-2.000000,-7.000000,-1.000000,-6.000000,-1.000000,-1.000000
1312598.565178,1.000000,1.000000,-4.000000,-4.000000,-2.000000,1.000000,-2.000000,1.000000
1312598.572121,-4.000000,-4.000000,-1.000000,6.000000,-7.000000,-1.000000,-1.000000,-3.000000
1312598.572151,0.000000,2.000000,-4.000000,-12.000000,-9.000000,-4.000000,-4.000000,-1.000000
1312598.587098,-3.000000,-8.000000,3.000000,5.000000,11.000000,1.000000,1.000000,2.000000
1312598.587108,0.000000,-5.000000,-2.000000,6.000000,-3.000000,1.000000,-1.000000,-3.000000
1312598.601553,-2.000000,-5.000000,1.000000,-6.000000,-3.000000,-2.000000,0.000000,0.000000
1312598.601564,4.000000,-5.000000,2.000000,-10.000000,0.000000,-2.000000,-2.000000,-2.000000
1312598.624155,0.000000,0.000000,-2.000000,-3.000000,-5.000000,-1.000000,-3.000000,-1.000000
1312598.624166,-3.000000,1.000000,-1.000000,2.000000,-6.000000,-2.000000,-2.000000,-3.000000
1312598.646454,0.000000,1.000000,-2.000000,-1.000000,5.000000,-5.000000,-2.000000,-1.000000
1312598.646477,0.000000,-1.000000,-3.000000,-1.000000,0.000000,0.000000,3.000000,0.000000
1312598.661895,-2.000000,1.000000,1.000000,3.000000,-6.000000,-1.000000,1.000000,-1.000000
1312598.661904,0.000000,-1.000000,-1.000000,3.000000,-2.000000,-6.000000,2.000000,-4.000000
1312598.662666,0.000000,-2.000000,2.000000,-6.000000,-1.000000,2.000000,-2.000000,3.000000
1312598.662688,-1.000000,2.000000,0.000000,9.000000,11.000000,2.000000,0.000000,-4.000000
1312598.663796,-3.000000,-1.000000,-2.000000,2.000000,-1.000000,-1.000000,-2.000000,0.000000
1312598.663804,-1.000000,-8.000000,0.000000,-8.000000,2.000000,-1.000000,-1.000000,1.000000
1312598.664592,-1.000000,-4.000000,-5.000000,1.000000,0.000000,1.000000,1.000000,-3.000000
1312598.664619,6.000000,2.000000,-7.000000,-5.000000,-14.000000,-3.000000,0.000000,2.000000
1312598.684319,-3.000000,0.000000,-2.000000,4.000000,-8.000000,0.000000,-1.000000,1.000000
1312598.684362,0.000000,1.000000,0.000000,-5.000000,0.000000,-3.000000,-3.000000,1.000000
1312598.685466,-1.000000,-6.000000,-7.000000,-7.000000,2.000000,-4.000000,1.000000,0.000000
1312598.685521,-2.000000,2.000000,-1.000000,5.000000,-4.000000,0.000000,-1.000000,-1.000000
1312598.691644,-2.000000,-1.000000,-1.000000,0.000000,-4.000000,-4.000000,-5.000000,-1.000000
1312598.691668,-1.000000,0.000000,-3.000000,-9.000000,2.000000,-2.000000,0.000000,3.000000
1312598.707014,1.000000,-5.000000,2.000000,3.000000,9.000000,4.000000,2.000000,0.000000
1312598.707024,-4.000000,19.000000,4.000000,5.000000,-2.000000,-2.000000,-1.000000,2.000000
1312598.721595,-1.000000,-8.000000,-5.000000,-7.000000,3.000000,-2.000000,-3.000000,0.000000
1312598.721624,3.000000,9.000000,-6.000000,-8.000000,-8.000000,-5.000000,-5.000000,0.000000
1312598.729649,-4.000000,-14.000000,0.000000,9.000000,-3.000000,1.000000,1.000000,-2.000000
1312598.729677,-1.000000,15.000000,3.000000,-3.000000,-2.000000,-2.000000,-2.000000,-4.000000
1312598.736715,1.000000,-4.000000,-1.000000,-6.000000,6.000000,-3.000000,2.000000,1.000000
1312598.736747,-8.000000,-5.000000,-4.000000,-3.000000,-16.000000,2.000000,-1.000000,-2.000000
1312598.766867,2.000000,15.000000,-1.000000,3.000000,-3.000000,-2.000000,-2.000000,0.000000
1312598.766879,5.000000,-13.000000,3.000000,-11.000000,-9.000000,-3.000000,-1.000000,-2.000000
1312598.781453,-1.000000,-1.000000,3.000000,-1.000000,2.000000,2.000000,0.000000,-3.000000
1312598.781477,-2.000000,0.000000,-2.000000,10.000000,0.000000,0.000000,-1.000000,-2.000000
1312598.804140,0.000000,3.000000,6.000000,-22.000000,-11.000000,-2.000000,-2.000000,-1.000000
1312598.804154,3.000000,-1.000000,-15.000000,-1.000000,-3.000000,-4.000000,0.000000,2.000000
1312598.804562,-4.000000,-4.000000,6.000000,11.000000,-5.000000,0.000000,-1.000000,-2.000000
1312598.804572,-3.000000,0.000000,2.000000,-2.000000,-3.000000,-3.000000,-1.000000,1.000000
1312598.805589,-1.000000,2.000000,-5.000000,-12.000000,-1.000000,-2.000000,-2.000000,-1.000000
1312598.805599,-5.000000,-4.000000,2.000000,24.000000,10.000000,1.000000,0.000000,-1.000000
1312598.806296,0.000000,17.000000,-1.000000,-8.000000,-12.000000,-2.000000,0.000000,0.000000
1312598.806306,-1.000000,-7.000000,1.000000,-12.000000,3.000000,-1.000000,-3.000000,-2.000000
1312598.807862,-2.000000,-6.000000,-6.000000,1.000000,-5.000000,1.000000,-1.000000,-1.000000
1312598.807872,-3.000000,5.000000,-7.000000,-8.000000,-14.000000,-4.000000,-2.000000,-6.000000
1312598.819183,-2.000000,-1.000000,0.000000,-8.000000,-1.000000,0.000000,0.000000,-1.000000
1312598.819196,4.000000,-1.000000,-4.000000,-1.000000,-3.000000,0.000000,-3.000000,1.000000
1312598.827149,0.000000,-1.000000,2.000000,-10.000000,-7.000000,0.000000,0.000000,1.000000
1312598.827160,-2.000000,-3.000000,-1.000000,-6.000000,-1.000000,-2.000000,0.000000,-1.000000
1312598.841433,0.000000,0.000000,0.000000,-3.000000,1.000000,-4.000000,-1.000000,-2.000000
1312598.841463,-1.000000,-1.000000,-1.000000,5.000000,-5.000000,0.000000,-1.000000,-1.000000
1312598.864222,-3.000000,-3.000000,-4.000000,3.000000,1.000000,1.000000,3.000000,-1.000000
1312598.864233,3.000000,-5.000000,4.000000,-5.000000,2.000000,-4.000000,0.000000,-1.000000
1312598.878843,0.000000,-1.000000,-7.000000,-2.000000,1.000000,0.000000,0.000000,-1.000000
1312598.878853,-1.000000,-1.000000,-2.000000,3.000000,3.000000,-2.000000,0.000000,1.000000
1312598.901613,-2.000000,-1.000000,1.000000,-11.000000,0.000000,-4.000000,-3.000000,0.000000
1312598.901644,-4.000000,-9.000000,-3.000000,9.000000,2.000000,1.000000,-2.000000,1.000000
1312598.902112,1.000000,3.000000,-1.000000,1.000000,-19.000000,-1.000000,-5.000000,-6.000000
1312598.902134,-2.000000,-3.000000,0.000000,-6.000000,0.000000,-5.000000,-3.000000,-1.000000
1312598.903215,2.000000,-4.000000,-1.000000,-7.000000,-3.000000,-5.000000,1.000000,1.000000
1312598.903246,-6.000000,0.000000,-7.000000,4.000000,-6.000000,-1.000000,-2.000000,-3.000000
1312598.903817,-3.000000,0.000000,0.000000,-3.000000,-6.000000,-2.000000,1.000000,-1.000000
1312598.903825,0.000000,-2.000000,-1.000000,-9.000000,2.000000,-2.000000,0.000000,-2.000000
1312598.905305,2.000000,1.000000,-1.000000,-2.000000,-5.000000,1.000000,-2.000000,-3.000000
1312598.905313,-3.000000,0.000000,3.000000,5.000000,-2.000000,1.000000,-3.000000,-4.000000
1312598.923908,1.000000,-2.000000,0.000000,-6.000000,3.000000,-7.000000,-2.000000,-3.000000
1312598.923930,-1.000000,1.000000,0.000000,1.000000,6.000000,6.000000,1.000000,-2.000000
1312598.925057,-5.000000,-1.000000,-3.000000,5.000000,-2.000000,-1.000000,-4.000000,-3.000000
1312598.925079,-1.000000,-3.000000,-1.000000,-12.000000,-3.000000,-4.000000,1.000000,-3.000000
1312598.939150,-3.000000,-3.000000,0.000000,-4.000000,0.000000,0.000000,-2.000000,-3.000000
1312598.939160,-6.000000,-1.000000,-1.000000,12.000000,-1.000000,2.000000,1.000000,1.000000
1312598.947153,2.000000,-2.000000,4.000000,3.000000,-1.000000,0.000000,-4.000000,-4.000000
1312598.947162,2.000000,-1.000000,-3.000000,-7.000000,2.000000,2.000000,0.000000,-1.000000
1312598.961578,-1.000000,0.000000,-4.000000,-4.000000,-10.000000,-4.000000,0.000000,-2.000000
1312598.961588,-2.000000,1.000000,1.000000,2.000000,-1.000000,-1.000000,2.000000,-2.000000
1312598.999134,-1.000000,-5.000000,1.000000,-10.000000,0.000000,-5.000000,0.000000,-1.000000
1312598.999146,-2.000000,5.000000,-1.000000,0.000000,-3.000000,-1.000000,-3.000000,2.000000
1312598.999611,1.000000,7.000000,2.000000,6.000000,-3.000000,-2.000000,0.000000,-3.000000
1312598.999620,-2.000000,-4.000000,-5.000000,-2.000000,1.000000,-2.000000,-3.000000,0.000000
1312599.000729,-5.000000,-15.000000,4.000000,-1.000000,2.000000,2.000000,1.000000,2.000000
1312599.000738,-3.000000,3.000000,2.000000,6.000000,-6.000000,-1.000000,1.000000,-4.000000
1312599.001453,-4.000000,-8.000000,3.000000,4.000000,2.000000,1.000000,1.000000,1.000000
1312599.001461,3.000000,0.000000,0.000000,-7.000000,2.000000,-4.000000,-3.000000,0.000000
1312599.007285,-1.000000,0.000000,-1.000000,1.000000,-3.000000,3.000000,0.000000,1.000000
1312599.007296,-5.000000,-2.000000,3.000000,3.000000,-2.000000,-2.000000,1.000000,-1.000000
1312599.014163,0.000000,-3.000000,-2.000000,-5.000000,1.000000,-2.000000,0.000000,0.000000
1312599.014187,0.000000,-4.000000,-2.000000,-19.000000,-12.000000,-2.000000,0.000000,-2.000000
1312599.021979,-2.000000,-2.000000,-1.000000,12.000000,7.000000,1.000000,0.000000,-2.000000
1312599.021990,-1.000000,-2.000000,0.000000,-9.000000,-2.000000,-4.000000,-4.000000,-3.000000
1312599.044209,0.000000,-1.000000,-1.000000,-6.000000,-5.000000,-2.000000,-3.000000,-3.000000
1312599.044239,-1.000000,-2.000000,-2.000000,6.000000,-5.000000,0.000000,2.000000,-3.000000
1312599.045245,-4.000000,-1.000000,3.000000,0.000000,1.000000,-1.000000,2.000000,-1.000000
1312599.045253,-2.000000,-6.000000,3.000000,-7.000000,5.000000,1.000000,-1.000000,-2.000000
1312599.059299,-1.000000,-2.000000,-1.000000,2.000000,1.000000,2.000000,-1.000000,-1.000000
1312599.059328,-3.000000,-4.000000,-1.000000,9.000000,-2.000000,-4.000000,-2.000000,0.000000
1312599.067251,-1.000000,4.000000,6.000000,-10.000000,3.000000,-1.000000,0.000000,0.000000
1312599.067284,0.000000,-1.000000,-4.000000,-4.000000,-7.000000,-4.000000,-2.000000,-3.000000
1312599.081599,2.000000,2.000000,3.000000,27.000000,18.000000,5.000000,1.000000,0.000000
1312599.081610,-5.000000,-8.000000,-1.000000,-5.000000,1.000000,-1.000000,0.000000,-1.000000
1312599.096665,1.000000,-3.000000,-2.000000,-3.000000,-2.000000,0.000000,-3.000000,1.000000
1312599.096676,-3.000000,-1.000000,-5.000000,4.000000,-3.000000,-2.000000,-1.000000,2.000000
1312599.103952,-2.000000,-1.000000,0.000000,-1.000000,-1.000000,0.000000,-2.000000,-2.000000
1312599.103962,2.000000,1.000000,-1.000000,-12.000000,-2.000000,-1.000000,-1.000000,1.000000
1312599.126762,-5.000000,-8.000000,-3.000000,3.000000,-1.000000,7.000000,1.000000,-3.000000
1312599.126775,-3.000000,-6.000000,2.000000,-1.000000,-1.000000,-2.000000,-1.000000,-5.000000
1312599.141671,2.000000,2.000000,0.000000,-8.000000,0.000000,0.000000,-1.000000,1.000000
1312599.141684,-3.000000,-3.000000,-3.000000,3.000000,-2.000000,3.000000,-4.000000,1.000000
1312599.142634,-1.000000,1.000000,1.000000,3.000000,-4.000000,-2.000000,1.000000,-1.000000
1312599.142644,0.000000,-3.000000,-3.000000,-4.000000,3.000000,-2.000000,-3.000000,0.000000
1312599.143102,1.000000,3.000000,-1.000000,-4.000000,-1.000000,-1.000000,-2.000000,-2.000000
1312599.143111,-1.000000,2.000000,-1.000000,7.000000,-1.000000,0.000000,-2.000000,0.000000
1312599.145107,-2.000000,0.000000,1.000000,3.000000,0.000000,2.000000,-2.000000,-1.000000
1312599.145120,5.000000,-3.000000,-1.000000,-8.000000,9.000000,3.000000,2.000000,2.000000
1312599.157016,1.000000,4.000000,-1.000000,8.000000,7.000000,2.000000,1.000000,0.000000
1312599.157051,-4.000000,-4.000000,0.000000,-3.000000,-10.000000,-3.000000,-1.000000,-1.000000
1312599.164822,1.000000,1.000000,-2.000000,4.000000,13.000000,0.000000,0.000000,-3.000000
1312599.164839,-1.000000,1.000000,-5.000000,-2.000000,-6.000000,-4.000000,-4.000000,0.000000
1312599.179322,1.000000,-17.000000,2.000000,0.000000,-10.000000,-5.000000,-1.000000,-2.000000
1312599.179364,2.000000,19.000000,5.000000,-8.000000,-6.000000,-4.000000,1.000000,0.000000
1312599.216478,1.000000,0.000000,-5.000000,2.000000,3.000000,-1.000000,-1.000000,1.000000
1312599.216491,-3.000000,-6.000000,-5.000000,-4.000000,-12.000000,1.000000,0.000000,0.000000
1312599.224258,0.000000,-5.000000,-4.000000,-2.000000,-1.000000,-1.000000,-5.000000,-1.000000
1312599.224271,1.000000,-1.000000,0.000000,-4.000000,4.000000,-3.000000,-3.000000,2.000000
1312599.261451,-1.000000,-1.000000,0.000000,5.000000,-4.000000,0.000000,-3.000000,-3.000000
1312599.261464,-2.000000,2.000000,-1.000000,-1.000000,-2.000000,-5.000000,-1.000000,0.000000
1312599.276699,1.000000,0.000000,0.000000,-8.000000,2.000000,-1.000000,0.000000,-1.000000
1312599.276712,-4.000000,-5.000000,-3.000000,0.000000,2.000000,0.000000,-1.000000,-2.000000
1312599.284427,-4.000000,-2.000000,0.000000,-4.000000,-10.000000,1.000000,0.000000,-2.000000
1312599.284443,-2.000000,0.000000,4.000000,7.000000,16.000000,0.000000,-1.000000,1.000000
1312599.285008,0.000000,-1.000000,-3.000000,-12.000000,-16.000000,0.000000,-1.000000,-2.000000
1312599.285018,-2.000000,-1.000000,-1.000000,7.000000,-3.000000,1.000000,0.000000,0.000000
1312599.286345,0.000000,8.000000,-2.000000,6.000000,-2.000000,0.000000,-1.000000,-2.000000
1312599.286358,-5.000000,-7.000000,5.000000,7.000000,4.000000,2.000000,0.000000,2.000000
1312599.287266,-1.000000,1.000000,8.000000,4.000000,-3.000000,-3.000000,2.000000,1.000000
1312599.287278,2.000000,0.000000,-1.000000,-7.000000,0.000000,-1.000000,-4.000000,-1.000000
1312599.299017,0.000000,0.000000,-3.000000,-5.000000,0.000000,-1.000000,-1.000000,-3.000000
1312599.299029,1.000000,-5.000000,-3.000000,-14.000000,-1.000000,-1.000000,-3.000000,-1.000000
1312599.336544,-2.000000,1.000000,1.000000,19.000000,1.000000,0.000000,-3.000000,-1.000000
1312599.336556,-1.000000,-4.000000,-3.000000,-1.000000,-2.000000,1.000000,0.000000,2.000000
1312599.343994,-2.000000,-3.000000,0.000000,-11.000000,-1.000000,-4.000000,-1.000000,-1.000000
1312599.344017,1.000000,-1.000000,0.000000,-6.000000,-8.000000,-2.000000,-1.000000,0.000000
1312599.359378,-1.000000,-2.000000,-3.000000,-3.000000,-6.000000,-1.000000,2.000000,-4.000000
1312599.359394,-1.000000,-3.000000,3.000000,-13.000000,0.000000,-2.000000,-4.000000,-3.000000
1312599.359926,-1.000000,0.000000,2.000000,4.000000,10.000000,1.000000,-1.000000,1.000000
1312599.359935,0.000000,3.000000,-5.000000,2.000000,-7.000000,-1.000000,-3.000000,-5.000000
1312599.361289,-1.000000,2.000000,1.000000,-9.000000,-5.000000,-4.000000,-2.000000,-4.000000
1312599.361300,3.000000,-2.000000,-1.000000,-4.000000,13.000000,2.000000,4.000000,-1.000000
1312599.362150,-1.000000,-3.000000,-5.000000,6.000000,-4.000000,0.000000,-2.000000,0.000000
1312599.362160,-2.000000,-1.000000,-1.000000,-5.000000,-3.000000,-4.000000,2.000000,0.000000
1312599.396554,1.000000,0.000000,-4.000000,-11.000000,-3.000000,-5.000000,2.000000,1.000000
1312599.396567,-2.000000,-3.000000,4.000000,5.000000,1.000000,1.000000,1.000000,-1.000000
1312599.403923,-1.000000,1.000000,-1.000000,-1.000000,-8.000000,-3.000000,-5.000000,-1.000000
1312599.403935,-5.000000,-6.000000,2.000000,-7.000000,3.000000,-2.000000,2.000000,1.000000
1312599.419613,-1.000000,-5.000000,-7.000000,-8.000000,-10.000000,-2.000000,-5.000000,-2.000000
1312599.419624,-4.000000,4.000000,2.000000,40.000000,28.000000,6.000000,0.000000,-3.000000
1312599.420144,-3.000000,-1.000000,-1.000000,-10.000000,-5.000000,-4.000000,1.000000,0.000000
1312599.420155,-1.000000,-3.000000,-2.000000,-9.000000,-5.000000,-2.000000,-1.000000,0.000000
1312599.421278,-4.000000,2.000000,-2.000000,1.000000,-17.000000,0.000000,-2.000000,-3.000000
1312599.421288,-4.000000,-2.000000,-1.000000,1.000000,7.000000,-1.000000,0.000000,0.000000
1312599.422119,1.000000,2.000000,2.000000,-12.000000,0.000000,-1.000000,-4.000000,0.000000
1312599.422129,-3.000000,-4.000000,-4.000000,0.000000,-1.000000,-5.000000,-3.000000,-4.000000
1312599.441586,-1.000000,8.000000,2.000000,9.000000,1.000000,1.000000,-3.000000,-1.000000
1312599.441598,2.000000,-4.000000,0.000000,-7.000000,0.000000,-2.000000,1.000000,0.000000
1312599.448936,0.000000,-6.000000,-7.000000,-3.000000,-4.000000,-3.000000,0.000000,-1.000000
1312599.448948,-2.000000,3.000000,-1.000000,-2.000000,-8.000000,-4.000000,1.000000,-1.000000
1312599.479045,2.000000,2.000000,0.000000,-2.000000,1.000000,1.000000,-1.000000,-2.000000
1312599.479077,2.000000,-5.000000,-3.000000,-3.000000,1.000000,-2.000000,-1.000000,-1.000000
1312599.494012,-3.000000,0.000000,-4.000000,8.000000,-6.000000,1.000000,-3.000000,-1.000000
1312599.494029,-3.000000,2.000000,1.000000,2.000000,3.000000,1.000000,-1.000000,1.000000
1312599.494963,2.000000,0.000000,-1.000000,-8.000000,4.000000,-2.000000,-2.000000,-1.000000
1312599.494973,-3.000000,-1.000000,1.000000,1.000000,-3.000000,-2.000000,0.000000,-2.000000
1312599.495757,-1.000000,1.000000,3.000000,2.000000,-3.000000,-2.000000,-2.000000,0.000000
1312599.495767,0.000000,-4.000000,-3.000000,-9.000000,-1.000000,-3.000000,2.000000,0.000000
1312599.496942,-3.000000,-3.000000,0.000000,17.000000,12.000000,1.000000,0.000000,1.000000
1312599.496953,-6.000000,-1.000000,-3.000000,4.000000,-4.000000,0.000000,2.000000,-3.000000
1312599.497740,-5.000000,3.000000,-2.000000,-6.000000,-7.000000,-4.000000,-1.000000,1.000000
1312599.497750,0.000000,1.000000,-4.000000,-7.000000,1.000000,-2.000000,0.000000,-1.000000
1312599.516497,-4.000000,0.000000,-2.000000,6.000000,-5.000000,3.000000,0.000000,-2.000000
1312599.516512,-3.000000,-3.000000,1.000000,-7.000000,-3.000000,-6.000000,-1.000000,-2.000000
1312599.517232,-1.000000,-3.000000,-4.000000,-8.000000,3.000000,-3.000000,-1.000000,-3.000000
1312599.517243,2.000000,2.000000,-3.000000,0.000000,-4.000000,-1.000000,1.000000,-2.000000
1312599.539352,0.000000,3.000000,0.000000,2.000000,-3.000000,-2.000000,-5.000000,2.000000
1312599.539364,-3.000000,0.000000,1.000000,-5.000000,2.000000,-2.000000,-4.000000,0.000000
1312599.540298,3.000000,-5.000000,-4.000000,1.000000,0.000000,-1.000000,0.000000,3.000000
1312599.540309,-4.000000,-3.000000,-1.000000,0.000000,-8.000000,-1.000000,-2.000000,-4.000000
1312599.561761,-3.000000,6.000000,3.000000,-4.000000,2.000000,-1.000000,-1.000000,-1.000000
1312599.561774,1.000000,-7.000000,1.000000,-8.000000,-1.000000,3.000000,3.000000,2.000000
1312599.576698,-6.000000,-4.000000,-2.000000,5.000000,-2.000000,1.000000,-2.000000,1.000000
1312599.576721,-6.000000,1.000000,1.000000,2.000000,4.000000,0.000000,3.000000,0.000000
1312599.599455,0.000000,1.000000,3.000000,13.000000,16.000000,3.000000,-1.000000,-3.000000
1312599.599468,-2.000000,0.000000,-3.000000,2.000000,-6.000000,0.000000,-1.000000,2.000000
1312599.600271,-1.000000,-1.000000,1.000000,-2.000000,-5.000000,-4.000000,-1.000000,-1.000000
1312599.600282,-3.000000,0.000000,-2.000000,-20.000000,-4.000000,-4.000000,-5.000000,-3.000000
1312599.601245,2.000000,3.000000,2.000000,6.000000,17.000000,5.000000,1.000000,3.000000
1312599.601255,-1.000000,2.000000,-2.000000,3.000000,-9.000000,1.000000,1.000000,-1.000000
1312599.602182,1.000000,0.000000,-1.000000,-7.000000,-1.000000,-6.000000,-2.000000,-1.000000
1312599.602193,-1.000000,-1.000000,-3.000000,-3.000000,0.000000,0.000000,0.000000,-2.000000
1312599.613951,-3.000000,-1.000000,-3.000000,6.000000,-7.000000,-3.000000,-4.000000,-3.000000
1312599.613964,-1.000000,-2.000000,0.000000,1.000000,-4.000000,-2.000000,-1.000000,0.000000
1312599.614746,-1.000000,0.000000,-1.000000,-5.000000,3.000000,-1.000000,-1.000000,-1.000000
1312599.614757,-6.000000,-8.000000,5.000000,8.000000,0.000000,1.000000,1.000000,1.000000
1312599.636470,-3.000000,2.000000,-1.000000,-1.000000,-6.000000,0.000000,-4.000000,-1.000000
1312599.636487,1.000000,-1.000000,-2.000000,-10.000000,4.000000,-4.000000,-1.000000,-4.000000
1312599.637052,-3.000000,-3.000000,1.000000,1.000000,-3.000000,1.000000,-1.000000,-1.000000
1312599.637062,-3.000000,-3.000000,0.000000,7.000000,-5.000000,-1.000000,1.000000,1.000000
1312599.659626,-2.000000,-2.000000,-2.000000,-2.000000,1.000000,-1.000000,0.000000,-5.000000
1312599.659642,0.000000,-1.000000,-3.000000,-6.000000,-1.000000,-3.000000,1.000000,-1.000000
1312599.660302,-5.000000,-3.000000,-4.000000,5.000000,-6.000000,2.000000,-3.000000,-2.000000
1312599.660312,-2.000000,-2.000000,0.000000,-1.000000,-3.000000,-4.000000,2.000000,0.000000
1312599.681423,5.000000,-3.000000,-2.000000,0.000000,5.000000,0.000000,0.000000,-2.000000
1312599.681435,1.000000,4.000000,1.000000,5.000000,2.000000,4.000000,0.000000,-1.000000
1312599.696698,-2.000000,0.000000,-1.000000,3.000000,0.000000,3.000000,-2.000000,-1.000000
1312599.696711,-3.000000,-3.000000,1.000000,-8.000000,1.000000,1.000000,0.000000,0.000000
1312599.711909,0.000000,2.000000,-4.000000,-5.000000,-1.000000,0.000000,2.000000,-2.000000
1312599.711925,0.000000,-5.000000,-2.000000,2.000000,-7.000000,-2.000000,-2.000000,-1.000000
1312599.712667,2.000000,12.000000,-1.000000,-2.000000,-3.000000,-4.000000,-1.000000,-3.000000
1312599.712678,0.000000,-8.000000,-1.000000,-1.000000,-5.000000,0.000000,-5.000000,-1.000000
1312599.714109,0.000000,0.000000,0.000000,0.000000,-8.000000,1.000000,1.000000,0.000000
1312599.714121,-3.000000,-2.000000,1.000000,-3.000000,-1.000000,0.000000,-1.000000,-1.000000
1312599.719059,3.000000,0.000000,-2.000000,-6.000000,3.000000,-2.000000,-1.000000,-1.000000
1312599.719072,-3.000000,-7.000000,-2.000000,4.000000,-4.000000,-1.000000,-1.000000,2.000000
1312599.734330,-3.000000,-1.000000,1.000000,0.000000,-4.000000,-3.000000,-3.000000,-1.000000
1312599.734342,2.000000,10.000000,1.000000,-6.000000,5.000000,1.000000,-2.000000,-2.000000
1312599.735268,-3.000000,-5.000000,-7.000000,2.000000,-5.000000,-2.000000,-2.000000,0.000000
1312599.735279,-3.000000,2.000000,2.000000,4.000000,-4.000000,0.000000,-2.000000,2.000000
1312599.756872,2.000000,-1.000000,-2.000000,-5.000000,-2.000000,-3.000000,-4.000000,1.000000
1312599.756883,-8.000000,-15.000000,-4.000000,-2.000000,2.000000,1.000000,-2.000000,-2.000000
1312599.757699,-6.000000,-2.000000,1.000000,5.000000,-8.000000,5.000000,3.000000,-1.000000
1312599.757709,1.000000,0.000000,0.000000,-1.000000,4.000000,-1.000000,-2.000000,0.000000
1312599.772143,2.000000,4.000000,-4.000000,1.000000,14.000000,2.000000,-2.000000,-1.000000
1312599.772155,-1.000000,-1.000000,-2.000000,2.000000,-1.000000,2.000000,0.000000,-1.000000
1312599.778947,-2.000000,-2.000000,1.000000,1.000000,-2.000000,-3.000000,1.000000,-3.000000
1312599.778958,2.000000,1.000000,2.000000,-8.000000,1.000000,-3.000000,-2.000000,1.000000
1312599.802023,0.000000,-4.000000,-3.000000,0.000000,-1.000000,-4.000000,1.000000,-4.000000
1312599.802040,-1.000000,1.000000,-2.000000,6.000000,-6.000000,-5.000000,-2.000000,-2.000000
1312599.816616,1.000000,-2.000000,-2.000000,-6.000000,4.000000,0.000000,1.000000,1.000000
1312599.816629,-2.000000,-3.000000,-5.000000,-5.000000,-6.000000,0.000000,-1.000000,-1.000000
1312599.831713,-1.000000,0.000000,0.000000,5.000000,-7.000000,2.000000,-1.000000,-1.000000
1312599.831732,-4.000000,-2.000000,-4.000000,-3.000000,0.000000,-5.000000,-4.000000,1.000000
1312599.832091,7.000000,-1.000000,2.000000,-8.000000,5.000000,1.000000,1.000000,3.000000
1312599.832100,-2.000000,-2.000000,2.000000,6.000000,-6.000000,-2.000000,-3.000000,-2.000000
1312599.833557,0.000000,1.000000,1.000000,6.000000,3.000000,-2.000000,1.000000,-4.000000
1312599.833568,2.000000,-1.000000,1.000000,-8.000000,5.000000,-3.000000,-3.000000,0.000000
1312599.839254,-2.000000,-1.000000,-1.000000,-6.000000,-5.000000,-1.000000,-3.000000,-4.000000
1312599.839268,0.000000,-2.000000,-3.000000,6.000000,-4.000000,-4.000000,-1.000000,-1.000000
1312599.853904,0.000000,-1.000000,1.000000,-6.000000,0.000000,0.000000,-3.000000,-3.000000
1312599.853916,0.000000,0.000000,-1.000000,-8.000000,-9.000000,1.000000,-2.000000,0.000000
1312599.854771,-5.000000,-3.000000,-1.000000,17.000000,2.000000,-1.000000,-1.000000,-3.000000
1312599.854782,-2.000000,2.000000,3.000000,-8.000000,-2.000000,-4.000000,-2.000000,-4.000000
1312599.876759,3.000000,-3.000000,-6.000000,-6.000000,0.000000,0.000000,1.000000,4.000000
1312599.876772,-2.000000,1.000000,-3.000000,4.000000,-2.000000,3.000000,-1.000000,1.000000
1312599.891703,0.000000,1.000000,2.000000,-4.000000,-4.000000,-1.000000,-4.000000,-1.000000
1312599.891717,1.000000,-5.000000,2.000000,-5.000000,6.000000,-3.000000,0.000000,1.000000
1312599.892843,-4.000000,-13.000000,-4.000000,2.000000,-4.000000,0.000000,0.000000,-1.000000
1312599.892855,-2.000000,18.000000,-1.000000,-6.000000,-8.000000,-3.000000,0.000000,-2.000000
1312599.899249,-1.000000,6.000000,0.000000,-4.000000,-2.000000,-2.000000,1.000000,0.000000
1312599.899267,-3.000000,-6.000000,1.000000,-6.000000,4.000000,-1.000000,-2.000000,-2.000000
1312599.922422,-1.000000,-1.000000,-3.000000,7.000000,-5.000000,0.000000,-3.000000,-1.000000
1312599.922454,-2.000000,-3.000000,-1.000000,-4.000000,0.000000,-3.000000,-1.000000,-2.000000
1312599.937703,0.000000,-1.000000,0.000000,-5.000000,2.000000,-1.000000,-3.000000,1.000000
1312599.937732,-1.000000,0.000000,0.000000,5.000000,-4.000000,-2.000000,0.000000,1.000000
1312599.960041,-6.000000,2.000000,1.000000,4.000000,0.000000,-2.000000,3.000000,-3.000000
1312599.960059,5.000000,1.000000,-3.000000,-7.000000,-2.000000,1.000000,-2.000000,-1.000000
1312599.960160,-3.000000,-1.000000,1.000000,-1.000000,1.000000,0.000000,0.000000,-3.000000
1312599.960177,-2.000000,4.000000,-2.000000,18.000000,-1.000000,-4.000000,-2.000000,1.000000
1312599.961081,3.000000,-3.000000,0.000000,-8.000000,2.000000,-1.000000,-4.000000,0.000000
1312599.961095,3.000000,5.000000,-3.000000,-6.000000,-2.000000,-1.000000,-1.000000,0.000000
1312599.961732,0.000000,0.000000,-3.000000,7.000000,-8.000000,4.000000,-2.000000,1.000000
1312599.961747,0.000000,5.000000,-3.000000,-8.000000,1.000000,-5.000000,-3.000000,-3.000000
1312599.974716,0.000000,0.000000,-2.000000,-8.000000,3.000000,3.000000,-4.000000,0.000000
1312599.974732,0.000000,0.000000,-2.000000,5.000000,-3.000000,1.000000,-3.000000,1.000000
1312599.975454,1.000000,-2.000000,-1.000000,2.000000,1.000000,1.000000,2.000000,-4.000000
1312599.975512,3.000000,0.000000,-4.000000,-13.000000,1.000000,-7.000000,-3.000000,-1.000000
1312599.989702,4.000000,0.000000,3.000000,-8.000000,-5.000000,6.000000,3.000000,2.000000
1312599.989730,-5.000000,1.000000,-1.000000,4.000000,-4.000000,-2.000000,-2.000000,-2.000000
1312599.997091,4.000000,-3.000000,-3.000000,-6.000000,1.000000,-3.000000,0.000000,-1.000000
1312599.997121,3.000000,-7.000000,-4.000000,-1.000000,-1.000000,-1.000000,-5.000000,1.000000
1312600.004705,-5.000000,-1.000000,-2.000000,9.000000,-7.000000,1.000000,0.000000,-1.000000
1312600.004733,-1.000000,-1.000000,0.000000,-4.000000,-1.000000,-3.000000,-3.000000,0.000000
1312600.034031,1.000000,-1.000000,-3.000000,-5.000000,3.000000,-3.000000,-4.000000,0.000000
1312600.034060,-2.000000,-2.000000,-2.000000,9.000000,-5.000000,2.000000,-1.000000,1.000000
1312600.056421,-2.000000,1.000000,2.000000,1.000000,0.000000,-1.000000,0.000000,2.000000
1312600.056432,3.000000,3.000000,-2.000000,-12.000000,2.000000,-2.000000,-2.000000,0.000000
1312600.071673,3.000000,9.000000,-3.000000,0.000000,-5.000000,-1.000000,0.000000,2.000000
1312600.071686,-3.000000,-2.000000,3.000000,4.000000,3.000000,1.000000,3.000000,1.000000
1312600.094019,4.000000,6.000000,1.000000,-9.000000,6.000000,-3.000000,-1.000000,-2.000000
1312600.094029,2.000000,-2.000000,-4.000000,-2.000000,-2.000000,0.000000,-3.000000,-4.000000
1312600.109202,-4.000000,-5.000000,-2.000000,6.000000,-4.000000,-5.000000,0.000000,-1.000000
1312600.109231,-4.000000,-3.000000,0.000000,-2.000000,4.000000,-2.000000,0.000000,0.000000
1312600.117014,0.000000,0.000000,0.000000,-3.000000,4.000000,-1.000000,-1.000000,-3.000000
1312600.117045,1.000000,-3.000000,-5.000000,0.000000,-5.000000,0.000000,0.000000,0.000000
1312600.117692,-3.000000,1.000000,-1.000000,-16.000000,-4.000000,1.000000,-2.000000,0.000000
1312600.117718,3.000000,-1.000000,2.000000,-9.000000,3.000000,2.000000,1.000000,1.000000
1312600.118694,1.000000,-4.000000,-2.000000,-9.000000,3.000000,-4.000000,-1.000000,1.000000
1312600.118702,-1.000000,1.000000,0.000000,0.000000,2.000000,-1.000000,-1.000000,-1.000000
1312600.119542,0.000000,-1.000000,-2.000000,4.000000,-4.000000,2.000000,0.000000,-1.000000
1312600.119550,0.000000,-1.000000,-1.000000,-9.000000,-3.000000,1.000000,-1.000000,-1.000000
1312600.132338,-7.000000,-8.000000,-2.000000,2.000000,1.000000,6.000000,3.000000,1.000000
1312600.132347,-2.000000,0.000000,3.000000,-5.000000,5.000000,-2.000000,2.000000,-2.000000
1312600.154549,1.000000,-1.000000,-2.000000,1.000000,1.000000,4.000000,-3.000000,2.000000
1312600.154568,-3.000000,-1.000000,0.000000,2.000000,-3.000000,-3.000000,-6.000000,-1.000000
1312600.177160,3.000000,0.000000,-3.000000,-8.000000,3.000000,-1.000000,-3.000000,-1.000000
1312600.177223,1.000000,0.000000,-2.000000,0.000000,0.000000,0.000000,-1.000000,-4.000000
1312600.177456,0.000000,1.000000,-3.000000,8.000000,-6.000000,-3.000000,1.000000,-1.000000
1312600.177476,2.000000,-3.000000,0.000000,-7.000000,0.000000,-1.000000,-2.000000,0.000000
1312600.178647,-4.000000,-6.000000,-2.000000,-6.000000,-6.000000,-4.000000,-1.000000,-1.000000
1312600.178666,2.000000,1.000000,-2.000000,1.000000,-6.000000,-3.000000,-4.000000,1.000000
1312600.179330,0.000000,0.000000,1.000000,-3.000000,-9.000000,-2.000000,-2.000000,0.000000
1312600.179347,2.000000,1.000000,1.000000,-3.000000,3.000000,1.000000,-2.000000,-1.000000
1312600.192621,-1.000000,-1.000000,0.000000,3.000000,-5.000000,1.000000,-1.000000,2.000000
1312600.192647,-1.000000,0.000000,-2.000000,0.000000,-5.000000,-4.000000,-3.000000,-2.000000
1312600.206343,-2.000000,-1.000000,2.000000,-11.000000,2.000000,-5.000000,-3.000000,-1.000000
1312600.206354,1.000000,-5.000000,-4.000000,-1.000000,-5.000000,0.000000,-2.000000,-1.000000
1312600.214294,-1.000000,0.000000,-5.000000,6.000000,-1.000000,1.000000,0.000000,-3.000000
1312600.214303,-1.000000,-3.000000,-1.000000,-6.000000,0.000000,-3.000000,-2.000000,1.000000
1312600.215348,1.000000,0.000000,1.000000,-6.000000,-7.000000,0.000000,1.000000,-2.000000
1312600.215357,-1.000000,-3.000000,-1.000000,7.000000,1.000000,4.000000,-1.000000,-2.000000
1312600.229710,-1.000000,-2.000000,-1.000000,-3.000000,2.000000,0.000000,-1.000000,-1.000000
1312600.229719,-2.000000,1.000000,-1.000000,-4.000000,3.000000,-1.000000,0.000000,-1.000000
1312600.236571,0.000000,-1.000000,-1.000000,2.000000,-1.000000,0.000000,-1.000000,0.000000
1312600.236582,-3.000000,-1.000000,1.000000,3.000000,0.000000,-3.000000,-2.000000,-1.000000
1312600.251965,-2.000000,-2.000000,-1.000000,-9.000000,-1.000000,-3.000000,-1.000000,-1.000000
1312600.251975,0.000000,1.000000,3.000000,-1.000000,-1.000000,0.000000,-2.000000,-5.000000
1312600.266624,-2.000000,4.000000,-1.000000,9.000000,-1.000000,-1.000000,-3.000000,-1.000000
1312600.266634,4.000000,4.000000,-3.000000,-12.000000,-1.000000,-3.000000,0.000000,0.000000
1312600.289031,2.000000,-5.000000,-2.000000,-5.000000,3.000000,0.000000,1.000000,3.000000
1312600.289055,-2.000000,3.000000,-3.000000,8.000000,-9.000000,-3.000000,-1.000000,0.000000
1312600.311638,-1.000000,-1.000000,0.000000,-3.000000,1.000000,-3.000000,-3.000000,-1.000000
1312600.311650,1.000000,-3.000000,-3.000000,-7.000000,2.000000,-1.000000,-1.000000,2.000000
1312600.312624,-3.000000,-2.000000,-2.000000,4.000000,-1.000000,2.000000,2.000000,0.000000
1312600.312634,0.000000,0.000000,-1.000000,-4.000000,-4.000000,-5.000000,-1.000000,-3.000000
1312600.313104,-3.000000,-2.000000,3.000000,14.000000,23.000000,1.000000,-2.000000,3.000000
1312600.313114,-4.000000,-2.000000,1.000000,-7.000000,-2.000000,5.000000,-2.000000,-2.000000
1312600.315117,-3.000000,-1.000000,-2.000000,6.000000,-4.000000,-1.000000,0.000000,-1.000000
1312600.315129,0.000000,-3.000000,0.000000,-5.000000,1.000000,-4.000000,-2.000000,-1.000000
1312600.319089,0.000000,0.000000,-2.000000,-4.000000,-2.000000,-1.000000,0.000000,1.000000
1312600.319100,0.000000,2.000000,2.000000,4.000000,-8.000000,0.000000,-2.000000,-2.000000
1312600.327236,0.000000,-3.000000,0.000000,2.000000,3.000000,-3.000000,1.000000,-2.000000
1312600.327247,2.000000,1.000000,-1.000000,-9.000000,1.000000,1.000000,-1.000000,1.000000
1312600.334176,-2.000000,-2.000000,-2.000000,0.000000,-3.000000,-1.000000,1.000000,-3.000000
1312600.334187,3.000000,4.000000,-1.000000,2.000000,0.000000,1.000000,0.000000,-2.000000
1312600.349578,-1.000000,-3.000000,-1.000000,-9.000000,6.000000,0.000000,-3.000000,-3.000000
1312600.349587,1.000000,0.000000,-4.000000,3.000000,-1.000000,0.000000,1.000000,-1.000000
1312600.356760,-3.000000,4.000000,2.000000,-1.000000,-10.000000,-3.000000,-3.000000,-4.000000
1312600.356773,-2.000000,-7.000000,2.000000,-1.000000,1.000000,-3.000000,-1.000000,1.000000
1312600.371773,-3.000000,-3.000000,-1.000000,0.000000,4.000000,-1.000000,-1.000000,0.000000
1312600.371787,-1.000000,-2.000000,-3.000000,6.000000,-4.000000,0.000000,0.000000,1.000000
1312600.386537,1.000000,-2.000000,-3.000000,0.000000,-3.000000,-1.000000,-1.000000,-3.000000
1312600.386561,6.000000,2.000000,0.000000,-9.000000,3.000000,-5.000000,1.000000,1.000000
1312600.409222,-1.000000,0.000000,-2.000000,2.000000,-3.000000,1.000000,-2.000000,-5.000000
1312600.409236,-2.000000,-1.000000,-1.000000,1.000000,-4.000000,1.000000,1.000000,2.000000
1312600.431449,5.000000,0.000000,1.000000,-8.000000,2.000000,0.000000,2.000000,1.000000
1312600.431469,0.000000,0.000000,-3.000000,-2.000000,-1.000000,3.000000,0.000000,0.000000
1312600.432394,-2.000000,2.000000,0.000000,5.000000,-2.000000,0.000000,0.000000,-2.000000
1312600.432402,0.000000,0.000000,-1.000000,-4.000000,3.000000,-3.000000,-1.000000,-1.000000
1312600.432986,-1.000000,-1.000000,-2.000000,-2.000000,0.000000,-2.000000,-2.000000,-1.000000
1312600.433005,2.000000,0.000000,0.000000,5.000000,-5.000000,3.000000,0.000000,0.000000
1312600.434522,-3.000000,-1.000000,0.000000,-2.000000,-2.000000,2.000000,-1.000000,-1.000000
1312600.434530,0.000000,-5.000000,1.000000,-8.000000,-1.000000,-1.000000,0.000000,1.000000
1312600.446741,-1.000000,-2.000000,0.000000,4.000000,0.000000,1.000000,-2.000000,3.000000
1312600.446777,-1.000000,0.000000,-1.000000,2.000000,-2.000000,4.000000,-1.000000,-1.000000
1312600.447748,0.000000,-1.000000,0.000000,-9.000000,3.000000,-2.000000,-4.000000,-2.000000
1312600.447759,1.000000,1.000000,-1.000000,-1.000000,-4.000000,-4.000000,-3.000000,-1.000000
1312600.468845,-2.000000,-2.000000,-1.000000,3.000000,-6.000000,-3.000000,-1.000000,2.000000
1312600.468855,1.000000,-1.000000,2.000000,2.000000,12.000000,0.000000,1.000000,-1.000000
1312600.470162,0.000000,0.000000,1.000000,-7.000000,-6.000000,-2.000000,-1.000000,-2.000000
1312600.470170,2.000000,0.000000,-2.000000,6.000000,-5.000000,-4.000000,-4.000000,3.000000
1312600.483736,-2.000000,4.000000,-4.000000,-9.000000,-3.000000,-6.000000,-6.000000,-1.000000
1312600.483760,-1.000000,-4.000000,-3.000000,-6.000000,2.000000,3.000000,2.000000,-1.000000
1312600.506726,-2.000000,0.000000,-2.000000,7.000000,-9.000000,0.000000,-2.000000,3.000000
1312600.506737,-3.000000,-1.000000,1.000000,1.000000,-3.000000,0.000000,-1.000000,-1.000000
1312600.514222,0.000000,-2.000000,0.000000,-9.000000,2.000000,1.000000,1.000000,-3.000000
1312600.514252,0.000000,-6.000000,-1.000000,2.000000,-2.000000,-1.000000,1.000000,0.000000
1312600.544435,-3.000000,5.000000,3.000000,-20.000000,-13.000000,0.000000,2.000000,-1.000000
1312600.544450,0.000000,-2.000000,3.000000,25.000000,21.000000,1.000000,3.000000,1.000000
1312600.551693,0.000000,-2.000000,-3.000000,1.000000,-3.000000,1.000000,1.000000,-3.000000
1312600.551707,1.000000,3.000000,1.000000,7.000000,-7.000000,0.000000,-1.000000,0.000000
1312600.567101,-3.000000,2.000000,-3.000000,-5.000000,0.000000,-2.000000,-3.000000,0.000000
1312600.567115,3.000000,-1.000000,-1.000000,-1.000000,0.000000,-2.000000,1.000000,-1.000000
1312600.567562,-1.000000,1.000000,-1.000000,6.000000,-5.000000,2.000000,1.000000,-3.000000
1312600.567572,-3.000000,-2.000000,-1.000000,-3.000000,-5.000000,-2.000000,0.000000,-1.000000
1312600.568783,-3.000000,0.000000,-2.000000,-6.000000,2.000000,-2.000000,1.000000,-3.000000
1312600.568793,0.000000,-1.000000,-3.000000,-3.000000,-3.000000,0.000000,1.000000,-2.000000
1312600.569508,-1.000000,2.000000,3.000000,10.000000,1.000000,-1.000000,-1.000000,0.000000
1312600.569518,-3.000000,0.000000,-1.000000,-9.000000,5.000000,-3.000000,-1.000000,-2.000000
1312600.588945,-2.000000,-6.000000,-4.000000,-14.000000,-3.000000,-2.000000,-2.000000,0.000000
1312600.588996,-4.000000,-10.000000,-1.000000,1.000000,0.000000,3.000000,3.000000,1.000000
1312600.590315,-4.000000,1.000000,-1.000000,2.000000,-5.000000,2.000000,-1.000000,0.000000
1312600.590323,-5.000000,-6.000000,2.000000,-3.000000,-1.000000,-6.000000,1.000000,2.000000
1312600.604223,1.000000,-1.000000,0.000000,-7.000000,2.000000,-3.000000,-4.000000,-1.000000
1312600.604252,-1.000000,1.000000,-1.000000,4.000000,-1.000000,-1.000000,1.000000,-1.000000
1312600.611501,-4.000000,1.000000,1.000000,2.000000,-2.000000,-1.000000,-1.000000,-2.000000
1312600.611539,0.000000,1.000000,1.000000,21.000000,24.000000,0.000000,0.000000,0.000000
1312600.626743,0.000000,-2.000000,-1.000000,-3.000000,-4.000000,3.000000,-4.000000,-1.000000
1312600.626772,-1.000000,-1.000000,0.000000,7.000000,-3.000000,-2.000000,0.000000,-3.000000
1312600.664669,-3.000000,-5.000000,0.000000,1.000000,1.000000,0.000000,-4.000000,1.000000
1312600.664782,6.000000,0.000000,0.000000,-1.000000,-1.000000,0.000000,0.000000,-3.000000
1312600.672521,2.000000,0.000000,-2.000000,8.000000,-4.000000,1.000000,0.000000,2.000000
1312600.672620,0.000000,1.000000,-2.000000,0.000000,-4.000000,-3.000000,-1.000000,-3.000000
1312600.709024,1.000000,-2.000000,1.000000,-8.000000,5.000000,-3.000000,-4.000000,1.000000
1312600.709044,-2.000000,-2.000000,-3.000000,4.000000,-3.000000,-1.000000,0.000000,-1.000000
1312600.709582,-1.000000,1.000000,1.000000,-1.000000,-4.000000,-1.000000,0.000000,0.000000
1312600.709598,0.000000,1.000000,-1.000000,-10.000000,0.000000,0.000000,-1.000000,-1.000000
1312600.710502,1.000000,1.000000,-1.000000,-1.000000,-1.000000,2.000000,1.000000,1.000000
1312600.710512,1.000000,1.000000,0.000000,3.000000,-7.000000,-2.000000,1.000000,-5.000000
1312600.711201,-1.000000,-2.000000,0.000000,-4.000000,-3.000000,-5.000000,0.000000,-1.000000
1312600.711209,0.000000,-4.000000,0.000000,0.000000,-1.000000,3.000000,0.000000,4.000000
1312600.712725,-1.000000,-4.000000,0.000000,1.000000,9.000000,1.000000,2.000000,-1.000000
1312600.712797,-1.000000,0.000000,-2.000000,1.000000,-3.000000,3.000000,-3.000000,-1.000000
1312600.716392,0.000000,-1.000000,0.000000,2.000000,2.000000,0.000000,-1.000000,-3.000000
1312600.716422,-4.000000,-3.000000,-1.000000,8.000000,-2.000000,-3.000000,0.000000,-1.000000
1312600.731671,-2.000000,2.000000,-1.000000,-15.000000,-10.000000,-2.000000,-1.000000,0.000000
1312600.731703,-1.000000,-3.000000,0.000000,-4.000000,3.000000,0.000000,-4.000000,0.000000
1312600.746657,-4.000000,3.000000,-4.000000,5.000000,-3.000000,-2.000000,1.000000,0.000000
1312600.746686,2.000000,2.000000,2.000000,-3.000000,3.000000,-1.000000,3.000000,1.000000
1312600.769509,0.000000,0.000000,-1.000000,-9.000000,3.000000,-1.000000,0.000000,1.000000
1312600.769518,0.000000,-1.000000,-3.000000,6.000000,-4.000000,-1.000000,1.000000,-3.000000
1312600.769982,-3.000000,1.000000,3.000000,2.000000,1.000000,-1.000000,-1.000000,-1.000000
1312600.770008,-2.000000,1.000000,-1.000000,-7.000000,1.000000,0.000000,1.000000,0.000000
1312600.771544,1.000000,1.000000,0.000000,-5.000000,-3.000000,-1.000000,-3.000000,1.000000
1312600.771553,-5.000000,0.000000,0.000000,0.000000,-5.000000,1.000000,-1.000000,1.000000
1312600.784029,-3.000000,0.000000,0.000000,-8.000000,0.000000,-4.000000,-2.000000,-2.000000
1312600.784060,0.000000,-1.000000,0.000000,-4.000000,-6.000000,-1.000000,3.000000,-1.000000
1312600.791294,-3.000000,-8.000000,2.000000,9.000000,-3.000000,3.000000,0.000000,1.000000
1312600.791321,-3.000000,-2.000000,1.000000,0.000000,0.000000,0.000000,1.000000,-3.000000
1312600.806498,0.000000,-3.000000,-1.000000,-5.000000,2.000000,-1.000000,-3.000000,0.000000
1312600.806517,1.000000,-1.000000,0.000000,4.000000,-3.000000,-1.000000,-2.000000,-2.000000
1312600.828927,3.000000,1.000000,0.000000,3.000000,-1.000000,-2.000000,-4.000000,1.000000
1312600.828956,0.000000,-2.000000,-3.000000,-16.000000,-11.000000,-2.000000,-1.000000,-1.000000
1312600.829554,-4.000000,-2.000000,-5.000000,0.000000,1.000000,1.000000,0.000000,-3.000000
1312600.829581,0.000000,0.000000,-3.000000,-1.000000,-8.000000,-6.000000,-1.000000,-2.000000
1312600.831027,0.000000,0.000000,1.000000,-7.000000,0.000000,-3.000000,-1.000000,-4.000000
1312600.831035,0.000000,2.000000,-2.000000,-1.000000,-2.000000,-1.000000,1.000000,0.000000
1312600.836609,0.000000,-3.000000,0.000000,8.000000,-6.000000,1.000000,0.000000,-4.000000
1312600.836637,1.000000,1.000000,2.000000,-3.000000,-2.000000,-2.000000,-2.000000,0.000000
1312600.866395,3.000000,-2.000000,-2.000000,-5.000000,3.000000,-4.000000,-2.000000,1.000000
1312600.866405,0.000000,3.000000,1.000000,4.000000,-4.000000,1.000000,0.000000,-1.000000
1312600.881495,-4.000000,-1.000000,1.000000,2.000000,-1.000000,-3.000000,-1.000000,-1.000000
1312600.881505,2.000000,-3.000000,0.000000,-10.000000,2.000000,-3.000000,0.000000,1.000000
1312600.883105,-1.000000,6.000000,-3.000000,-4.000000,-4.000000,-4.000000,-1.000000,1.000000
1312600.883127,0.000000,-1.000000,-4.000000,2.000000,-8.000000,-2.000000,-1.000000,-2.000000
1312600.883554,2.000000,6.000000,-4.000000,-4.000000,0.000000,-1.000000,-2.000000,0.000000
1312600.883581,0.000000,-2.000000,-2.000000,1.000000,1.000000,3.000000,-1.000000,-1.000000
1312600.889441,-3.000000,1.000000,-5.000000,7.000000,-7.000000,0.000000,-1.000000,-2.000000
1312600.889471,-1.000000,0.000000,-1.000000,-2.000000,1.000000,1.000000,-4.000000,-2.000000
1312600.904420,2.000000,-6.000000,0.000000,-6.000000,9.000000,2.000000,-1.000000,-1.000000
1312600.904450,-1.000000,-1.000000,2.000000,-6.000000,-12.000000,-1.000000,0.000000,-3.000000
1312600.919586,-1.000000,1.000000,-5.000000,9.000000,6.000000,0.000000,0.000000,-1.000000
1312600.919613,0.000000,-2.000000,1.000000,-8.000000,4.000000,-3.000000,-4.000000,1.000000
1312600.926357,1.000000,-1.000000,-5.000000,1.000000,-2.000000,-1.000000,1.000000,1.000000
1312600.926403,-3.000000,1.000000,-1.000000,5.000000,-5.000000,-1.000000,-2.000000,-1.000000
1312600.927725,-1.000000,0.000000,-3.000000,-6.000000,0.000000,-4.000000,-3.000000,-1.000000
1312600.927737,2.000000,-2.000000,-4.000000,-5.000000,0.000000,0.000000,-2.000000,0.000000
1312600.941500,1.000000,4.000000,-4.000000,3.000000,-4.000000,0.000000,0.000000,-2.000000
1312600.941513,-3.000000,-2.000000,0.000000,2.000000,2.000000,-2.000000,-1.000000,-2.000000
1312600.964296,1.000000,1.000000,-2.000000,-4.000000,1.000000,0.000000,1.000000,-1.000000
1312600.964309,-1.000000,-3.000000,-3.000000,4.000000,-3.000000,1.000000,-1.000000,-1.000000
1312600.987696,-5.000000,-1.000000,1.000000,-1.000000,-2.000000,-4.000000,-4.000000,0.000000
1312600.987729,-3.000000,-6.000000,-1.000000,-8.000000,4.000000,1.000000,2.000000,-2.000000
1312601.002829,-2.000000,-1.000000,-3.000000,1.000000,-4.000000,-1.000000,0.000000,0.000000
1312601.002861,-2.000000,-1.000000,-4.000000,4.000000,-3.000000,-3.000000,-1.000000,-2.000000
1312601.010002,0.000000,-3.000000,-4.000000,-6.000000,1.000000,-3.000000,0.000000,2.000000
1312601.010022,1.000000,0.000000,1.000000,-5.000000,-8.000000,1.000000,-3.000000,2.000000
1312601.039356,-2.000000,1.000000,3.000000,10.000000,-4.000000,3.000000,2.000000,-2.000000
1312601.039377,-2.000000,-1.000000,0.000000,0.000000,1.000000,0.000000,1.000000,-3.000000
1312601.046867,-1.000000,-5.000000,0.000000,-3.000000,2.000000,-1.000000,0.000000,1.000000
1312601.046903,-1.000000,2.000000,-4.000000,5.000000,-4.000000,2.000000,0.000000,-1.000000
1312601.048720,-3.000000,0.000000,0.000000,-1.000000,-4.000000,-3.000000,0.000000,1.000000
1312601.048749,-1.000000,-1.000000,1.000000,-9.000000,7.000000,1.000000,0.000000,1.000000
1312601.049820,-1.000000,-3.000000,-3.000000,2.000000,0.000000,-1.000000,0.000000,-1.000000
1312601.049852,-2.000000,0.000000,0.000000,0.000000,-6.000000,-1.000000,0.000000,-1.000000
1312601.050671,-4.000000,-2.000000,-2.000000,6.000000,-4.000000,-2.000000,-5.000000,1.000000
1312601.050692,-2.000000,-3.000000,-2.000000,-9.000000,-1.000000,-4.000000,-2.000000,0.000000
1312601.051298,1.000000,-3.000000,0.000000,-5.000000,5.000000,1.000000,-4.000000,-2.000000
1312601.051323,2.000000,-1.000000,-2.000000,6.000000,-4.000000,0.000000,2.000000,-3.000000
1312601.061867,-3.000000,-4.000000,3.000000,-2.000000,-4.000000,-2.000000,-1.000000,-3.000000
1312601.061889,2.000000,-2.000000,-1.000000,-9.000000,5.000000,-3.000000,0.000000,0.000000
1312601.069618,1.000000,-2.000000,-2.000000,-4.000000,-3.000000,1.000000,-3.000000,1.000000
1312601.069651,-1.000000,-1.000000,-1.000000,4.000000,-3.000000,0.000000,-3.000000,-4.000000
1312601.076704,1.000000,-1.000000,0.000000,-8.000000,0.000000,-4.000000,2.000000,-1.000000
1312601.076716,2.000000,-3.000000,-2.000000,0.000000,-1.000000,-4.000000,0.000000,1.000000
1312601.099228,-4.000000,2.000000,0.000000,3.000000,-5.000000,1.000000,0.000000,-1.000000
1312601.099243,-1.000000,-4.000000,-1.000000,-3.000000,6.000000,-3.000000,0.000000,-4.000000
1312601.106407,2.000000,-2.000000,-3.000000,-6.000000,3.000000,-1.000000,-1.000000,0.000000
1312601.106415,-3.000000,2.000000,0.000000,4.000000,-5.000000,3.000000,-3.000000,0.000000
1312601.121811,-3.000000,-2.000000,0.000000,-1.000000,0.000000,-1.000000,-1.000000,0.000000
1312601.121848,2.000000,-1.000000,-2.000000,-13.000000,-5.000000,-2.000000,1.000000,1.000000
1312601.122303,-5.000000,3.000000,0.000000,2.000000,-2.000000,-2.000000,-1.000000,1.000000
1312601.122311,-2.000000,-2.000000,-3.000000,-1.000000,-2.000000,-1.000000,1.000000,-2.000000
1312601.143808,0.000000,0.000000,1.000000,-10.000000,0.000000,-6.000000,-2.000000,0.000000
1312601.143819,-1.000000,-4.000000,0.000000,4.000000,-2.000000,1.000000,-1.000000,-2.000000
1312601.144181,-2.000000,2.000000,0.000000,5.000000,-5.000000,-2.000000,-2.000000,1.000000
1312601.144203,-1.000000,-1.000000,3.000000,-3.000000,0.000000,-3.000000,-1.000000,0.000000
1312601.159145,-1.000000,-4.000000,-3.000000,-3.000000,-1.000000,-2.000000,-2.000000,1.000000
1312601.159156,-2.000000,-4.000000,-2.000000,16.000000,3.000000,1.000000,-1.000000,2.000000
1312601.159676,-1.000000,0.000000,-2.000000,-1.000000,-4.000000,-1.000000,1.000000,-1.000000
1312601.159687,-1.000000,-1.000000,1.000000,-6.000000,4.000000,-1.000000,3.000000,1.000000
1312601.166648,1.000000,1.000000,-2.000000,-3.000000,-1.000000,0.000000,-3.000000,-1.000000
1312601.166659,-2.000000,0.000000,1.000000,1.000000,-2.000000,-3.000000,-2.000000,2.000000
1312601.181396,1.000000,-2.000000,0.000000,-6.000000,2.000000,-3.000000,0.000000,1.000000
1312601.181418,0.000000,-4.000000,-1.000000,-1.000000,-4.000000,-1.000000,-1.000000,0.000000
1312601.188856,-2.000000,0.000000,-3.000000,9.000000,-5.000000,0.000000,0.000000,-4.000000
1312601.188885,-1.000000,-3.000000,2.000000,-3.000000,-1.000000,-1.000000,-1.000000,2.000000
1312601.204193,2.000000,-1.000000,0.000000,-1.000000,1.000000,1.000000,0.000000,-1.000000
1312601.204204,-2.000000,-1.000000,-4.000000,3.000000,-6.000000,-1.000000,-3.000000,1.000000
1312601.226808,4.000000,6.000000,-1.000000,0.000000,-1.000000,-2.000000,-3.000000,2.000000
1312601.226855,5.000000,-2.000000,3.000000,-11.000000,5.000000,1.000000,-2.000000,2.000000
1312601.241402,0.000000,1.000000,-1.000000,2.000000,-3.000000,0.000000,-3.000000,-2.000000
1312601.241412,0.000000,1.000000,-1.000000,0.000000,-4.000000,-1.000000,-2.000000,-1.000000
1312601.264572,2.000000,-3.000000,1.000000,-9.000000,-2.000000,-5.000000,1.000000,0.000000
1312601.264598,0.000000,-3.000000,1.000000,-1.000000,-3.000000,3.000000,-1.000000,-3.000000
1312601.265167,-6.000000,0.000000,0.000000,4.000000,-6.000000,-1.000000,0.000000,-5.000000
1312601.265197,-3.000000,-3.000000,1.000000,2.000000,2.000000,-2.000000,1.000000,-1.000000
1312601.266485,0.000000,-3.000000,0.000000,-3.000000,0.000000,1.000000,-3.000000,2.000000
1312601.266494,0.000000,-1.000000,-4.000000,2.000000,-4.000000,1.000000,0.000000,0.000000
1312601.266883,0.000000,1.000000,-2.000000,0.000000,0.000000,0.000000,1.000000,1.000000
1312601.266891,-2.000000,0.000000,-1.000000,-7.000000,0.000000,-3.000000,0.000000,-1.000000
1312601.278984,-2.000000,0.000000,0.000000,4.000000,0.000000,0.000000,0.000000,-1.000000
1312601.279004,-3.000000,3.000000,1.000000,-1.000000,3.000000,-1.000000,-3.000000,-4.000000
1312601.279311,0.000000,0.000000,-1.000000,-7.000000,2.000000,-4.000000,-2.000000,1.000000
1312601.279333,-1.000000,0.000000,-4.000000,0.000000,1.000000,-1.000000,1.000000,-1.000000
1312601.286338,0.000000,5.000000,-3.000000,4.000000,-4.000000,-2.000000,0.000000,-3.000000
1312601.286347,0.000000,1.000000,1.000000,-3.000000,2.000000,-6.000000,0.000000,0.000000
1312601.301609,2.000000,-3.000000,-3.000000,-1.000000,2.000000,2.000000,-1.000000,2.000000
1312601.301619,-1.000000,0.000000,0.000000,12.000000,3.000000,1.000000,-1.000000,1.000000
1312601.323730,1.000000,6.000000,-1.000000,-8.000000,-9.000000,-4.000000,-1.000000,-3.000000
1312601.323752,1.000000,-2.000000,0.000000,-7.000000,6.000000,-3.000000,-1.000000,3.000000
1312601.331519,-1.000000,2.000000,-1.000000,4.000000,-3.000000,2.000000,2.000000,1.000000
1312601.331550,-4.000000,1.000000,-3.000000,2.000000,-1.000000,-4.000000,1.000000,-2.000000
1312601.346664,2.000000,-3.000000,0.000000,-9.000000,2.000000,-3.000000,-1.000000,5.000000
1312601.346675,0.000000,1.000000,-2.000000,3.000000,-1.000000,1.000000,2.000000,-3.000000
1312601.361651,-7.000000,4.000000,-2.000000,4.000000,-5.000000,-3.000000,-2.000000,-4.000000
1312601.361681,-5.000000,-1.000000,-2.000000,-8.000000,-3.000000,-5.000000,0.000000,-2.000000
1312601.384265,-2.000000,1.000000,1.000000,1.000000,7.000000,1.000000,0.000000,1.000000
1312601.384294,-4.000000,-1.000000,-1.000000,4.000000,-5.000000,-1.000000,-2.000000,-1.000000
1312601.384805,1.000000,-1.000000,1.000000,-1.000000,-2.000000,-4.000000,1.000000,-3.000000
1312601.384831,1.000000,-2.000000,-2.000000,-8.000000,3.000000,-2.000000,-2.000000,3.000000
1312601.385633,-1.000000,2.000000,0.000000,6.000000,-3.000000,1.000000,0.000000,0.000000
1312601.385640,-3.000000,-2.000000,4.000000,3.000000,-3.000000,-1.000000,-5.000000,-3.000000
1312601.386295,4.000000,-1.000000,0.000000,-7.000000,3.000000,-2.000000,0.000000,-1.000000
1312601.386303,-4.000000,0.000000,-4.000000,-3.000000,-1.000000,4.000000,1.000000,0.000000
1312601.398921,-6.000000,3.000000,-3.000000,6.000000,-7.000000,-2.000000,-3.000000,-3.000000
1312601.398931,1.000000,-2.000000,0.000000,0.000000,7.000000,-1.000000,-1.000000,-1.000000
1312601.399325,3.000000,1.000000,-3.000000,-2.000000,-1.000000,1.000000,-4.000000,0.000000
1312601.399333,-3.000000,-4.000000,0.000000,6.000000,-2.000000,-2.000000,-5.000000,-1.000000
1312601.421410,-7.000000,-3.000000,4.000000,-2.000000,-1.000000,1.000000,-1.000000,-1.000000
1312601.421452,-3.000000,-4.000000,-1.000000,0.000000,5.000000,0.000000,0.000000,-1.000000
1312601.421787,-4.000000,-1.000000,-4.000000,3.000000,-5.000000,-1.000000,-1.000000,0.000000
1312601.421814,-3.000000,2.000000,-3.000000,2.000000,2.000000,-2.000000,-2.000000,-3.000000
1312601.429149,3.000000,-2.000000,0.000000,-8.000000,3.000000,0.000000,-2.000000,3.000000
1312601.429160,-2.000000,-1.000000,1.000000,-2.000000,-6.000000,1.000000,-1.000000,-3.000000
1312601.459046,-1.000000,7.000000,1.000000,20.000000,18.000000,0.000000,-1.000000,-1.000000
1312601.459067,-3.000000,-4.000000,-3.000000,-5.000000,4.000000,-4.000000,0.000000,-4.000000
1312601.481670,1.000000,-1.000000,-2.000000,0.000000,-3.000000,-2.000000,1.000000,0.000000
1312601.481679,-4.000000,-3.000000,-2.000000,6.000000,-4.000000,0.000000,1.000000,-1.000000
1312601.496344,-1.000000,0.000000,0.000000,-1.000000,0.000000,-1.000000,-3.000000,-2.000000
1312601.496355,2.000000,-4.000000,-2.000000,-8.000000,-1.000000,-1.000000,0.000000,1.000000
1312601.497537,-1.000000,2.000000,-2.000000,3.000000,0.000000,1.000000,0.000000,-1.000000
1312601.497550,-1.000000,-2.000000,-1.000000,-2.000000,-2.000000,-2.000000,-3.000000,1.000000
1312601.498282,-1.000000,-5.000000,3.000000,-6.000000,1.000000,-1.000000,-3.000000,-2.000000
1312601.498296,0.000000,0.000000,-1.000000,-2.000000,-3.000000,-1.000000,-3.000000,0.000000
1312601.499691,-4.000000,-3.000000,1.000000,1.000000,-1.000000,-1.000000,-1.000000,-4.000000
1312601.499707,2.000000,-2.000000,-2.000000,-4.000000,4.000000,-2.000000,0.000000,0.000000
1312601.503758,-3.000000,-1.000000,-4.000000,-4.000000,-1.000000,0.000000,3.000000,-1.000000
1312601.503775,-1.000000,5.000000,-1.000000,4.000000,-4.000000,0.000000,-2.000000,-1.000000
1312601.518897,1.000000,0.000000,3.000000,1.000000,1.000000,-2.000000,-2.000000,-1.000000
1312601.518923,0.000000,-1.000000,-2.000000,-12.000000,2.000000,-1.000000,0.000000,0.000000
1312601.519428,-3.000000,-3.000000,-4.000000,11.000000,1.000000,0.000000,-2.000000,-2.000000
1312601.519436,0.000000,2.000000,-2.000000,-2.000000,-3.000000,-3.000000,-1.000000,-1.000000
1312601.542145,4.000000,2.000000,-3.000000,-8.000000,2.000000,-2.000000,-3.000000,1.000000
1312601.542196,0.000000,0.000000,-3.000000,2.000000,1.000000,4.000000,-1.000000,-2.000000
1312601.542513,-5.000000,-2.000000,-3.000000,2.000000,-6.000000,-4.000000,-3.000000,-2.000000
1312601.542539,4.000000,1.000000,2.000000,-14.000000,-3.000000,-3.000000,1.000000,-3.000000
1312601.556391,1.000000,-1.000000,-2.000000,1.000000,1.000000,0.000000,-1.000000,-3.000000
1312601.556415,-1.000000,1.000000,0.000000,6.000000,-5.000000,1.000000,-3.000000,-2.000000
1312601.563900,-1.000000,-3.000000,1.000000,-1.000000,0.000000,0.000000,-1.000000,-1.000000
1312601.563927,1.000000,-2.000000,-3.000000,-8.000000,2.000000,0.000000,-3.000000,2.000000
1312601.586523,-1.000000,-2.000000,-4.000000,5.000000,-7.000000,-2.000000,-1.000000,2.000000
1312601.586576,-3.000000,-1.000000,0.000000,-4.000000,-3.000000,-2.000000,-1.000000,-1.000000
1312601.593969,1.000000,1.000000,0.000000,-6.000000,4.000000,-2.000000,2.000000,-1.000000
1312601.593999,0.000000,-2.000000,-3.000000,1.000000,-2.000000,0.000000,1.000000,0.000000
1312601.601833,-6.000000,-2.000000,0.000000,3.000000,-2.000000,-4.000000,2.000000,-1.000000
1312601.601865,4.000000,-2.000000,2.000000,-9.000000,-1.000000,-3.000000,-1.000000,2.000000
1312601.602385,4.000000,2.000000,2.000000,0.000000,1.000000,-1.000000,0.000000,-1.000000
1312601.602394,-3.000000,0.000000,-1.000000,4.000000,-4.000000,1.000000,1.000000,-3.000000
1312601.616727,0.000000,-3.000000,0.000000,-3.000000,1.000000,1.000000,-1.000000,-3.000000
1312601.616740,2.000000,0.000000,1.000000,-3.000000,4.000000,-2.000000,-2.000000,0.000000
1312601.623960,-1.000000,0.000000,-4.000000,6.000000,-5.000000,-2.000000,1.000000,1.000000
1312601.623976,-1.000000,0.000000,-1.000000,-2.000000,-2.000000,1.000000,0.000000,-2.000000
1312601.638894,0.000000,-3.000000,0.000000,-8.000000,3.000000,-1.000000,-3.000000,-2.000000
1312601.638907,1.000000,-1.000000,-5.000000,0.000000,-3.000000,-2.000000,-1.000000,2.000000
1312601.639351,-1.000000,4.000000,-7.000000,-2.000000,-5.000000,-6.000000,-3.000000,-1.000000
1312601.639362,-3.000000,-9.000000,3.000000,-3.000000,6.000000,0.000000,-2.000000,0.000000
1312601.654905,-3.000000,-5.000000,0.000000,3.000000,2.000000,5.000000,0.000000,2.000000
1312601.654932,-3.000000,0.000000,-1.000000,7.000000,-7.000000,1.000000,-3.000000,-2.000000
1312601.663338,-1.000000,1.000000,-2.000000,1.000000,2.000000,-4.000000,-1.000000,-6.000000
1312601.663375,3.000000,-2.000000,-3.000000,-8.000000,2.000000,-4.000000,-1.000000,1.000000
1312601.676814,-1.000000,0.000000,-3.000000,6.000000,-2.000000,-2.000000,-1.000000,-3.000000
1312601.676830,-2.000000,1.000000,-2.000000,-4.000000,-2.000000,-2.000000,3.000000,-2.000000
1312601.714294,0.000000,-4.000000,2.000000,-9.000000,-1.000000,0.000000,-2.000000,-1.000000
1312601.714325,0.000000,1.000000,-1.000000,0.000000,-3.000000,0.000000,0.000000,-3.000000
1312601.721641,-5.000000,-1.000000,3.000000,2.000000,-4.000000,0.000000,0.000000,0.000000
1312601.721652,0.000000,-4.000000,-1.000000,-6.000000,2.000000,-3.000000,0.000000,-1.000000
1312601.737003,-1.000000,-2.000000,-1.000000,2.000000,0.000000,3.000000,-3.000000,1.000000
1312601.737013,-2.000000,-2.000000,-3.000000,4.000000,-4.000000,1.000000,1.000000,-1.000000
1312601.737487,-3.000000,0.000000,-2.000000,-2.000000,0.000000,-6.000000,-1.000000,-3.000000
1312601.737505,4.000000,-1.000000,-1.000000,-2.000000,2.000000,0.000000,-1.000000,1.000000
1312601.738771,-3.000000,-2.000000,-5.000000,8.000000,-4.000000,2.000000,2.000000,-1.000000
1312601.738787,-3.000000,-3.000000,1.000000,0.000000,-1.000000,0.000000,-1.000000,-4.000000
1312601.739705,-2.000000,-3.000000,-2.000000,-6.000000,4.000000,0.000000,0.000000,2.000000
1312601.739714,1.000000,-3.000000,1.000000,-1.000000,-2.000000,1.000000,-1.000000,-1.000000
1312601.744395,-5.000000,2.000000,-2.000000,6.000000,3.000000,-1.000000,1.000000,-2.000000
1312601.744404,-4.000000,1.000000,-3.000000,-17.000000,-3.000000,-3.000000,-2.000000,-2.000000
1312601.751418,-2.000000,-3.000000,2.000000,12.000000,10.000000,4.000000,0.000000,2.000000
1312601.751445,-4.000000,3.000000,-3.000000,1.000000,-7.000000,-3.000000,-4.000000,0.000000
1312601.774911,0.000000,0.000000,2.000000,-8.000000,1.000000,-6.000000,-2.000000,-2.000000
1312601.774938,2.000000,1.000000,-3.000000,-4.000000,3.000000,0.000000,1.000000,-1.000000
1312601.775302,-2.000000,-1.000000,-2.000000,6.000000,-4.000000,2.000000,-1.000000,-1.000000
1312601.775311,0.000000,1.000000,-2.000000,-8.000000,-8.000000,-3.000000,-1.000000,-2.000000
1312601.782139,-1.000000,0.000000,-1.000000,-9.000000,5.000000,-1.000000,-1.000000,1.000000
1312601.782182,-3.000000,1.000000,0.000000,3.000000,-2.000000,3.000000,0.000000,-2.000000
1312601.796373,-9.000000,-9.000000,1.000000,7.000000,1.000000,3.000000,-1.000000,-5.000000
1312601.796402,-3.000000,1.000000,0.000000,-8.000000,2.000000,-5.000000,1.000000,-1.000000
1312601.833952,-3.000000,0.000000,2.000000,0.000000,-4.000000,1.000000,-4.000000,-4.000000
1312601.833962,-2.000000,-2.000000,-2.000000,8.000000,-5.000000,1.000000,0.000000,-2.000000
1312601.841422,0.000000,0.000000,-4.000000,-6.000000,0.000000,-3.000000,0.000000,-1.000000
1312601.841450,2.000000,1.000000,-3.000000,-4.000000,1.000000,-1.000000,1.000000,-2.000000
1312601.878922,-4.000000,-2.000000,0.000000,8.000000,-7.000000,1.000000,1.000000,1.000000
1312601.878938,-2.000000,-1.000000,4.000000,-9.000000,-3.000000,1.000000,-1.000000,1.000000
1312601.879225,-1.000000,-6.000000,1.000000,-6.000000,5.000000,1.000000,-1.000000,0.000000
1312601.879233,-1.000000,-2.000000,-3.000000,3.000000,-2.000000,2.000000,-4.000000,0.000000
1312601.880627,2.000000,-1.000000,1.000000,5.000000,-2.000000,-1.000000,-4.000000,-1.000000
1312601.880646,3.000000,-3.000000,-2.000000,-7.000000,3.000000,0.000000,2.000000,-4.000000
1312601.881159,-1.000000,2.000000,-3.000000,-1.000000,0.000000,-3.000000,0.000000,-1.000000
1312601.881168,3.000000,8.000000,-4.000000,1.000000,-7.000000,-5.000000,-3.000000,-1.000000
1312601.881772,-3.000000,1.000000,-2.000000,3.000000,-7.000000,0.000000,0.000000,-2.000000
1312601.881780,-4.000000,-2.000000,-1.000000,-2.000000,0.000000,0.000000,0.000000,0.000000
1312601.894243,-3.000000,-3.000000,-2.000000,2.000000,-2.000000,-2.000000,0.000000,-2.000000
1312601.894256,-1.000000,-5.000000,-2.000000,-7.000000,2.000000,0.000000,1.000000,0.000000
1312601.902242,2.000000,-1.000000,-1.000000,-1.000000,-1.000000,-1.000000,0.000000,-1.000000
1312601.902253,-5.000000,-3.000000,0.000000,1.000000,-11.000000,-3.000000,1.000000,0.000000
1312601.916471,0.000000,0.000000,1.000000,0.000000,5.000000,-3.000000,-3.000000,-1.000000
1312601.916483,0.000000,-2.000000,-3.000000,-5.000000,0.000000,-1.000000,0.000000,-2.000000
1312601.931828,-3.000000,2.000000,2.000000,4.000000,-1.000000,0.000000,-1.000000,0.000000
1312601.931838,2.000000,4.000000,0.000000,-1.000000,-3.000000,-2.000000,2.000000,-4.000000
1312601.932618,-2.000000,-2.000000,-3.000000,-8.000000,3.000000,2.000000,0.000000,0.000000
1312601.932628,-2.000000,-1.000000,0.000000,1.000000,-3.000000,0.000000,2.000000,-2.000000
1312601.946726,-2.000000,-3.000000,-2.000000,1.000000,-5.000000,-2.000000,0.000000,-3.000000
1312601.946736,-1.000000,-7.000000,3.000000,-7.000000,1.000000,0.000000,0.000000,1.000000
1312601.954152,-3.000000,-1.000000,-4.000000,-2.000000,1.000000,-2.000000,-3.000000,-2.000000
1312601.954163,1.000000,0.000000,1.000000,3.000000,-3.000000,0.000000,0.000000,0.000000
1312601.991717,2.000000,-9.000000,0.000000,-7.000000,-2.000000,-3.000000,0.000000,0.000000
1312601.991726,-2.000000,-3.000000,0.000000,-1.000000,2.000000,2.000000,1.000000,2.000000
1312601.999154,-3.000000,1.000000,-1.000000,7.000000,-2.000000,3.000000,2.000000,-5.000000
1312601.999166,-1.000000,-3.000000,-1.000000,-1.000000,-5.000000,-6.000000,-2.000000,0.000000
1312602.014857,0.000000,-1.000000,-1.000000,-4.000000,-1.000000,1.000000,-2.000000,-1.000000
1312602.014972,-2.000000,-5.000000,-1.000000,4.000000,-2.000000,1.000000,-1.000000,-4.000000
1312602.015199,-2.000000,0.000000,2.000000,4.000000,-2.000000,-3.000000,-1.000000,-4.000000
1312602.015208,2.000000,-2.000000,-3.000000,-2.000000,4.000000,-2.000000,-1.000000,-1.000000
1312602.016349,1.000000,-2.000000,-3.000000,-14.000000,-6.000000,-1.000000,0.000000,-1.000000
1312602.016377,-3.000000,-4.000000,-2.000000,5.000000,-4.000000,-1.000000,3.000000,-3.000000
1312602.017258,0.000000,-3.000000,0.000000,-8.000000,1.000000,-5.000000,0.000000,1.000000
1312602.017267,0.000000,-1.000000,-3.000000,-1.000000,1.000000,2.000000,-1.000000,0.000000
1312602.029118,-2.000000,0.000000,-4.000000,6.000000,-6.000000,1.000000,0.000000,0.000000
1312602.029142,0.000000,-1.000000,1.000000,-3.000000,1.000000,-3.000000,-2.000000,0.000000
1312602.036505,1.000000,-2.000000,3.000000,-9.000000,-1.000000,-1.000000,2.000000,0.000000
1312602.036514,-4.000000,-3.000000,-3.000000,7.000000,-1.000000,0.000000,-1.000000,-2.000000
1312602.073944,0.000000,0.000000,0.000000,0.000000,-5.000000,-3.000000,-5.000000,0.000000
1312602.073972,2.000000,1.000000,-2.000000,-8.000000,4.000000,-3.000000,0.000000,-2.000000
1312602.096710,0.000000,-1.000000,0.000000,5.000000,0.000000,4.000000,0.000000,-1.000000
1312602.096724,0.000000,-1.000000,-1.000000,4.000000,-4.000000,-4.000000,0.000000,-4.000000
1312602.111946,4.000000,-2.000000,-1.000000,-9.000000,0.000000,2.000000,-1.000000,0.000000
1312602.111970,0.000000,-5.000000,-2.000000,-3.000000,-1.000000,1.000000,-1.000000,-3.000000
1312602.112394,-3.000000,1.000000,-2.000000,5.000000,-9.000000,-3.000000,-1.000000,2.000000
1312602.112416,-3.000000,-4.000000,0.000000,-3.000000,0.000000,-2.000000,-1.000000,-2.000000
1312602.113896,-2.000000,-1.000000,-2.000000,-2.000000,7.000000,0.000000,3.000000,-1.000000
1312602.113905,-2.000000,2.000000,-2.000000,7.000000,-1.000000,1.000000,2.000000,0.000000
1312602.114390,-3.000000,-1.000000,-2.000000,1.000000,-4.000000,-1.000000,-2.000000,-3.000000
1312602.114398,3.000000,-2.000000,-1.000000,-8.000000,4.000000,-1.000000,-2.000000,-1.000000
1312602.115310,2.000000,-6.000000,-4.000000,-5.000000,1.000000,-4.000000,0.000000,2.000000
1312602.115323,-4.000000,-2.000000,0.000000,5.000000,1.000000,0.000000,-2.000000,-2.000000
1312602.119403,-3.000000,2.000000,1.000000,7.000000,-3.000000,-3.000000,0.000000,-2.000000
1312602.119417,-1.000000,0.000000,0.000000,-3.000000,0.000000,-1.000000,-1.000000,-1.000000
1312602.134172,1.000000,-2.000000,-1.000000,-8.000000,0.000000,-2.000000,-2.000000,2.000000
1312602.134183,-4.000000,2.000000,1.000000,1.000000,-4.000000,0.000000,0.000000,0.000000
1312602.148969,-2.000000,1.000000,0.000000,3.000000,-1.000000,-3.000000,0.000000,0.000000
1312602.148979,-1.000000,1.000000,3.000000,-10.000000,2.000000,-4.000000,-1.000000,-3.000000
1312602.156640,-3.000000,-5.000000,-1.000000,4.000000,0.000000,2.000000,3.000000,1.000000
1312602.156663,-2.000000,-4.000000,-2.000000,4.000000,-8.000000,0.000000,-1.000000,0.000000
1312602.194209,-3.000000,1.000000,1.000000,-6.000000,2.000000,-2.000000,-1.000000,0.000000
1312602.194220,0.000000,2.000000,-1.000000,2.000000,-5.000000,-2.000000,0.000000,2.000000
1312602.208800,-3.000000,3.000000,0.000000,8.000000,-5.000000,-2.000000,2.000000,1.000000
1312602.208815,1.000000,-3.000000,-1.000000,-3.000000,2.000000,-3.000000,1.000000,-1.000000
1312602.209958,-3.000000,-7.000000,1.000000,-3.000000,6.000000,1.000000,1.000000,1.000000
1312602.209969,-1.000000,7.000000,-3.000000,0.000000,-7.000000,0.000000,-1.000000,-1.000000
1312602.210516,3.000000,2.000000,0.000000,2.000000,-3.000000,-3.000000,-1.000000,-1.000000
1312602.210524,3.000000,4.000000,3.000000,-7.000000,5.000000,0.000000,0.000000,1.000000
1312602.211766,-1.000000,-2.000000,-1.000000,3.000000,-1.000000,2.000000,-2.000000,-1.000000
1312602.211776,4.000000,1.000000,-3.000000,0.000000,-5.000000,0.000000,-3.000000,0.000000
1312602.212713,-3.000000,-1.000000,0.000000,-6.000000,0.000000,-4.000000,0.000000,1.000000
1312602.212740,-1.000000,-1.000000,-2.000000,-4.000000,-1.000000,-2.000000,-1.000000,-3.000000
1312602.231548,-3.000000,-1.000000,2.000000,2.000000,-8.000000,-2.000000,-3.000000,0.000000
1312602.231561,4.000000,4.000000,-1.000000,-3.000000,-2.000000,-6.000000,-2.000000,-3.000000
1312602.232056,0.000000,-2.000000,-1.000000,-6.000000,4.000000,4.000000,0.000000,-2.000000
1312602.232065,1.000000,7.000000,-3.000000,2.000000,-7.000000,-3.000000,-2.000000,-3.000000
1312602.254257,-1.000000,-1.000000,-1.000000,-3.000000,2.000000,-1.000000,1.000000,0.000000
1312602.254273,-1.000000,-1.000000,2.000000,-8.000000,-2.000000,2.000000,0.000000,2.000000
1312602.255138,-1.000000,-3.000000,-3.000000,5.000000,1.000000,-2.000000,-1.000000,0.000000
1312602.255152,0.000000,0.000000,-2.000000,-5.000000,-7.000000,-4.000000,-5.000000,-1.000000
1312602.276606,-2.000000,-2.000000,-1.000000,-5.000000,1.000000,-4.000000,0.000000,3.000000
1312602.276618,-1.000000,1.000000,-3.000000,0.000000,0.000000,0.000000,-1.000000,-2.000000
1312602.291495,-2.000000,-1.000000,0.000000,8.000000,-6.000000,-2.000000,-2.000000,3.000000
1312602.291505,1.000000,-1.000000,-2.000000,-1.000000,0.000000,-1.000000,-3.000000,0.000000
1312602.314303,-2.000000,-4.000000,-4.000000,-3.000000,2.000000,1.000000,0.000000,-1.000000
1312602.314316,-1.000000,2.000000,3.000000,6.000000,-4.000000,-1.000000,-3.000000,-2.000000
1312602.314775,-4.000000,-2.000000,-3.000000,-6.000000,-3.000000,-3.000000,1.000000,-2.000000
1312602.314813,2.000000,0.000000,-1.000000,-9.000000,7.000000,-2.000000,0.000000,3.000000
1312602.328966,1.000000,3.000000,0.000000,2.000000,3.000000,1.000000,2.000000,-2.000000
1312602.328977,-3.000000,-2.000000,-3.000000,2.000000,-5.000000,0.000000,-3.000000,-3.000000
1312602.336507,3.000000,-3.000000,0.000000,-4.000000,3.000000,-3.000000,-3.000000,-2.000000
1312602.336535,1.000000,-3.000000,-3.000000,-2.000000,-1.000000,-1.000000,1.000000,0.000000
1312602.374107,-5.000000,-1.000000,0.000000,5.000000,-6.000000,0.000000,-1.000000,1.000000
1312602.374119,0.000000,1.000000,2.000000,-4.000000,-2.000000,-3.000000,0.000000,-1.000000
1312602.374485,2.000000,0.000000,-1.000000,-2.000000,0.000000,-1.000000,0.000000,0.000000
1312602.374496,-5.000000,-3.000000,1.000000,9.000000,-5.000000,1.000000,3.000000,-3.000000
1312602.375568,-4.000000,0.000000,1.000000,0.000000,-1.000000,0.000000,-2.000000,0.000000
1312602.375576,-1.000000,1.000000,-3.000000,-11.000000,5.000000,-4.000000,1.000000,-3.000000
1312602.376238,1.000000,2.000000,-2.000000,3.000000,-1.000000,2.000000,1.000000,-1.000000
1312602.376246,-4.000000,3.000000,-2.000000,4.000000,-5.000000,-2.000000,-3.000000,0.000000
1312602.377839,-1.000000,0.000000,0.000000,-11.000000,0.000000,-1.000000,2.000000,1.000000
1312602.377847,-2.000000,-1.000000,-2.000000,-2.000000,-3.000000,2.000000,-4.000000,1.000000
1312602.389031,-1.000000,-3.000000,0.000000,-3.000000,-4.000000,0.000000,0.000000,0.000000
1312602.389054,-2.000000,1.000000,-2.000000,10.000000,-4.000000,-1.000000,-1.000000,-1.000000
1312602.396507,-2.000000,-3.000000,-4.000000,-2.000000,-5.000000,-4.000000,-1.000000,0.000000
1312602.396553,1.000000,-2.000000,-4.000000,-9.000000,0.000000,1.000000,-1.000000,-3.000000
1312602.434023,-2.000000,2.000000,0.000000,3.000000,-2.000000,-2.000000,-1.000000,-1.000000
1312602.434035,-3.000000,-6.000000,3.000000,3.000000,-6.000000,-1.000000,1.000000,0.000000
1312602.449051,2.000000,-1.000000,0.000000,-8.000000,3.000000,-2.000000,-3.000000,-2.000000
1312602.449068,0.000000,-3.000000,1.000000,0.000000,-3.000000,-3.000000,0.000000,0.000000
1312602.450039,-4.000000,0.000000,0.000000,8.000000,-6.000000,1.000000,-1.000000,0.000000
1312602.450070,0.000000,4.000000,-5.000000,-9.000000,-3.000000,-6.000000,1.000000,-3.000000
1312602.450734,8.000000,4.000000,-5.000000,-15.000000,-2.000000,-4.000000,-3.000000,-2.000000
1312602.450744,-2.000000,-2.000000,-3.000000,7.000000,-3.000000,4.000000,-2.000000,-1.000000
1312602.452062,1.000000,-1.000000,0.000000,-1.000000,0.000000,1.000000,-2.000000,0.000000
1312602.452069,2.000000,-4.000000,-2.000000,-5.000000,1.000000,0.000000,1.000000,1.000000
1312602.456668,-3.000000,2.000000,-1.000000,3.000000,-1.000000,-1.000000,-3.000000,-1.000000
1312602.456681,4.000000,1.000000,-1.000000,1.000000,-3.000000,-2.000000,-1.000000,-4.000000
1312602.472085,0.000000,-2.000000,-2.000000,-12.000000,3.000000,-3.000000,-4.000000,-2.000000
1312602.472101,-6.000000,-4.000000,0.000000,4.000000,1.000000,3.000000,2.000000,0.000000
1312602.472746,-4.000000,-1.000000,0.000000,2.000000,-8.000000,-2.000000,-4.000000,-2.000000
1312602.472755,-1.000000,-4.000000,-1.000000,-3.000000,-1.000000,-1.000000,-1.000000,-4.000000
1312602.487034,1.000000,-1.000000,1.000000,-1.000000,0.000000,1.000000,-2.000000,-1.000000
1312602.487062,-3.000000,-2.000000,-3.000000,8.000000,-6.000000,0.000000,1.000000,0.000000
1312602.493917,-2.000000,0.000000,2.000000,-4.000000,-3.000000,-3.000000,1.000000,-2.000000
1312602.493927,1.000000,3.000000,-4.000000,-4.000000,6.000000,2.000000,1.000000,-1.000000
1312602.531412,2.000000,1.000000,-3.000000,-3.000000,-6.000000,0.000000,-1.000000,-3.000000
1312602.531437,1.000000,3.000000,-2.000000,-6.000000,-6.000000,-2.000000,0.000000,0.000000
1312602.546646,3.000000,-2.000000,2.000000,-6.000000,2.000000,-4.000000,-1.000000,0.000000
1312602.546659,0.000000,-1.000000,0.000000,1.000000,-1.000000,0.000000,0.000000,0.000000
1312602.554588,-2.000000,-1.000000,-1.000000,9.000000,-5.000000,0.000000,-1.000000,0.000000
1312602.554600,-2.000000,-3.000000,1.000000,-7.000000,-4.000000,-1.000000,-1.000000,0.000000
1312602.555119,2.000000,1.000000,1.000000,1.000000,6.000000,1.000000,-2.000000,-1.000000
1312602.555131,-4.000000,2.000000,0.000000,10.000000,-3.000000,1.000000,-1.000000,-2.000000
1312602.556313,-1.000000,-1.000000,1.000000,-1.000000,0.000000,-1.000000,0.000000,1.000000
1312602.556323,1.000000,0.000000,-2.000000,-7.000000,2.000000,1.000000,0.000000,-1.000000
1312602.557124,-3.000000,-5.000000,-1.000000,3.000000,-2.000000,-1.000000,0.000000,-1.000000
1312602.557134,-2.000000,1.000000,-1.000000,1.000000,-4.000000,-2.000000,-2.000000,2.000000
1312602.569811,0.000000,-1.000000,-1.000000,-6.000000,3.000000,-2.000000,-2.000000,-1.000000
1312602.569826,0.000000,-1.000000,0.000000,-1.000000,-1.000000,-3.000000,2.000000,-1.000000
1312602.576507,-5.000000,-3.000000,-1.000000,8.000000,0.000000,-3.000000,2.000000,1.000000
1312602.576530,-1.000000,-4.000000,-4.000000,-7.000000,0.000000,-2.000000,-2.000000,-2.000000
1312602.606571,-2.000000,0.000000,-3.000000,-8.000000,-2.000000,-1.000000,-1.000000,0.000000
1312602.606582,-1.000000,1.000000,0.000000,8.000000,-2.000000,1.000000,-1.000000,-1.000000
1312602.614023,-2.000000,-2.000000,-3.000000,-5.000000,-4.000000,-1.000000,1.000000,-3.000000
1312602.614033,1.000000,-3.000000,-1.000000,-7.000000,4.000000,3.000000,-1.000000,-1.000000
1312602.651685,-4.000000,1.000000,-3.000000,5.000000,1.000000,0.000000,-3.000000,-1.000000
1312602.651696,-2.000000,-1.000000,0.000000,2.000000,-4.000000,1.000000,-2.000000,-4.000000
1312602.666864,-2.000000,-3.000000,1.000000,-5.000000,5.000000,0.000000,-1.000000,-2.000000
1312602.666874,0.000000,0.000000,-1.000000,-2.000000,-2.000000,-1.000000,-1.000000,-1.000000
1312602.689151,-3.000000,-2.000000,3.000000,5.000000,-1.000000,-2.000000,-1.000000,-1.000000
1312602.689162,-2.000000,0.000000,0.000000,-4.000000,2.000000,-3.000000,-1.000000,-3.000000
1312602.689735,-2.000000,-1.000000,-2.000000,-9.000000,-3.000000,-1.000000,-1.000000,-3.000000
1312602.689744,0.000000,-3.000000,0.000000,8.000000,-4.000000,0.000000,-3.000000,1.000000
1312602.690494,2.000000,0.000000,-2.000000,-3.000000,-1.000000,-3.000000,-2.000000,-4.000000
1312602.690501,-3.000000,-6.000000,0.000000,-1.000000,4.000000,2.000000,-3.000000,-1.000000
1312602.691172,1.000000,-4.000000,2.000000,-8.000000,5.000000,-2.000000,0.000000,0.000000
1312602.691180,0.000000,1.000000,-4.000000,1.000000,0.000000,0.000000,-1.000000,0.000000
1312602.711488,-3.000000,-1.000000,-1.000000,-3.000000,2.000000,-2.000000,0.000000,-2.000000
1312602.711498,0.000000,-6.000000,1.000000,-3.000000,4.000000,0.000000,1.000000,-5.000000
1312602.726770,-4.000000,-1.000000,-1.000000,5.000000,-5.000000,0.000000,0.000000,0.000000
1312602.726780,-2.000000,-3.000000,-4.000000,0.000000,-1.000000,0.000000,-1.000000,0.000000
1312602.727465,2.000000,-4.000000,-3.000000,-10.000000,4.000000,-3.000000,0.000000,-1.000000
1312602.727473,-2.000000,1.000000,-2.000000,-1.000000,0.000000,2.000000,-1.000000,1.000000
1312602.728904,0.000000,1.000000,-2.000000,4.000000,-7.000000,-4.000000,0.000000,-1.000000
1312602.728932,0.000000,0.000000,1.000000,-8.000000,0.000000,-2.000000,-5.000000,-1.000000
1312602.733990,-2.000000,0.000000,1.000000,-5.000000,2.000000,2.000000,0.000000,-1.000000
1312602.734002,-2.000000,0.000000,0.000000,3.000000,-8.000000,0.000000,0.000000,-3.000000
1312602.749227,-5.000000,-5.000000,-3.000000,2.000000,1.000000,1.000000,0.000000,1.000000
1312602.749240,2.000000,1.000000,-2.000000,-6.000000,3.000000,-4.000000,-2.000000,0.000000
1312602.764148,-2.000000,-1.000000,-2.000000,6.000000,-5.000000,1.000000,0.000000,-1.000000
1312602.764166,0.000000,3.000000,1.000000,1.000000,0.000000,-2.000000,-7.000000,-2.000000
1312602.786661,-1.000000,4.000000,-1.000000,-7.000000,3.000000,1.000000,0.000000,-2.000000
1312602.786673,2.000000,1.000000,-3.000000,0.000000,-3.000000,-1.000000,2.000000,-1.000000
1312602.787140,-9.000000,-9.000000,1.000000,-1.000000,-1.000000,2.000000,1.000000,-3.000000
1312602.787147,3.000000,-1.000000,1.000000,1.000000,4.000000,-4.000000,0.000000,-1.000000
1312602.788199,-2.000000,0.000000,-1.000000,0.000000,-1.000000,-1.000000,0.000000,-2.000000
1312602.788209,-2.000000,-1.000000,-1.000000,4.000000,-5.000000,-2.000000,-1.000000,-1.000000
1312602.809086,0.000000,2.000000,-2.000000,-1.000000,7.000000,0.000000,1.000000,-1.000000
1312602.809104,3.000000,-2.000000,-2.000000,-2.000000,4.000000,2.000000,1.000000,-1.000000
1312602.810143,-3.000000,-4.000000,2.000000,8.000000,-6.000000,0.000000,-3.000000,-2.000000
1312602.810165,-4.000000,-1.000000,-2.000000,1.000000,-1.000000,-2.000000,-3.000000,-1.000000
1312602.816475,2.000000,-3.000000,-1.000000,-12.000000,2.000000,-1.000000,-2.000000,0.000000
1312602.816494,-2.000000,-5.000000,0.000000,4.000000,0.000000,1.000000,2.000000,-3.000000
1312602.824695,-1.000000,0.000000,-4.000000,3.000000,-3.000000,-1.000000,-2.000000,1.000000
1312602.824704,-2.000000,1.000000,1.000000,-5.000000,7.000000,-3.000000,-2.000000,0.000000
1312602.831488,0.000000,0.000000,0.000000,-2.000000,1.000000,1.000000,0.000000,0.000000
1312602.831498,-2.000000,-1.000000,-3.000000,6.000000,-4.000000,1.000000,1.000000,-3.000000
1312602.847299,-5.000000,-2.000000,4.000000,2.000000,4.000000,1.000000,-3.000000,-2.000000
1312602.847312,-1.000000,1.000000,0.000000,-3.000000,0.000000,-1.000000,-4.000000,-3.000000
1312602.853998,1.000000,0.000000,-1.000000,6.000000,-3.000000,1.000000,-1.000000,-3.000000
1312602.854009,2.000000,3.000000,-1.000000,4.000000,-1.000000,2.000000,1.000000,1.000000
1312602.868889,-1.000000,-5.000000,0.000000,-4.000000,6.000000,-4.000000,-3.000000,-1.000000
1312602.868898,-1.000000,-1.000000,1.000000,0.000000,-2.000000,1.000000,0.000000,1.000000
1312602.884181,0.000000,1.000000,-2.000000,2.000000,-5.000000,-1.000000,2.000000,0.000000
1312602.884192,1.000000,-2.000000,-3.000000,-9.000000,0.000000,-1.000000,0.000000,-2.000000
1312602.892197,2.000000,4.000000,-1.000000,-4.000000,-1.000000,-3.000000,-2.000000,-3.000000
1312602.892243,-1.000000,1.000000,-2.000000,7.000000,-5.000000,3.000000,-1.000000,-4.000000
1312602.892741,0.000000,0.000000,0.000000,-6.000000,-3.000000,-3.000000,1.000000,-1.000000
1312602.892750,2.000000,-2.000000,0.000000,-4.000000,3.000000,-1.000000,-1.000000,1.000000
1312602.906540,0.000000,-1.000000,0.000000,11.000000,0.000000,4.000000,-1.000000,0.000000
1312602.906551,3.000000,1.000000,1.000000,-5.000000,-3.000000,-3.000000,0.000000,-1.000000
1312602.928975,1.000000,-3.000000,-2.000000,-8.000000,3.000000,-3.000000,-1.000000,-4.000000
1312602.929021,-1.000000,-3.000000,-1.000000,1.000000,-1.000000,3.000000,-2.000000,-2.000000
1312602.930634,-1.000000,2.000000,1.000000,3.000000,-5.000000,-5.000000,0.000000,-1.000000
1312602.930663,-1.000000,-2.000000,1.000000,-4.000000,6.000000,-2.000000,-1.000000,-1.000000
1312602.944311,-1.000000,-1.000000,0.000000,-8.000000,-9.000000,0.000000,-2.000000,-5.000000
1312602.944340,1.000000,8.000000,-3.000000,6.000000,-6.000000,0.000000,-3.000000,-4.000000
1312602.945428,-2.000000,-3.000000,0.000000,-2.000000,1.000000,0.000000,-1.000000,-1.000000
1312602.945441,1.000000,0.000000,-4.000000,-5.000000,1.000000,-2.000000,-3.000000,-1.000000
1312602.951999,-4.000000,-1.000000,-4.000000,5.000000,-3.000000,1.000000,0.000000,-3.000000
1312602.952031,2.000000,6.000000,0.000000,3.000000,-3.000000,-3.000000,-1.000000,-2.000000
1312602.967107,1.000000,-3.000000,1.000000,-6.000000,1.000000,-3.000000,1.000000,-1.000000
1312602.967130,3.000000,2.000000,-3.000000,3.000000,-1.000000,1.000000,-1.000000,1.000000
1312602.981525,0.000000,1.000000,-1.000000,3.000000,-1.000000,-3.000000,-3.000000,0.000000
1312602.981554,1.000000,-2.000000,-5.000000,-8.000000,1.000000,-5.000000,-1.000000,1.000000
1312602.996693,-1.000000,-4.000000,1.000000,1.000000,-2.000000,0.000000,2.000000,-1.000000
1312602.996719,0.000000,-1.000000,-5.000000,6.000000,-7.000000,0.000000,-1.000000,0.000000
1312603.003917,-2.000000,-3.000000,-1.000000,-1.000000,-1.000000,-3.000000,1.000000,-2.000000
1312603.003927,-3.000000,0.000000,-5.000000,0.000000,0.000000,4.000000,-3.000000,-5.000000
1312603.026678,0.000000,-1.000000,1.000000,5.000000,0.000000,4.000000,1.000000,-2.000000
1312603.026726,1.000000,1.000000,-5.000000,-4.000000,1.000000,-1.000000,0.000000,-3.000000
1312603.027212,1.000000,-3.000000,0.000000,-10.000000,5.000000,-4.000000,-2.000000,-2.000000
1312603.027238,-1.000000,-3.000000,-5.000000,6.000000,-2.000000,0.000000,2.000000,0.000000
1312603.028248,-1.000000,3.000000,-1.000000,4.000000,-5.000000,0.000000,-2.000000,-2.000000
1312603.028256,4.000000,0.000000,-1.000000,-8.000000,-2.000000,-6.000000,-2.000000,-4.000000
1312603.041404,1.000000,-3.000000,-2.000000,1.000000,3.000000,1.000000,-1.000000,-1.000000
1312603.041415,-1.000000,2.000000,-1.000000,4.000000,-3.000000,0.000000,1.000000,-1.000000
1312603.042708,-2.000000,0.000000,2.000000,-6.000000,-3.000000,-2.000000,1.000000,-2.000000
1312603.042723,1.000000,1.000000,0.000000,-4.000000,1.000000,-1.000000,0.000000,1.000000
1312603.056724,-1.000000,-1.000000,2.000000,6.000000,-6.000000,-1.000000,0.000000,0.000000
1312603.056737,-1.000000,2.000000,-2.000000,3.000000,-3.000000,0.000000,0.000000,0.000000
1312603.064597,2.000000,-2.000000,0.000000,-8.000000,0.000000,-2.000000,0.000000,0.000000
1312603.064608,-3.000000,1.000000,-1.000000,6.000000,1.000000,1.000000,-2.000000,-4.000000
1312603.087379,-3.000000,2.000000,3.000000,2.000000,-1.000000,0.000000,-1.000000,-3.000000
1312603.087403,-2.000000,-6.000000,-1.000000,-8.000000,5.000000,-2.000000,-1.000000,-2.000000
1312603.088793,2.000000,0.000000,-3.000000,-1.000000,-3.000000,1.000000,-4.000000,0.000000
1312603.088847,-9.000000,-10.000000,-1.000000,6.000000,-3.000000,2.000000,-1.000000,0.000000
1312603.102854,0.000000,0.000000,2.000000,-6.000000,5.000000,0.000000,0.000000,-1.000000
1312603.102890,0.000000,-3.000000,-3.000000,-2.000000,0.000000,1.000000,0.000000,1.000000
1312603.124119,0.000000,1.000000,-2.000000,8.000000,-4.000000,-1.000000,0.000000,1.000000
1312603.124134,3.000000,-2.000000,-1.000000,-2.000000,-2.000000,-1.000000,0.000000,-3.000000
1312603.146550,1.000000,-1.000000,-2.000000,-7.000000,0.000000,-2.000000,0.000000,2.000000
1312603.146559,-2.000000,-1.000000,-2.000000,1.000000,-3.000000,-3.000000,-1.000000,-1.000000
1312603.169297,-2.000000,0.000000,0.000000,4.000000,0.000000,-4.000000,-1.000000,-1.000000
1312603.169326,1.000000,-1.000000,2.000000,-9.000000,2.000000,0.000000,-3.000000,0.000000
1312603.184323,-2.000000,-2.000000,1.000000,4.000000,-3.000000,0.000000,0.000000,0.000000
1312603.184348,-2.000000,0.000000,-2.000000,2.000000,-6.000000,0.000000,-4.000000,-2.000000
1312603.221464,2.000000,-2.000000,0.000000,-5.000000,1.000000,-3.000000,-2.000000,1.000000
1312603.221473,-3.000000,-8.000000,-2.000000,0.000000,3.000000,0.000000,2.000000,2.000000
1312603.229061,-6.000000,2.000000,-2.000000,7.000000,-5.000000,-1.000000,-3.000000,0.000000
1312603.229081,-3.000000,-2.000000,-1.000000,-3.000000,-3.000000,0.000000,-1.000000,-2.000000
1312603.259179,-2.000000,1.000000,-2.000000,-3.000000,-3.000000,-7.000000,0.000000,1.000000
1312603.259190,2.000000,-6.000000,-2.000000,-7.000000,3.000000,-3.000000,-3.000000,-1.000000
1312603.304242,-1.000000,2.000000,1.000000,-2.000000,3.000000,-1.000000,0.000000,2.000000
1312603.304251,-1.000000,1.000000,-1.000000,2.000000,-1.000000,1.000000,-2.000000,-6.000000
1312603.306992,-3.000000,-1.000000,1.000000,-7.000000,-1.000000,0.000000,-1.000000,-4.000000
1312603.307000,0.000000,-1.000000,-2.000000,-4.000000,2.000000,-1.000000,-2.000000,1.000000
1312603.319132,-1.000000,-1.000000,1.000000,-3.000000,1.000000,1.000000,0.000000,-2.000000
1312603.319164,0.000000,-1.000000,-2.000000,6.000000,-3.000000,1.000000,-1.000000,-3.000000
1312603.326708,-2.000000,-1.000000,-1.000000,-4.000000,-4.000000,-2.000000,-2.000000,-4.000000
1312603.326719,4.000000,-2.000000,-1.000000,-7.000000,4.000000,-3.000000,0.000000,1.000000
1312603.341751,2.000000,0.000000,-2.000000,-2.000000,-4.000000,0.000000,-1.000000,-1.000000
1312603.341761,-4.000000,1.000000,-2.000000,4.000000,-6.000000,-1.000000,-2.000000,-4.000000
1312603.380045,0.000000,0.000000,-2.000000,-8.000000,4.000000,-3.000000,1.000000,-1.000000
1312603.380057,-1.000000,-1.000000,1.000000,0.000000,2.000000,0.000000,-1.000000,0.000000
1312603.380612,-4.000000,0.000000,-3.000000,6.000000,-7.000000,-3.000000,0.000000,2.000000
1312603.380641,-2.000000,-2.000000,1.000000,-3.000000,0.000000,-2.000000,-1.000000,0.000000
1312603.381498,-1.000000,-2.000000,-3.000000,-5.000000,-1.000000,-3.000000,-2.000000,-3.000000
1312603.381506,0.000000,-1.000000,-3.000000,7.000000,-5.000000,0.000000,-2.000000,0.000000
1312603.382081,-1.000000,3.000000,0.000000,-11.000000,-5.000000,-2.000000,-1.000000,0.000000
1312603.382089,-2.000000,0.000000,-4.000000,-8.000000,3.000000,2.000000,-4.000000,-2.000000
1312603.386314,-3.000000,0.000000,-4.000000,-2.000000,3.000000,0.000000,0.000000,-3.000000
1312603.386321,-9.000000,-8.000000,2.000000,7.000000,-1.000000,1.000000,-1.000000,1.000000
1312603.401628,4.000000,3.000000,0.000000,-10.000000,-2.000000,-3.000000,-2.000000,-3.000000
1312603.401679,0.000000,-2.000000,-1.000000,-10.000000,-5.000000,-4.000000,0.000000,-2.000000
1312603.423860,-2.000000,-2.000000,-2.000000,7.000000,-3.000000,-2.000000,0.000000,0.000000
1312603.423870,2.000000,6.000000,-4.000000,-7.000000,0.000000,-3.000000,-1.000000,-4.000000
1312603.424199,2.000000,1.000000,-4.000000,-4.000000,0.000000,3.000000,2.000000,2.000000
1312603.424207,-3.000000,-1.000000,0.000000,1.000000,-4.000000,-1.000000,2.000000,-1.000000
1312603.425674,-1.000000,0.000000,-4.000000,2.000000,1.000000,-4.000000,-3.000000,0.000000
1312603.425701,0.000000,0.000000,0.000000,-7.000000,4.000000,-1.000000,-1.000000,2.000000
1312603.439188,-2.000000,3.000000,0.000000,1.000000,-3.000000,3.000000,-2.000000,-1.000000
1312603.439199,-1.000000,-4.000000,1.000000,0.000000,-2.000000,-4.000000,-2.000000,-2.000000
1312603.454094,0.000000,-5.000000,-1.000000,-6.000000,2.000000,-1.000000,-1.000000,-2.000000
1312603.454123,1.000000,1.000000,-1.000000,-1.000000,3.000000,2.000000,-2.000000,-1.000000
1312603.461355,-2.000000,1.000000,-1.000000,6.000000,-4.000000,0.000000,-4.000000,-1.000000
1312603.461378,-3.000000,-3.000000,1.000000,-2.000000,1.000000,-2.000000,-1.000000,0.000000
1312603.484570,2.000000,-2.000000,-3.000000,-5.000000,1.000000,0.000000,2.000000,1.000000
1312603.484581,-3.000000,1.000000,0.000000,5.000000,-4.000000,1.000000,0.000000,1.000000
1312603.485100,-1.000000,1.000000,0.000000,-1.000000,-3.000000,2.000000,0.000000,-1.000000
1312603.485114,1.000000,-1.000000,-3.000000,-7.000000,3.000000,-2.000000,-1.000000,0.000000
1312603.486906,-1.000000,-3.000000,-3.000000,1.000000,-5.000000,2.000000,-2.000000,-2.000000
1312603.486919,-2.000000,0.000000,-1.000000,4.000000,1.000000,1.000000,-1.000000,-1.000000
1312603.498929,1.000000,-3.000000,2.000000,-8.000000,2.000000,-3.000000,1.000000,-1.000000
1312603.498941,2.000000,0.000000,-5.000000,-2.000000,-1.000000,-1.000000,-1.000000,-1.000000
1312603.506601,-1.000000,1.000000,1.000000,-3.000000,-8.000000,-1.000000,0.000000,-2.000000
1312603.506633,-1.000000,-5.000000,0.000000,-4.000000,2.000000,-4.000000,0.000000,-4.000000
1312603.521357,4.000000,1.000000,-1.000000,-5.000000,0.000000,0.000000,0.000000,0.000000
1312603.521368,-6.000000,2.000000,5.000000,5.000000,-6.000000,2.000000,2.000000,-1.000000
1312603.544502,-2.000000,0.000000,0.000000,1.000000,-1.000000,-2.000000,-3.000000,-2.000000
1312603.544514,2.000000,0.000000,0.000000,-7.000000,2.000000,-2.000000,-3.000000,-2.000000
1312603.544871,0.000000,-3.000000,-3.000000,5.000000,0.000000,1.000000,0.000000,1.000000
1312603.544885,1.000000,0.000000,0.000000,-3.000000,-4.000000,-4.000000,0.000000,-3.000000
1312603.546003,0.000000,0.000000,-3.000000,-6.000000,2.000000,-2.000000,-2.000000,0.000000
