# participant_id: P12
# gesture: baseline
# trial_number: 1
# stream_name: Myo_EMG
# stream_type: emg
# timestamp: 20260420_175333
# samples: 5624
# duration_sec: 30.526
# nominal_sample_rate: 200.0
# effective_sample_rate: 184.21
#
timestamp,emg_1,emg_2,emg_3,emg_4,emg_5,emg_6,emg_7,emg_8
1312305.470867,16.000000,5.000000,13.000000,-19.000000,3.000000,2.000000,-2.000000,7.000000
1312305.470889,-24.000000,6.000000,-17.000000,30.000000,-10.000000,14.000000,1.000000,-7.000000
1312305.493405,-1.000000,-2.000000,5.000000,-11.000000,5.000000,-9.000000,-3.000000,-15.000000
1312305.493417,-9.000000,-11.000000,21.000000,-43.000000,15.000000,-1.000000,15.000000,9.000000
1312305.500917,-2.000000,5.000000,-13.000000,14.000000,-7.000000,3.000000,2.000000,-3.000000
1312305.500927,-19.000000,2.000000,-12.000000,20.000000,-3.000000,-10.000000,-3.000000,-8.000000
1312305.508784,16.000000,-10.000000,17.000000,-31.000000,9.000000,-13.000000,-9.000000,2.000000
1312305.508800,23.000000,4.000000,-4.000000,9.000000,-7.000000,4.000000,5.000000,3.000000
1312305.510080,17.000000,0.000000,3.000000,-11.000000,8.000000,0.000000,0.000000,12.000000
1312305.510090,-16.000000,10.000000,-14.000000,33.000000,-12.000000,14.000000,9.000000,-8.000000
1312305.511583,-4.000000,7.000000,-10.000000,12.000000,-5.000000,3.000000,3.000000,3.000000
1312305.511591,-19.000000,0.000000,-12.000000,7.000000,-5.000000,-7.000000,-5.000000,-7.000000
1312305.523732,15.000000,-14.000000,18.000000,-40.000000,12.000000,-5.000000,3.000000,3.000000
1312305.523742,-2.000000,0.000000,-9.000000,6.000000,1.000000,4.000000,5.000000,-1.000000
1312305.546204,-27.000000,1.000000,-22.000000,32.000000,-14.000000,6.000000,12.000000,-5.000000
1312305.546234,11.000000,-3.000000,9.000000,-16.000000,2.000000,-6.000000,14.000000,0.000000
1312305.568527,14.000000,0.000000,13.000000,-18.000000,6.000000,-4.000000,-6.000000,6.000000
1312305.568537,-22.000000,6.000000,-20.000000,39.000000,-14.000000,7.000000,11.000000,-6.000000
1312305.584205,3.000000,0.000000,10.000000,-14.000000,3.000000,-3.000000,-5.000000,1.000000
1312305.584215,20.000000,-5.000000,20.000000,-37.000000,7.000000,-6.000000,-4.000000,8.000000
1312305.584590,-8.000000,4.000000,-9.000000,20.000000,-7.000000,5.000000,0.000000,-5.000000
1312305.584598,-11.000000,-4.000000,-7.000000,8.000000,-8.000000,-5.000000,0.000000,-8.000000
1312305.586506,25.000000,-20.000000,19.000000,-41.000000,6.000000,-13.000000,-6.000000,5.000000
1312305.586519,-11.000000,2.000000,-3.000000,11.000000,-5.000000,11.000000,20.000000,6.000000
1312305.605945,-10.000000,1.000000,-22.000000,36.000000,-13.000000,0.000000,-6.000000,-20.000000
1312305.605995,-19.000000,-8.000000,11.000000,-20.000000,5.000000,-9.000000,-6.000000,-10.000000
1312305.606309,17.000000,-1.000000,2.000000,-6.000000,2.000000,9.000000,-3.000000,2.000000
1312305.606335,-40.000000,6.000000,-21.000000,39.000000,-12.000000,16.000000,6.000000,-10.000000
1312305.606963,6.000000,-11.000000,4.000000,-11.000000,2.000000,-9.000000,-5.000000,2.000000
1312305.606972,23.000000,-10.000000,18.000000,-30.000000,10.000000,-7.000000,-1.000000,8.000000
1312305.608408,-17.000000,13.000000,-10.000000,22.000000,-12.000000,0.000000,-2.000000,5.000000
1312305.608435,-16.000000,-8.000000,-6.000000,6.000000,-3.000000,-5.000000,-2.000000,-8.000000
1312305.621162,20.000000,-11.000000,21.000000,-41.000000,16.000000,-11.000000,14.000000,1.000000
1312305.621173,-2.000000,4.000000,-7.000000,13.000000,-7.000000,9.000000,-5.000000,4.000000
1312305.643584,-24.000000,5.000000,-24.000000,33.000000,-10.000000,3.000000,4.000000,-12.000000
1312305.643612,11.000000,-6.000000,9.000000,-23.000000,5.000000,-8.000000,-9.000000,1.000000
1312305.650916,8.000000,3.000000,8.000000,-1.000000,4.000000,5.000000,1.000000,8.000000
1312305.650927,-25.000000,13.000000,-30.000000,44.000000,-8.000000,14.000000,1.000000,-9.000000
1312305.665926,5.000000,-4.000000,7.000000,-14.000000,-1.000000,-10.000000,-7.000000,0.000000
1312305.665937,19.000000,-7.000000,20.000000,-41.000000,13.000000,-8.000000,-6.000000,6.000000
1312305.681242,-7.000000,8.000000,-16.000000,19.000000,-3.000000,7.000000,6.000000,1.000000
1312305.681253,-17.000000,-4.000000,-7.000000,8.000000,-3.000000,-5.000000,-3.000000,-12.000000
1312305.695851,26.000000,-15.000000,26.000000,-44.000000,14.000000,-11.000000,-4.000000,5.000000
1312305.695861,16.000000,2.000000,-7.000000,12.000000,-2.000000,0.000000,-1.000000,1.000000
1312305.703432,-71.000000,3.000000,-20.000000,27.000000,-14.000000,1.000000,-8.000000,-11.000000
1312305.703461,25.000000,-4.000000,18.000000,-23.000000,6.000000,4.000000,8.000000,3.000000
1312305.733813,8.000000,4.000000,0.000000,-9.000000,2.000000,2.000000,-2.000000,7.000000
1312305.733842,-20.000000,9.000000,-27.000000,44.000000,-15.000000,8.000000,11.000000,-8.000000
1312305.740801,7.000000,0.000000,8.000000,-15.000000,1.000000,-9.000000,-22.000000,0.000000
1312305.740812,16.000000,-14.000000,16.000000,-45.000000,15.000000,-3.000000,6.000000,10.000000
1312305.763645,-11.000000,5.000000,-16.000000,21.000000,-1.000000,6.000000,-3.000000,-7.000000
1312305.763655,-11.000000,-3.000000,-4.000000,3.000000,-6.000000,-6.000000,-6.000000,-5.000000
1312305.786033,32.000000,-13.000000,24.000000,-49.000000,15.000000,-10.000000,-11.000000,13.000000
1312305.786043,-18.000000,2.000000,-8.000000,16.000000,-2.000000,6.000000,1.000000,-4.000000
1312305.823367,-5.000000,5.000000,-6.000000,16.000000,-10.000000,-3.000000,-3.000000,-7.000000
1312305.823377,-4.000000,-5.000000,1.000000,1.000000,-1.000000,-1.000000,1.000000,-5.000000
1312305.824472,29.000000,-16.000000,28.000000,-49.000000,9.000000,-19.000000,-6.000000,6.000000
1312305.824483,-9.000000,3.000000,-7.000000,10.000000,-5.000000,2.000000,1.000000,-1.000000
1312305.826566,26.000000,-5.000000,26.000000,-46.000000,11.000000,-13.000000,-8.000000,7.000000
1312305.826608,1.000000,3.000000,-12.000000,8.000000,-8.000000,5.000000,-3.000000,-5.000000
1312305.827352,-27.000000,0.000000,-12.000000,34.000000,-5.000000,2.000000,13.000000,-3.000000
1312305.827372,19.000000,-3.000000,10.000000,-20.000000,6.000000,-3.000000,-6.000000,2.000000
1312305.838525,4.000000,4.000000,-2.000000,6.000000,-3.000000,5.000000,-1.000000,2.000000
1312305.838562,-24.000000,12.000000,-23.000000,48.000000,-16.000000,5.000000,6.000000,-11.000000
1312305.845945,7.000000,-8.000000,10.000000,-16.000000,0.000000,-6.000000,-2.000000,-2.000000
1312305.845955,18.000000,-10.000000,15.000000,-32.000000,4.000000,-2.000000,-1.000000,7.000000
1312305.861159,-8.000000,4.000000,-12.000000,24.000000,-3.000000,6.000000,6.000000,-4.000000
1312305.861171,0.000000,-3.000000,6.000000,-6.000000,4.000000,-10.000000,-1.000000,-8.000000
1312305.862192,31.000000,-15.000000,23.000000,-43.000000,11.000000,-6.000000,-6.000000,13.000000
1312305.862201,-8.000000,3.000000,-12.000000,8.000000,-3.000000,0.000000,-3.000000,-4.000000
1312305.883530,-1.000000,6.000000,-16.000000,26.000000,-12.000000,-1.000000,0.000000,-6.000000
1312305.883546,36.000000,-5.000000,11.000000,-21.000000,5.000000,-8.000000,-8.000000,11.000000
1312305.906721,1.000000,3.000000,-3.000000,11.000000,-4.000000,10.000000,-11.000000,-7.000000
1312305.906747,-30.000000,14.000000,-27.000000,38.000000,-11.000000,5.000000,15.000000,-10.000000
1312305.921011,-1.000000,0.000000,10.000000,-15.000000,3.000000,-13.000000,-10.000000,-3.000000
1312305.921036,16.000000,-5.000000,12.000000,-22.000000,2.000000,0.000000,-1.000000,11.000000
1312305.959142,-6.000000,2.000000,-16.000000,24.000000,-7.000000,4.000000,-10.000000,-5.000000
1312305.959165,10.000000,-9.000000,2.000000,-2.000000,1.000000,-8.000000,12.000000,4.000000
1312305.959834,5.000000,-15.000000,26.000000,-37.000000,12.000000,-4.000000,-12.000000,5.000000
1312305.959851,-6.000000,8.000000,-11.000000,13.000000,-6.000000,4.000000,1.000000,-7.000000
1312305.961136,-1.000000,7.000000,-17.000000,20.000000,-11.000000,-7.000000,0.000000,-4.000000
1312305.961154,13.000000,-3.000000,11.000000,-28.000000,8.000000,-12.000000,-6.000000,0.000000
1312305.962012,-1.000000,1.000000,-8.000000,9.000000,0.000000,8.000000,1.000000,2.000000
1312305.962027,-25.000000,8.000000,-23.000000,37.000000,-11.000000,5.000000,-2.000000,-8.000000
1312305.965967,8.000000,-12.000000,18.000000,-33.000000,11.000000,0.000000,-9.000000,0.000000
1312305.965987,0.000000,12.000000,-5.000000,19.000000,-6.000000,5.000000,4.000000,2.000000
1312305.980889,-17.000000,-2.000000,-12.000000,20.000000,-1.000000,-6.000000,-4.000000,-13.000000
1312305.980899,16.000000,-6.000000,13.000000,-28.000000,6.000000,-7.000000,4.000000,1.000000
1312305.982161,-24.000000,-1.000000,-10.000000,3.000000,-1.000000,10.000000,14.000000,-5.000000
1312305.982169,-22.000000,2.000000,-25.000000,37.000000,-13.000000,4.000000,1.000000,-4.000000
1312306.003484,11.000000,-5.000000,10.000000,-11.000000,0.000000,-7.000000,-6.000000,4.000000
1312306.003512,-5.000000,3.000000,13.000000,-15.000000,9.000000,-3.000000,5.000000,7.000000
1312306.025986,-12.000000,6.000000,-16.000000,33.000000,-8.000000,3.000000,5.000000,-4.000000
1312306.025997,10.000000,1.000000,4.000000,-13.000000,-4.000000,-10.000000,-9.000000,-3.000000
1312306.040969,16.000000,-6.000000,19.000000,-33.000000,17.000000,-3.000000,-1.000000,10.000000
1312306.040979,1.000000,2.000000,-16.000000,16.000000,-3.000000,2.000000,8.000000,-6.000000
1312306.063779,-10.000000,0.000000,-8.000000,12.000000,-9.000000,-8.000000,-8.000000,-7.000000
1312306.063798,17.000000,-5.000000,14.000000,-40.000000,7.000000,-13.000000,-5.000000,4.000000
1312306.064491,-4.000000,1.000000,-6.000000,7.000000,-5.000000,1.000000,0.000000,3.000000
1312306.064500,-23.000000,8.000000,-20.000000,38.000000,-14.000000,3.000000,4.000000,-7.000000
1312306.065701,17.000000,-1.000000,10.000000,-12.000000,2.000000,-7.000000,-4.000000,-2.000000
1312306.065710,-25.000000,-2.000000,11.000000,-21.000000,9.000000,4.000000,1.000000,5.000000
1312306.066400,-18.000000,9.000000,-22.000000,35.000000,-17.000000,8.000000,1.000000,-5.000000
1312306.066408,6.000000,-9.000000,6.000000,-8.000000,7.000000,-4.000000,5.000000,0.000000
1312306.070740,-12.000000,1.000000,-11.000000,10.000000,-9.000000,-4.000000,-9.000000,4.000000
1312306.070751,21.000000,-10.000000,21.000000,-36.000000,13.000000,-15.000000,3.000000,9.000000
1312306.086139,11.000000,5.000000,-9.000000,17.000000,-8.000000,13.000000,19.000000,3.000000
1312306.086152,-39.000000,7.000000,-19.000000,34.000000,-14.000000,0.000000,-5.000000,-15.000000
1312306.101082,12.000000,-6.000000,9.000000,-18.000000,3.000000,-2.000000,4.000000,0.000000
1312306.101097,13.000000,0.000000,9.000000,-16.000000,2.000000,1.000000,1.000000,7.000000
1312306.102287,-21.000000,14.000000,-21.000000,42.000000,-11.000000,8.000000,6.000000,-5.000000
1312306.102299,-7.000000,-8.000000,7.000000,-12.000000,3.000000,-10.000000,-5.000000,-7.000000
1312306.115856,23.000000,-10.000000,19.000000,-35.000000,15.000000,-6.000000,-3.000000,9.000000
1312306.115866,-5.000000,5.000000,-8.000000,16.000000,-5.000000,3.000000,0.000000,-4.000000
1312306.131047,-11.000000,-2.000000,-9.000000,11.000000,-7.000000,3.000000,-4.000000,-10.000000
1312306.131058,18.000000,-18.000000,24.000000,-43.000000,13.000000,-9.000000,-6.000000,8.000000
1312306.138790,-2.000000,9.000000,-4.000000,19.000000,0.000000,2.000000,9.000000,-1.000000
1312306.138803,-46.000000,3.000000,-19.000000,32.000000,-14.000000,2.000000,-4.000000,-23.000000
1312306.176154,16.000000,-8.000000,9.000000,-24.000000,9.000000,-9.000000,-8.000000,3.000000
1312306.176168,9.000000,4.000000,3.000000,-4.000000,5.000000,10.000000,20.000000,5.000000
1312306.176684,-21.000000,16.000000,-26.000000,43.000000,-12.000000,6.000000,-5.000000,-9.000000
1312306.176695,9.000000,-3.000000,6.000000,-13.000000,3.000000,-7.000000,-12.000000,1.000000
1312306.177558,-10.000000,-13.000000,16.000000,-40.000000,13.000000,-5.000000,-3.000000,0.000000
1312306.177567,-4.000000,6.000000,-11.000000,20.000000,-5.000000,6.000000,1.000000,-11.000000
1312306.178247,-8.000000,-6.000000,-4.000000,11.000000,-5.000000,0.000000,3.000000,-3.000000
1312306.178256,21.000000,-13.000000,26.000000,-40.000000,14.000000,-14.000000,-6.000000,0.000000
1312306.183377,-5.000000,5.000000,-9.000000,9.000000,-7.000000,6.000000,6.000000,-6.000000
1312306.183388,-17.000000,9.000000,-17.000000,39.000000,-6.000000,7.000000,3.000000,-5.000000
1312306.198386,30.000000,-7.000000,7.000000,-22.000000,3.000000,-8.000000,10.000000,-3.000000
1312306.198398,-45.000000,-6.000000,6.000000,-14.000000,6.000000,-2.000000,-10.000000,0.000000
1312306.206088,-28.000000,23.000000,-24.000000,52.000000,-13.000000,8.000000,3.000000,-11.000000
1312306.206098,8.000000,-4.000000,9.000000,-16.000000,2.000000,-8.000000,-6.000000,1.000000
1312306.220871,23.000000,-11.000000,15.000000,-37.000000,10.000000,-7.000000,-1.000000,9.000000
1312306.220881,-9.000000,0.000000,-9.000000,21.000000,-7.000000,9.000000,-1.000000,3.000000
1312306.236902,-9.000000,0.000000,-2.000000,10.000000,0.000000,-6.000000,-19.000000,-6.000000
1312306.236925,17.000000,-16.000000,24.000000,-53.000000,10.000000,-13.000000,5.000000,9.000000
1312306.244141,2.000000,6.000000,-15.000000,19.000000,-7.000000,5.000000,1.000000,-1.000000
1312306.244171,-25.000000,10.000000,-18.000000,38.000000,-14.000000,8.000000,3.000000,-8.000000
1312306.281022,9.000000,-3.000000,17.000000,-23.000000,8.000000,-6.000000,-3.000000,2.000000
1312306.281044,2.000000,5.000000,-1.000000,-8.000000,2.000000,6.000000,1.000000,4.000000
1312306.296399,-26.000000,6.000000,-25.000000,45.000000,-12.000000,9.000000,3.000000,-12.000000
1312306.296409,5.000000,-5.000000,9.000000,-10.000000,5.000000,-6.000000,5.000000,-3.000000
1312306.318742,-11.000000,-11.000000,17.000000,-43.000000,7.000000,-8.000000,-13.000000,21.000000
1312306.318755,-10.000000,14.000000,-8.000000,26.000000,-9.000000,13.000000,15.000000,-3.000000
1312306.341018,-8.000000,-8.000000,-3.000000,1.000000,1.000000,-13.000000,-3.000000,-8.000000
1312306.341036,21.000000,-14.000000,19.000000,-45.000000,11.000000,-13.000000,-2.000000,9.000000
1312306.342058,-1.000000,-2.000000,-7.000000,16.000000,-6.000000,8.000000,-1.000000,1.000000
1312306.342074,-26.000000,4.000000,-18.000000,33.000000,-9.000000,-3.000000,1.000000,-10.000000
1312306.342798,9.000000,-8.000000,10.000000,-25.000000,5.000000,-13.000000,-7.000000,3.000000
1312306.342813,6.000000,3.000000,1.000000,0.000000,5.000000,6.000000,1.000000,5.000000
1312306.343450,24.000000,-3.000000,15.000000,-34.000000,8.000000,-4.000000,-4.000000,6.000000
1312306.343472,-4.000000,5.000000,-9.000000,19.000000,-7.000000,2.000000,0.000000,0.000000
1312306.344890,-9.000000,6.000000,-10.000000,10.000000,-7.000000,5.000000,14.000000,5.000000
1312306.344918,-21.000000,7.000000,-18.000000,35.000000,-7.000000,1.000000,1.000000,-10.000000
1312306.356066,15.000000,-6.000000,10.000000,-20.000000,3.000000,-5.000000,-5.000000,0.000000
1312306.356075,-7.000000,2.000000,-1.000000,0.000000,4.000000,5.000000,1.000000,9.000000
1312306.363771,-23.000000,10.000000,-24.000000,40.000000,-21.000000,8.000000,3.000000,-10.000000
1312306.363781,6.000000,-2.000000,3.000000,-14.000000,5.000000,-4.000000,-2.000000,-2.000000
1312306.393489,19.000000,-7.000000,16.000000,-28.000000,7.000000,0.000000,-3.000000,9.000000
1312306.393507,-11.000000,7.000000,-12.000000,22.000000,-3.000000,0.000000,-3.000000,-11.000000
1312306.400902,4.000000,-6.000000,0.000000,1.000000,-2.000000,-5.000000,7.000000,-1.000000
1312306.400925,22.000000,-11.000000,24.000000,-49.000000,13.000000,-13.000000,-2.000000,-3.000000
1312306.416685,-60.000000,4.000000,-7.000000,6.000000,-5.000000,1.000000,-15.000000,-8.000000
1312306.416694,-17.000000,0.000000,-17.000000,31.000000,-14.000000,10.000000,9.000000,-12.000000
1312306.438348,11.000000,-8.000000,9.000000,-24.000000,10.000000,-9.000000,-1.000000,0.000000
1312306.438361,0.000000,7.000000,-8.000000,9.000000,0.000000,9.000000,-1.000000,4.000000
1312306.439467,-26.000000,2.000000,-24.000000,46.000000,-13.000000,9.000000,4.000000,-8.000000
1312306.439484,8.000000,-5.000000,6.000000,-13.000000,3.000000,-2.000000,-8.000000,-2.000000
1312306.439998,20.000000,-7.000000,15.000000,-37.000000,4.000000,0.000000,2.000000,11.000000
1312306.440006,-22.000000,6.000000,-13.000000,21.000000,-5.000000,2.000000,3.000000,-2.000000
1312306.441436,22.000000,0.000000,-2.000000,-5.000000,0.000000,-11.000000,-4.000000,-3.000000
1312306.441445,30.000000,-13.000000,13.000000,-34.000000,10.000000,-4.000000,12.000000,11.000000
1312306.442243,-5.000000,4.000000,-11.000000,12.000000,-6.000000,1.000000,-4.000000,2.000000
1312306.442251,-17.000000,5.000000,-11.000000,27.000000,-9.000000,-6.000000,-7.000000,-8.000000
1312306.453358,9.000000,-7.000000,8.000000,-25.000000,6.000000,-11.000000,-7.000000,2.000000
1312306.453370,1.000000,7.000000,-9.000000,7.000000,-1.000000,17.000000,3.000000,5.000000
1312306.454070,-30.000000,2.000000,-26.000000,37.000000,-11.000000,6.000000,17.000000,-7.000000
1312306.454080,4.000000,-4.000000,4.000000,-19.000000,4.000000,-5.000000,-4.000000,-2.000000
1312306.476080,20.000000,-5.000000,11.000000,-24.000000,9.000000,0.000000,-1.000000,8.000000
1312306.476092,-14.000000,2.000000,-12.000000,22.000000,-7.000000,5.000000,0.000000,-7.000000
1312306.499133,6.000000,-6.000000,-2.000000,-5.000000,0.000000,-10.000000,-6.000000,-9.000000
1312306.499178,19.000000,-1.000000,23.000000,-39.000000,14.000000,-7.000000,2.000000,9.000000
1312306.521779,10.000000,3.000000,-8.000000,12.000000,-4.000000,-2.000000,-6.000000,2.000000
1312306.521803,-53.000000,-2.000000,-11.000000,27.000000,-7.000000,-1.000000,0.000000,-5.000000
1312306.529420,19.000000,-5.000000,14.000000,-30.000000,6.000000,-7.000000,-2.000000,3.000000
1312306.529466,-7.000000,3.000000,-6.000000,9.000000,-2.000000,9.000000,0.000000,-1.000000
1312306.530360,-27.000000,7.000000,-23.000000,41.000000,-19.000000,1.000000,-1.000000,-2.000000
1312306.530379,10.000000,-5.000000,9.000000,-13.000000,2.000000,-9.000000,-4.000000,-2.000000
1312306.536574,20.000000,0.000000,6.000000,-27.000000,1.000000,-1.000000,-6.000000,8.000000
1312306.536834,-16.000000,5.000000,-23.000000,28.000000,-6.000000,10.000000,13.000000,-1.000000
1312306.537847,-3.000000,-9.000000,4.000000,-9.000000,4.000000,-9.000000,-1.000000,-8.000000
1312306.537870,21.000000,-14.000000,21.000000,-35.000000,12.000000,-8.000000,-3.000000,6.000000
1312306.538417,-10.000000,3.000000,-9.000000,11.000000,-4.000000,3.000000,2.000000,-2.000000
1312306.538455,-13.000000,4.000000,-15.000000,16.000000,-7.000000,-4.000000,-1.000000,-11.000000
1312306.558936,17.000000,-10.000000,12.000000,-25.000000,9.000000,-13.000000,-1.000000,2.000000
1312306.559095,-5.000000,5.000000,-9.000000,11.000000,-3.000000,7.000000,-4.000000,3.000000
1312306.559500,-14.000000,7.000000,-22.000000,39.000000,-12.000000,5.000000,3.000000,-13.000000
1312306.559533,-11.000000,-6.000000,7.000000,-18.000000,0.000000,-2.000000,-1.000000,1.000000
1312306.573954,16.000000,-6.000000,11.000000,-17.000000,3.000000,2.000000,2.000000,6.000000
1312306.573973,-14.000000,9.000000,-18.000000,32.000000,-8.000000,10.000000,-6.000000,-8.000000
1312306.574238,0.000000,-5.000000,4.000000,-13.000000,0.000000,-10.000000,-1.000000,-1.000000
1312306.574247,17.000000,-10.000000,18.000000,-39.000000,11.000000,-10.000000,-6.000000,5.000000
1312306.596039,-11.000000,2.000000,-7.000000,16.000000,-6.000000,8.000000,6.000000,0.000000
1312306.596048,-18.000000,4.000000,-11.000000,9.000000,-10.000000,-8.000000,-7.000000,-12.000000
1312306.611200,22.000000,-9.000000,16.000000,-28.000000,7.000000,-11.000000,13.000000,5.000000
1312306.611210,7.000000,3.000000,-8.000000,4.000000,-4.000000,1.000000,-6.000000,-1.000000
1312306.633419,-25.000000,3.000000,-22.000000,39.000000,-11.000000,3.000000,-8.000000,-8.000000
1312306.633429,9.000000,-7.000000,4.000000,-17.000000,10.000000,-6.000000,-3.000000,-2.000000
1312306.640958,10.000000,0.000000,7.000000,-15.000000,5.000000,3.000000,-5.000000,8.000000
1312306.640987,-20.000000,11.000000,-20.000000,37.000000,-15.000000,3.000000,6.000000,-5.000000
1312306.641980,2.000000,-7.000000,8.000000,-12.000000,4.000000,-8.000000,3.000000,-1.000000
1312306.641988,-6.000000,-13.000000,21.000000,-35.000000,12.000000,-4.000000,-1.000000,10.000000
1312306.642686,-6.000000,7.000000,-6.000000,13.000000,-7.000000,1.000000,-7.000000,-7.000000
1312306.642693,-12.000000,-3.000000,-12.000000,13.000000,-10.000000,-2.000000,1.000000,-7.000000
1312306.648654,17.000000,-7.000000,16.000000,-46.000000,10.000000,-11.000000,-8.000000,3.000000
1312306.648664,8.000000,1.000000,-14.000000,13.000000,-9.000000,10.000000,5.000000,1.000000
1312306.656237,-22.000000,9.000000,-20.000000,33.000000,-14.000000,-2.000000,-3.000000,-10.000000
1312306.656247,4.000000,-6.000000,6.000000,-18.000000,7.000000,-7.000000,-5.000000,0.000000
1312306.671096,7.000000,3.000000,4.000000,-21.000000,5.000000,-3.000000,-3.000000,6.000000
1312306.671136,-19.000000,16.000000,-18.000000,39.000000,-16.000000,8.000000,3.000000,-7.000000
1312306.678199,6.000000,-9.000000,6.000000,-7.000000,4.000000,-9.000000,-3.000000,2.000000
1312306.678209,29.000000,-6.000000,16.000000,-39.000000,11.000000,-2.000000,2.000000,5.000000
1312306.685856,-8.000000,3.000000,-14.000000,20.000000,-5.000000,3.000000,0.000000,-12.000000
1312306.685865,-10.000000,-6.000000,-4.000000,11.000000,-4.000000,-1.000000,36.000000,-1.000000
1312306.693682,21.000000,-12.000000,25.000000,-55.000000,8.000000,-17.000000,-24.000000,-2.000000
1312306.693693,-39.000000,4.000000,-8.000000,13.000000,0.000000,7.000000,1.000000,-5.000000
1312306.731038,-18.000000,4.000000,-18.000000,36.000000,-12.000000,5.000000,-5.000000,-11.000000
1312306.731063,5.000000,-6.000000,11.000000,-27.000000,1.000000,-7.000000,-6.000000,3.000000
1312306.738545,22.000000,6.000000,6.000000,-9.000000,-1.000000,3.000000,0.000000,3.000000
1312306.738556,-24.000000,18.000000,-24.000000,40.000000,-15.000000,6.000000,1.000000,-6.000000
1312306.761020,2.000000,-4.000000,6.000000,-12.000000,8.000000,-11.000000,-6.000000,-1.000000
1312306.761033,21.000000,-4.000000,22.000000,-39.000000,9.000000,-3.000000,-6.000000,8.000000
1312306.775873,1.000000,6.000000,-15.000000,20.000000,-8.000000,11.000000,6.000000,5.000000
1312306.775884,-13.000000,-2.000000,-9.000000,3.000000,-5.000000,3.000000,8.000000,-14.000000
1312306.776825,27.000000,-12.000000,24.000000,-47.000000,13.000000,-15.000000,-5.000000,10.000000
1312306.776833,0.000000,7.000000,-8.000000,21.000000,-3.000000,5.000000,-2.000000,1.000000
1312306.777423,-27.000000,9.000000,-21.000000,40.000000,-12.000000,7.000000,-2.000000,-14.000000
1312306.777430,13.000000,-7.000000,7.000000,-25.000000,3.000000,-7.000000,0.000000,2.000000
1312306.778700,8.000000,2.000000,8.000000,-11.000000,-2.000000,4.000000,1.000000,7.000000
1312306.778708,-27.000000,11.000000,-28.000000,40.000000,-14.000000,9.000000,0.000000,-7.000000
1312306.779616,6.000000,-7.000000,12.000000,-13.000000,1.000000,-10.000000,-4.000000,0.000000
1312306.779624,25.000000,-7.000000,20.000000,-38.000000,12.000000,-8.000000,1.000000,9.000000
1312306.791227,-13.000000,-1.000000,-14.000000,19.000000,-4.000000,-5.000000,-3.000000,-4.000000
1312306.791238,-10.000000,-3.000000,-8.000000,8.000000,-3.000000,-10.000000,-1.000000,-8.000000
1312306.798630,26.000000,-16.000000,24.000000,-52.000000,13.000000,-9.000000,5.000000,8.000000
1312306.798661,-8.000000,3.000000,-7.000000,16.000000,-6.000000,0.000000,7.000000,-1.000000
1312306.806196,-26.000000,9.000000,-18.000000,32.000000,-10.000000,6.000000,1.000000,-14.000000
1312306.806220,24.000000,-10.000000,10.000000,-21.000000,5.000000,-10.000000,-11.000000,8.000000
1312306.851104,30.000000,6.000000,2.000000,0.000000,4.000000,3.000000,23.000000,14.000000
1312306.851116,-15.000000,11.000000,-25.000000,44.000000,-16.000000,9.000000,4.000000,-1.000000
1312306.858676,9.000000,-3.000000,3.000000,-10.000000,4.000000,-3.000000,5.000000,-5.000000
1312306.858698,22.000000,-8.000000,17.000000,-41.000000,13.000000,-2.000000,-5.000000,4.000000
1312306.896263,-10.000000,4.000000,-12.000000,26.000000,-7.000000,8.000000,5.000000,-5.000000
1312306.896295,-13.000000,-6.000000,1.000000,1.000000,-4.000000,-10.000000,-6.000000,-5.000000
1312306.896807,23.000000,-11.000000,29.000000,-47.000000,16.000000,-12.000000,-6.000000,7.000000
1312306.896817,1.000000,11.000000,-13.000000,12.000000,-11.000000,3.000000,4.000000,-1.000000
1312306.911049,-56.000000,4.000000,-25.000000,28.000000,-11.000000,3.000000,1.000000,-10.000000
1312306.911060,13.000000,-7.000000,12.000000,-26.000000,7.000000,-6.000000,-8.000000,-2.000000
1312306.918363,9.000000,5.000000,-1.000000,-3.000000,5.000000,1.000000,2.000000,9.000000
1312306.918391,-34.000000,12.000000,-29.000000,45.000000,-16.000000,10.000000,3.000000,-12.000000
1312306.934292,-15.000000,13.000000,-12.000000,22.000000,-6.000000,4.000000,4.000000,-2.000000
1312306.934320,-9.000000,-8.000000,-3.000000,2.000000,-1.000000,-4.000000,5.000000,-7.000000
1312306.934797,-29.000000,9.000000,-19.000000,37.000000,-12.000000,8.000000,-7.000000,-12.000000
1312306.934823,15.000000,-10.000000,11.000000,-20.000000,8.000000,1.000000,11.000000,7.000000
1312306.935728,-23.000000,9.000000,-2.000000,-1.000000,1.000000,13.000000,3.000000,3.000000
1312306.935736,-10.000000,10.000000,-25.000000,48.000000,-14.000000,6.000000,2.000000,4.000000
1312306.936712,53.000000,-3.000000,9.000000,-14.000000,5.000000,-9.000000,-6.000000,-7.000000
1312306.936720,19.000000,-12.000000,14.000000,-30.000000,12.000000,-4.000000,-4.000000,7.000000
1312306.955890,-2.000000,5.000000,-11.000000,20.000000,-9.000000,-1.000000,2.000000,-3.000000
1312306.955901,-45.000000,-8.000000,1.000000,-7.000000,-5.000000,-11.000000,-7.000000,-16.000000
1312306.963432,31.000000,-15.000000,26.000000,-48.000000,17.000000,-13.000000,-3.000000,8.000000
1312306.963442,-3.000000,6.000000,-12.000000,11.000000,0.000000,5.000000,4.000000,0.000000
1312306.994276,-20.000000,1.000000,-20.000000,30.000000,-12.000000,-3.000000,-5.000000,-11.000000
1312306.994305,9.000000,-7.000000,9.000000,-20.000000,3.000000,-10.000000,-7.000000,2.000000
1312307.008339,2.000000,5.000000,0.000000,7.000000,-4.000000,3.000000,0.000000,1.000000
1312307.008349,-27.000000,8.000000,-24.000000,47.000000,-12.000000,11.000000,3.000000,0.000000
1312307.031123,10.000000,-2.000000,6.000000,-12.000000,6.000000,-11.000000,0.000000,-1.000000
1312307.031152,21.000000,-3.000000,14.000000,-29.000000,9.000000,1.000000,15.000000,11.000000
1312307.038823,-14.000000,8.000000,-13.000000,19.000000,-6.000000,-1.000000,-8.000000,-1.000000
1312307.038855,1.000000,-4.000000,-1.000000,-9.000000,1.000000,-9.000000,1.000000,-6.000000
1312307.053851,27.000000,-12.000000,21.000000,-40.000000,14.000000,3.000000,13.000000,8.000000
1312307.053862,-23.000000,2.000000,-9.000000,9.000000,-11.000000,4.000000,-4.000000,-7.000000
1312307.054459,3.000000,1.000000,-15.000000,30.000000,-12.000000,3.000000,-1.000000,-6.000000
1312307.054486,0.000000,-8.000000,16.000000,-20.000000,7.000000,-4.000000,-3.000000,7.000000
1312307.055100,5.000000,-5.000000,4.000000,-14.000000,4.000000,-2.000000,-8.000000,7.000000
1312307.055109,27.000000,-7.000000,18.000000,-22.000000,9.000000,3.000000,5.000000,9.000000
1312307.056654,28.000000,-11.000000,25.000000,-42.000000,12.000000,-1.000000,4.000000,11.000000
1312307.056664,-8.000000,11.000000,-8.000000,12.000000,-1.000000,4.000000,-1.000000,-7.000000
1312307.076275,-15.000000,0.000000,-14.000000,20.000000,-12.000000,-6.000000,3.000000,-7.000000
1312307.076286,15.000000,-5.000000,14.000000,-28.000000,9.000000,-6.000000,-8.000000,4.000000
1312307.090899,3.000000,1.000000,-3.000000,8.000000,-8.000000,2.000000,2.000000,0.000000
1312307.090909,-28.000000,6.000000,-22.000000,39.000000,-13.000000,5.000000,-16.000000,-9.000000
1312307.121196,-8.000000,-7.000000,7.000000,-19.000000,8.000000,-3.000000,2.000000,-3.000000
1312307.121208,28.000000,-6.000000,13.000000,-23.000000,11.000000,-5.000000,-7.000000,9.000000
1312307.128761,-12.000000,10.000000,-15.000000,30.000000,-5.000000,14.000000,7.000000,-6.000000
1312307.128775,3.000000,-14.000000,6.000000,0.000000,6.000000,-11.000000,-6.000000,-11.000000
1312307.129548,26.000000,-12.000000,21.000000,-44.000000,8.000000,-16.000000,-5.000000,9.000000
1312307.129559,-15.000000,9.000000,-14.000000,18.000000,-3.000000,7.000000,13.000000,-1.000000
1312307.130173,-15.000000,0.000000,-8.000000,17.000000,-8.000000,-3.000000,-7.000000,-5.000000
1312307.130183,16.000000,-8.000000,16.000000,-32.000000,6.000000,-12.000000,-4.000000,0.000000
1312307.131740,13.000000,-7.000000,7.000000,-16.000000,3.000000,-5.000000,2.000000,-3.000000
1312307.131750,20.000000,-1.000000,19.000000,-15.000000,14.000000,4.000000,0.000000,5.000000
1312307.136507,-12.000000,4.000000,-23.000000,31.000000,-8.000000,13.000000,1.000000,-8.000000
1312307.136516,4.000000,-12.000000,7.000000,-8.000000,2.000000,-8.000000,-8.000000,-4.000000
1312307.150933,25.000000,-15.000000,23.000000,-46.000000,11.000000,-10.000000,-3.000000,6.000000
1312307.150944,-4.000000,4.000000,-13.000000,15.000000,-9.000000,0.000000,-6.000000,-11.000000
1312307.174201,-17.000000,4.000000,-6.000000,15.000000,-6.000000,-1.000000,-3.000000,-4.000000
1312307.174218,14.000000,-11.000000,16.000000,-37.000000,10.000000,-10.000000,-12.000000,1.000000
1312307.174886,13.000000,4.000000,-9.000000,14.000000,-4.000000,7.000000,16.000000,-1.000000
1312307.174896,-20.000000,4.000000,-20.000000,30.000000,-13.000000,-3.000000,-9.000000,-10.000000
1312307.196311,8.000000,-11.000000,17.000000,-14.000000,2.000000,-8.000000,-9.000000,-1.000000
1312307.196332,9.000000,5.000000,10.000000,-22.000000,7.000000,7.000000,10.000000,8.000000
1312307.211004,-17.000000,8.000000,-25.000000,31.000000,-13.000000,11.000000,1.000000,-5.000000
1312307.211014,-13.000000,-10.000000,5.000000,-13.000000,2.000000,-2.000000,-8.000000,-4.000000
1312307.233299,27.000000,-6.000000,21.000000,-42.000000,7.000000,-1.000000,-1.000000,7.000000
1312307.233319,-14.000000,4.000000,-11.000000,13.000000,-3.000000,-1.000000,2.000000,-2.000000
1312307.233998,-32.000000,1.000000,-8.000000,13.000000,-11.000000,-6.000000,-6.000000,-17.000000
1312307.234017,23.000000,-16.000000,22.000000,-35.000000,14.000000,-7.000000,2.000000,7.000000
1312307.235129,-20.000000,1.000000,-13.000000,8.000000,-1.000000,7.000000,-3.000000,7.000000
1312307.235137,-22.000000,0.000000,-23.000000,32.000000,-16.000000,9.000000,13.000000,-9.000000
1312307.236215,7.000000,-8.000000,8.000000,-14.000000,5.000000,-15.000000,-8.000000,-4.000000
1312307.236230,16.000000,2.000000,6.000000,-11.000000,7.000000,3.000000,10.000000,5.000000
1312307.248839,-6.000000,10.000000,-25.000000,46.000000,-15.000000,13.000000,0.000000,-11.000000
1312307.248848,-37.000000,-14.000000,7.000000,-25.000000,1.000000,-11.000000,-6.000000,-1.000000
1312307.249745,44.000000,-4.000000,22.000000,-36.000000,10.000000,-7.000000,-6.000000,2.000000
1312307.249753,-10.000000,11.000000,-14.000000,20.000000,-9.000000,5.000000,1.000000,-4.000000
1312307.271785,-11.000000,-1.000000,-13.000000,11.000000,-8.000000,-2.000000,2.000000,-10.000000
1312307.271801,36.000000,-16.000000,18.000000,-53.000000,18.000000,-18.000000,-13.000000,8.000000
1312307.272468,-44.000000,0.000000,-8.000000,9.000000,-3.000000,7.000000,5.000000,-4.000000
1312307.272495,-34.000000,11.000000,-24.000000,35.000000,-10.000000,1.000000,-5.000000,-13.000000
1312307.286506,6.000000,-8.000000,10.000000,-16.000000,7.000000,-15.000000,-14.000000,0.000000
1312307.286516,13.000000,1.000000,8.000000,-12.000000,4.000000,6.000000,13.000000,7.000000
1312307.287389,-25.000000,10.000000,-26.000000,39.000000,-15.000000,5.000000,-1.000000,-6.000000
1312307.287427,-3.000000,-11.000000,5.000000,-8.000000,1.000000,-7.000000,-14.000000,-4.000000
1312307.330870,20.000000,-8.000000,22.000000,-40.000000,16.000000,-4.000000,-6.000000,8.000000
1312307.330881,-7.000000,5.000000,-12.000000,16.000000,-6.000000,3.000000,-1.000000,-2.000000
1312307.346185,-13.000000,-1.000000,-7.000000,12.000000,-5.000000,-7.000000,-6.000000,-20.000000
1312307.346196,27.000000,-10.000000,25.000000,-44.000000,14.000000,-10.000000,-4.000000,11.000000
1312307.368676,-10.000000,3.000000,-7.000000,12.000000,-5.000000,4.000000,-4.000000,-1.000000
1312307.368686,-28.000000,4.000000,-23.000000,36.000000,-12.000000,7.000000,4.000000,-7.000000
1312307.391176,8.000000,-7.000000,10.000000,-27.000000,6.000000,-6.000000,-1.000000,5.000000
1312307.391190,10.000000,5.000000,4.000000,-10.000000,1.000000,5.000000,-2.000000,6.000000
1312307.392071,-27.000000,10.000000,-26.000000,46.000000,-14.000000,14.000000,1.000000,-10.000000
1312307.392081,3.000000,-13.000000,6.000000,-16.000000,3.000000,-12.000000,2.000000,-7.000000
1312307.392616,55.000000,-9.000000,18.000000,-40.000000,13.000000,-2.000000,-5.000000,11.000000
1312307.392626,-9.000000,6.000000,-16.000000,16.000000,-5.000000,5.000000,0.000000,-4.000000
1312307.393231,-6.000000,-5.000000,-8.000000,10.000000,1.000000,-7.000000,1.000000,-9.000000
1312307.393241,28.000000,-15.000000,26.000000,-44.000000,9.000000,-16.000000,-22.000000,7.000000
1312307.393898,-9.000000,3.000000,0.000000,11.000000,-8.000000,10.000000,7.000000,0.000000
1312307.393908,-22.000000,7.000000,-23.000000,39.000000,-14.000000,5.000000,0.000000,-11.000000
1312307.394718,-28.000000,10.000000,-29.000000,49.000000,-19.000000,9.000000,7.000000,-9.000000
1312307.394728,3.000000,1.000000,8.000000,-13.000000,4.000000,-10.000000,-15.000000,-3.000000
1312307.399049,24.000000,-8.000000,17.000000,-41.000000,9.000000,-2.000000,-5.000000,10.000000
1312307.399059,-6.000000,11.000000,-15.000000,19.000000,-10.000000,5.000000,3.000000,-4.000000
1312307.406010,-4.000000,-1.000000,-10.000000,-1.000000,-1.000000,-7.000000,-1.000000,-1.000000
1312307.406021,26.000000,-16.000000,26.000000,-52.000000,10.000000,-16.000000,-2.000000,3.000000
1312307.429412,-1.000000,6.000000,-8.000000,14.000000,-1.000000,7.000000,8.000000,-4.000000
1312307.429437,-25.000000,8.000000,-22.000000,37.000000,-11.000000,2.000000,-1.000000,-12.000000
1312307.451271,9.000000,-9.000000,12.000000,-19.000000,4.000000,-5.000000,-9.000000,-1.000000
1312307.451285,5.000000,2.000000,2.000000,-3.000000,4.000000,12.000000,2.000000,6.000000
1312307.473928,-26.000000,11.000000,-29.000000,52.000000,-15.000000,13.000000,-1.000000,-11.000000
1312307.473944,11.000000,-6.000000,5.000000,-6.000000,2.000000,-5.000000,-6.000000,-3.000000
1312307.488600,24.000000,-8.000000,20.000000,-30.000000,10.000000,-4.000000,-2.000000,7.000000
1312307.488612,-10.000000,6.000000,-13.000000,17.000000,-4.000000,5.000000,-3.000000,-3.000000
1312307.489500,-16.000000,-9.000000,-1.000000,1.000000,-2.000000,-3.000000,-1.000000,-3.000000
1312307.489511,16.000000,-13.000000,22.000000,-54.000000,14.000000,-11.000000,-7.000000,3.000000
1312307.490091,-6.000000,5.000000,-10.000000,14.000000,-9.000000,4.000000,-10.000000,2.000000
1312307.490099,-24.000000,6.000000,-15.000000,32.000000,-14.000000,-2.000000,3.000000,-13.000000
1312307.492028,11.000000,-7.000000,8.000000,-18.000000,6.000000,-5.000000,0.000000,2.000000
1312307.492039,-4.000000,-1.000000,1.000000,2.000000,-2.000000,7.000000,-4.000000,-2.000000
1312307.504318,26.000000,-6.000000,14.000000,-36.000000,8.000000,3.000000,12.000000,9.000000
1312307.504327,-11.000000,3.000000,-16.000000,16.000000,-6.000000,2.000000,-5.000000,-7.000000
1312307.511642,-8.000000,-8.000000,3.000000,2.000000,-5.000000,-14.000000,-9.000000,-3.000000
1312307.511666,21.000000,-13.000000,19.000000,-44.000000,8.000000,-1.000000,9.000000,9.000000
1312307.526127,-17.000000,2.000000,-10.000000,13.000000,-9.000000,3.000000,-4.000000,0.000000
1312307.526139,-11.000000,6.000000,-20.000000,29.000000,-8.000000,0.000000,-2.000000,-11.000000
1312307.526610,3.000000,-7.000000,7.000000,-31.000000,5.000000,-6.000000,-5.000000,2.000000
1312307.526618,7.000000,7.000000,-6.000000,2.000000,-2.000000,5.000000,5.000000,3.000000
1312307.563432,-29.000000,7.000000,-23.000000,44.000000,-16.000000,10.000000,3.000000,-10.000000
1312307.563442,5.000000,-8.000000,11.000000,-18.000000,-5.000000,-8.000000,-1.000000,0.000000
1312307.570947,23.000000,-3.000000,16.000000,-33.000000,10.000000,1.000000,-5.000000,4.000000
1312307.570959,-14.000000,3.000000,-15.000000,18.000000,-6.000000,5.000000,-1.000000,-6.000000
1312307.608474,-7.000000,3.000000,3.000000,-5.000000,-5.000000,-11.000000,-1.000000,-6.000000
1312307.608498,38.000000,-13.000000,21.000000,-41.000000,17.000000,-7.000000,-6.000000,12.000000
1312307.623331,-43.000000,0.000000,-11.000000,8.000000,-5.000000,4.000000,-1.000000,0.000000
1312307.623355,-28.000000,5.000000,-17.000000,30.000000,-10.000000,-3.000000,10.000000,-19.000000
1312307.624426,33.000000,-7.000000,14.000000,-28.000000,8.000000,-7.000000,0.000000,5.000000
1312307.624434,-42.000000,4.000000,0.000000,1.000000,-5.000000,0.000000,-2.000000,2.000000
1312307.625195,-23.000000,11.000000,-28.000000,43.000000,-16.000000,3.000000,-1.000000,-10.000000
1312307.625206,9.000000,-12.000000,10.000000,-12.000000,6.000000,-13.000000,-6.000000,2.000000
1312307.627078,15.000000,-3.000000,11.000000,-27.000000,7.000000,-2.000000,12.000000,-5.000000
1312307.627088,-9.000000,7.000000,-13.000000,24.000000,-6.000000,5.000000,-2.000000,-8.000000
1312307.631237,15.000000,-8.000000,10.000000,-29.000000,4.000000,-14.000000,-1.000000,4.000000
1312307.631248,0.000000,0.000000,-5.000000,9.000000,-9.000000,9.000000,-1.000000,2.000000
1312307.646134,-28.000000,8.000000,-25.000000,39.000000,-17.000000,7.000000,5.000000,-13.000000
1312307.646162,11.000000,-12.000000,9.000000,-19.000000,3.000000,-5.000000,-4.000000,2.000000
1312307.646740,8.000000,-5.000000,9.000000,-23.000000,8.000000,1.000000,1.000000,11.000000
1312307.646767,-9.000000,4.000000,-14.000000,30.000000,-11.000000,6.000000,6.000000,-2.000000
1312307.683713,4.000000,-7.000000,1.000000,-7.000000,-3.000000,-8.000000,-4.000000,-4.000000
1312307.683724,23.000000,-13.000000,19.000000,-38.000000,11.000000,1.000000,-4.000000,8.000000
1312307.691707,-9.000000,-2.000000,-8.000000,18.000000,-3.000000,3.000000,-10.000000,-2.000000
1312307.691745,-16.000000,-1.000000,-14.000000,17.000000,-10.000000,-1.000000,0.000000,-12.000000
1312307.692360,29.000000,-7.000000,20.000000,-26.000000,7.000000,-9.000000,-4.000000,11.000000
1312307.692385,2.000000,8.000000,-5.000000,11.000000,-7.000000,11.000000,2.000000,11.000000
1312307.692992,-24.000000,5.000000,-22.000000,38.000000,-13.000000,4.000000,1.000000,-14.000000
1312307.693019,5.000000,-3.000000,5.000000,-17.000000,8.000000,-7.000000,-6.000000,0.000000
1312307.706433,21.000000,-1.000000,13.000000,-18.000000,6.000000,-2.000000,4.000000,13.000000
1312307.706443,-20.000000,12.000000,-21.000000,37.000000,-7.000000,9.000000,3.000000,-4.000000
1312307.707128,-5.000000,-5.000000,1.000000,-11.000000,3.000000,-8.000000,6.000000,-1.000000
1312307.707153,34.000000,-8.000000,19.000000,-41.000000,11.000000,-10.000000,-9.000000,12.000000
1312307.721117,-8.000000,5.000000,-13.000000,21.000000,-6.000000,11.000000,13.000000,2.000000
1312307.721127,-10.000000,0.000000,-8.000000,12.000000,-9.000000,-5.000000,-6.000000,-12.000000
1312307.728678,11.000000,-7.000000,19.000000,-39.000000,8.000000,-8.000000,-5.000000,5.000000
1312307.728689,1.000000,-2.000000,-9.000000,9.000000,-4.000000,9.000000,1.000000,0.000000
1312307.744253,-25.000000,7.000000,-19.000000,35.000000,-10.000000,3.000000,0.000000,-11.000000
1312307.744270,10.000000,-10.000000,2.000000,-16.000000,7.000000,-8.000000,0.000000,3.000000
1312307.751095,14.000000,-1.000000,8.000000,-16.000000,8.000000,2.000000,3.000000,4.000000
1312307.751105,-22.000000,13.000000,-19.000000,31.000000,-8.000000,11.000000,7.000000,-9.000000
1312307.766574,5.000000,-5.000000,5.000000,-9.000000,4.000000,-11.000000,-3.000000,-1.000000
1312307.766585,20.000000,-7.000000,22.000000,-38.000000,13.000000,-6.000000,-5.000000,10.000000
1312307.781268,-6.000000,4.000000,-7.000000,8.000000,-12.000000,1.000000,-1.000000,-2.000000
1312307.781281,-26.000000,-3.000000,-8.000000,11.000000,-8.000000,-1.000000,-3.000000,-8.000000
1312307.803659,22.000000,-13.000000,21.000000,-41.000000,8.000000,-12.000000,5.000000,4.000000
1312307.803669,-2.000000,2.000000,-8.000000,8.000000,-5.000000,10.000000,6.000000,10.000000
1312307.826166,-21.000000,7.000000,-22.000000,39.000000,-15.000000,6.000000,7.000000,-11.000000
1312307.826180,-1.000000,-2.000000,4.000000,-20.000000,6.000000,0.000000,-4.000000,1.000000
1312307.827085,11.000000,1.000000,4.000000,-16.000000,5.000000,4.000000,2.000000,7.000000
1312307.827095,-20.000000,9.000000,-19.000000,42.000000,-12.000000,11.000000,-1.000000,-12.000000
1312307.827603,-3.000000,-4.000000,8.000000,-17.000000,6.000000,-12.000000,9.000000,-2.000000
1312307.827613,-6.000000,-13.000000,21.000000,-33.000000,14.000000,0.000000,-3.000000,4.000000
1312307.828911,-8.000000,4.000000,-19.000000,16.000000,-7.000000,0.000000,-11.000000,-5.000000
1312307.828921,-48.000000,-2.000000,-1.000000,1.000000,-6.000000,-3.000000,15.000000,-14.000000
1312307.829768,30.000000,-18.000000,27.000000,-42.000000,12.000000,-14.000000,-12.000000,11.000000
1312307.829778,15.000000,3.000000,-15.000000,12.000000,-8.000000,8.000000,-2.000000,1.000000
1312307.842875,-21.000000,7.000000,-18.000000,40.000000,-11.000000,2.000000,-1.000000,-9.000000
1312307.842924,11.000000,-7.000000,11.000000,-25.000000,5.000000,-6.000000,-4.000000,3.000000
1312307.849735,9.000000,-2.000000,4.000000,-7.000000,0.000000,3.000000,1.000000,10.000000
1312307.849763,-23.000000,13.000000,-22.000000,45.000000,-13.000000,9.000000,3.000000,-8.000000
1312307.865208,1.000000,-4.000000,7.000000,-17.000000,4.000000,-4.000000,-8.000000,-2.000000
1312307.865235,23.000000,-4.000000,19.000000,-36.000000,11.000000,2.000000,-7.000000,10.000000
1312307.887209,-10.000000,5.000000,-8.000000,16.000000,-8.000000,1.000000,8.000000,-1.000000
1312307.887239,-13.000000,-8.000000,-10.000000,10.000000,-2.000000,-8.000000,-10.000000,-12.000000
1312307.924183,27.000000,-14.000000,25.000000,-46.000000,9.000000,-16.000000,-9.000000,9.000000
1312307.924198,9.000000,3.000000,-6.000000,12.000000,-3.000000,6.000000,7.000000,-7.000000
1312307.946193,-36.000000,6.000000,-25.000000,43.000000,-15.000000,7.000000,-1.000000,-7.000000
1312307.946209,14.000000,-14.000000,16.000000,-22.000000,5.000000,-9.000000,-5.000000,2.000000
1312307.968230,10.000000,-3.000000,6.000000,-7.000000,6.000000,4.000000,-12.000000,3.000000
1312307.968243,-38.000000,9.000000,-28.000000,49.000000,-14.000000,18.000000,15.000000,-7.000000
1312307.968786,7.000000,-3.000000,9.000000,-13.000000,0.000000,-8.000000,-5.000000,-2.000000
1312307.968793,36.000000,-9.000000,17.000000,-41.000000,10.000000,-6.000000,-17.000000,5.000000
1312307.970474,25.000000,-14.000000,27.000000,-53.000000,8.000000,-13.000000,-7.000000,7.000000
1312307.970485,-7.000000,1.000000,-4.000000,15.000000,-7.000000,9.000000,0.000000,-2.000000
1312307.972292,2.000000,-7.000000,12.000000,-22.000000,5.000000,-9.000000,-4.000000,-4.000000
1312307.972326,25.000000,-5.000000,19.000000,-37.000000,14.000000,-2.000000,-16.000000,11.000000
1312307.984064,28.000000,-15.000000,26.000000,-49.000000,16.000000,-12.000000,-4.000000,8.000000
1312307.984091,-7.000000,7.000000,-12.000000,18.000000,-7.000000,4.000000,0.000000,-4.000000
1312307.990948,-22.000000,10.000000,-16.000000,32.000000,-11.000000,-1.000000,5.000000,-13.000000
1312307.990958,13.000000,-12.000000,18.000000,-28.000000,4.000000,-9.000000,-6.000000,6.000000
1312308.021233,5.000000,3.000000,0.000000,1.000000,-5.000000,6.000000,2.000000,2.000000
1312308.021246,-29.000000,17.000000,-25.000000,48.000000,-14.000000,14.000000,2.000000,-12.000000
1312308.028377,7.000000,1.000000,7.000000,-11.000000,4.000000,-8.000000,1.000000,-5.000000
1312308.028387,25.000000,-11.000000,21.000000,-36.000000,13.000000,-5.000000,-8.000000,8.000000
1312308.058742,-26.000000,6.000000,-10.000000,16.000000,-9.000000,4.000000,1.000000,-10.000000
1312308.058752,-13.000000,-9.000000,-2.000000,3.000000,-4.000000,-7.000000,-3.000000,-5.000000
1312308.066219,27.000000,-14.000000,27.000000,-49.000000,15.000000,-10.000000,0.000000,6.000000
1312308.066248,-12.000000,8.000000,-9.000000,14.000000,-3.000000,10.000000,8.000000,8.000000
1312308.081231,-28.000000,6.000000,-20.000000,28.000000,-13.000000,-5.000000,1.000000,0.000000
1312308.081240,15.000000,-7.000000,7.000000,-22.000000,0.000000,-2.000000,-7.000000,-6.000000
1312308.081926,24.000000,2.000000,-6.000000,8.000000,1.000000,6.000000,8.000000,11.000000
1312308.081935,-26.000000,17.000000,-32.000000,59.000000,-17.000000,23.000000,3.000000,-11.000000
1312308.083264,13.000000,-9.000000,10.000000,-15.000000,7.000000,-9.000000,6.000000,5.000000
1312308.083291,23.000000,-6.000000,24.000000,-31.000000,13.000000,-4.000000,-8.000000,7.000000
1312308.084695,29.000000,-14.000000,28.000000,-47.000000,15.000000,-9.000000,-7.000000,9.000000
1312308.084721,-6.000000,2.000000,-7.000000,20.000000,-4.000000,3.000000,5.000000,0.000000
1312308.103868,-20.000000,4.000000,-18.000000,32.000000,-12.000000,1.000000,-1.000000,-13.000000
1312308.103879,8.000000,-5.000000,12.000000,-22.000000,6.000000,-2.000000,-1.000000,4.000000
1312308.104808,1.000000,6.000000,-1.000000,3.000000,2.000000,7.000000,-2.000000,5.000000
1312308.104816,-22.000000,14.000000,-23.000000,43.000000,-16.000000,8.000000,3.000000,-12.000000
1312308.111322,8.000000,-3.000000,10.000000,-13.000000,3.000000,-6.000000,-4.000000,3.000000
1312308.111333,15.000000,1.000000,19.000000,-28.000000,11.000000,-11.000000,0.000000,4.000000
1312308.119003,-5.000000,-2.000000,-12.000000,25.000000,-3.000000,4.000000,5.000000,-2.000000
1312308.119026,-3.000000,-4.000000,-1.000000,-3.000000,-2.000000,-9.000000,-5.000000,-7.000000
1312308.141266,27.000000,-16.000000,22.000000,-41.000000,10.000000,-8.000000,-7.000000,9.000000
1312308.141279,-10.000000,2.000000,-9.000000,15.000000,-7.000000,7.000000,-3.000000,1.000000
1312308.178374,-20.000000,11.000000,-16.000000,26.000000,-8.000000,0.000000,-26.000000,-19.000000
1312308.178384,21.000000,-13.000000,11.000000,-29.000000,3.000000,-5.000000,11.000000,6.000000
1312308.186186,4.000000,2.000000,-8.000000,15.000000,-2.000000,0.000000,-9.000000,7.000000
1312308.186202,-22.000000,10.000000,-21.000000,48.000000,-9.000000,8.000000,5.000000,-8.000000
1312308.223466,1.000000,-9.000000,9.000000,-20.000000,5.000000,-9.000000,-5.000000,-3.000000
1312308.223490,26.000000,-3.000000,13.000000,-30.000000,6.000000,2.000000,10.000000,11.000000
1312308.223828,-13.000000,3.000000,-14.000000,27.000000,-6.000000,6.000000,-1.000000,-7.000000
1312308.223849,-3.000000,-12.000000,5.000000,-9.000000,-2.000000,-7.000000,0.000000,-3.000000
1312308.224917,37.000000,-7.000000,19.000000,-38.000000,12.000000,-13.000000,-9.000000,11.000000
1312308.224938,-5.000000,8.000000,-12.000000,21.000000,-6.000000,12.000000,9.000000,-5.000000
1312308.225561,-17.000000,3.000000,-9.000000,18.000000,-8.000000,-2.000000,-3.000000,-12.000000
1312308.225582,9.000000,-1.000000,12.000000,-29.000000,5.000000,-6.000000,-3.000000,3.000000
1312308.226225,1.000000,5.000000,-7.000000,9.000000,0.000000,9.000000,7.000000,4.000000
1312308.226246,-28.000000,11.000000,-23.000000,41.000000,-13.000000,10.000000,3.000000,-10.000000
1312308.238454,38.000000,-15.000000,21.000000,-32.000000,9.000000,3.000000,10.000000,3.000000
1312308.238470,-60.000000,7.000000,-5.000000,9.000000,1.000000,1.000000,-5.000000,-8.000000
1312308.246265,-15.000000,5.000000,-12.000000,16.000000,-7.000000,-2.000000,0.000000,-10.000000
1312308.246278,-6.000000,-8.000000,14.000000,-36.000000,8.000000,-9.000000,-9.000000,-1.000000
1312308.260888,2.000000,7.000000,-8.000000,7.000000,-7.000000,7.000000,3.000000,3.000000
1312308.260902,-21.000000,7.000000,-27.000000,40.000000,-11.000000,1.000000,-2.000000,-16.000000
1312308.283684,12.000000,-5.000000,5.000000,-14.000000,5.000000,-5.000000,9.000000,9.000000
1312308.283695,13.000000,0.000000,11.000000,-19.000000,3.000000,-1.000000,-2.000000,6.000000
1312308.298532,-13.000000,13.000000,-24.000000,33.000000,-11.000000,8.000000,2.000000,-6.000000
1312308.298561,5.000000,-3.000000,3.000000,-7.000000,3.000000,-10.000000,-5.000000,0.000000
1312308.313396,24.000000,-6.000000,18.000000,-35.000000,12.000000,-4.000000,-8.000000,5.000000
1312308.313425,5.000000,0.000000,-11.000000,20.000000,-4.000000,10.000000,15.000000,1.000000
1312308.320915,-59.000000,-9.000000,-2.000000,12.000000,-12.000000,-4.000000,-1.000000,-9.000000
1312308.320944,20.000000,-17.000000,20.000000,-34.000000,8.000000,-12.000000,-4.000000,3.000000
1312308.336694,-12.000000,6.000000,-5.000000,13.000000,-5.000000,6.000000,9.000000,-2.000000
1312308.336832,-13.000000,11.000000,-22.000000,31.000000,-14.000000,3.000000,-6.000000,-9.000000
1312308.337265,9.000000,-2.000000,7.000000,-18.000000,4.000000,-1.000000,7.000000,-9.000000
1312308.337276,16.000000,-6.000000,8.000000,-23.000000,8.000000,0.000000,-9.000000,11.000000
1312308.338227,-14.000000,13.000000,-21.000000,37.000000,-14.000000,16.000000,16.000000,-5.000000
1312308.338235,5.000000,-7.000000,4.000000,-13.000000,-1.000000,-9.000000,-6.000000,-3.000000
1312308.338942,25.000000,-12.000000,22.000000,-41.000000,14.000000,-7.000000,-5.000000,11.000000
1312308.338950,-13.000000,4.000000,-14.000000,21.000000,-7.000000,6.000000,2.000000,-4.000000
1312308.343356,-16.000000,-2.000000,-6.000000,12.000000,-13.000000,-9.000000,-4.000000,-7.000000
1312308.343364,23.000000,-12.000000,14.000000,-41.000000,13.000000,4.000000,7.000000,6.000000
1312308.358910,-12.000000,-3.000000,-9.000000,10.000000,-5.000000,5.000000,-10.000000,0.000000
1312308.358932,-30.000000,11.000000,-20.000000,32.000000,-16.000000,6.000000,11.000000,-12.000000
1312308.388651,32.000000,0.000000,11.000000,-17.000000,2.000000,-9.000000,1.000000,2.000000
1312308.388662,-6.000000,0.000000,8.000000,-14.000000,1.000000,3.000000,0.000000,8.000000
1312308.403478,-13.000000,12.000000,-20.000000,45.000000,-8.000000,12.000000,16.000000,-6.000000
1312308.403489,-6.000000,1.000000,8.000000,-18.000000,4.000000,-8.000000,-13.000000,-5.000000
1312308.441268,30.000000,-13.000000,21.000000,-36.000000,12.000000,-6.000000,-8.000000,15.000000
1312308.441426,-9.000000,6.000000,-12.000000,22.000000,2.000000,12.000000,7.000000,-1.000000
1312308.441629,-70.000000,-3.000000,-9.000000,10.000000,-3.000000,-4.000000,-9.000000,-17.000000
1312308.441639,27.000000,-10.000000,21.000000,-45.000000,9.000000,-19.000000,-5.000000,7.000000
1312308.442619,-7.000000,6.000000,-10.000000,7.000000,-4.000000,6.000000,9.000000,-1.000000
1312308.442629,-23.000000,2.000000,-27.000000,37.000000,-12.000000,9.000000,7.000000,-9.000000
1312308.443224,11.000000,1.000000,12.000000,-24.000000,7.000000,-11.000000,-6.000000,1.000000
1312308.443234,12.000000,6.000000,10.000000,-5.000000,5.000000,10.000000,10.000000,2.000000
1312308.444852,23.000000,-7.000000,17.000000,-44.000000,11.000000,-7.000000,-6.000000,4.000000
1312308.444862,-6.000000,8.000000,-18.000000,28.000000,-8.000000,13.000000,5.000000,-2.000000
1312308.455978,-3.000000,10.000000,-12.000000,13.000000,-10.000000,5.000000,2.000000,0.000000
1312308.455990,-25.000000,6.000000,-21.000000,36.000000,-15.000000,9.000000,2.000000,-11.000000
1312308.463242,13.000000,-9.000000,12.000000,-23.000000,7.000000,-9.000000,-7.000000,-1.000000
1312308.463258,4.000000,-2.000000,2.000000,-9.000000,0.000000,3.000000,2.000000,8.000000
1312308.478763,-22.000000,13.000000,-22.000000,51.000000,-15.000000,13.000000,7.000000,-13.000000
1312308.478776,4.000000,-2.000000,5.000000,-13.000000,6.000000,-8.000000,-1.000000,0.000000
1312308.515855,22.000000,-12.000000,18.000000,-44.000000,8.000000,-6.000000,-5.000000,11.000000
1312308.515865,-6.000000,7.000000,-13.000000,19.000000,-4.000000,5.000000,0.000000,-5.000000
1312308.523803,-14.000000,-13.000000,-5.000000,11.000000,1.000000,-8.000000,1.000000,-8.000000
1312308.523813,24.000000,-11.000000,24.000000,-47.000000,12.000000,-11.000000,-5.000000,11.000000
1312308.553441,0.000000,5.000000,-12.000000,13.000000,-7.000000,4.000000,-1.000000,-1.000000
1312308.553458,-5.000000,3.000000,-19.000000,44.000000,-11.000000,4.000000,0.000000,-6.000000
1312308.553822,11.000000,-8.000000,12.000000,-24.000000,8.000000,-7.000000,-4.000000,-3.000000
1312308.553838,23.000000,2.000000,0.000000,0.000000,1.000000,11.000000,1.000000,-3.000000
1312308.560877,-27.000000,11.000000,-26.000000,50.000000,-11.000000,13.000000,4.000000,-3.000000
1312308.560910,20.000000,0.000000,2.000000,-21.000000,-2.000000,-10.000000,-6.000000,-3.000000
1312308.561230,31.000000,-11.000000,16.000000,-39.000000,10.000000,-7.000000,-6.000000,11.000000
1312308.561238,-14.000000,10.000000,-11.000000,22.000000,-11.000000,2.000000,7.000000,1.000000
1312308.562624,-4.000000,10.000000,-10.000000,14.000000,-7.000000,3.000000,0.000000,-15.000000
1312308.562637,-36.000000,1.000000,-16.000000,31.000000,-11.000000,3.000000,-5.000000,-16.000000
1312308.563375,10.000000,-8.000000,8.000000,-13.000000,5.000000,-10.000000,-1.000000,-2.000000
1312308.563385,7.000000,0.000000,2.000000,-4.000000,4.000000,4.000000,-1.000000,4.000000
1312308.576144,-25.000000,13.000000,-24.000000,50.000000,-20.000000,11.000000,3.000000,-14.000000
1312308.576159,7.000000,-9.000000,3.000000,-13.000000,0.000000,-6.000000,-7.000000,-3.000000
1312308.583819,21.000000,-16.000000,16.000000,-37.000000,11.000000,-1.000000,-4.000000,12.000000
1312308.583832,-24.000000,4.000000,-11.000000,19.000000,-7.000000,4.000000,7.000000,-8.000000
1312308.613538,-7.000000,-1.000000,-5.000000,0.000000,1.000000,-7.000000,-9.000000,-7.000000
1312308.613550,29.000000,-13.000000,27.000000,-51.000000,18.000000,-10.000000,-9.000000,10.000000
1312308.636345,-9.000000,8.000000,-13.000000,11.000000,-6.000000,4.000000,3.000000,1.000000
1312308.636366,-16.000000,11.000000,-19.000000,35.000000,-13.000000,2.000000,-1.000000,-15.000000
1312308.659108,13.000000,-6.000000,9.000000,-21.000000,7.000000,-5.000000,0.000000,7.000000
1312308.659138,4.000000,6.000000,-4.000000,-4.000000,-7.000000,0.000000,-4.000000,1.000000
1312308.660359,-30.000000,8.000000,-27.000000,51.000000,-18.000000,7.000000,5.000000,-10.000000
1312308.660386,7.000000,-6.000000,8.000000,-14.000000,4.000000,-6.000000,-3.000000,-4.000000
1312308.661243,24.000000,-6.000000,15.000000,-35.000000,10.000000,-4.000000,-4.000000,14.000000
1312308.661277,2.000000,6.000000,-12.000000,24.000000,-8.000000,5.000000,-1.000000,-15.000000
1312308.662173,-28.000000,1.000000,-1.000000,4.000000,-4.000000,-7.000000,5.000000,-4.000000
1312308.662194,27.000000,-21.000000,26.000000,-48.000000,17.000000,-5.000000,1.000000,8.000000
1312308.663087,-11.000000,0.000000,-10.000000,15.000000,-8.000000,2.000000,-2.000000,2.000000
1312308.663126,-22.000000,1.000000,-15.000000,28.000000,-10.000000,4.000000,0.000000,-8.000000
1312308.673805,-18.000000,15.000000,-26.000000,47.000000,-20.000000,11.000000,2.000000,-9.000000
1312308.673826,9.000000,-7.000000,9.000000,-19.000000,3.000000,-10.000000,-6.000000,-8.000000
1312308.680936,21.000000,0.000000,16.000000,-32.000000,7.000000,2.000000,2.000000,7.000000
1312308.680946,-10.000000,7.000000,-9.000000,23.000000,-7.000000,9.000000,2.000000,-6.000000
1312308.696087,-1.000000,-11.000000,2.000000,-6.000000,-2.000000,-12.000000,-7.000000,-6.000000
1312308.696099,23.000000,-6.000000,23.000000,-38.000000,10.000000,-9.000000,-3.000000,11.000000
1312308.711104,-10.000000,-4.000000,-12.000000,12.000000,-6.000000,4.000000,-3.000000,-1.000000
1312308.711117,-20.000000,6.000000,-15.000000,25.000000,-15.000000,-5.000000,2.000000,-15.000000
1312308.711785,11.000000,-16.000000,15.000000,-27.000000,6.000000,-10.000000,-1.000000,5.000000
1312308.711793,-4.000000,5.000000,-7.000000,8.000000,-3.000000,6.000000,1.000000,5.000000
1312308.733704,-22.000000,10.000000,-23.000000,40.000000,-11.000000,1.000000,8.000000,-5.000000
1312308.733733,7.000000,-5.000000,4.000000,-16.000000,3.000000,-5.000000,-5.000000,0.000000
1312308.748883,23.000000,0.000000,18.000000,-25.000000,6.000000,-2.000000,-7.000000,10.000000
1312308.748903,-6.000000,4.000000,-21.000000,24.000000,-8.000000,4.000000,-3.000000,-3.000000
1312308.763775,-1.000000,-13.000000,-4.000000,-10.000000,2.000000,-11.000000,-2.000000,3.000000
1312308.763795,30.000000,-11.000000,22.000000,-40.000000,10.000000,-8.000000,-17.000000,6.000000
1312308.778524,-3.000000,5.000000,-10.000000,17.000000,-5.000000,6.000000,20.000000,-4.000000
1312308.778536,-26.000000,3.000000,-14.000000,22.000000,-5.000000,-4.000000,-6.000000,-9.000000
1312308.779415,11.000000,-13.000000,18.000000,-24.000000,8.000000,-8.000000,-10.000000,3.000000
1312308.779426,2.000000,7.000000,-5.000000,7.000000,-2.000000,4.000000,-2.000000,0.000000
1312308.780100,-27.000000,8.000000,-25.000000,40.000000,-15.000000,4.000000,0.000000,-10.000000
1312308.780118,12.000000,-3.000000,7.000000,-12.000000,7.000000,-4.000000,-4.000000,3.000000
1312308.781744,5.000000,-3.000000,13.000000,-23.000000,8.000000,-3.000000,-5.000000,4.000000
1312308.781762,-14.000000,0.000000,-15.000000,25.000000,-9.000000,13.000000,3.000000,-3.000000
1312308.793362,14.000000,-7.000000,7.000000,-11.000000,3.000000,-12.000000,-8.000000,-3.000000
1312308.793373,19.000000,-9.000000,16.000000,-38.000000,12.000000,-6.000000,-13.000000,18.000000
1312308.801278,-18.000000,0.000000,-8.000000,16.000000,-6.000000,6.000000,7.000000,-12.000000
1312308.801291,27.000000,0.000000,-10.000000,19.000000,-10.000000,-5.000000,-7.000000,-9.000000
1312308.808626,20.000000,-4.000000,19.000000,-34.000000,5.000000,-11.000000,-9.000000,2.000000
1312308.808638,7.000000,5.000000,-6.000000,12.000000,1.000000,4.000000,6.000000,6.000000
1312308.838604,-24.000000,4.000000,-28.000000,42.000000,-16.000000,4.000000,-3.000000,-11.000000
1312308.838696,6.000000,0.000000,11.000000,-14.000000,10.000000,-5.000000,-1.000000,-1.000000
1312308.853662,15.000000,-3.000000,9.000000,-22.000000,6.000000,2.000000,-3.000000,3.000000
1312308.853674,-18.000000,13.000000,-20.000000,30.000000,-12.000000,8.000000,8.000000,-5.000000
1312308.876210,4.000000,-3.000000,3.000000,-11.000000,3.000000,-8.000000,1.000000,-2.000000
1312308.876223,28.000000,-11.000000,22.000000,-41.000000,11.000000,-4.000000,15.000000,11.000000
1312308.892182,-7.000000,1.000000,-8.000000,13.000000,-3.000000,4.000000,-5.000000,-2.000000
1312308.892217,-13.000000,1.000000,-15.000000,23.000000,-9.000000,-3.000000,-4.000000,-9.000000
1312308.907494,22.000000,-14.000000,19.000000,-35.000000,11.000000,-11.000000,-5.000000,6.000000
1312308.907565,-1.000000,10.000000,-12.000000,6.000000,-7.000000,1.000000,5.000000,4.000000
1312308.914293,-8.000000,8.000000,-23.000000,39.000000,-14.000000,2.000000,2.000000,-16.000000
1312308.914312,-6.000000,-7.000000,7.000000,-20.000000,1.000000,-12.000000,-10.000000,-7.000000
1312308.937019,18.000000,-7.000000,11.000000,-15.000000,6.000000,6.000000,2.000000,8.000000
1312308.937040,7.000000,12.000000,-23.000000,34.000000,-13.000000,9.000000,-4.000000,-10.000000
1312308.938028,-45.000000,-6.000000,8.000000,-11.000000,1.000000,-6.000000,-6.000000,3.000000
1312308.938045,44.000000,-5.000000,18.000000,-36.000000,13.000000,-9.000000,-6.000000,9.000000
1312308.950930,23.000000,-11.000000,17.000000,-43.000000,17.000000,-8.000000,-6.000000,6.000000
1312308.950940,-5.000000,2.000000,-6.000000,17.000000,-5.000000,8.000000,4.000000,2.000000
1312308.973802,-25.000000,2.000000,-21.000000,36.000000,-12.000000,-1.000000,2.000000,-16.000000
1312308.973826,14.000000,-13.000000,9.000000,-18.000000,4.000000,-6.000000,-4.000000,0.000000
1312308.980802,4.000000,2.000000,6.000000,-12.000000,6.000000,-1.000000,-3.000000,10.000000
1312308.980811,-22.000000,10.000000,-18.000000,41.000000,-15.000000,16.000000,11.000000,-4.000000
1312308.996070,9.000000,-6.000000,10.000000,-10.000000,6.000000,-6.000000,-8.000000,0.000000
1312308.996083,28.000000,-8.000000,26.000000,-35.000000,9.000000,-8.000000,-6.000000,-1.000000
1312308.996611,-11.000000,7.000000,-13.000000,21.000000,-6.000000,9.000000,-1.000000,-3.000000
1312308.996622,-14.000000,1.000000,-11.000000,8.000000,-9.000000,-5.000000,-1.000000,-8.000000
1312308.997598,-20.000000,10.000000,-22.000000,38.000000,-6.000000,18.000000,11.000000,-3.000000
1312308.997608,16.000000,-10.000000,9.000000,-16.000000,5.000000,-2.000000,-5.000000,3.000000
1312308.998933,5.000000,-4.000000,7.000000,-10.000000,5.000000,-7.000000,-5.000000,-2.000000
1312308.998943,25.000000,-11.000000,18.000000,-46.000000,10.000000,-7.000000,-6.000000,10.000000
1312309.011097,-20.000000,0.000000,-16.000000,22.000000,-9.000000,1.000000,4.000000,3.000000
1312309.011110,-17.000000,-7.000000,-6.000000,3.000000,-3.000000,-9.000000,7.000000,0.000000
1312309.011843,22.000000,-11.000000,26.000000,-45.000000,14.000000,-14.000000,-16.000000,-1.000000
1312309.011854,-10.000000,5.000000,-13.000000,12.000000,-5.000000,7.000000,26.000000,-1.000000
1312309.019280,-25.000000,11.000000,-21.000000,36.000000,-11.000000,7.000000,-5.000000,-15.000000
1312309.019293,0.000000,-4.000000,10.000000,-23.000000,-2.000000,-5.000000,-7.000000,4.000000
1312309.033396,10.000000,1.000000,6.000000,-4.000000,2.000000,3.000000,-3.000000,4.000000
1312309.033407,-20.000000,11.000000,-28.000000,48.000000,-15.000000,11.000000,11.000000,-4.000000
1312309.056613,14.000000,-8.000000,11.000000,-11.000000,4.000000,-13.000000,-7.000000,-8.000000
1312309.056653,26.000000,-4.000000,22.000000,-35.000000,10.000000,5.000000,11.000000,16.000000
1312309.056870,32.000000,8.000000,-11.000000,30.000000,-7.000000,2.000000,0.000000,-6.000000
1312309.056887,-6.000000,3.000000,-1.000000,4.000000,-8.000000,-7.000000,-2.000000,-8.000000
1312309.071036,27.000000,-9.000000,22.000000,-50.000000,12.000000,-10.000000,-5.000000,9.000000
1312309.071057,-7.000000,5.000000,-7.000000,12.000000,-5.000000,7.000000,3.000000,-2.000000
1312309.093687,-22.000000,5.000000,-24.000000,37.000000,-13.000000,5.000000,-3.000000,-11.000000
1312309.093698,8.000000,-8.000000,7.000000,-27.000000,8.000000,-5.000000,-9.000000,3.000000
1312309.131155,9.000000,8.000000,1.000000,0.000000,2.000000,8.000000,1.000000,6.000000
1312309.131166,-26.000000,9.000000,-26.000000,50.000000,-20.000000,19.000000,13.000000,-6.000000
1312309.138673,6.000000,-5.000000,5.000000,-12.000000,1.000000,-12.000000,2.000000,-1.000000
1312309.138684,27.000000,-7.000000,17.000000,-36.000000,7.000000,-11.000000,-12.000000,8.000000
1312309.153949,-26.000000,5.000000,-11.000000,18.000000,-6.000000,3.000000,9.000000,-4.000000
1312309.153958,-11.000000,-3.000000,-4.000000,6.000000,-10.000000,-5.000000,-1.000000,-6.000000
1312309.154475,23.000000,-12.000000,29.000000,-46.000000,15.000000,-7.000000,2.000000,6.000000
1312309.154484,-18.000000,2.000000,-7.000000,6.000000,-4.000000,3.000000,1.000000,-5.000000
1312309.156450,10.000000,-5.000000,5.000000,-13.000000,3.000000,-3.000000,-5.000000,1.000000
1312309.156459,24.000000,-8.000000,24.000000,-38.000000,6.000000,-4.000000,-1.000000,8.000000
1312309.157417,-14.000000,8.000000,-10.000000,26.000000,-12.000000,3.000000,7.000000,-2.000000
1312309.157427,-6.000000,-9.000000,-1.000000,10.000000,-1.000000,-7.000000,-3.000000,-3.000000
1312309.168258,28.000000,-14.000000,24.000000,-54.000000,13.000000,-15.000000,-1.000000,6.000000
1312309.168267,-9.000000,7.000000,-13.000000,7.000000,-10.000000,4.000000,0.000000,-1.000000
1312309.175786,-20.000000,-1.000000,-24.000000,35.000000,-13.000000,9.000000,11.000000,-9.000000
1312309.175795,57.000000,-6.000000,12.000000,-18.000000,7.000000,-2.000000,-8.000000,-1.000000
1312309.191187,14.000000,4.000000,-1.000000,5.000000,-2.000000,15.000000,2.000000,3.000000
1312309.191198,-41.000000,13.000000,-24.000000,49.000000,-15.000000,7.000000,-12.000000,-14.000000
1312309.213560,-31.000000,-6.000000,8.000000,-16.000000,1.000000,4.000000,17.000000,1.000000
1312309.213575,27.000000,-8.000000,20.000000,-37.000000,13.000000,-2.000000,3.000000,6.000000
1312309.236013,-6.000000,8.000000,-14.000000,21.000000,-9.000000,2.000000,-2.000000,-4.000000
1312309.236024,-2.000000,-9.000000,5.000000,-2.000000,-3.000000,-9.000000,-8.000000,-5.000000
1312309.251337,21.000000,-19.000000,32.000000,-48.000000,19.000000,-7.000000,3.000000,6.000000
1312309.251395,-11.000000,-1.000000,-8.000000,9.000000,-2.000000,5.000000,3.000000,-4.000000
1312309.274118,-12.000000,3.000000,-20.000000,29.000000,-14.000000,0.000000,-4.000000,-5.000000
1312309.274130,-2.000000,-7.000000,8.000000,-14.000000,6.000000,-2.000000,-3.000000,4.000000
1312309.274594,10.000000,8.000000,-9.000000,2.000000,-3.000000,5.000000,-2.000000,5.000000
1312309.274604,-32.000000,13.000000,-30.000000,42.000000,-15.000000,3.000000,5.000000,-16.000000
1312309.275893,-2.000000,-10.000000,14.000000,-12.000000,-1.000000,-11.000000,-4.000000,-2.000000
1312309.275905,21.000000,-5.000000,17.000000,-32.000000,10.000000,3.000000,4.000000,10.000000
1312309.276467,-14.000000,4.000000,-13.000000,20.000000,-9.000000,-2.000000,-9.000000,-3.000000
1312309.276477,-1.000000,-5.000000,1.000000,-6.000000,-2.000000,-9.000000,-2.000000,-5.000000
1312309.277273,19.000000,-9.000000,24.000000,-36.000000,12.000000,-6.000000,-3.000000,11.000000
1312309.277282,-4.000000,5.000000,-6.000000,17.000000,-3.000000,7.000000,2.000000,-3.000000
1312309.288766,4.000000,6.000000,-8.000000,12.000000,-4.000000,5.000000,-3.000000,4.000000
1312309.288779,-30.000000,11.000000,-21.000000,43.000000,-16.000000,10.000000,18.000000,-18.000000
1312309.295975,8.000000,-10.000000,6.000000,-19.000000,7.000000,-6.000000,-6.000000,6.000000
1312309.295988,23.000000,-3.000000,16.000000,-24.000000,9.000000,-1.000000,-2.000000,7.000000
1312309.311071,-11.000000,10.000000,-13.000000,25.000000,-9.000000,3.000000,-5.000000,-5.000000
1312309.311082,5.000000,-6.000000,-1.000000,3.000000,1.000000,-9.000000,-6.000000,-14.000000
1312309.333572,27.000000,-13.000000,21.000000,-44.000000,15.000000,-5.000000,-11.000000,5.000000
1312309.333594,5.000000,5.000000,-8.000000,17.000000,-9.000000,7.000000,10.000000,-6.000000
1312309.356035,-11.000000,-3.000000,-13.000000,19.000000,-11.000000,-6.000000,-7.000000,-3.000000
1312309.356045,10.000000,-9.000000,16.000000,-26.000000,9.000000,-12.000000,-4.000000,1.000000
1312309.371248,4.000000,4.000000,-4.000000,7.000000,-5.000000,10.000000,5.000000,9.000000
1312309.371262,-41.000000,3.000000,-23.000000,37.000000,-19.000000,5.000000,-1.000000,-5.000000
1312309.372315,-24.000000,-6.000000,10.000000,-27.000000,7.000000,-7.000000,0.000000,-6.000000
1312309.372350,3.000000,-1.000000,13.000000,-23.000000,9.000000,3.000000,5.000000,10.000000
1312309.372868,-16.000000,5.000000,-14.000000,24.000000,-12.000000,6.000000,0.000000,-9.000000
1312309.372897,3.000000,-8.000000,5.000000,-10.000000,-1.000000,-8.000000,-5.000000,-3.000000
1312309.373908,24.000000,-5.000000,19.000000,-43.000000,8.000000,-5.000000,-5.000000,8.000000
1312309.373916,-3.000000,4.000000,-10.000000,16.000000,-3.000000,3.000000,-3.000000,1.000000
1312309.375009,-16.000000,2.000000,-11.000000,20.000000,-10.000000,-1.000000,-2.000000,-7.000000
1312309.375018,15.000000,-11.000000,14.000000,-32.000000,8.000000,-8.000000,-23.000000,9.000000
1312309.394358,-23.000000,3.000000,-7.000000,4.000000,-1.000000,2.000000,6.000000,-4.000000
1312309.394374,-27.000000,5.000000,-24.000000,33.000000,-16.000000,-2.000000,0.000000,-15.000000
1312309.394827,8.000000,-7.000000,7.000000,-26.000000,1.000000,-10.000000,-9.000000,-1.000000
1312309.394844,15.000000,-1.000000,11.000000,-19.000000,3.000000,-4.000000,-3.000000,7.000000
1312309.408700,-14.000000,0.000000,-16.000000,26.000000,-9.000000,7.000000,0.000000,-5.000000
1312309.408712,0.000000,6.000000,2.000000,-16.000000,3.000000,-9.000000,-3.000000,-3.000000
1312309.416171,38.000000,-6.000000,24.000000,-40.000000,10.000000,1.000000,-2.000000,8.000000
1312309.416195,-4.000000,5.000000,-11.000000,17.000000,-8.000000,4.000000,3.000000,-6.000000
1312309.430951,-16.000000,-4.000000,-9.000000,14.000000,-5.000000,-1.000000,-4.000000,-6.000000
1312309.430961,5.000000,-16.000000,21.000000,-36.000000,9.000000,-7.000000,-6.000000,1.000000
1312309.445867,-1.000000,5.000000,-14.000000,8.000000,-4.000000,5.000000,-4.000000,4.000000
1312309.445878,-33.000000,6.000000,-19.000000,37.000000,-15.000000,5.000000,7.000000,-13.000000
1312309.453694,10.000000,-1.000000,14.000000,-15.000000,4.000000,-8.000000,-6.000000,11.000000
1312309.453703,14.000000,-1.000000,5.000000,-17.000000,7.000000,1.000000,-3.000000,4.000000
1312309.454360,-20.000000,11.000000,-22.000000,38.000000,-10.000000,11.000000,16.000000,-5.000000
1312309.454386,19.000000,-1.000000,3.000000,-7.000000,4.000000,-10.000000,-5.000000,0.000000
1312309.468826,-28.000000,-19.000000,21.000000,-46.000000,7.000000,-12.000000,-2.000000,6.000000
1312309.468857,-12.000000,4.000000,-12.000000,14.000000,-4.000000,7.000000,1.000000,-7.000000
1312309.491366,-15.000000,0.000000,-9.000000,9.000000,-7.000000,0.000000,-4.000000,-7.000000
1312309.491418,16.000000,-14.000000,24.000000,-42.000000,11.000000,-9.000000,-8.000000,2.000000
1312309.506041,-4.000000,5.000000,-7.000000,4.000000,-13.000000,6.000000,-3.000000,-2.000000
1312309.506065,-32.000000,6.000000,-23.000000,33.000000,-15.000000,9.000000,-3.000000,-9.000000
1312309.513372,4.000000,-1.000000,7.000000,-19.000000,7.000000,-8.000000,-3.000000,-2.000000
1312309.513380,12.000000,8.000000,1.000000,-11.000000,2.000000,4.000000,-4.000000,7.000000
1312309.529039,-20.000000,15.000000,-23.000000,39.000000,-16.000000,11.000000,5.000000,-4.000000
1312309.529065,2.000000,-5.000000,4.000000,-9.000000,8.000000,-4.000000,-3.000000,3.000000
1312309.529486,23.000000,-6.000000,17.000000,-41.000000,13.000000,-2.000000,-4.000000,7.000000
1312309.529495,-11.000000,8.000000,-10.000000,22.000000,-8.000000,5.000000,-4.000000,-1.000000
1312309.531015,-12.000000,4.000000,-10.000000,13.000000,-6.000000,-8.000000,-6.000000,-13.000000
1312309.531050,25.000000,-14.000000,20.000000,-51.000000,12.000000,-15.000000,-2.000000,12.000000
1312309.543444,0.000000,8.000000,-4.000000,8.000000,0.000000,9.000000,0.000000,-3.000000
1312309.543463,-23.000000,8.000000,-21.000000,31.000000,-14.000000,0.000000,0.000000,1.000000
1312309.566207,11.000000,-11.000000,14.000000,-21.000000,2.000000,-8.000000,0.000000,-3.000000
1312309.566218,6.000000,3.000000,1.000000,-10.000000,1.000000,2.000000,-3.000000,5.000000
1312309.573731,-23.000000,11.000000,-27.000000,46.000000,-15.000000,11.000000,-2.000000,-8.000000
1312309.573750,4.000000,-8.000000,10.000000,-12.000000,4.000000,-7.000000,-1.000000,-5.000000
1312309.611194,25.000000,-6.000000,18.000000,-41.000000,10.000000,-4.000000,1.000000,10.000000
1312309.611204,-11.000000,8.000000,-11.000000,22.000000,-9.000000,3.000000,-2.000000,-5.000000
1312309.626123,-7.000000,3.000000,-7.000000,6.000000,-5.000000,-7.000000,9.000000,-11.000000
1312309.626137,36.000000,-11.000000,20.000000,-43.000000,15.000000,-6.000000,-1.000000,9.000000
1312309.648870,-10.000000,5.000000,-14.000000,10.000000,-7.000000,11.000000,1.000000,5.000000
1312309.648880,-19.000000,9.000000,-19.000000,38.000000,-14.000000,4.000000,-2.000000,-11.000000
1312309.656251,12.000000,-7.000000,13.000000,-20.000000,4.000000,-9.000000,-5.000000,3.000000
1312309.656287,3.000000,0.000000,2.000000,-8.000000,2.000000,1.000000,2.000000,3.000000
1312309.671284,-26.000000,11.000000,-27.000000,44.000000,-20.000000,12.000000,6.000000,-9.000000
1312309.671305,5.000000,-4.000000,3.000000,-15.000000,2.000000,-6.000000,0.000000,-1.000000
1312309.685877,3.000000,1.000000,-8.000000,11.000000,-4.000000,4.000000,7.000000,-7.000000
1312309.685901,8.000000,-16.000000,26.000000,-54.000000,15.000000,-11.000000,-8.000000,6.000000
1312309.693630,8.000000,-10.000000,14.000000,-23.000000,7.000000,-7.000000,0.000000,-2.000000
1312309.693642,5.000000,0.000000,1.000000,-5.000000,-3.000000,7.000000,-1.000000,10.000000
1312309.694192,-18.000000,15.000000,-24.000000,49.000000,-16.000000,9.000000,5.000000,-15.000000
1312309.694200,13.000000,-6.000000,6.000000,-16.000000,4.000000,-7.000000,4.000000,2.000000
1312309.694644,23.000000,-10.000000,21.000000,-33.000000,11.000000,-6.000000,-5.000000,11.000000
1312309.694671,-12.000000,11.000000,-16.000000,23.000000,-6.000000,11.000000,10.000000,0.000000
1312309.695088,-9.000000,-4.000000,-10.000000,2.000000,-1.000000,-9.000000,1.000000,-6.000000
1312309.695096,25.000000,-14.000000,29.000000,-48.000000,14.000000,-12.000000,-9.000000,8.000000
1312309.696574,-9.000000,7.000000,-9.000000,12.000000,-1.000000,3.000000,11.000000,6.000000
1312309.696582,-40.000000,7.000000,-19.000000,39.000000,-4.000000,8.000000,-1.000000,-8.000000
1312309.708689,-27.000000,9.000000,-28.000000,48.000000,-16.000000,10.000000,2.000000,-6.000000
1312309.708699,5.000000,-9.000000,9.000000,-19.000000,3.000000,-6.000000,-3.000000,-1.000000
1312309.723465,46.000000,-8.000000,15.000000,-39.000000,12.000000,-3.000000,12.000000,11.000000
1312309.723482,-27.000000,-1.000000,-12.000000,19.000000,-10.000000,0.000000,-3.000000,-8.000000
1312309.724619,1.000000,0.000000,3.000000,10.000000,-1.000000,-4.000000,7.000000,-7.000000
1312309.724631,27.000000,-14.000000,23.000000,-52.000000,13.000000,-10.000000,-4.000000,7.000000
1312309.730947,-8.000000,1.000000,-7.000000,18.000000,-1.000000,6.000000,3.000000,-2.000000
1312309.730976,-26.000000,6.000000,-15.000000,33.000000,-10.000000,-1.000000,-5.000000,-9.000000
1312309.746171,16.000000,-8.000000,12.000000,-16.000000,5.000000,-1.000000,-8.000000,8.000000
1312309.746182,-7.000000,9.000000,-4.000000,0.000000,0.000000,7.000000,6.000000,1.000000
1312309.768313,-28.000000,15.000000,-29.000000,45.000000,-17.000000,7.000000,-1.000000,-15.000000
1312309.768327,5.000000,-4.000000,6.000000,-12.000000,7.000000,-11.000000,-9.000000,-1.000000
1312309.769739,23.000000,-8.000000,20.000000,-38.000000,8.000000,-5.000000,-2.000000,5.000000
1312309.769757,-13.000000,3.000000,-13.000000,23.000000,-7.000000,10.000000,21.000000,-8.000000
1312309.775790,-2.000000,-8.000000,2.000000,-4.000000,-3.000000,-12.000000,-13.000000,-9.000000
1312309.775818,33.000000,-14.000000,24.000000,-45.000000,16.000000,-8.000000,-10.000000,13.000000
1312309.791195,3.000000,-1.000000,-5.000000,15.000000,-4.000000,2.000000,-9.000000,1.000000
1312309.791207,-31.000000,-2.000000,-20.000000,25.000000,-7.000000,6.000000,7.000000,-9.000000
1312309.820983,8.000000,-8.000000,11.000000,-20.000000,6.000000,-9.000000,-3.000000,-1.000000
1312309.820993,3.000000,3.000000,-4.000000,1.000000,3.000000,10.000000,5.000000,15.000000
1312309.828795,-26.000000,8.000000,-26.000000,38.000000,-17.000000,7.000000,6.000000,-11.000000
1312309.828805,6.000000,-7.000000,11.000000,-12.000000,1.000000,-7.000000,-7.000000,-1.000000
1312309.843702,15.000000,-4.000000,15.000000,-26.000000,13.000000,-8.000000,-1.000000,12.000000
1312309.843733,-11.000000,8.000000,-11.000000,25.000000,-8.000000,5.000000,1.000000,-1.000000
1312309.844281,-2.000000,-4.000000,0.000000,-5.000000,-3.000000,-9.000000,-2.000000,-7.000000
1312309.844289,14.000000,-18.000000,25.000000,-44.000000,18.000000,-6.000000,-5.000000,8.000000
1312309.845047,-7.000000,4.000000,-9.000000,14.000000,-11.000000,3.000000,7.000000,-5.000000
1312309.845055,-19.000000,1.000000,-12.000000,19.000000,-12.000000,-6.000000,-4.000000,-12.000000
1312309.845967,9.000000,-10.000000,12.000000,-26.000000,6.000000,-9.000000,-8.000000,3.000000
1312309.845976,5.000000,5.000000,-5.000000,0.000000,-1.000000,2.000000,-8.000000,1.000000
1312309.866466,-28.000000,9.000000,-25.000000,44.000000,-14.000000,15.000000,18.000000,-9.000000
1312309.866475,4.000000,-4.000000,4.000000,-15.000000,1.000000,-4.000000,6.000000,1.000000
1312309.867049,21.000000,-5.000000,14.000000,-28.000000,7.000000,-5.000000,-5.000000,5.000000
1312309.867058,-12.000000,6.000000,-11.000000,25.000000,-7.000000,4.000000,-1.000000,-8.000000
1312309.889002,1.000000,-3.000000,2.000000,-9.000000,1.000000,-10.000000,-3.000000,-7.000000
1312309.889011,28.000000,-13.000000,24.000000,-41.000000,12.000000,-4.000000,-3.000000,9.000000
1312309.889748,-15.000000,2.000000,-7.000000,21.000000,-3.000000,4.000000,-4.000000,-3.000000
1312309.889755,-12.000000,2.000000,-19.000000,18.000000,-8.000000,-3.000000,4.000000,-10.000000
1312309.912194,12.000000,-5.000000,10.000000,-24.000000,9.000000,-5.000000,-3.000000,1.000000
1312309.912238,9.000000,3.000000,-3.000000,7.000000,-3.000000,10.000000,2.000000,8.000000
1312309.927431,-19.000000,7.000000,-22.000000,39.000000,-12.000000,3.000000,6.000000,-12.000000
1312309.927624,13.000000,-3.000000,9.000000,-20.000000,1.000000,-13.000000,-8.000000,6.000000
1312309.964078,-1.000000,-6.000000,12.000000,-20.000000,7.000000,7.000000,9.000000,12.000000
1312309.964253,1.000000,8.000000,-14.000000,33.000000,-7.000000,3.000000,-6.000000,-8.000000
1312309.964676,2.000000,-7.000000,0.000000,-15.000000,7.000000,-13.000000,-11.000000,-7.000000
1312309.964689,26.000000,-6.000000,22.000000,-36.000000,17.000000,-1.000000,0.000000,9.000000
1312309.965167,-12.000000,1.000000,-10.000000,16.000000,-4.000000,6.000000,19.000000,-1.000000
1312309.965177,-13.000000,3.000000,-15.000000,19.000000,-5.000000,1.000000,-10.000000,-9.000000
1312309.965749,6.000000,-10.000000,17.000000,-33.000000,6.000000,-10.000000,-6.000000,4.000000
1312309.965762,1.000000,8.000000,-5.000000,6.000000,-1.000000,3.000000,-12.000000,-3.000000
1312309.967314,16.000000,-8.000000,11.000000,-21.000000,2.000000,1.000000,-2.000000,9.000000
1312309.967325,-15.000000,10.000000,-17.000000,33.000000,-10.000000,12.000000,4.000000,-5.000000
1312309.986505,-3.000000,-10.000000,7.000000,-10.000000,1.000000,-10.000000,-4.000000,-3.000000
1312309.986517,27.000000,-13.000000,21.000000,-40.000000,9.000000,-6.000000,-10.000000,9.000000
1312309.987210,-1.000000,2.000000,-13.000000,18.000000,-6.000000,10.000000,16.000000,4.000000
1312309.987221,-68.000000,-9.000000,-11.000000,10.000000,-8.000000,-4.000000,-8.000000,-14.000000
1312310.001636,21.000000,-11.000000,20.000000,-37.000000,11.000000,-9.000000,-4.000000,0.000000
1312310.001649,0.000000,-2.000000,-10.000000,12.000000,-6.000000,2.000000,-3.000000,4.000000
1312310.008534,-7.000000,12.000000,-19.000000,43.000000,-16.000000,19.000000,8.000000,-11.000000
1312310.008547,-13.000000,-10.000000,8.000000,-17.000000,7.000000,-8.000000,-18.000000,6.000000
1312310.046484,15.000000,3.000000,14.000000,-11.000000,7.000000,3.000000,13.000000,11.000000
1312310.046507,-16.000000,18.000000,-19.000000,31.000000,-15.000000,1.000000,-4.000000,-11.000000
1312310.060892,5.000000,-13.000000,2.000000,-9.000000,0.000000,-14.000000,-4.000000,-8.000000
1312310.060915,21.000000,-5.000000,21.000000,-38.000000,14.000000,-5.000000,-6.000000,8.000000
1312310.061829,-13.000000,2.000000,-10.000000,16.000000,2.000000,7.000000,-1.000000,-2.000000
1312310.061849,-21.000000,0.000000,-7.000000,18.000000,-4.000000,-7.000000,-8.000000,-8.000000
1312310.062413,16.000000,-13.000000,19.000000,-42.000000,8.000000,-6.000000,-1.000000,4.000000
1312310.062434,-6.000000,7.000000,-10.000000,12.000000,-3.000000,9.000000,5.000000,-1.000000
1312310.063982,-20.000000,6.000000,-20.000000,36.000000,-11.000000,3.000000,2.000000,-11.000000
1312310.064002,7.000000,-3.000000,14.000000,-16.000000,6.000000,-6.000000,1.000000,-2.000000
1312310.068361,10.000000,1.000000,6.000000,-18.000000,2.000000,-1.000000,-13.000000,7.000000
1312310.068394,-23.000000,15.000000,-24.000000,43.000000,-9.000000,6.000000,8.000000,-2.000000
1312310.084011,-4.000000,-4.000000,4.000000,-12.000000,7.000000,-6.000000,0.000000,0.000000
1312310.084202,28.000000,-6.000000,20.000000,-42.000000,10.000000,-5.000000,-1.000000,7.000000
1312310.084376,-25.000000,0.000000,-9.000000,13.000000,-9.000000,-2.000000,-11.000000,-10.000000
1312310.084383,-10.000000,-3.000000,-6.000000,11.000000,-3.000000,8.000000,14.000000,-6.000000
1312310.121140,24.000000,-16.000000,20.000000,-42.000000,9.000000,-18.000000,-14.000000,1.000000
1312310.121151,-6.000000,3.000000,-7.000000,9.000000,-6.000000,0.000000,-2.000000,2.000000
1312310.128641,-46.000000,5.000000,-20.000000,40.000000,-12.000000,3.000000,-1.000000,-27.000000
1312310.128651,15.000000,-5.000000,16.000000,-17.000000,5.000000,-7.000000,0.000000,3.000000
1312310.166183,13.000000,1.000000,3.000000,-7.000000,1.000000,-1.000000,-9.000000,8.000000
1312310.166194,-23.000000,16.000000,-25.000000,38.000000,-14.000000,7.000000,6.000000,-13.000000
1312310.173689,3.000000,-8.000000,10.000000,-9.000000,2.000000,-5.000000,-1.000000,-4.000000
1312310.173700,23.000000,-11.000000,17.000000,-38.000000,10.000000,-9.000000,-3.000000,6.000000
1312310.188373,-10.000000,8.000000,-19.000000,15.000000,-8.000000,7.000000,4.000000,0.000000
1312310.188384,-14.000000,-7.000000,-8.000000,12.000000,-5.000000,-8.000000,-4.000000,-13.000000
1312310.188737,22.000000,-15.000000,22.000000,-52.000000,16.000000,-11.000000,-12.000000,2.000000
1312310.188745,-18.000000,6.000000,-8.000000,10.000000,1.000000,2.000000,6.000000,2.000000
1312310.190123,-22.000000,7.000000,-25.000000,35.000000,-12.000000,5.000000,-6.000000,-17.000000
1312310.190142,17.000000,-10.000000,6.000000,-17.000000,5.000000,-10.000000,1.000000,4.000000
1312310.190866,-12.000000,2.000000,-13.000000,24.000000,-4.000000,7.000000,-9.000000,-5.000000
1312310.190874,-1.000000,-4.000000,-4.000000,4.000000,-3.000000,-9.000000,6.000000,-11.000000
1312310.204199,27.000000,-15.000000,22.000000,-46.000000,8.000000,-13.000000,-12.000000,6.000000
1312310.204230,29.000000,7.000000,-9.000000,12.000000,-5.000000,3.000000,-1.000000,11.000000
1312310.204779,-77.000000,1.000000,-23.000000,30.000000,-10.000000,0.000000,-4.000000,-13.000000
1312310.204786,17.000000,-5.000000,11.000000,-23.000000,3.000000,-6.000000,-11.000000,3.000000
1312310.226393,-1.000000,-4.000000,2.000000,-10.000000,4.000000,2.000000,12.000000,-4.000000
1312310.226401,-25.000000,14.000000,-24.000000,46.000000,-17.000000,7.000000,3.000000,-5.000000
1312310.227415,3.000000,-5.000000,7.000000,-18.000000,0.000000,-7.000000,-7.000000,0.000000
1312310.227423,13.000000,-13.000000,21.000000,-40.000000,9.000000,-6.000000,-6.000000,13.000000
1312310.241574,-12.000000,4.000000,-14.000000,18.000000,-6.000000,4.000000,2.000000,-1.000000
1312310.241583,-12.000000,-6.000000,-7.000000,1.000000,-2.000000,-9.000000,-8.000000,-5.000000
1312310.248395,23.000000,-16.000000,27.000000,-48.000000,14.000000,-13.000000,-7.000000,10.000000
1312310.248404,-10.000000,2.000000,-12.000000,4.000000,-4.000000,8.000000,2.000000,1.000000
1312310.278394,-33.000000,11.000000,-17.000000,30.000000,-9.000000,4.000000,1.000000,-18.000000
1312310.278405,-2.000000,-1.000000,14.000000,-21.000000,4.000000,-3.000000,-7.000000,1.000000
1312310.285912,10.000000,-4.000000,-2.000000,-1.000000,1.000000,2.000000,0.000000,3.000000
1312310.285922,-21.000000,15.000000,-26.000000,45.000000,-20.000000,10.000000,3.000000,-11.000000
1312310.301550,8.000000,-11.000000,6.000000,-16.000000,2.000000,-11.000000,-7.000000,-1.000000
1312310.301580,30.000000,-9.000000,20.000000,-38.000000,15.000000,-7.000000,-2.000000,7.000000
1312310.324345,-9.000000,5.000000,-11.000000,18.000000,-7.000000,-4.000000,-12.000000,-3.000000
1312310.324444,-6.000000,1.000000,-6.000000,2.000000,-1.000000,-7.000000,-3.000000,-7.000000
1312310.325699,45.000000,-8.000000,27.000000,-47.000000,15.000000,-15.000000,-11.000000,-3.000000
1312310.325721,-19.000000,-1.000000,-7.000000,12.000000,-3.000000,9.000000,13.000000,-1.000000
1312310.326200,-51.000000,5.000000,-19.000000,28.000000,-14.000000,-3.000000,-1.000000,-2.000000
1312310.326214,20.000000,-6.000000,8.000000,-25.000000,7.000000,-6.000000,-7.000000,-4.000000
1312310.326936,0.000000,7.000000,0.000000,2.000000,-3.000000,1.000000,-4.000000,5.000000
1312310.326952,-25.000000,15.000000,-26.000000,36.000000,-19.000000,3.000000,-2.000000,-12.000000
1312310.327891,4.000000,-6.000000,6.000000,-18.000000,5.000000,-7.000000,-5.000000,-1.000000
1312310.327932,21.000000,-8.000000,13.000000,-38.000000,9.000000,-6.000000,0.000000,9.000000
1312310.339382,-15.000000,6.000000,-11.000000,20.000000,-5.000000,1.000000,1.000000,-7.000000
1312310.339401,-5.000000,-8.000000,3.000000,-4.000000,-1.000000,-11.000000,2.000000,-5.000000
1312310.346386,31.000000,-7.000000,21.000000,-50.000000,13.000000,-4.000000,-8.000000,10.000000
1312310.346445,-17.000000,3.000000,-8.000000,15.000000,-3.000000,4.000000,0.000000,-6.000000
1312310.361907,-20.000000,8.000000,-16.000000,30.000000,-12.000000,0.000000,-2.000000,-5.000000
1312310.361935,8.000000,-3.000000,11.000000,-19.000000,2.000000,-6.000000,-2.000000,-2.000000
1312310.383479,3.000000,7.000000,3.000000,3.000000,-2.000000,8.000000,2.000000,1.000000
1312310.383508,-27.000000,9.000000,-33.000000,42.000000,-13.000000,6.000000,-1.000000,-11.000000
1312310.406263,5.000000,-4.000000,11.000000,-15.000000,2.000000,-11.000000,-2.000000,0.000000
1312310.406276,23.000000,-9.000000,18.000000,-28.000000,7.000000,-2.000000,-2.000000,7.000000
1312310.421016,-14.000000,3.000000,-10.000000,20.000000,-10.000000,-3.000000,-21.000000,-5.000000
1312310.421093,-5.000000,-6.000000,8.000000,-1.000000,5.000000,1.000000,14.000000,-1.000000
1312310.421938,33.000000,-9.000000,25.000000,-47.000000,15.000000,-14.000000,-14.000000,9.000000
1312310.421956,8.000000,4.000000,-8.000000,18.000000,-2.000000,4.000000,0.000000,-3.000000
1312310.422599,2.000000,8.000000,-16.000000,32.000000,-10.000000,-1.000000,1.000000,6.000000
1312310.422607,12.000000,-4.000000,14.000000,-24.000000,0.000000,-8.000000,-8.000000,2.000000
1312310.424100,-1.000000,3.000000,0.000000,14.000000,0.000000,10.000000,0.000000,0.000000
1312310.424109,-25.000000,11.000000,-25.000000,39.000000,-14.000000,-2.000000,1.000000,-11.000000
1312310.443670,10.000000,-12.000000,11.000000,-17.000000,4.000000,-11.000000,-2.000000,4.000000
1312310.443684,23.000000,1.000000,13.000000,-33.000000,1.000000,-3.000000,-5.000000,7.000000
1312310.444552,-15.000000,6.000000,-11.000000,23.000000,-5.000000,5.000000,5.000000,-5.000000
1312310.444561,4.000000,-4.000000,1.000000,-2.000000,-3.000000,-10.000000,-6.000000,-8.000000
1312310.445309,21.000000,-9.000000,23.000000,-41.000000,17.000000,-5.000000,-3.000000,11.000000
1312310.445319,-5.000000,5.000000,-12.000000,11.000000,-4.000000,5.000000,4.000000,-4.000000
1312310.459135,-20.000000,0.000000,-17.000000,23.000000,-8.000000,-3.000000,-1.000000,-9.000000
1312310.459146,12.000000,-13.000000,13.000000,-27.000000,6.000000,-6.000000,-4.000000,8.000000
1312310.465888,-2.000000,4.000000,-3.000000,5.000000,-6.000000,10.000000,4.000000,2.000000
1312310.465916,-25.000000,12.000000,-23.000000,37.000000,-17.000000,4.000000,-4.000000,-11.000000
1312310.481508,6.000000,-2.000000,11.000000,-19.000000,-1.000000,-8.000000,-17.000000,2.000000
1312310.481517,13.000000,1.000000,16.000000,-26.000000,7.000000,-1.000000,1.000000,7.000000
1312310.503492,-18.000000,7.000000,-17.000000,26.000000,-8.000000,11.000000,6.000000,-4.000000
1312310.503502,-6.000000,-2.000000,-1.000000,-9.000000,-1.000000,-10.000000,-10.000000,-5.000000
1312310.525922,34.000000,-11.000000,22.000000,-34.000000,10.000000,-8.000000,2.000000,10.000000
1312310.525931,-52.000000,-1.000000,-9.000000,9.000000,0.000000,3.000000,-2.000000,-3.000000
1312310.541020,-3.000000,3.000000,-16.000000,24.000000,-11.000000,2.000000,1.000000,7.000000
1312310.541030,8.000000,-10.000000,17.000000,-33.000000,9.000000,-10.000000,-7.000000,5.000000
1312310.541895,-34.000000,0.000000,-7.000000,3.000000,-1.000000,1.000000,1.000000,-7.000000
1312310.541903,-25.000000,12.000000,-29.000000,46.000000,-11.000000,8.000000,10.000000,-16.000000
1312310.542609,15.000000,2.000000,17.000000,-12.000000,5.000000,-3.000000,-1.000000,12.000000
1312310.542617,16.000000,-3.000000,8.000000,-22.000000,2.000000,2.000000,-3.000000,6.000000
1312310.544116,-25.000000,6.000000,-21.000000,27.000000,-13.000000,5.000000,0.000000,-5.000000
1312310.544124,-1.000000,-6.000000,5.000000,-17.000000,6.000000,-8.000000,1.000000,0.000000
1312310.555895,35.000000,-7.000000,18.000000,-40.000000,11.000000,-8.000000,-4.000000,9.000000
1312310.555917,-6.000000,-1.000000,-10.000000,13.000000,-7.000000,3.000000,3.000000,2.000000
1312310.557066,-17.000000,-2.000000,-6.000000,22.000000,-7.000000,-7.000000,-4.000000,-10.000000
1312310.557075,15.000000,-10.000000,20.000000,-32.000000,9.000000,-3.000000,6.000000,-1.000000
1312310.563371,-10.000000,-5.000000,-9.000000,14.000000,-7.000000,9.000000,20.000000,0.000000
1312310.563387,-24.000000,10.000000,-19.000000,35.000000,-13.000000,2.000000,-7.000000,-9.000000
1312310.579322,6.000000,-7.000000,11.000000,-19.000000,4.000000,-10.000000,-9.000000,1.000000
1312310.579332,11.000000,5.000000,7.000000,-20.000000,6.000000,8.000000,10.000000,6.000000
1312310.601483,-21.000000,11.000000,-24.000000,31.000000,-10.000000,16.000000,10.000000,-6.000000
1312310.601514,3.000000,-14.000000,6.000000,-14.000000,1.000000,-7.000000,-8.000000,2.000000
1312310.616031,44.000000,-5.000000,21.000000,-36.000000,12.000000,-1.000000,6.000000,9.000000
1312310.616050,-44.000000,1.000000,-12.000000,10.000000,-10.000000,4.000000,6.000000,-8.000000
1312310.623723,-7.000000,0.000000,-10.000000,24.000000,-10.000000,-7.000000,-4.000000,-4.000000
1312310.623747,26.000000,-12.000000,17.000000,-36.000000,8.000000,1.000000,5.000000,2.000000
1312310.653572,6.000000,5.000000,-5.000000,15.000000,-10.000000,5.000000,0.000000,13.000000
1312310.653592,-27.000000,7.000000,-18.000000,34.000000,-14.000000,0.000000,5.000000,-19.000000
1312310.661507,10.000000,-1.000000,9.000000,-15.000000,1.000000,-5.000000,-8.000000,-3.000000
1312310.661541,11.000000,1.000000,7.000000,-13.000000,7.000000,-1.000000,0.000000,10.000000
1312310.663483,-18.000000,11.000000,-26.000000,36.000000,-10.000000,9.000000,0.000000,-10.000000
1312310.663501,0.000000,-9.000000,9.000000,-13.000000,1.000000,-9.000000,-3.000000,-3.000000
1312310.663750,28.000000,-6.000000,18.000000,-37.000000,13.000000,-3.000000,-3.000000,7.000000
1312310.663789,-11.000000,5.000000,-14.000000,18.000000,-10.000000,2.000000,-4.000000,-2.000000
1312310.664804,-20.000000,1.000000,-7.000000,21.000000,-5.000000,0.000000,8.000000,-7.000000
1312310.664820,24.000000,-13.000000,23.000000,-48.000000,9.000000,-15.000000,-11.000000,7.000000
1312310.676595,-6.000000,5.000000,-9.000000,10.000000,-4.000000,6.000000,8.000000,-4.000000
1312310.676622,-23.000000,5.000000,-20.000000,39.000000,-11.000000,2.000000,2.000000,-11.000000
1312310.677863,19.000000,-10.000000,9.000000,-19.000000,3.000000,-3.000000,-7.000000,2.000000
1312310.677880,7.000000,1.000000,3.000000,-14.000000,8.000000,5.000000,-2.000000,9.000000
1312310.683793,-7.000000,16.000000,-22.000000,47.000000,-10.000000,10.000000,2.000000,-3.000000
1312310.683811,-31.000000,-13.000000,5.000000,-18.000000,6.000000,-13.000000,-23.000000,-9.000000
1312310.699789,25.000000,-11.000000,19.000000,-40.000000,13.000000,4.000000,5.000000,17.000000
1312310.699808,-10.000000,6.000000,-5.000000,23.000000,-4.000000,6.000000,3.000000,-6.000000
1312310.721540,-10.000000,-2.000000,-7.000000,15.000000,-5.000000,-5.000000,-3.000000,-13.000000
1312310.721560,27.000000,-15.000000,26.000000,-44.000000,11.000000,-16.000000,-8.000000,6.000000
1312310.736679,-9.000000,8.000000,-6.000000,10.000000,-6.000000,6.000000,-3.000000,6.000000
1312310.736699,-40.000000,1.000000,-20.000000,29.000000,-10.000000,7.000000,5.000000,-6.000000
1312310.743881,-20.000000,3.000000,9.000000,-29.000000,2.000000,-11.000000,-1.000000,-6.000000
1312310.743899,23.000000,2.000000,5.000000,-13.000000,4.000000,1.000000,3.000000,3.000000
1312310.781396,-30.000000,16.000000,-28.000000,48.000000,-13.000000,16.000000,10.000000,-7.000000
1312310.781414,4.000000,-5.000000,2.000000,-9.000000,1.000000,-6.000000,-9.000000,-4.000000
1312310.796386,21.000000,-9.000000,24.000000,-38.000000,10.000000,-7.000000,-9.000000,10.000000
1312310.796406,-12.000000,1.000000,-13.000000,20.000000,-8.000000,12.000000,10.000000,-3.000000
1312310.818619,-12.000000,-5.000000,-4.000000,7.000000,-7.000000,-8.000000,-7.000000,-11.000000
1312310.818647,24.000000,-16.000000,29.000000,-51.000000,17.000000,-7.000000,-8.000000,3.000000
1312310.818987,-7.000000,3.000000,-8.000000,12.000000,-5.000000,6.000000,0.000000,-2.000000
1312310.818994,-25.000000,10.000000,-19.000000,38.000000,-13.000000,1.000000,7.000000,-3.000000
1312310.820665,8.000000,-2.000000,10.000000,-20.000000,3.000000,-4.000000,-4.000000,1.000000
1312310.820675,7.000000,4.000000,2.000000,-7.000000,1.000000,5.000000,0.000000,7.000000
1312310.834743,-12.000000,6.000000,-3.000000,7.000000,-3.000000,2.000000,-2.000000,4.000000
1312310.834774,-12.000000,8.000000,-19.000000,36.000000,-13.000000,11.000000,9.000000,2.000000
1312310.835536,12.000000,-10.000000,10.000000,-23.000000,6.000000,-11.000000,-8.000000,0.000000
1312310.835550,4.000000,0.000000,2.000000,-9.000000,-1.000000,2.000000,1.000000,1.000000
1312310.837072,-25.000000,8.000000,-27.000000,52.000000,-16.000000,8.000000,0.000000,-13.000000
1312310.837087,3.000000,-3.000000,7.000000,-13.000000,3.000000,-8.000000,-6.000000,-4.000000
1312310.855900,28.000000,-6.000000,17.000000,-37.000000,11.000000,-2.000000,10.000000,7.000000
1312310.855910,-15.000000,3.000000,-11.000000,15.000000,-11.000000,0.000000,-4.000000,-5.000000
1312310.878796,-7.000000,-4.000000,-3.000000,4.000000,-3.000000,-9.000000,-7.000000,-1.000000
1312310.878806,28.000000,-12.000000,23.000000,-50.000000,16.000000,-11.000000,-1.000000,8.000000
1312310.879415,-7.000000,1.000000,-9.000000,14.000000,-5.000000,5.000000,1.000000,-1.000000
1312310.879423,-20.000000,8.000000,-16.000000,28.000000,-10.000000,0.000000,-3.000000,-6.000000
1312310.881088,-3.000000,-11.000000,14.000000,-24.000000,6.000000,-5.000000,-3.000000,0.000000
1312310.881097,8.000000,-1.000000,-5.000000,-1.000000,-1.000000,8.000000,0.000000,3.000000
1312310.893587,9.000000,13.000000,-27.000000,48.000000,-20.000000,4.000000,-3.000000,-6.000000
1312310.893604,13.000000,-8.000000,6.000000,-19.000000,6.000000,-5.000000,-8.000000,0.000000
1312310.916142,22.000000,-3.000000,15.000000,-32.000000,13.000000,-5.000000,6.000000,13.000000
1312310.916152,-26.000000,-1.000000,-9.000000,18.000000,-8.000000,8.000000,-5.000000,-8.000000
1312310.923785,-4.000000,-8.000000,0.000000,1.000000,-2.000000,-11.000000,1.000000,-7.000000
1312310.923812,28.000000,-16.000000,24.000000,-45.000000,9.000000,-12.000000,0.000000,9.000000
1312310.938732,-6.000000,2.000000,-10.000000,12.000000,0.000000,6.000000,-4.000000,1.000000
1312310.938806,-23.000000,3.000000,-20.000000,28.000000,-14.000000,2.000000,2.000000,-12.000000
1312310.939038,8.000000,-14.000000,10.000000,-25.000000,5.000000,-7.000000,-6.000000,1.000000
1312310.939046,3.000000,2.000000,-3.000000,4.000000,-4.000000,7.000000,-1.000000,-4.000000
1312310.940775,-29.000000,11.000000,-23.000000,44.000000,-23.000000,5.000000,-10.000000,-11.000000
1312310.940790,1.000000,-8.000000,9.000000,-13.000000,9.000000,-6.000000,4.000000,3.000000
1312310.953599,23.000000,-7.000000,15.000000,-30.000000,6.000000,-5.000000,-1.000000,7.000000
1312310.953608,2.000000,8.000000,-12.000000,25.000000,-5.000000,6.000000,-4.000000,-6.000000
1312310.961182,-18.000000,-4.000000,2.000000,-5.000000,1.000000,-6.000000,-7.000000,-5.000000
1312310.961193,29.000000,-12.000000,22.000000,-43.000000,15.000000,-12.000000,-2.000000,6.000000
1312310.968752,-9.000000,3.000000,-9.000000,16.000000,-6.000000,7.000000,-7.000000,-5.000000
1312310.968762,-25.000000,1.000000,-17.000000,30.000000,-15.000000,-4.000000,4.000000,-7.000000
1312310.998755,-5.000000,-9.000000,14.000000,-36.000000,10.000000,-5.000000,-4.000000,-6.000000
1312310.998766,15.000000,5.000000,-3.000000,8.000000,-1.000000,8.000000,1.000000,3.000000
1312311.013969,-16.000000,11.000000,-28.000000,46.000000,-15.000000,16.000000,18.000000,-10.000000
1312311.013985,5.000000,-13.000000,10.000000,-18.000000,3.000000,-8.000000,-9.000000,-9.000000
1312311.015005,24.000000,-4.000000,11.000000,-29.000000,9.000000,-5.000000,0.000000,9.000000
1312311.015037,-15.000000,9.000000,-14.000000,23.000000,-4.000000,5.000000,0.000000,-8.000000
1312311.015542,2.000000,-9.000000,3.000000,-6.000000,-1.000000,-10.000000,-4.000000,-6.000000
1312311.015551,25.000000,-12.000000,23.000000,-37.000000,13.000000,-3.000000,7.000000,7.000000
1312311.021185,-8.000000,5.000000,-9.000000,12.000000,-5.000000,5.000000,1.000000,-4.000000
1312311.021196,-21.000000,1.000000,-17.000000,26.000000,-10.000000,2.000000,-4.000000,-11.000000
1312311.036031,9.000000,-8.000000,14.000000,-33.000000,3.000000,-11.000000,16.000000,0.000000
1312311.036046,-3.000000,8.000000,-6.000000,5.000000,-3.000000,5.000000,-1.000000,1.000000
1312311.058798,-35.000000,8.000000,-21.000000,37.000000,-14.000000,3.000000,-8.000000,-6.000000
1312311.058825,10.000000,-6.000000,9.000000,-25.000000,1.000000,-9.000000,-4.000000,0.000000
1312311.059517,17.000000,-8.000000,15.000000,-22.000000,4.000000,1.000000,-3.000000,9.000000
1312311.059543,-11.000000,4.000000,-15.000000,30.000000,-11.000000,2.000000,4.000000,-3.000000
1312311.060977,10.000000,-4.000000,5.000000,-11.000000,0.000000,-5.000000,-8.000000,-5.000000
1312311.061004,-41.000000,-18.000000,21.000000,-48.000000,17.000000,-3.000000,-4.000000,-1.000000
1312311.073473,1.000000,6.000000,-8.000000,11.000000,-5.000000,7.000000,-1.000000,-4.000000
1312311.073504,-15.000000,3.000000,-15.000000,15.000000,-9.000000,-6.000000,-8.000000,-13.000000
1312311.081113,19.000000,-13.000000,14.000000,-27.000000,8.000000,-5.000000,-2.000000,10.000000
1312311.081163,1.000000,7.000000,-7.000000,9.000000,-7.000000,6.000000,-1.000000,8.000000
1312311.096097,-22.000000,9.000000,-19.000000,31.000000,-14.000000,-4.000000,-4.000000,-14.000000
1312311.096125,2.000000,-4.000000,13.000000,-22.000000,4.000000,-3.000000,-7.000000,0.000000
1312311.118621,11.000000,-8.000000,8.000000,-14.000000,6.000000,2.000000,2.000000,5.000000
1312311.118731,-21.000000,18.000000,-20.000000,28.000000,-12.000000,4.000000,-1.000000,-8.000000
1312311.118897,-7.000000,-3.000000,5.000000,-8.000000,3.000000,-2.000000,11.000000,0.000000
1312311.118904,26.000000,-10.000000,22.000000,-42.000000,10.000000,-5.000000,-3.000000,8.000000
1312311.120315,-8.000000,2.000000,-13.000000,16.000000,-8.000000,2.000000,-12.000000,-1.000000
1312311.120323,-17.000000,4.000000,-13.000000,20.000000,-11.000000,-2.000000,3.000000,-13.000000
1312311.133454,18.000000,-13.000000,22.000000,-40.000000,10.000000,-13.000000,-8.000000,4.000000
1312311.133482,17.000000,9.000000,-8.000000,18.000000,-5.000000,9.000000,-1.000000,4.000000
1312311.156083,-25.000000,8.000000,-24.000000,42.000000,-15.000000,7.000000,1.000000,-12.000000
1312311.156112,12.000000,-6.000000,5.000000,-16.000000,6.000000,-11.000000,-5.000000,0.000000
1312311.156532,19.000000,-1.000000,13.000000,-17.000000,3.000000,0.000000,-2.000000,7.000000
1312311.156541,-18.000000,7.000000,-21.000000,36.000000,-11.000000,8.000000,-2.000000,-7.000000
1312311.157881,9.000000,-6.000000,10.000000,-6.000000,4.000000,-4.000000,4.000000,-7.000000
1312311.157908,-21.000000,-12.000000,17.000000,-39.000000,7.000000,-4.000000,-3.000000,9.000000
1312311.171158,-6.000000,7.000000,-1.000000,8.000000,-3.000000,5.000000,-3.000000,5.000000
1312311.171177,-16.000000,-1.000000,-11.000000,17.000000,-9.000000,0.000000,1.000000,-10.000000
1312311.178884,20.000000,-14.000000,21.000000,-39.000000,13.000000,-13.000000,-6.000000,3.000000
1312311.178930,-3.000000,4.000000,-16.000000,13.000000,-3.000000,10.000000,8.000000,1.000000
1312311.193707,-26.000000,5.000000,-18.000000,32.000000,-10.000000,3.000000,-4.000000,-6.000000
1312311.193732,7.000000,-6.000000,8.000000,-18.000000,8.000000,-7.000000,2.000000,2.000000
1312311.215951,15.000000,-1.000000,7.000000,-14.000000,0.000000,5.000000,-5.000000,7.000000
1312311.215980,-23.000000,16.000000,-21.000000,40.000000,-10.000000,12.000000,-1.000000,-13.000000
1312311.224284,6.000000,2.000000,6.000000,-15.000000,10.000000,-3.000000,1.000000,-2.000000
1312311.224298,24.000000,-10.000000,20.000000,-38.000000,8.000000,-2.000000,-7.000000,8.000000
1312311.238630,-1.000000,9.000000,-10.000000,20.000000,-11.000000,6.000000,1.000000,-8.000000
1312311.238654,-22.000000,-4.000000,-6.000000,5.000000,-9.000000,3.000000,-10.000000,-9.000000
1312311.239292,21.000000,-15.000000,20.000000,-43.000000,14.000000,-12.000000,-5.000000,6.000000
1312311.239317,-2.000000,5.000000,-3.000000,10.000000,-5.000000,1.000000,-1.000000,2.000000
1312311.253963,-25.000000,10.000000,-20.000000,40.000000,-12.000000,7.000000,11.000000,-11.000000
1312311.253972,8.000000,-4.000000,6.000000,-24.000000,3.000000,-11.000000,-5.000000,4.000000
1312311.254594,7.000000,5.000000,3.000000,-11.000000,-1.000000,6.000000,4.000000,6.000000
1312311.254622,-22.000000,15.000000,-20.000000,46.000000,-14.000000,10.000000,-2.000000,-7.000000
1312311.276153,18.000000,-3.000000,13.000000,-10.000000,0.000000,-12.000000,-6.000000,0.000000
1312311.276260,27.000000,-6.000000,13.000000,-35.000000,8.000000,-6.000000,-3.000000,8.000000
1312311.276538,-15.000000,4.000000,-7.000000,20.000000,-6.000000,7.000000,4.000000,-1.000000
1312311.276551,-12.000000,-4.000000,-10.000000,8.000000,-4.000000,-4.000000,-1.000000,-8.000000
1312311.277873,29.000000,-18.000000,24.000000,-47.000000,9.000000,-10.000000,-7.000000,3.000000
1312311.277901,-4.000000,7.000000,-10.000000,11.000000,-6.000000,7.000000,-3.000000,-6.000000
1312311.290905,-10.000000,10.000000,-24.000000,34.000000,-16.000000,3.000000,-6.000000,-4.000000
1312311.290915,15.000000,-9.000000,13.000000,-18.000000,5.000000,-6.000000,6.000000,10.000000
1312311.298528,27.000000,7.000000,1.000000,-5.000000,-2.000000,-2.000000,14.000000,4.000000
1312311.298556,-22.000000,12.000000,-27.000000,45.000000,-17.000000,11.000000,2.000000,-14.000000
1312311.313579,6.000000,-6.000000,7.000000,-14.000000,4.000000,-10.000000,-5.000000,-3.000000
1312311.313603,23.000000,-7.000000,24.000000,-33.000000,8.000000,-9.000000,-4.000000,11.000000
1312311.336061,-11.000000,8.000000,-9.000000,18.000000,-8.000000,0.000000,2.000000,-8.000000
1312311.336089,1.000000,3.000000,-8.000000,12.000000,-5.000000,9.000000,7.000000,-4.000000
1312311.351241,74.000000,-14.000000,22.000000,-44.000000,14.000000,-15.000000,-9.000000,8.000000
1312311.351274,-9.000000,2.000000,-11.000000,12.000000,-7.000000,3.000000,-4.000000,0.000000
1312311.388501,-28.000000,6.000000,-17.000000,31.000000,-7.000000,4.000000,1.000000,-7.000000
1312311.388511,-9.000000,-10.000000,10.000000,-19.000000,5.000000,-9.000000,-3.000000,1.000000
1312311.395794,10.000000,4.000000,2.000000,-8.000000,-1.000000,3.000000,2.000000,5.000000
1312311.395802,-26.000000,12.000000,-26.000000,40.000000,-12.000000,8.000000,2.000000,-11.000000
1312311.433545,1.000000,-11.000000,11.000000,-12.000000,2.000000,-1.000000,-3.000000,4.000000
1312311.433555,23.000000,-4.000000,20.000000,-36.000000,17.000000,-6.000000,3.000000,5.000000
1312311.448642,-13.000000,2.000000,-12.000000,22.000000,-12.000000,4.000000,5.000000,-3.000000
1312311.448670,-9.000000,-5.000000,1.000000,8.000000,-6.000000,-4.000000,1.000000,-6.000000
1312311.471114,8.000000,-18.000000,23.000000,-50.000000,17.000000,-11.000000,-1.000000,1.000000
1312311.471144,-8.000000,5.000000,-4.000000,9.000000,-6.000000,-1.000000,3.000000,4.000000
1312311.493752,6.000000,-4.000000,6.000000,-10.000000,0.000000,-10.000000,-7.000000,1.000000
1312311.493789,20.000000,-7.000000,18.000000,-39.000000,10.000000,-4.000000,0.000000,9.000000
1312311.494484,25.000000,-14.000000,24.000000,-53.000000,16.000000,-9.000000,2.000000,6.000000
1312311.494493,14.000000,5.000000,-12.000000,17.000000,-3.000000,9.000000,-11.000000,3.000000
1312311.495165,7.000000,2.000000,-6.000000,2.000000,-2.000000,5.000000,-3.000000,2.000000
1312311.495173,-25.000000,10.000000,-27.000000,46.000000,-13.000000,10.000000,6.000000,-4.000000
1312311.495734,-10.000000,3.000000,-9.000000,22.000000,-8.000000,-3.000000,-19.000000,-6.000000
1312311.495742,-4.000000,-3.000000,0.000000,-2.000000,-3.000000,-3.000000,7.000000,-4.000000
1312311.497189,-21.000000,3.000000,-15.000000,25.000000,-9.000000,4.000000,1.000000,-9.000000
1312311.497197,13.000000,-5.000000,14.000000,-26.000000,7.000000,-4.000000,-2.000000,3.000000
1312311.508611,6.000000,6.000000,-2.000000,7.000000,-1.000000,7.000000,1.000000,2.000000
1312311.508628,-26.000000,7.000000,-29.000000,43.000000,-15.000000,10.000000,1.000000,-11.000000
1312311.509277,8.000000,-3.000000,6.000000,-15.000000,0.000000,-8.000000,-1.000000,-1.000000
1312311.509308,38.000000,-6.000000,15.000000,-27.000000,13.000000,-5.000000,-1.000000,13.000000
1312311.516950,-34.000000,5.000000,-10.000000,18.000000,-11.000000,4.000000,2.000000,-2.000000
1312311.516960,-2.000000,-1.000000,-3.000000,-3.000000,-2.000000,-8.000000,-6.000000,-6.000000
1312311.530943,27.000000,-14.000000,24.000000,-42.000000,12.000000,-6.000000,-6.000000,8.000000
1312311.530955,1.000000,1.000000,-11.000000,23.000000,-2.000000,6.000000,3.000000,2.000000
1312311.553801,-25.000000,2.000000,-19.000000,26.000000,-12.000000,-1.000000,2.000000,5.000000
1312311.553820,27.000000,-7.000000,15.000000,-21.000000,6.000000,-7.000000,0.000000,1.000000
1312311.568936,-3.000000,2.000000,-3.000000,3.000000,-2.000000,7.000000,2.000000,-1.000000
1312311.568959,-23.000000,11.000000,-21.000000,47.000000,-14.000000,8.000000,8.000000,-4.000000
1312311.598385,11.000000,-3.000000,4.000000,-18.000000,6.000000,-7.000000,-15.000000,-4.000000
1312311.598412,21.000000,-3.000000,13.000000,-31.000000,9.000000,1.000000,4.000000,5.000000
1312311.606100,-10.000000,3.000000,-14.000000,23.000000,-7.000000,4.000000,-2.000000,-3.000000
1312311.606128,-3.000000,-5.000000,4.000000,-11.000000,-2.000000,-9.000000,-6.000000,-8.000000
1312311.628439,26.000000,-11.000000,28.000000,-38.000000,15.000000,-7.000000,-4.000000,6.000000
1312311.628457,-5.000000,10.000000,-13.000000,12.000000,-5.000000,1.000000,2.000000,-1.000000
1312311.628838,-14.000000,-1.000000,-16.000000,26.000000,-8.000000,0.000000,0.000000,-5.000000
1312311.628864,13.000000,-14.000000,17.000000,-24.000000,5.000000,-4.000000,-6.000000,2.000000
1312311.630378,5.000000,-9.000000,12.000000,-18.000000,4.000000,-3.000000,-2.000000,-2.000000
1312311.630394,24.000000,1.000000,6.000000,-21.000000,5.000000,3.000000,-11.000000,7.000000
1312311.631428,6.000000,7.000000,-20.000000,28.000000,-10.000000,7.000000,5.000000,-4.000000
1312311.631437,-25.000000,-8.000000,9.000000,-4.000000,1.000000,-7.000000,-10.000000,7.000000
1312311.632374,31.000000,-17.000000,23.000000,-46.000000,10.000000,-5.000000,1.000000,5.000000
1312311.632383,-10.000000,2.000000,-10.000000,16.000000,-5.000000,4.000000,5.000000,-9.000000
1312311.636439,-12.000000,-4.000000,-16.000000,21.000000,-8.000000,-4.000000,-2.000000,-8.000000
1312311.636447,17.000000,-1.000000,19.000000,-34.000000,8.000000,-12.000000,9.000000,3.000000
1312311.651338,-16.000000,2.000000,-7.000000,7.000000,-5.000000,3.000000,-9.000000,-4.000000
1312311.651356,-22.000000,4.000000,-21.000000,40.000000,-12.000000,11.000000,13.000000,-6.000000
1312311.665964,23.000000,-7.000000,5.000000,-20.000000,-1.000000,-7.000000,-10.000000,7.000000
1312311.665975,-48.000000,-16.000000,10.000000,-21.000000,9.000000,3.000000,12.000000,2.000000
1312311.673484,14.000000,11.000000,-19.000000,35.000000,-13.000000,8.000000,-1.000000,-10.000000
1312311.673493,6.000000,-3.000000,5.000000,-11.000000,1.000000,-10.000000,-3.000000,-5.000000
1312311.711141,26.000000,-4.000000,19.000000,-45.000000,7.000000,-4.000000,1.000000,11.000000
1312311.711153,-7.000000,5.000000,-12.000000,25.000000,-7.000000,0.000000,-2.000000,-2.000000
1312311.725991,-7.000000,7.000000,-7.000000,20.000000,-13.000000,-2.000000,-2.000000,-10.000000
1312311.726020,22.000000,-14.000000,15.000000,-40.000000,9.000000,-9.000000,-1.000000,0.000000
1312311.726944,-2.000000,4.000000,-5.000000,3.000000,-3.000000,2.000000,1.000000,0.000000
1312311.726970,-25.000000,7.000000,-21.000000,40.000000,-14.000000,9.000000,7.000000,-14.000000
1312311.727711,21.000000,-10.000000,6.000000,-16.000000,4.000000,1.000000,-5.000000,0.000000
1312311.727738,-40.000000,-1.000000,9.000000,-21.000000,4.000000,-1.000000,2.000000,5.000000
1312311.729132,-13.000000,8.000000,-22.000000,29.000000,-13.000000,7.000000,-5.000000,-3.000000
1312311.729139,3.000000,-4.000000,7.000000,-12.000000,4.000000,3.000000,-1.000000,-2.000000
1312311.748866,-16.000000,1.000000,-7.000000,16.000000,-9.000000,7.000000,-1.000000,-10.000000
1312311.748884,18.000000,-11.000000,17.000000,-38.000000,4.000000,-8.000000,11.000000,4.000000
1312311.749535,-1.000000,8.000000,-8.000000,8.000000,1.000000,5.000000,0.000000,-6.000000
1312311.749551,-36.000000,3.000000,-21.000000,35.000000,-12.000000,6.000000,-6.000000,-8.000000
1312311.771544,2.000000,-13.000000,11.000000,-11.000000,5.000000,-4.000000,-3.000000,12.000000
1312311.771553,11.000000,2.000000,6.000000,-13.000000,1.000000,8.000000,7.000000,7.000000
1312311.772072,-22.000000,10.000000,-23.000000,38.000000,-13.000000,9.000000,6.000000,-10.000000
1312311.772098,2.000000,-5.000000,10.000000,-5.000000,2.000000,-5.000000,-1.000000,-4.000000
1312311.786061,33.000000,-4.000000,23.000000,-40.000000,8.000000,-4.000000,-1.000000,10.000000
1312311.786099,2.000000,2.000000,-11.000000,27.000000,-2.000000,10.000000,6.000000,-6.000000
1312311.793862,-12.000000,6.000000,-13.000000,17.000000,-9.000000,-6.000000,1.000000,-9.000000
1312311.793876,24.000000,-12.000000,21.000000,-39.000000,12.000000,-12.000000,-9.000000,1.000000
1312311.808393,-6.000000,0.000000,-6.000000,8.000000,-3.000000,4.000000,2.000000,2.000000
1312311.808417,-27.000000,7.000000,-20.000000,40.000000,-15.000000,6.000000,0.000000,-11.000000
1312311.831654,48.000000,3.000000,7.000000,-13.000000,4.000000,-6.000000,-2.000000,4.000000
1312311.831675,-30.000000,-3.000000,4.000000,-16.000000,4.000000,0.000000,-7.000000,4.000000
1312311.832765,-18.000000,12.000000,-18.000000,39.000000,-12.000000,8.000000,3.000000,-6.000000
1312311.832785,3.000000,-5.000000,11.000000,-9.000000,4.000000,-12.000000,6.000000,-4.000000
1312311.833397,23.000000,-14.000000,21.000000,-39.000000,11.000000,-8.000000,-4.000000,10.000000
1312311.833416,-3.000000,6.000000,-11.000000,19.000000,-11.000000,8.000000,-5.000000,-6.000000
1312311.846649,-18.000000,-5.000000,-3.000000,15.000000,-7.000000,-9.000000,-3.000000,-10.000000
1312311.846927,32.000000,-9.000000,22.000000,-41.000000,13.000000,-15.000000,-18.000000,9.000000
1312311.847300,-6.000000,8.000000,-12.000000,13.000000,-2.000000,6.000000,-7.000000,2.000000
1312311.847319,-42.000000,6.000000,-19.000000,30.000000,-13.000000,5.000000,5.000000,-10.000000
1312311.868324,8.000000,-11.000000,13.000000,-23.000000,7.000000,-3.000000,-5.000000,1.000000
1312311.868334,16.000000,2.000000,2.000000,-10.000000,6.000000,3.000000,2.000000,6.000000
1312311.869059,-27.000000,18.000000,-31.000000,47.000000,-19.000000,8.000000,-3.000000,-7.000000
1312311.869067,6.000000,-7.000000,10.000000,-19.000000,-3.000000,-7.000000,-2.000000,-9.000000
1312311.891713,28.000000,-6.000000,24.000000,-44.000000,9.000000,-5.000000,-5.000000,12.000000
1312311.891740,-13.000000,0.000000,-14.000000,17.000000,-4.000000,4.000000,0.000000,-10.000000
1312311.892068,-9.000000,-3.000000,-2.000000,3.000000,-5.000000,-11.000000,-2.000000,-9.000000
1312311.892095,12.000000,-15.000000,25.000000,-44.000000,14.000000,-6.000000,0.000000,6.000000
1312311.906001,3.000000,12.000000,-12.000000,3.000000,-3.000000,0.000000,-2.000000,-4.000000
1312311.906049,-22.000000,3.000000,-18.000000,37.000000,-16.000000,0.000000,0.000000,-12.000000
1312311.913346,7.000000,2.000000,10.000000,-19.000000,7.000000,-8.000000,-2.000000,-2.000000
1312311.913373,12.000000,2.000000,1.000000,-4.000000,7.000000,3.000000,0.000000,4.000000
1312311.943567,-26.000000,16.000000,-23.000000,47.000000,-15.000000,11.000000,4.000000,-6.000000
1312311.943577,27.000000,-9.000000,0.000000,-9.000000,2.000000,-6.000000,-3.000000,-10.000000
1312311.950963,33.000000,-2.000000,18.000000,-34.000000,10.000000,-9.000000,-8.000000,12.000000
1312311.950978,-11.000000,4.000000,-16.000000,16.000000,-10.000000,2.000000,-1.000000,0.000000
1312311.966674,-7.000000,-3.000000,-3.000000,5.000000,-5.000000,-3.000000,-2.000000,-9.000000
1312311.966686,29.000000,-14.000000,28.000000,-48.000000,14.000000,-20.000000,5.000000,10.000000
1312311.967153,-9.000000,2.000000,-10.000000,6.000000,-7.000000,9.000000,5.000000,2.000000
1312311.967164,-25.000000,1.000000,-22.000000,32.000000,-12.000000,5.000000,-2.000000,-11.000000
1312311.968480,7.000000,-12.000000,11.000000,-26.000000,5.000000,-8.000000,1.000000,2.000000
1312311.968489,1.000000,4.000000,3.000000,-4.000000,1.000000,5.000000,6.000000,4.000000
1312311.988440,-14.000000,14.000000,-26.000000,50.000000,-16.000000,7.000000,-11.000000,-12.000000
1312311.988462,11.000000,-1.000000,5.000000,-16.000000,6.000000,-4.000000,2.000000,-2.000000
1312311.989584,25.000000,-2.000000,19.000000,-34.000000,9.000000,-2.000000,-1.000000,12.000000
1312311.989604,-9.000000,-1.000000,-12.000000,18.000000,-8.000000,1.000000,-10.000000,-6.000000
1312311.990273,-27.000000,-9.000000,4.000000,-6.000000,-6.000000,-7.000000,-3.000000,-16.000000
1312311.990295,26.000000,-13.000000,25.000000,-51.000000,14.000000,-12.000000,-10.000000,4.000000
1312312.003898,-12.000000,3.000000,-10.000000,10.000000,-5.000000,7.000000,3.000000,2.000000
1312312.003907,-24.000000,12.000000,-18.000000,34.000000,-10.000000,7.000000,6.000000,-16.000000
1312312.011130,10.000000,-11.000000,6.000000,-19.000000,6.000000,-2.000000,-1.000000,-1.000000
1312312.011161,5.000000,2.000000,-8.000000,3.000000,-2.000000,3.000000,2.000000,6.000000
1312312.026165,-37.000000,12.000000,-28.000000,43.000000,-14.000000,4.000000,5.000000,-10.000000
1312312.026176,15.000000,-8.000000,5.000000,-19.000000,3.000000,-13.000000,-10.000000,0.000000
1312312.040963,33.000000,-1.000000,18.000000,-28.000000,8.000000,6.000000,6.000000,6.000000
1312312.040973,-7.000000,6.000000,-13.000000,21.000000,-5.000000,0.000000,-16.000000,-4.000000
1312312.063514,-1.000000,-6.000000,1.000000,-2.000000,0.000000,-3.000000,2.000000,8.000000
1312312.063525,33.000000,-13.000000,21.000000,-43.000000,14.000000,-13.000000,-12.000000,4.000000
1312312.078373,-2.000000,6.000000,-13.000000,17.000000,-7.000000,6.000000,1.000000,0.000000
1312312.078394,-26.000000,6.000000,-16.000000,34.000000,-12.000000,5.000000,2.000000,-6.000000
1312312.108716,37.000000,-4.000000,9.000000,-13.000000,3.000000,-6.000000,-6.000000,7.000000
1312312.108728,-46.000000,-2.000000,-5.000000,-9.000000,-3.000000,6.000000,-4.000000,-3.000000
1312312.123348,-18.000000,11.000000,-24.000000,42.000000,-17.000000,9.000000,3.000000,-6.000000
1312312.123359,19.000000,-3.000000,13.000000,-18.000000,3.000000,-11.000000,-1.000000,-1.000000
1312312.124453,9.000000,-4.000000,16.000000,-30.000000,11.000000,-6.000000,-2.000000,2.000000
1312312.124461,-9.000000,0.000000,-14.000000,20.000000,-7.000000,7.000000,17.000000,-5.000000
1312312.125153,-8.000000,-6.000000,1.000000,-5.000000,0.000000,-10.000000,-15.000000,-2.000000
1312312.125171,15.000000,-6.000000,27.000000,-44.000000,17.000000,-2.000000,-3.000000,10.000000
1312312.126472,12.000000,-8.000000,8.000000,-19.000000,3.000000,-9.000000,3.000000,5.000000
1312312.126490,2.000000,7.000000,-6.000000,0.000000,-1.000000,3.000000,-7.000000,4.000000
1312312.127275,-29.000000,4.000000,-26.000000,42.000000,-15.000000,13.000000,12.000000,-8.000000
1312312.127285,5.000000,-5.000000,7.000000,-15.000000,9.000000,-2.000000,2.000000,4.000000
1312312.130638,18.000000,-4.000000,12.000000,-23.000000,8.000000,-2.000000,-3.000000,11.000000
1312312.130647,-14.000000,7.000000,-10.000000,24.000000,-7.000000,5.000000,-10.000000,-6.000000
1312312.146183,-9.000000,-5.000000,8.000000,-8.000000,-1.000000,-11.000000,3.000000,-8.000000
1312312.146194,30.000000,-10.000000,23.000000,-45.000000,14.000000,-14.000000,-6.000000,10.000000
1312312.161232,-13.000000,2.000000,-10.000000,16.000000,-7.000000,6.000000,1.000000,-1.000000
1312312.161242,-19.000000,0.000000,-16.000000,18.000000,-7.000000,-3.000000,-2.000000,-10.000000
1312312.183470,7.000000,-5.000000,13.000000,-30.000000,6.000000,-6.000000,0.000000,6.000000
1312312.183481,14.000000,6.000000,-5.000000,9.000000,-5.000000,6.000000,3.000000,0.000000
1312312.206194,-32.000000,8.000000,-25.000000,41.000000,-16.000000,13.000000,-1.000000,-12.000000
1312312.206205,6.000000,-9.000000,7.000000,-16.000000,5.000000,-9.000000,-5.000000,1.000000
1312312.228262,3.000000,-1.000000,12.000000,-24.000000,13.000000,1.000000,1.000000,3.000000
1312312.228272,-6.000000,6.000000,-15.000000,28.000000,-9.000000,10.000000,3.000000,-3.000000
1312312.243760,-3.000000,-8.000000,6.000000,-14.000000,-1.000000,-9.000000,-5.000000,-6.000000
1312312.243808,24.000000,-11.000000,18.000000,-42.000000,13.000000,-9.000000,-1.000000,4.000000
1312312.244698,-10.000000,7.000000,-9.000000,12.000000,-5.000000,4.000000,4.000000,-5.000000
1312312.244725,-19.000000,3.000000,-15.000000,19.000000,-9.000000,2.000000,-6.000000,-14.000000
1312312.245364,15.000000,-8.000000,15.000000,-26.000000,8.000000,-5.000000,-4.000000,6.000000
1312312.245372,-1.000000,0.000000,-7.000000,4.000000,-4.000000,2.000000,3.000000,2.000000
1312312.245997,-26.000000,9.000000,-20.000000,41.000000,-18.000000,8.000000,-3.000000,-11.000000
1312312.246018,9.000000,-7.000000,8.000000,-22.000000,0.000000,-6.000000,-6.000000,-2.000000
1312312.247321,7.000000,-1.000000,1.000000,-6.000000,2.000000,-14.000000,-13.000000,-4.000000
1312312.247329,20.000000,-15.000000,19.000000,-42.000000,15.000000,-1.000000,8.000000,10.000000
1312312.266725,-1.000000,2.000000,-9.000000,14.000000,-12.000000,1.000000,-1.000000,-5.000000
1312312.266743,-17.000000,-2.000000,-13.000000,14.000000,-9.000000,-3.000000,-6.000000,-14.000000
1312312.288677,17.000000,-13.000000,12.000000,-32.000000,7.000000,-7.000000,-4.000000,3.000000
1312312.288688,-2.000000,5.000000,-3.000000,5.000000,-10.000000,5.000000,1.000000,3.000000
1312312.303719,-26.000000,7.000000,-23.000000,40.000000,-12.000000,4.000000,3.000000,-9.000000
1312312.303729,13.000000,-8.000000,5.000000,-19.000000,6.000000,-4.000000,0.000000,0.000000
1312312.325951,20.000000,-2.000000,6.000000,-13.000000,7.000000,6.000000,1.000000,13.000000
1312312.325968,-6.000000,8.000000,-17.000000,40.000000,-9.000000,13.000000,5.000000,-7.000000
1312312.326235,3.000000,-7.000000,9.000000,-18.000000,0.000000,-14.000000,-5.000000,-4.000000
1312312.326243,18.000000,-10.000000,19.000000,-40.000000,15.000000,-1.000000,-6.000000,6.000000
1312312.327690,-12.000000,9.000000,-14.000000,12.000000,-5.000000,7.000000,-1.000000,-6.000000
1312312.327699,-16.000000,-1.000000,-10.000000,11.000000,-8.000000,-5.000000,-8.000000,-7.000000
1312312.328224,20.000000,-12.000000,15.000000,-45.000000,11.000000,-9.000000,-5.000000,4.000000
1312312.328235,-22.000000,-3.000000,-8.000000,18.000000,-3.000000,11.000000,18.000000,6.000000
1312312.329039,-36.000000,10.000000,-21.000000,38.000000,-14.000000,5.000000,6.000000,-12.000000
1312312.329052,9.000000,-4.000000,7.000000,-15.000000,4.000000,-14.000000,12.000000,-3.000000
1312312.341153,15.000000,-2.000000,4.000000,-21.000000,6.000000,2.000000,-6.000000,5.000000
1312312.341166,-17.000000,6.000000,-17.000000,38.000000,-18.000000,10.000000,1.000000,-8.000000
1312312.342272,6.000000,-2.000000,3.000000,-20.000000,2.000000,-13.000000,-8.000000,-1.000000
1312312.342281,21.000000,-17.000000,23.000000,-42.000000,8.000000,-8.000000,-2.000000,5.000000
1312312.348760,-7.000000,1.000000,-11.000000,14.000000,-4.000000,6.000000,-2.000000,-6.000000
1312312.348773,-11.000000,-3.000000,-12.000000,12.000000,-4.000000,-5.000000,-11.000000,-6.000000
1312312.364085,16.000000,-13.000000,20.000000,-44.000000,13.000000,-10.000000,10.000000,11.000000
1312312.364094,8.000000,5.000000,-12.000000,6.000000,-5.000000,5.000000,-3.000000,-2.000000
1312312.386154,-10.000000,9.000000,-24.000000,37.000000,-15.000000,4.000000,2.000000,-9.000000
1312312.386194,11.000000,-8.000000,8.000000,-17.000000,5.000000,-4.000000,-7.000000,2.000000
