# participant_id: P11
# gesture: medium
# trial_number: 1
# stream_name: Myo_EMG
# stream_type: emg
# timestamp: 20260420_170851
# samples: 5472
# duration_sec: 30.599
# nominal_sample_rate: 200.0
# effective_sample_rate: 178.80
#
timestamp,emg_1,emg_2,emg_3,emg_4,emg_5,emg_6,emg_7,emg_8
1309623.505429,-35.000000,-1.000000,38.000000,61.000000,-24.000000,7.000000,4.000000,-16.000000
1309623.505445,-12.000000,12.000000,10.000000,15.000000,-29.000000,15.000000,0.000000,15.000000
1309623.526524,37.000000,-9.000000,20.000000,-2.000000,14.000000,4.000000,11.000000,6.000000
1309623.526562,12.000000,1.000000,-27.000000,-20.000000,-17.000000,-13.000000,1.000000,-13.000000
1309623.527784,35.000000,7.000000,86.000000,37.000000,-5.000000,9.000000,2.000000,10.000000
1309623.527793,-35.000000,-7.000000,-9.000000,5.000000,-5.000000,-4.000000,0.000000,-1.000000
1309623.541595,-27.000000,7.000000,-47.000000,-38.000000,-14.000000,-10.000000,-38.000000,-9.000000
1309623.541650,54.000000,18.000000,-19.000000,-90.000000,-6.000000,16.000000,31.000000,-6.000000
1309623.542841,-1.000000,-14.000000,-4.000000,54.000000,10.000000,2.000000,28.000000,6.000000
1309623.542850,31.000000,-6.000000,-2.000000,58.000000,9.000000,-9.000000,-42.000000,7.000000
1309623.564095,-93.000000,8.000000,-12.000000,-36.000000,-5.000000,-2.000000,12.000000,-10.000000
1309623.564107,-5.000000,-2.000000,28.000000,72.000000,9.000000,8.000000,25.000000,-2.000000
1309623.565270,-4.000000,-21.000000,-9.000000,-17.000000,-7.000000,-1.000000,-86.000000,-5.000000
1309623.565277,-10.000000,4.000000,-3.000000,-29.000000,-6.000000,2.000000,64.000000,20.000000
1309623.579248,30.000000,2.000000,5.000000,21.000000,-4.000000,-7.000000,9.000000,3.000000
1309623.579263,2.000000,5.000000,-14.000000,-12.000000,-7.000000,5.000000,10.000000,-13.000000
1309623.624231,-128.000000,-4.000000,-13.000000,15.000000,22.000000,-6.000000,5.000000,-16.000000
1309623.624255,10.000000,16.000000,15.000000,-9.000000,-7.000000,4.000000,-13.000000,9.000000
1309623.638923,14.000000,-5.000000,4.000000,8.000000,9.000000,7.000000,11.000000,0.000000
1309623.638939,70.000000,6.000000,-39.000000,-45.000000,17.000000,-5.000000,-5.000000,11.000000
1309623.639984,-30.000000,-6.000000,-7.000000,10.000000,-4.000000,-1.000000,3.000000,-18.000000
1309623.640006,26.000000,-3.000000,24.000000,44.000000,-5.000000,1.000000,-9.000000,17.000000
1309623.640587,26.000000,-18.000000,-9.000000,-18.000000,9.000000,6.000000,7.000000,4.000000
1309623.640609,3.000000,-1.000000,-36.000000,-65.000000,-40.000000,-6.000000,4.000000,-4.000000
1309623.641882,-2.000000,11.000000,-14.000000,-60.000000,-5.000000,-3.000000,6.000000,-13.000000
1309623.641903,7.000000,12.000000,-5.000000,-39.000000,-17.000000,3.000000,-19.000000,-2.000000
1309623.646584,-4.000000,20.000000,10.000000,55.000000,6.000000,10.000000,67.000000,10.000000
1309623.646593,-13.000000,-14.000000,21.000000,32.000000,31.000000,-23.000000,-59.000000,-17.000000
1309623.661509,30.000000,2.000000,-4.000000,-37.000000,1.000000,4.000000,6.000000,15.000000
1309623.661519,-15.000000,-8.000000,4.000000,17.000000,9.000000,4.000000,9.000000,-1.000000
1309623.668964,-1.000000,-15.000000,-36.000000,-30.000000,27.000000,-21.000000,-2.000000,5.000000
1309623.668974,-15.000000,7.000000,6.000000,-9.000000,-12.000000,4.000000,-4.000000,-5.000000
1309623.683924,40.000000,7.000000,-2.000000,-11.000000,-19.000000,8.000000,31.000000,2.000000
1309623.683938,1.000000,-7.000000,0.000000,22.000000,21.000000,0.000000,-17.000000,19.000000
1309623.685210,-104.000000,3.000000,24.000000,-39.000000,3.000000,-1.000000,-13.000000,-22.000000
1309623.685219,42.000000,7.000000,0.000000,-56.000000,-17.000000,0.000000,23.000000,-4.000000
1309623.699369,-62.000000,-5.000000,-6.000000,35.000000,13.000000,0.000000,14.000000,6.000000
1309623.699398,9.000000,-18.000000,-4.000000,27.000000,10.000000,4.000000,-6.000000,-11.000000
1309623.721536,-76.000000,5.000000,0.000000,3.000000,-4.000000,-2.000000,12.000000,-4.000000
1309623.721552,1.000000,-14.000000,-12.000000,-45.000000,-16.000000,6.000000,-20.000000,-4.000000
1309623.744368,-34.000000,-11.000000,-31.000000,-36.000000,-10.000000,-11.000000,11.000000,-12.000000
1309623.744400,-15.000000,5.000000,3.000000,-20.000000,-2.000000,-13.000000,-11.000000,14.000000
1309623.745439,9.000000,18.000000,8.000000,-22.000000,12.000000,12.000000,27.000000,11.000000
1309623.745470,75.000000,-3.000000,-22.000000,-11.000000,-22.000000,-10.000000,-13.000000,1.000000
1309623.746029,13.000000,0.000000,13.000000,-15.000000,11.000000,-1.000000,-28.000000,0.000000
1309623.746061,-65.000000,4.000000,-3.000000,-21.000000,-1.000000,-11.000000,2.000000,1.000000
1309623.747701,-7.000000,1.000000,0.000000,8.000000,5.000000,9.000000,8.000000,-3.000000
1309623.747730,-2.000000,-6.000000,-8.000000,5.000000,-6.000000,-5.000000,-1.000000,8.000000
1309623.759440,-29.000000,9.000000,3.000000,-9.000000,-3.000000,7.000000,26.000000,8.000000
1309623.759455,4.000000,-12.000000,-10.000000,-14.000000,-6.000000,2.000000,-34.000000,-3.000000
1309623.766465,-2.000000,-11.000000,-3.000000,-12.000000,21.000000,2.000000,-12.000000,-5.000000
1309623.766476,55.000000,-6.000000,-31.000000,-102.000000,-6.000000,-4.000000,4.000000,15.000000
1309623.781415,12.000000,6.000000,33.000000,15.000000,-1.000000,3.000000,32.000000,-13.000000
1309623.781425,16.000000,-8.000000,-24.000000,-1.000000,-16.000000,-15.000000,-14.000000,-1.000000
1309623.804028,12.000000,5.000000,10.000000,-19.000000,-8.000000,3.000000,0.000000,1.000000
1309623.804044,58.000000,7.000000,14.000000,22.000000,12.000000,0.000000,-42.000000,-2.000000
1309623.804559,-51.000000,-20.000000,14.000000,111.000000,20.000000,3.000000,8.000000,3.000000
1309623.804574,-11.000000,-10.000000,-42.000000,-26.000000,-13.000000,-6.000000,18.000000,-5.000000
1309623.806188,17.000000,1.000000,11.000000,-1.000000,1.000000,13.000000,10.000000,6.000000
1309623.806197,16.000000,-8.000000,-18.000000,23.000000,9.000000,11.000000,33.000000,0.000000
1309623.819201,-15.000000,4.000000,-15.000000,16.000000,10.000000,-39.000000,-98.000000,-15.000000
1309623.819211,9.000000,3.000000,-10.000000,3.000000,-2.000000,5.000000,12.000000,-2.000000
1309623.856561,-24.000000,2.000000,10.000000,-51.000000,-12.000000,5.000000,20.000000,-10.000000
1309623.856571,4.000000,-12.000000,-6.000000,-19.000000,13.000000,6.000000,18.000000,5.000000
1309623.863977,7.000000,4.000000,-8.000000,-29.000000,-7.000000,-5.000000,-38.000000,-21.000000
1309623.863986,16.000000,10.000000,8.000000,-12.000000,-21.000000,6.000000,13.000000,14.000000
1309623.879778,66.000000,-5.000000,-9.000000,-5.000000,0.000000,-15.000000,6.000000,1.000000
1309623.879796,-22.000000,8.000000,5.000000,7.000000,4.000000,2.000000,0.000000,-2.000000
1309623.880203,49.000000,4.000000,0.000000,-36.000000,-30.000000,1.000000,-11.000000,2.000000
1309623.880213,-23.000000,-7.000000,-2.000000,57.000000,10.000000,8.000000,-1.000000,0.000000
1309623.881497,0.000000,-12.000000,-7.000000,30.000000,-3.000000,6.000000,-6.000000,-12.000000
1309623.881507,-7.000000,0.000000,20.000000,7.000000,-16.000000,-7.000000,-16.000000,2.000000
1309623.882301,3.000000,0.000000,-19.000000,-20.000000,-11.000000,4.000000,10.000000,8.000000
1309623.882312,24.000000,-6.000000,-28.000000,-43.000000,-12.000000,-1.000000,4.000000,-8.000000
1309623.901576,-26.000000,9.000000,-12.000000,7.000000,3.000000,8.000000,-8.000000,-9.000000
1309623.901586,18.000000,0.000000,49.000000,80.000000,10.000000,18.000000,29.000000,16.000000
1309623.902023,30.000000,-22.000000,-2.000000,8.000000,5.000000,-13.000000,-37.000000,-2.000000
1309623.902031,28.000000,1.000000,-13.000000,5.000000,-2.000000,-1.000000,3.000000,-7.000000
1309623.916646,-29.000000,5.000000,-4.000000,5.000000,-1.000000,13.000000,15.000000,8.000000
1309623.916677,58.000000,3.000000,2.000000,-7.000000,0.000000,1.000000,-29.000000,-9.000000
1309623.917123,-43.000000,-8.000000,-13.000000,9.000000,18.000000,-10.000000,8.000000,-19.000000
1309623.917132,27.000000,6.000000,6.000000,8.000000,6.000000,7.000000,-12.000000,3.000000
1309623.924124,18.000000,3.000000,25.000000,1.000000,-13.000000,1.000000,21.000000,10.000000
1309623.924134,28.000000,-3.000000,-29.000000,-39.000000,-18.000000,-15.000000,-33.000000,7.000000
1309623.939245,17.000000,5.000000,46.000000,11.000000,38.000000,25.000000,7.000000,16.000000
1309623.939260,62.000000,4.000000,-5.000000,-52.000000,-13.000000,8.000000,18.000000,5.000000
1309623.976819,9.000000,5.000000,-11.000000,11.000000,2.000000,0.000000,43.000000,5.000000
1309623.976833,14.000000,16.000000,15.000000,19.000000,-9.000000,-20.000000,-18.000000,-3.000000
1309623.984368,-36.000000,6.000000,6.000000,-12.000000,-11.000000,1.000000,-12.000000,-10.000000
1309623.984381,-17.000000,-4.000000,-12.000000,-4.000000,-9.000000,3.000000,-5.000000,-4.000000
1309624.021825,39.000000,-15.000000,-4.000000,-9.000000,16.000000,-4.000000,-6.000000,-4.000000
1309624.021853,31.000000,-4.000000,40.000000,22.000000,33.000000,-1.000000,8.000000,8.000000
1309624.036828,-5.000000,-11.000000,-15.000000,-44.000000,-14.000000,2.000000,22.000000,-5.000000
1309624.036873,-13.000000,-11.000000,-15.000000,-50.000000,-14.000000,-6.000000,-10.000000,-14.000000
1309624.059118,16.000000,-1.000000,-6.000000,16.000000,-14.000000,1.000000,-3.000000,6.000000
1309624.059129,-10.000000,14.000000,42.000000,46.000000,-25.000000,-3.000000,-10.000000,-9.000000
1309624.081668,-14.000000,-6.000000,-19.000000,-24.000000,13.000000,9.000000,49.000000,0.000000
1309624.081679,-56.000000,-5.000000,-22.000000,-23.000000,-4.000000,-21.000000,-48.000000,3.000000
1309624.119298,14.000000,1.000000,-24.000000,-20.000000,-7.000000,2.000000,8.000000,-4.000000
1309624.119310,10.000000,10.000000,-10.000000,-12.000000,-4.000000,6.000000,-19.000000,6.000000
1309624.119897,-19.000000,5.000000,8.000000,-10.000000,5.000000,-8.000000,-40.000000,-1.000000
1309624.119905,18.000000,-3.000000,3.000000,20.000000,-10.000000,11.000000,71.000000,6.000000
1309624.120193,-34.000000,14.000000,0.000000,-20.000000,6.000000,8.000000,13.000000,-5.000000
1309624.120201,29.000000,-6.000000,10.000000,33.000000,-8.000000,-1.000000,8.000000,10.000000
1309624.120625,2.000000,-9.000000,-4.000000,51.000000,29.000000,-7.000000,-33.000000,-12.000000
1309624.120633,34.000000,11.000000,25.000000,47.000000,-12.000000,0.000000,3.000000,7.000000
1309624.121226,49.000000,-3.000000,-37.000000,-70.000000,-22.000000,-1.000000,7.000000,-2.000000
1309624.121236,-19.000000,-18.000000,20.000000,63.000000,12.000000,-11.000000,-34.000000,-3.000000
1309624.121928,11.000000,-7.000000,0.000000,9.000000,4.000000,-10.000000,-7.000000,-8.000000
1309624.121936,61.000000,2.000000,-10.000000,-15.000000,-12.000000,-8.000000,-18.000000,2.000000
1309624.122805,-54.000000,4.000000,-13.000000,12.000000,-9.000000,-13.000000,-14.000000,-19.000000
1309624.122813,17.000000,-1.000000,9.000000,-16.000000,6.000000,8.000000,12.000000,4.000000
1309624.133893,-128.000000,-10.000000,-26.000000,-28.000000,-14.000000,-1.000000,-6.000000,-1.000000
1309624.133903,51.000000,-14.000000,-6.000000,-4.000000,14.000000,11.000000,19.000000,4.000000
1309624.134600,-7.000000,-9.000000,19.000000,10.000000,6.000000,3.000000,-7.000000,9.000000
1309624.134608,-17.000000,5.000000,15.000000,20.000000,-13.000000,-8.000000,-38.000000,7.000000
1309624.148978,-6.000000,1.000000,-8.000000,-15.000000,-6.000000,2.000000,33.000000,5.000000
1309624.148988,19.000000,-15.000000,-12.000000,-17.000000,-12.000000,-8.000000,-5.000000,-10.000000
1309624.157054,-6.000000,14.000000,20.000000,-13.000000,-5.000000,17.000000,27.000000,-3.000000
1309624.157065,8.000000,-1.000000,-16.000000,10.000000,-4.000000,-7.000000,-22.000000,-11.000000
1309624.179541,29.000000,-13.000000,-6.000000,27.000000,-19.000000,-12.000000,-21.000000,-1.000000
1309624.179568,-37.000000,6.000000,30.000000,56.000000,29.000000,12.000000,0.000000,5.000000
1309624.194273,7.000000,-6.000000,-21.000000,-34.000000,-36.000000,1.000000,19.000000,0.000000
1309624.194284,44.000000,-22.000000,-5.000000,90.000000,33.000000,2.000000,2.000000,2.000000
1309624.216770,-51.000000,7.000000,15.000000,2.000000,-15.000000,-2.000000,-21.000000,-2.000000
1309624.216781,-33.000000,8.000000,-20.000000,-48.000000,-22.000000,-5.000000,2.000000,1.000000
1309624.238988,35.000000,-1.000000,25.000000,109.000000,29.000000,6.000000,22.000000,3.000000
1309624.239007,4.000000,10.000000,-37.000000,-19.000000,-8.000000,-9.000000,-12.000000,-7.000000
1309624.240036,-3.000000,7.000000,-7.000000,0.000000,-12.000000,1.000000,12.000000,0.000000
1309624.240048,16.000000,-7.000000,-25.000000,-52.000000,-30.000000,6.000000,-20.000000,3.000000
1309624.240621,18.000000,-6.000000,8.000000,91.000000,36.000000,-3.000000,4.000000,-2.000000
1309624.240630,-27.000000,11.000000,8.000000,-6.000000,-12.000000,2.000000,8.000000,-5.000000
1309624.242057,2.000000,-28.000000,-14.000000,-6.000000,-7.000000,1.000000,1.000000,0.000000
1309624.242075,1.000000,-4.000000,6.000000,2.000000,5.000000,-13.000000,-28.000000,-5.000000
1309624.242788,-26.000000,4.000000,3.000000,-27.000000,0.000000,6.000000,33.000000,-16.000000
1309624.242797,11.000000,9.000000,10.000000,20.000000,-4.000000,-15.000000,-35.000000,3.000000
1309624.254398,5.000000,-1.000000,1.000000,-43.000000,12.000000,1.000000,13.000000,-1.000000
1309624.254432,14.000000,10.000000,-4.000000,-21.000000,7.000000,13.000000,5.000000,4.000000
1309624.255123,2.000000,13.000000,9.000000,3.000000,-20.000000,-4.000000,0.000000,3.000000
1309624.255130,-30.000000,-17.000000,-14.000000,-30.000000,-18.000000,-8.000000,5.000000,-14.000000
1309624.276449,-61.000000,-3.000000,-23.000000,22.000000,-1.000000,-2.000000,5.000000,-1.000000
1309624.276459,-6.000000,0.000000,-1.000000,4.000000,1.000000,0.000000,-9.000000,9.000000
1309624.276869,15.000000,3.000000,-13.000000,-3.000000,7.000000,5.000000,9.000000,8.000000
1309624.276891,-2.000000,-7.000000,-47.000000,-55.000000,2.000000,12.000000,18.000000,0.000000
1309624.291610,-11.000000,6.000000,3.000000,-5.000000,-2.000000,-11.000000,-63.000000,-7.000000
1309624.291635,0.000000,-4.000000,-10.000000,-32.000000,-8.000000,-4.000000,-3.000000,-3.000000
1309624.299131,9.000000,-13.000000,-16.000000,34.000000,2.000000,1.000000,25.000000,4.000000
1309624.299154,-1.000000,11.000000,4.000000,30.000000,2.000000,-6.000000,6.000000,6.000000
1309624.321480,-29.000000,9.000000,10.000000,-16.000000,-9.000000,4.000000,-3.000000,3.000000
1309624.321490,10.000000,-2.000000,5.000000,15.000000,3.000000,6.000000,16.000000,-6.000000
1309624.329091,-83.000000,1.000000,-24.000000,-11.000000,10.000000,-4.000000,0.000000,-14.000000
1309624.329106,37.000000,7.000000,11.000000,-10.000000,-1.000000,5.000000,13.000000,6.000000
1309624.336872,9.000000,3.000000,-5.000000,30.000000,-25.000000,-12.000000,-13.000000,-2.000000
1309624.336894,-22.000000,-4.000000,0.000000,-33.000000,-7.000000,-2.000000,28.000000,-10.000000
1309624.337614,-28.000000,-1.000000,-1.000000,-30.000000,20.000000,1.000000,1.000000,-4.000000
1309624.337628,14.000000,3.000000,-7.000000,15.000000,3.000000,-5.000000,-14.000000,-4.000000
1309624.359631,9.000000,20.000000,-11.000000,-44.000000,-23.000000,13.000000,29.000000,16.000000
1309624.359646,-5.000000,1.000000,-9.000000,-16.000000,9.000000,-4.000000,25.000000,-9.000000
1309624.360091,-3.000000,-3.000000,19.000000,1.000000,-17.000000,-17.000000,-68.000000,-1.000000
1309624.360099,-5.000000,-9.000000,-8.000000,-3.000000,-6.000000,6.000000,8.000000,-9.000000
1309624.366780,18.000000,-5.000000,-20.000000,-9.000000,10.000000,0.000000,0.000000,-6.000000
1309624.366803,-32.000000,3.000000,27.000000,-10.000000,1.000000,17.000000,17.000000,8.000000
1309624.397033,41.000000,-8.000000,-3.000000,-2.000000,-7.000000,-2.000000,-6.000000,6.000000
1309624.397046,-96.000000,-11.000000,-26.000000,1.000000,9.000000,-10.000000,28.000000,-4.000000
1309624.397628,3.000000,-2.000000,-1.000000,-8.000000,-2.000000,-5.000000,8.000000,-14.000000
1309624.397636,27.000000,4.000000,22.000000,36.000000,11.000000,3.000000,-52.000000,36.000000
1309624.412044,19.000000,1.000000,-13.000000,-21.000000,-8.000000,-6.000000,7.000000,-6.000000
1309624.412053,11.000000,14.000000,-14.000000,-1.000000,4.000000,6.000000,18.000000,5.000000
1309624.419054,-25.000000,-10.000000,23.000000,-14.000000,-1.000000,10.000000,0.000000,2.000000
1309624.419063,29.000000,-9.000000,-30.000000,-37.000000,0.000000,-11.000000,-14.000000,7.000000
1309624.456617,44.000000,0.000000,-7.000000,17.000000,0.000000,8.000000,10.000000,-3.000000
1309624.456629,-70.000000,4.000000,21.000000,6.000000,-27.000000,-15.000000,-12.000000,-12.000000
1309624.471530,-24.000000,-17.000000,-12.000000,42.000000,-11.000000,0.000000,23.000000,5.000000
1309624.471543,65.000000,-2.000000,20.000000,33.000000,13.000000,2.000000,-71.000000,-11.000000
1309624.472671,12.000000,-9.000000,-37.000000,-58.000000,-23.000000,-12.000000,35.000000,5.000000
1309624.472682,-26.000000,-13.000000,18.000000,83.000000,32.000000,7.000000,7.000000,5.000000
1309624.473272,-6.000000,-10.000000,-2.000000,-17.000000,0.000000,3.000000,5.000000,-5.000000
1309624.473345,-19.000000,-5.000000,11.000000,4.000000,0.000000,-1.000000,-21.000000,-11.000000
1309624.474842,15.000000,6.000000,8.000000,-15.000000,-15.000000,-4.000000,32.000000,-8.000000
1309624.474852,4.000000,-2.000000,-13.000000,-8.000000,-5.000000,-8.000000,-13.000000,-5.000000
1309624.479615,-72.000000,-4.000000,-16.000000,-9.000000,-11.000000,3.000000,24.000000,2.000000
1309624.479633,37.000000,-10.000000,2.000000,56.000000,2.000000,-11.000000,-21.000000,4.000000
1309624.493932,0.000000,10.000000,39.000000,52.000000,19.000000,7.000000,10.000000,3.000000
1309624.493943,6.000000,0.000000,25.000000,19.000000,-1.000000,9.000000,-1.000000,2.000000
1309624.539090,-7.000000,-12.000000,-37.000000,-11.000000,-17.000000,-26.000000,-45.000000,-18.000000
1309624.539102,5.000000,-2.000000,8.000000,-7.000000,4.000000,7.000000,10.000000,0.000000
1309624.554439,-1.000000,28.000000,-3.000000,-12.000000,-11.000000,0.000000,36.000000,10.000000
1309624.554468,6.000000,-11.000000,16.000000,-38.000000,26.000000,-14.000000,-41.000000,3.000000
1309624.576459,-82.000000,17.000000,-13.000000,-96.000000,-19.000000,-1.000000,-9.000000,-14.000000
1309624.576470,24.000000,3.000000,1.000000,-10.000000,-5.000000,3.000000,14.000000,0.000000
1309624.577095,-12.000000,-9.000000,-5.000000,-33.000000,-7.000000,-6.000000,7.000000,-4.000000
1309624.577111,22.000000,-10.000000,-49.000000,9.000000,-4.000000,-11.000000,-22.000000,-5.000000
1309624.578116,8.000000,19.000000,-2.000000,-19.000000,-8.000000,2.000000,-3.000000,-3.000000
1309624.578138,59.000000,5.000000,46.000000,75.000000,-5.000000,5.000000,8.000000,16.000000
1309624.579744,38.000000,2.000000,-38.000000,-51.000000,-7.000000,-14.000000,-2.000000,-2.000000
1309624.579779,-66.000000,17.000000,49.000000,91.000000,12.000000,1.000000,0.000000,-4.000000
1309624.591611,43.000000,10.000000,-7.000000,-8.000000,-21.000000,-9.000000,10.000000,3.000000
1309624.591620,6.000000,-6.000000,33.000000,69.000000,-5.000000,9.000000,7.000000,7.000000
1309624.606979,-25.000000,-4.000000,-1.000000,18.000000,22.000000,-4.000000,-22.000000,-15.000000
1309624.607013,-52.000000,18.000000,7.000000,-17.000000,-14.000000,-6.000000,-7.000000,-6.000000
1309624.614338,6.000000,-3.000000,9.000000,-50.000000,4.000000,-3.000000,17.000000,2.000000
1309624.614357,-41.000000,-2.000000,-45.000000,-17.000000,-12.000000,-7.000000,-17.000000,-5.000000
1309624.651793,49.000000,9.000000,43.000000,-2.000000,-4.000000,-4.000000,-11.000000,-5.000000
1309624.651818,19.000000,0.000000,9.000000,-6.000000,-7.000000,13.000000,22.000000,-1.000000
1309624.674373,3.000000,-9.000000,-47.000000,-6.000000,-3.000000,-8.000000,-10.000000,6.000000
1309624.674386,14.000000,4.000000,0.000000,1.000000,5.000000,-22.000000,-58.000000,-13.000000
1309624.696811,49.000000,3.000000,19.000000,1.000000,4.000000,15.000000,52.000000,21.000000
1309624.696824,-7.000000,2.000000,-25.000000,-20.000000,-14.000000,6.000000,-16.000000,-9.000000
1309624.711666,-72.000000,-13.000000,12.000000,-14.000000,-7.000000,-3.000000,26.000000,-16.000000
1309624.711695,62.000000,17.000000,-3.000000,-8.000000,8.000000,2.000000,-5.000000,15.000000
1309624.749639,-89.000000,2.000000,7.000000,-22.000000,0.000000,-14.000000,-50.000000,-20.000000
1309624.749668,39.000000,-9.000000,-11.000000,-23.000000,-16.000000,-2.000000,7.000000,0.000000
1309624.750247,12.000000,7.000000,0.000000,5.000000,10.000000,0.000000,-13.000000,-7.000000
1309624.750274,-59.000000,12.000000,18.000000,-20.000000,-12.000000,10.000000,2.000000,4.000000
1309624.750784,7.000000,9.000000,34.000000,81.000000,11.000000,10.000000,7.000000,-9.000000
1309624.750795,-11.000000,-6.000000,-8.000000,-15.000000,-3.000000,8.000000,6.000000,-2.000000
1309624.751428,16.000000,12.000000,4.000000,-15.000000,-10.000000,7.000000,-3.000000,2.000000
1309624.751435,33.000000,-11.000000,7.000000,-4.000000,7.000000,0.000000,8.000000,5.000000
1309624.794850,-15.000000,7.000000,-7.000000,-51.000000,-21.000000,-10.000000,-19.000000,-4.000000
1309624.794886,19.000000,3.000000,45.000000,48.000000,26.000000,12.000000,-11.000000,-4.000000
1309624.816604,38.000000,-1.000000,-16.000000,-30.000000,-7.000000,0.000000,26.000000,2.000000
1309624.816624,-21.000000,7.000000,8.000000,72.000000,-3.000000,-4.000000,-9.000000,4.000000
1309624.817517,4.000000,-4.000000,1.000000,-6.000000,0.000000,1.000000,-8.000000,4.000000
1309624.817545,24.000000,-19.000000,-17.000000,15.000000,-3.000000,-5.000000,-10.000000,-11.000000
1309624.818254,19.000000,19.000000,31.000000,-19.000000,-9.000000,1.000000,-2.000000,-2.000000
1309624.818262,-25.000000,-16.000000,-4.000000,-34.000000,-18.000000,2.000000,43.000000,27.000000
1309624.819416,27.000000,-30.000000,-28.000000,-15.000000,26.000000,-10.000000,-35.000000,-17.000000
1309624.819426,-59.000000,-10.000000,13.000000,-19.000000,10.000000,13.000000,9.000000,2.000000
1309624.820422,12.000000,6.000000,-3.000000,-13.000000,-5.000000,-9.000000,2.000000,14.000000
1309624.820449,-8.000000,-4.000000,-9.000000,-1.000000,8.000000,10.000000,22.000000,-6.000000
1309624.831802,34.000000,-5.000000,-22.000000,-2.000000,-3.000000,0.000000,24.000000,14.000000
1309624.831813,17.000000,10.000000,-8.000000,3.000000,7.000000,0.000000,-20.000000,-19.000000
1309624.854592,7.000000,2.000000,0.000000,-3.000000,2.000000,3.000000,17.000000,2.000000
1309624.854609,11.000000,-24.000000,-11.000000,-21.000000,-19.000000,10.000000,-16.000000,2.000000
1309624.855440,18.000000,-9.000000,-11.000000,4.000000,22.000000,-1.000000,41.000000,-5.000000
1309624.855469,6.000000,0.000000,4.000000,-61.000000,-10.000000,-18.000000,-31.000000,5.000000
1309624.869449,-23.000000,1.000000,-8.000000,-42.000000,-26.000000,8.000000,-12.000000,4.000000
1309624.869458,9.000000,-17.000000,7.000000,21.000000,13.000000,0.000000,-5.000000,-15.000000
1309624.870173,24.000000,4.000000,-20.000000,-39.000000,-21.000000,-9.000000,5.000000,-4.000000
1309624.870182,24.000000,5.000000,57.000000,4.000000,2.000000,8.000000,2.000000,-1.000000
1309624.884368,37.000000,0.000000,-13.000000,41.000000,4.000000,1.000000,14.000000,4.000000
1309624.884382,-111.000000,2.000000,-1.000000,-12.000000,6.000000,4.000000,4.000000,-21.000000
1309624.891781,-16.000000,4.000000,11.000000,69.000000,-3.000000,3.000000,19.000000,14.000000
1309624.891819,16.000000,-6.000000,-1.000000,-43.000000,-15.000000,-11.000000,-44.000000,-12.000000
1309624.929262,4.000000,-10.000000,-64.000000,54.000000,13.000000,4.000000,20.000000,5.000000
1309624.929272,-31.000000,8.000000,24.000000,24.000000,-8.000000,6.000000,-22.000000,-16.000000
1309624.951515,-15.000000,10.000000,-17.000000,-36.000000,-11.000000,-1.000000,-11.000000,4.000000
1309624.951533,58.000000,-9.000000,-14.000000,-9.000000,-12.000000,3.000000,16.000000,8.000000
1309624.952608,-6.000000,3.000000,20.000000,39.000000,2.000000,-4.000000,24.000000,-20.000000
1309624.952623,4.000000,-3.000000,30.000000,3.000000,-1.000000,8.000000,-8.000000,4.000000
1309624.953132,-37.000000,10.000000,11.000000,12.000000,3.000000,6.000000,26.000000,10.000000
1309624.953140,111.000000,-17.000000,-26.000000,-18.000000,-3.000000,-10.000000,-91.000000,-4.000000
1309624.954464,-128.000000,1.000000,7.000000,12.000000,0.000000,0.000000,15.000000,-12.000000
1309624.954473,62.000000,-16.000000,-23.000000,21.000000,-12.000000,5.000000,65.000000,19.000000
1309624.955303,-31.000000,-2.000000,-50.000000,-20.000000,-19.000000,-8.000000,-21.000000,-19.000000
1309624.955311,35.000000,4.000000,78.000000,67.000000,35.000000,7.000000,4.000000,14.000000
1309624.967186,-12.000000,4.000000,17.000000,33.000000,-2.000000,6.000000,13.000000,6.000000
1309624.967198,-3.000000,-2.000000,-11.000000,-21.000000,-9.000000,-4.000000,10.000000,-2.000000
1309624.967863,13.000000,14.000000,19.000000,30.000000,-11.000000,-7.000000,-11.000000,9.000000
1309624.967873,-25.000000,14.000000,-44.000000,-26.000000,-12.000000,7.000000,13.000000,0.000000
1309625.019384,27.000000,1.000000,53.000000,14.000000,-1.000000,7.000000,-4.000000,4.000000
1309625.019397,53.000000,11.000000,-3.000000,14.000000,5.000000,-15.000000,-29.000000,-20.000000
1309625.034025,40.000000,18.000000,-3.000000,-33.000000,-25.000000,-10.000000,3.000000,3.000000
1309625.034035,-123.000000,-5.000000,-21.000000,7.000000,4.000000,5.000000,43.000000,8.000000
1309625.049052,23.000000,-10.000000,-25.000000,-36.000000,-4.000000,-5.000000,-35.000000,-11.000000
1309625.049081,4.000000,-4.000000,-2.000000,21.000000,6.000000,-12.000000,7.000000,4.000000
1309625.049703,-18.000000,-8.000000,15.000000,7.000000,-3.000000,6.000000,-27.000000,-3.000000
1309625.049737,14.000000,-22.000000,-42.000000,-8.000000,-10.000000,-17.000000,5.000000,-11.000000
1309625.050900,19.000000,-17.000000,0.000000,-1.000000,-9.000000,-1.000000,3.000000,8.000000
1309625.050915,31.000000,0.000000,-31.000000,4.000000,-6.000000,-2.000000,-2.000000,-1.000000
1309625.052339,5.000000,0.000000,-7.000000,13.000000,-15.000000,7.000000,-22.000000,-14.000000
1309625.052361,18.000000,11.000000,-1.000000,-37.000000,13.000000,1.000000,1.000000,16.000000
1309625.072149,-6.000000,-8.000000,15.000000,23.000000,-6.000000,11.000000,22.000000,19.000000
1309625.072158,-46.000000,0.000000,-23.000000,-9.000000,-5.000000,-7.000000,-3.000000,-9.000000
1309625.072903,-6.000000,12.000000,-2.000000,-6.000000,1.000000,4.000000,1.000000,-13.000000
1309625.072911,-9.000000,4.000000,9.000000,36.000000,-4.000000,3.000000,-9.000000,9.000000
1309625.086579,24.000000,-7.000000,24.000000,4.000000,12.000000,2.000000,-14.000000,-9.000000
1309625.086600,-6.000000,-6.000000,-36.000000,5.000000,18.000000,1.000000,15.000000,0.000000
1309625.087289,-23.000000,6.000000,33.000000,43.000000,-26.000000,-8.000000,0.000000,24.000000
1309625.087312,46.000000,-8.000000,-10.000000,35.000000,21.000000,8.000000,-1.000000,-1.000000
1309625.124772,-86.000000,-18.000000,-28.000000,15.000000,-4.000000,-9.000000,-15.000000,-26.000000
1309625.124801,36.000000,-3.000000,0.000000,-23.000000,0.000000,7.000000,22.000000,-10.000000
1309625.131662,-24.000000,-6.000000,-20.000000,7.000000,0.000000,-14.000000,-32.000000,9.000000
1309625.131684,5.000000,-7.000000,-24.000000,-41.000000,5.000000,-3.000000,-6.000000,-7.000000
1309625.154297,3.000000,-5.000000,12.000000,-5.000000,1.000000,6.000000,2.000000,-1.000000
1309625.154308,-62.000000,6.000000,6.000000,-9.000000,-10.000000,3.000000,8.000000,-3.000000
1309625.161696,26.000000,-6.000000,17.000000,37.000000,14.000000,3.000000,0.000000,-5.000000
1309625.161705,-24.000000,6.000000,-7.000000,4.000000,3.000000,1.000000,-14.000000,-10.000000
1309625.169522,-9.000000,-4.000000,-12.000000,-37.000000,-2.000000,1.000000,9.000000,0.000000
1309625.169533,30.000000,-8.000000,-4.000000,20.000000,23.000000,6.000000,15.000000,5.000000
1309625.170143,-117.000000,-12.000000,-17.000000,36.000000,1.000000,-9.000000,-27.000000,-16.000000
1309625.170151,27.000000,7.000000,-6.000000,-12.000000,-5.000000,5.000000,9.000000,9.000000
1309625.172018,-4.000000,-4.000000,-12.000000,-31.000000,-6.000000,-3.000000,7.000000,3.000000
1309625.172049,14.000000,-12.000000,12.000000,32.000000,-19.000000,1.000000,-12.000000,-5.000000
1309625.172869,-56.000000,0.000000,4.000000,-10.000000,10.000000,9.000000,18.000000,1.000000
1309625.172885,4.000000,15.000000,-11.000000,-21.000000,-19.000000,-10.000000,-20.000000,29.000000
1309625.193009,17.000000,0.000000,0.000000,-38.000000,-13.000000,-4.000000,16.000000,2.000000
1309625.193156,-82.000000,-3.000000,-27.000000,11.000000,-1.000000,-9.000000,-14.000000,-23.000000
1309625.193569,28.000000,15.000000,15.000000,-1.000000,-8.000000,11.000000,37.000000,5.000000
1309625.193699,-11.000000,-7.000000,-9.000000,18.000000,13.000000,-6.000000,-13.000000,-8.000000
1309625.207108,-30.000000,-15.000000,-24.000000,1.000000,13.000000,-14.000000,-35.000000,-4.000000
1309625.207129,0.000000,11.000000,18.000000,-13.000000,-9.000000,8.000000,9.000000,-4.000000
1309625.208011,9.000000,-22.000000,-28.000000,-15.000000,-18.000000,-2.000000,9.000000,6.000000
1309625.208034,-65.000000,2.000000,-20.000000,20.000000,19.000000,5.000000,-27.000000,-9.000000
1309625.244207,8.000000,13.000000,11.000000,25.000000,16.000000,-3.000000,36.000000,0.000000
1309625.244217,20.000000,2.000000,6.000000,-7.000000,-11.000000,9.000000,6.000000,7.000000
1309625.251590,-37.000000,-6.000000,-2.000000,38.000000,-7.000000,-6.000000,-11.000000,-3.000000
1309625.251599,17.000000,12.000000,-5.000000,-11.000000,-5.000000,-12.000000,-47.000000,-12.000000
1309625.275538,-3.000000,22.000000,26.000000,16.000000,8.000000,12.000000,32.000000,-1.000000
1309625.275560,63.000000,-5.000000,1.000000,-8.000000,-5.000000,0.000000,20.000000,17.000000
1309625.289035,-83.000000,2.000000,2.000000,4.000000,6.000000,-7.000000,28.000000,-11.000000
1309625.289052,28.000000,1.000000,-39.000000,-7.000000,10.000000,5.000000,-36.000000,8.000000
1309625.312093,3.000000,-11.000000,24.000000,-42.000000,-10.000000,2.000000,-1.000000,7.000000
1309625.312114,49.000000,-15.000000,-3.000000,42.000000,-1.000000,-1.000000,-3.000000,-10.000000
1309625.327019,-55.000000,5.000000,15.000000,-3.000000,7.000000,6.000000,17.000000,1.000000
1309625.327095,-9.000000,1.000000,-4.000000,-18.000000,-15.000000,0.000000,-20.000000,10.000000
1309625.364154,-13.000000,-12.000000,32.000000,-13.000000,-5.000000,-4.000000,-26.000000,-8.000000
1309625.364174,16.000000,3.000000,-27.000000,26.000000,11.000000,8.000000,2.000000,-8.000000
1309625.371660,29.000000,3.000000,24.000000,21.000000,-7.000000,4.000000,33.000000,20.000000
1309625.371677,-1.000000,16.000000,-15.000000,-27.000000,-7.000000,0.000000,16.000000,13.000000
1309625.386776,-8.000000,2.000000,27.000000,36.000000,2.000000,5.000000,-14.000000,4.000000
1309625.386789,27.000000,-14.000000,-17.000000,-13.000000,-3.000000,-1.000000,16.000000,-2.000000
1309625.409439,0.000000,-14.000000,-11.000000,-16.000000,-1.000000,-1.000000,-25.000000,-7.000000
1309625.409457,-16.000000,10.000000,-26.000000,-9.000000,-10.000000,-4.000000,26.000000,-17.000000
1309625.410830,19.000000,-6.000000,-20.000000,6.000000,11.000000,10.000000,3.000000,8.000000
1309625.410839,19.000000,16.000000,-4.000000,-12.000000,-2.000000,-6.000000,-1.000000,6.000000
1309625.412976,-66.000000,3.000000,-14.000000,0.000000,1.000000,-6.000000,9.000000,-22.000000
1309625.412991,23.000000,8.000000,18.000000,-10.000000,-9.000000,6.000000,15.000000,0.000000
1309625.424664,-33.000000,5.000000,1.000000,-5.000000,-16.000000,-5.000000,-18.000000,-16.000000
1309625.424675,21.000000,-1.000000,3.000000,-4.000000,3.000000,2.000000,37.000000,14.000000
1309625.432100,6.000000,-6.000000,8.000000,34.000000,13.000000,0.000000,-28.000000,2.000000
1309625.432135,-19.000000,9.000000,-57.000000,14.000000,7.000000,13.000000,38.000000,-14.000000
1309625.469070,15.000000,8.000000,25.000000,-37.000000,-11.000000,-8.000000,-65.000000,4.000000
1309625.469090,-24.000000,-13.000000,2.000000,71.000000,3.000000,-1.000000,28.000000,2.000000
1309625.484302,29.000000,-7.000000,-26.000000,-1.000000,-1.000000,2.000000,40.000000,-8.000000
1309625.484313,69.000000,2.000000,-10.000000,-9.000000,-5.000000,-6.000000,-4.000000,6.000000
1309625.521587,9.000000,-3.000000,-10.000000,-16.000000,-5.000000,-4.000000,-12.000000,1.000000
1309625.521615,27.000000,-3.000000,3.000000,55.000000,-1.000000,2.000000,-6.000000,-2.000000
1309625.529225,-60.000000,9.000000,39.000000,43.000000,8.000000,2.000000,2.000000,-2.000000
1309625.529253,-41.000000,0.000000,-7.000000,-35.000000,-12.000000,-5.000000,1.000000,0.000000
1309625.551806,-10.000000,-11.000000,-6.000000,67.000000,9.000000,-1.000000,-12.000000,-11.000000
1309625.551830,26.000000,8.000000,-11.000000,-5.000000,7.000000,-22.000000,-10.000000,-3.000000
1309625.566574,-29.000000,9.000000,44.000000,20.000000,-2.000000,16.000000,22.000000,3.000000
1309625.566584,-21.000000,-8.000000,-21.000000,11.000000,-7.000000,-14.000000,-2.000000,-9.000000
1309625.567566,21.000000,9.000000,34.000000,-55.000000,-16.000000,7.000000,-13.000000,-1.000000
1309625.567581,-3.000000,0.000000,24.000000,16.000000,17.000000,8.000000,25.000000,10.000000
1309625.568876,12.000000,0.000000,-6.000000,-22.000000,-9.000000,-5.000000,-6.000000,2.000000
1309625.568889,11.000000,-7.000000,-11.000000,-21.000000,-16.000000,-2.000000,-5.000000,1.000000
1309625.570497,21.000000,-10.000000,-23.000000,-65.000000,-12.000000,-6.000000,4.000000,-8.000000
1309625.570517,-10.000000,-4.000000,26.000000,8.000000,9.000000,-1.000000,-26.000000,-5.000000
1309625.581835,-16.000000,19.000000,13.000000,-11.000000,-4.000000,-8.000000,34.000000,3.000000
1309625.581848,1.000000,13.000000,5.000000,-10.000000,-8.000000,-4.000000,-11.000000,13.000000
1309625.604014,9.000000,-14.000000,-23.000000,-30.000000,-7.000000,3.000000,18.000000,-8.000000
1309625.604028,-3.000000,15.000000,38.000000,123.000000,5.000000,0.000000,12.000000,-3.000000
1309625.626778,1.000000,6.000000,14.000000,-24.000000,-20.000000,8.000000,-1.000000,3.000000
1309625.626790,-21.000000,-4.000000,-15.000000,4.000000,7.000000,-7.000000,-28.000000,-7.000000
1309625.649474,89.000000,-4.000000,19.000000,3.000000,17.000000,6.000000,13.000000,-3.000000
1309625.649499,-17.000000,15.000000,-19.000000,-12.000000,-12.000000,-23.000000,-26.000000,-4.000000
1309625.664031,-51.000000,-12.000000,-12.000000,19.000000,-16.000000,2.000000,0.000000,6.000000
1309625.664040,63.000000,9.000000,18.000000,14.000000,11.000000,4.000000,8.000000,3.000000
1309625.686786,12.000000,-4.000000,2.000000,-10.000000,3.000000,4.000000,0.000000,6.000000
1309625.686800,-22.000000,-10.000000,-7.000000,-19.000000,-16.000000,-6.000000,16.000000,3.000000
1309625.687224,-12.000000,-11.000000,-13.000000,-9.000000,-5.000000,-3.000000,-22.000000,-8.000000
1309625.687243,47.000000,8.000000,39.000000,-8.000000,0.000000,6.000000,12.000000,1.000000
1309625.687509,-25.000000,-5.000000,-16.000000,-15.000000,-5.000000,-6.000000,-3.000000,-5.000000
1309625.687519,-21.000000,-2.000000,19.000000,0.000000,15.000000,7.000000,26.000000,-2.000000
1309625.688755,-10.000000,-11.000000,-5.000000,-5.000000,-4.000000,4.000000,33.000000,-13.000000
1309625.688764,14.000000,3.000000,-6.000000,-6.000000,12.000000,-8.000000,-29.000000,2.000000
1309625.690514,40.000000,-18.000000,-9.000000,5.000000,18.000000,0.000000,4.000000,-3.000000
1309625.690522,-3.000000,11.000000,8.000000,-11.000000,-4.000000,4.000000,11.000000,3.000000
1309625.701537,8.000000,1.000000,3.000000,-8.000000,-5.000000,0.000000,11.000000,7.000000
1309625.701546,-11.000000,-8.000000,14.000000,-21.000000,-7.000000,1.000000,29.000000,-6.000000
1309625.724287,4.000000,1.000000,-54.000000,8.000000,8.000000,-7.000000,-67.000000,-13.000000
1309625.724298,1.000000,18.000000,47.000000,56.000000,-11.000000,3.000000,44.000000,9.000000
1309625.746451,16.000000,-6.000000,-24.000000,-17.000000,6.000000,-12.000000,-23.000000,11.000000
1309625.746466,70.000000,-5.000000,-22.000000,-33.000000,-8.000000,7.000000,-7.000000,-10.000000
1309625.747572,-75.000000,15.000000,4.000000,-32.000000,9.000000,1.000000,-13.000000,-5.000000
1309625.747604,43.000000,-10.000000,12.000000,-61.000000,-24.000000,4.000000,18.000000,11.000000
1309625.748083,-8.000000,-8.000000,-19.000000,-36.000000,3.000000,4.000000,-6.000000,-17.000000
1309625.748092,-5.000000,10.000000,56.000000,98.000000,6.000000,-24.000000,-43.000000,-7.000000
1309625.749650,-2.000000,3.000000,13.000000,-20.000000,-5.000000,20.000000,30.000000,4.000000
1309625.749659,-27.000000,11.000000,-17.000000,-13.000000,-13.000000,-3.000000,17.000000,11.000000
1309625.753744,52.000000,1.000000,-4.000000,31.000000,7.000000,-5.000000,-23.000000,-4.000000
1309625.753770,-1.000000,15.000000,-1.000000,8.000000,-12.000000,9.000000,18.000000,-11.000000
1309625.762201,-70.000000,-16.000000,-4.000000,0.000000,-7.000000,4.000000,3.000000,-5.000000
1309625.762210,9.000000,-7.000000,-11.000000,-29.000000,1.000000,-11.000000,-31.000000,-9.000000
1309625.784058,-2.000000,3.000000,5.000000,9.000000,4.000000,13.000000,13.000000,7.000000
1309625.784075,-9.000000,-5.000000,-19.000000,20.000000,-11.000000,-4.000000,5.000000,4.000000
1309625.785462,55.000000,-19.000000,-2.000000,1.000000,9.000000,-13.000000,-22.000000,-6.000000
1309625.785471,-43.000000,6.000000,-1.000000,-17.000000,-8.000000,1.000000,-4.000000,-8.000000
1309625.791471,-14.000000,10.000000,-1.000000,18.000000,-5.000000,3.000000,17.000000,7.000000
1309625.791481,37.000000,1.000000,-2.000000,-17.000000,5.000000,5.000000,16.000000,0.000000
1309625.799659,7.000000,8.000000,-9.000000,5.000000,1.000000,3.000000,-40.000000,-8.000000
1309625.799668,-26.000000,17.000000,33.000000,-13.000000,-7.000000,4.000000,22.000000,0.000000
1309625.814642,43.000000,-7.000000,-5.000000,8.000000,-5.000000,-5.000000,18.000000,10.000000
1309625.814653,43.000000,-4.000000,0.000000,-11.000000,7.000000,-6.000000,-14.000000,-4.000000
1309625.829121,-55.000000,8.000000,-15.000000,-38.000000,-4.000000,7.000000,11.000000,-12.000000
1309625.829138,34.000000,4.000000,-2.000000,49.000000,-13.000000,-2.000000,-10.000000,5.000000
1309625.836452,-24.000000,-20.000000,-15.000000,-9.000000,6.000000,-7.000000,-6.000000,-25.000000
1309625.836462,-13.000000,1.000000,20.000000,33.000000,5.000000,-8.000000,-2.000000,-7.000000
1309625.859373,19.000000,-6.000000,3.000000,-11.000000,2.000000,-3.000000,-14.000000,7.000000
1309625.859402,3.000000,1.000000,20.000000,-13.000000,2.000000,9.000000,2.000000,-1.000000
1309625.881690,-34.000000,-12.000000,-22.000000,-15.000000,-1.000000,0.000000,12.000000,-2.000000
1309625.881700,43.000000,12.000000,-1.000000,-38.000000,-20.000000,8.000000,25.000000,8.000000
1309625.904516,-67.000000,2.000000,40.000000,40.000000,19.000000,-14.000000,5.000000,6.000000
1309625.904544,55.000000,-10.000000,-31.000000,-53.000000,3.000000,4.000000,-19.000000,0.000000
1309625.905227,-76.000000,-3.000000,2.000000,23.000000,0.000000,-1.000000,-37.000000,-5.000000
1309625.905238,-72.000000,-4.000000,-9.000000,-12.000000,-17.000000,2.000000,17.000000,4.000000
1309625.906361,66.000000,-18.000000,5.000000,-13.000000,0.000000,-3.000000,-7.000000,1.000000
1309625.906369,-39.000000,0.000000,-40.000000,26.000000,9.000000,1.000000,0.000000,-14.000000
1309625.906990,16.000000,-3.000000,19.000000,6.000000,-8.000000,-6.000000,-9.000000,5.000000
1309625.906997,1.000000,-6.000000,-10.000000,3.000000,-1.000000,9.000000,3.000000,6.000000
1309625.911586,2.000000,-11.000000,10.000000,1.000000,13.000000,7.000000,22.000000,11.000000
1309625.911595,-32.000000,-11.000000,-30.000000,-19.000000,-4.000000,-11.000000,-18.000000,-13.000000
1309625.926569,-61.000000,10.000000,5.000000,-4.000000,1.000000,5.000000,7.000000,5.000000
1309625.926588,33.000000,-15.000000,-6.000000,9.000000,2.000000,0.000000,6.000000,-4.000000
1309625.941814,30.000000,-8.000000,8.000000,48.000000,20.000000,-1.000000,-14.000000,-6.000000
1309625.941827,-13.000000,21.000000,0.000000,32.000000,9.000000,-1.000000,34.000000,6.000000
1309625.979018,18.000000,1.000000,-10.000000,-24.000000,-17.000000,-10.000000,15.000000,6.000000
1309625.979028,15.000000,-5.000000,4.000000,27.000000,-8.000000,0.000000,-21.000000,-12.000000
1309625.986812,10.000000,19.000000,18.000000,-66.000000,-16.000000,-4.000000,-19.000000,4.000000
1309625.986841,12.000000,-1.000000,-1.000000,-12.000000,-12.000000,-8.000000,-7.000000,3.000000
1309626.024109,3.000000,5.000000,8.000000,-11.000000,2.000000,10.000000,16.000000,10.000000
1309626.024129,22.000000,-1.000000,-1.000000,7.000000,24.000000,-7.000000,-9.000000,-1.000000
1309626.039402,-46.000000,7.000000,-1.000000,-22.000000,-17.000000,-2.000000,3.000000,-6.000000
1309626.039414,3.000000,-7.000000,19.000000,-1.000000,-19.000000,9.000000,3.000000,4.000000
1309626.076585,44.000000,-6.000000,-85.000000,-22.000000,3.000000,-9.000000,-8.000000,4.000000
1309626.076617,-19.000000,14.000000,19.000000,-44.000000,-16.000000,0.000000,0.000000,-8.000000
1309626.084303,47.000000,4.000000,-10.000000,-2.000000,-14.000000,5.000000,15.000000,8.000000
1309626.084316,-85.000000,0.000000,-1.000000,-16.000000,12.000000,2.000000,-27.000000,-14.000000
1309626.084695,7.000000,1.000000,-24.000000,-29.000000,-7.000000,6.000000,17.000000,-4.000000
1309626.084704,-7.000000,-7.000000,9.000000,36.000000,11.000000,3.000000,19.000000,2.000000
1309626.086386,23.000000,9.000000,31.000000,-6.000000,-4.000000,1.000000,-3.000000,-9.000000
1309626.086397,-3.000000,3.000000,8.000000,-63.000000,-28.000000,-7.000000,-58.000000,1.000000
1309626.099034,-7.000000,2.000000,12.000000,-25.000000,-9.000000,3.000000,5.000000,-8.000000
1309626.099046,1.000000,-10.000000,36.000000,37.000000,0.000000,18.000000,41.000000,1.000000
1309626.100414,39.000000,0.000000,-11.000000,-33.000000,11.000000,-3.000000,-87.000000,-7.000000
1309626.100425,49.000000,1.000000,57.000000,49.000000,-9.000000,-10.000000,23.000000,10.000000
1309626.121393,51.000000,-12.000000,-25.000000,-28.000000,-13.000000,4.000000,26.000000,10.000000
1309626.121404,-61.000000,-2.000000,-26.000000,-9.000000,8.000000,-2.000000,-14.000000,-11.000000
1309626.123228,15.000000,15.000000,20.000000,13.000000,-6.000000,5.000000,13.000000,2.000000
1309626.123257,-16.000000,-16.000000,-24.000000,-17.000000,-14.000000,-9.000000,13.000000,8.000000
1309626.136859,-30.000000,-13.000000,1.000000,29.000000,22.000000,-7.000000,-30.000000,-7.000000
1309626.136871,55.000000,18.000000,27.000000,48.000000,19.000000,7.000000,-7.000000,2.000000
1309626.144302,-50.000000,-16.000000,-2.000000,14.000000,-12.000000,-1.000000,4.000000,2.000000
1309626.144312,22.000000,-16.000000,-22.000000,-36.000000,-9.000000,-6.000000,13.000000,9.000000
1309626.151502,-1.000000,7.000000,20.000000,45.000000,14.000000,7.000000,2.000000,-9.000000
1309626.151514,-40.000000,15.000000,-2.000000,-9.000000,-22.000000,-8.000000,-9.000000,-6.000000
1309626.159794,34.000000,-5.000000,30.000000,-4.000000,-12.000000,0.000000,2.000000,8.000000
1309626.159828,19.000000,-4.000000,-13.000000,44.000000,13.000000,8.000000,9.000000,-4.000000
1309626.181845,-26.000000,12.000000,15.000000,-17.000000,-28.000000,-23.000000,-38.000000,-9.000000
1309626.181858,-16.000000,-14.000000,-23.000000,-76.000000,3.000000,7.000000,-8.000000,4.000000
1309626.219366,43.000000,-3.000000,-16.000000,-38.000000,-4.000000,-14.000000,-1.000000,-21.000000
1309626.219378,-6.000000,-2.000000,-14.000000,-12.000000,-10.000000,6.000000,6.000000,11.000000
1309626.241654,14.000000,-5.000000,2.000000,-30.000000,-18.000000,2.000000,24.000000,1.000000
1309626.241666,-45.000000,-22.000000,-52.000000,-34.000000,4.000000,11.000000,18.000000,-1.000000
1309626.242768,41.000000,19.000000,2.000000,1.000000,5.000000,-17.000000,-41.000000,-7.000000
1309626.242791,14.000000,-6.000000,-38.000000,-28.000000,-3.000000,-4.000000,0.000000,9.000000
1309626.243562,-33.000000,-14.000000,0.000000,52.000000,22.000000,-3.000000,26.000000,-14.000000
1309626.243615,33.000000,-8.000000,-29.000000,5.000000,7.000000,-5.000000,-29.000000,-1.000000
1309626.244983,-60.000000,13.000000,17.000000,-16.000000,-4.000000,10.000000,10.000000,5.000000
1309626.244992,-28.000000,-7.000000,-30.000000,17.000000,1.000000,-3.000000,-10.000000,14.000000
1309626.245447,-1.000000,2.000000,32.000000,-6.000000,-8.000000,-5.000000,0.000000,-7.000000
1309626.245455,-6.000000,-1.000000,-24.000000,1.000000,14.000000,1.000000,12.000000,-3.000000
1309626.256374,-4.000000,6.000000,24.000000,-22.000000,-17.000000,-6.000000,-2.000000,-4.000000
1309626.256402,-26.000000,3.000000,-14.000000,0.000000,-19.000000,3.000000,7.000000,11.000000
1309626.279131,-2.000000,9.000000,-25.000000,-24.000000,-11.000000,-1.000000,-1.000000,-30.000000
1309626.279160,-15.000000,5.000000,-27.000000,-22.000000,6.000000,-13.000000,-24.000000,-4.000000
1309626.279500,-13.000000,15.000000,56.000000,20.000000,-14.000000,-12.000000,18.000000,-13.000000
1309626.279527,41.000000,-16.000000,-44.000000,-27.000000,6.000000,-2.000000,-15.000000,6.000000
1309626.281018,-128.000000,27.000000,44.000000,48.000000,24.000000,4.000000,-6.000000,-14.000000
1309626.281027,-11.000000,3.000000,-15.000000,-37.000000,-11.000000,10.000000,-21.000000,-2.000000
1309626.294480,16.000000,-4.000000,-4.000000,8.000000,-5.000000,-6.000000,15.000000,5.000000
1309626.294525,-57.000000,-10.000000,-29.000000,-2.000000,-7.000000,-8.000000,26.000000,5.000000
1309626.316567,-35.000000,-4.000000,-20.000000,-5.000000,2.000000,-2.000000,-31.000000,-2.000000
1309626.316597,5.000000,6.000000,26.000000,0.000000,-10.000000,1.000000,-9.000000,0.000000
1309626.324120,-19.000000,1.000000,3.000000,-4.000000,8.000000,6.000000,22.000000,-16.000000
1309626.324129,31.000000,3.000000,-7.000000,-24.000000,-9.000000,3.000000,5.000000,1.000000
1309626.339104,-21.000000,10.000000,3.000000,-5.000000,12.000000,3.000000,-20.000000,4.000000
1309626.339127,-71.000000,-8.000000,9.000000,-16.000000,11.000000,-3.000000,-3.000000,5.000000
1309626.354015,13.000000,-15.000000,-11.000000,4.000000,12.000000,-6.000000,-29.000000,-5.000000
1309626.354033,20.000000,18.000000,55.000000,-5.000000,-7.000000,3.000000,19.000000,7.000000
1309626.376976,31.000000,-6.000000,-10.000000,3.000000,17.000000,0.000000,8.000000,2.000000
1309626.376987,-43.000000,-27.000000,-40.000000,-52.000000,7.000000,-1.000000,22.000000,-20.000000
1309626.377307,37.000000,5.000000,9.000000,40.000000,5.000000,-14.000000,-43.000000,12.000000
1309626.377336,-8.000000,4.000000,-22.000000,24.000000,-12.000000,12.000000,34.000000,5.000000
1309626.398920,-33.000000,-6.000000,4.000000,92.000000,31.000000,-15.000000,-13.000000,-8.000000
1309626.398931,37.000000,32.000000,-12.000000,-12.000000,14.000000,4.000000,-8.000000,-3.000000
1309626.399330,-15.000000,13.000000,28.000000,3.000000,-12.000000,-9.000000,23.000000,3.000000
1309626.399339,30.000000,-1.000000,-39.000000,-25.000000,-6.000000,-1.000000,-35.000000,5.000000
1309626.400624,-43.000000,1.000000,-5.000000,-6.000000,6.000000,0.000000,11.000000,-5.000000
1309626.400633,-15.000000,5.000000,-16.000000,1.000000,0.000000,6.000000,26.000000,-5.000000
1309626.401314,-21.000000,-7.000000,11.000000,0.000000,-8.000000,0.000000,-12.000000,-5.000000
1309626.401322,56.000000,-24.000000,-17.000000,-25.000000,11.000000,-7.000000,-10.000000,-4.000000
1309626.402793,13.000000,6.000000,9.000000,73.000000,10.000000,9.000000,3.000000,11.000000
1309626.402801,30.000000,15.000000,23.000000,35.000000,-6.000000,15.000000,40.000000,5.000000
1309626.414416,-37.000000,-17.000000,-19.000000,-38.000000,26.000000,-10.000000,-38.000000,-3.000000
1309626.414445,11.000000,1.000000,-1.000000,2.000000,4.000000,0.000000,-1.000000,-10.000000
1309626.429521,-52.000000,23.000000,4.000000,-15.000000,-15.000000,-5.000000,-3.000000,-22.000000
1309626.429543,5.000000,-23.000000,14.000000,-5.000000,-3.000000,4.000000,29.000000,-1.000000
1309626.436727,2.000000,0.000000,-40.000000,-36.000000,-12.000000,-8.000000,-44.000000,-10.000000
1309626.436740,-31.000000,6.000000,12.000000,0.000000,-1.000000,-10.000000,31.000000,-3.000000
1309626.474212,50.000000,-13.000000,9.000000,48.000000,-7.000000,-1.000000,10.000000,11.000000
1309626.474242,9.000000,-13.000000,-45.000000,-15.000000,-4.000000,-11.000000,-27.000000,-15.000000
1309626.496420,2.000000,13.000000,42.000000,50.000000,6.000000,3.000000,13.000000,-1.000000
1309626.496438,-12.000000,2.000000,-4.000000,8.000000,-15.000000,3.000000,2.000000,4.000000
1309626.497530,-9.000000,-18.000000,-6.000000,14.000000,13.000000,-4.000000,-30.000000,-17.000000
1309626.497539,7.000000,2.000000,5.000000,13.000000,-1.000000,1.000000,11.000000,-8.000000
1309626.498178,6.000000,5.000000,37.000000,-5.000000,-15.000000,2.000000,1.000000,6.000000
1309626.498188,-14.000000,-12.000000,-32.000000,-22.000000,-12.000000,-16.000000,-24.000000,-7.000000
1309626.499435,14.000000,-14.000000,-22.000000,1.000000,18.000000,-4.000000,-30.000000,-8.000000
1309626.499462,28.000000,0.000000,15.000000,32.000000,2.000000,9.000000,38.000000,2.000000
1309626.500410,13.000000,12.000000,-20.000000,0.000000,-15.000000,0.000000,10.000000,8.000000
1309626.500437,-46.000000,-24.000000,8.000000,-4.000000,6.000000,-4.000000,-18.000000,-5.000000
1309626.519135,-33.000000,-1.000000,-23.000000,-1.000000,6.000000,-4.000000,4.000000,-6.000000
1309626.519165,38.000000,2.000000,9.000000,-33.000000,-18.000000,4.000000,-52.000000,9.000000
1309626.519498,-15.000000,4.000000,11.000000,-36.000000,3.000000,3.000000,36.000000,-1.000000
1309626.519507,-11.000000,5.000000,-18.000000,-19.000000,-10.000000,-18.000000,-7.000000,-5.000000
1309626.534069,9.000000,20.000000,52.000000,3.000000,4.000000,16.000000,39.000000,6.000000
1309626.534080,22.000000,-13.000000,-8.000000,0.000000,-5.000000,8.000000,4.000000,6.000000
1309626.541440,-24.000000,-11.000000,-3.000000,11.000000,13.000000,-3.000000,-29.000000,-3.000000
1309626.541449,11.000000,4.000000,-11.000000,-5.000000,-13.000000,0.000000,-1.000000,-5.000000
1309626.556883,-29.000000,2.000000,-7.000000,-4.000000,-15.000000,5.000000,39.000000,7.000000
1309626.556912,-7.000000,-10.000000,1.000000,16.000000,12.000000,-4.000000,-62.000000,3.000000
1309626.579080,-6.000000,12.000000,3.000000,12.000000,-1.000000,-5.000000,4.000000,-10.000000
1309626.579093,48.000000,4.000000,7.000000,9.000000,6.000000,18.000000,-11.000000,4.000000
1309626.594445,-42.000000,-12.000000,-18.000000,-7.000000,11.000000,3.000000,59.000000,0.000000
1309626.594473,26.000000,15.000000,16.000000,54.000000,12.000000,-9.000000,-59.000000,2.000000
1309626.631583,-7.000000,14.000000,54.000000,12.000000,-4.000000,14.000000,20.000000,2.000000
1309626.631593,3.000000,-17.000000,-21.000000,-5.000000,5.000000,-1.000000,6.000000,0.000000
1309626.654415,-5.000000,-9.000000,-9.000000,6.000000,1.000000,-3.000000,-10.000000,-14.000000
1309626.654445,16.000000,3.000000,-13.000000,-19.000000,-9.000000,-4.000000,-2.000000,1.000000
1309626.676601,-47.000000,-2.000000,30.000000,49.000000,9.000000,1.000000,12.000000,9.000000
1309626.676611,70.000000,2.000000,-14.000000,33.000000,8.000000,-2.000000,-9.000000,-1.000000
1309626.699391,14.000000,5.000000,9.000000,30.000000,-7.000000,-7.000000,8.000000,-10.000000
1309626.699420,45.000000,0.000000,2.000000,-26.000000,7.000000,8.000000,-20.000000,9.000000
1309626.706722,1.000000,-16.000000,-18.000000,36.000000,9.000000,7.000000,27.000000,16.000000
1309626.706744,-48.000000,-6.000000,-3.000000,-17.000000,-6.000000,-14.000000,-5.000000,0.000000
1309626.714145,-20.000000,-3.000000,-6.000000,30.000000,9.000000,6.000000,15.000000,2.000000
1309626.714156,3.000000,-1.000000,17.000000,34.000000,3.000000,-10.000000,-14.000000,3.000000
1309626.736649,35.000000,1.000000,-65.000000,-26.000000,14.000000,-3.000000,1.000000,-3.000000
1309626.736728,29.000000,-1.000000,7.000000,-48.000000,3.000000,9.000000,7.000000,10.000000
1309626.736940,-2.000000,16.000000,12.000000,3.000000,-3.000000,6.000000,-30.000000,19.000000
1309626.736951,-4.000000,-14.000000,-15.000000,2.000000,10.000000,-10.000000,16.000000,-9.000000
1309626.737618,-35.000000,-15.000000,-56.000000,-37.000000,-2.000000,7.000000,22.000000,3.000000
1309626.737628,-29.000000,-4.000000,3.000000,64.000000,10.000000,-2.000000,-10.000000,-7.000000
1309626.738354,25.000000,16.000000,-13.000000,-22.000000,3.000000,-6.000000,-18.000000,-10.000000
1309626.738368,8.000000,-14.000000,1.000000,-24.000000,-9.000000,6.000000,10.000000,3.000000
1309626.738979,-53.000000,-11.000000,-6.000000,-20.000000,-5.000000,-3.000000,-23.000000,-12.000000
1309626.738994,1.000000,16.000000,-20.000000,-7.000000,-7.000000,7.000000,33.000000,12.000000
1309626.739623,30.000000,-4.000000,-2.000000,-5.000000,-17.000000,-11.000000,-31.000000,13.000000
1309626.739633,10.000000,13.000000,39.000000,2.000000,19.000000,-4.000000,12.000000,1.000000
1309626.740391,-17.000000,13.000000,-15.000000,14.000000,8.000000,-6.000000,-7.000000,-23.000000
1309626.740401,-56.000000,4.000000,-6.000000,0.000000,5.000000,7.000000,53.000000,17.000000
1309626.751700,66.000000,3.000000,27.000000,5.000000,-8.000000,1.000000,-20.000000,3.000000
1309626.751713,-13.000000,-6.000000,-53.000000,9.000000,-1.000000,-9.000000,-39.000000,-7.000000
1309626.752304,10.000000,6.000000,23.000000,30.000000,2.000000,-5.000000,-11.000000,2.000000
1309626.752314,5.000000,-10.000000,-1.000000,-9.000000,6.000000,10.000000,63.000000,9.000000
1309626.774229,6.000000,-9.000000,-14.000000,8.000000,-7.000000,-11.000000,-11.000000,3.000000
1309626.774252,35.000000,5.000000,-8.000000,-19.000000,4.000000,5.000000,-1.000000,9.000000
1309626.796765,27.000000,14.000000,27.000000,12.000000,5.000000,10.000000,13.000000,2.000000
1309626.796776,-20.000000,-3.000000,-13.000000,-25.000000,-21.000000,-9.000000,-18.000000,-11.000000
1309626.819155,17.000000,8.000000,-6.000000,16.000000,6.000000,9.000000,36.000000,3.000000
1309626.819172,-9.000000,7.000000,36.000000,33.000000,15.000000,9.000000,-31.000000,12.000000
1309626.834314,-45.000000,-18.000000,-19.000000,-26.000000,9.000000,0.000000,20.000000,-5.000000
1309626.834325,33.000000,1.000000,10.000000,12.000000,17.000000,4.000000,70.000000,3.000000
1309626.859237,26.000000,13.000000,32.000000,-6.000000,1.000000,13.000000,-44.000000,9.000000
1309626.859807,-86.000000,-4.000000,-30.000000,-18.000000,-4.000000,-5.000000,23.000000,3.000000
1309626.861266,27.000000,-22.000000,19.000000,0.000000,0.000000,-10.000000,-20.000000,-5.000000
1309626.861629,8.000000,12.000000,14.000000,0.000000,-7.000000,-1.000000,18.000000,11.000000
1309626.861829,13.000000,11.000000,1.000000,-10.000000,0.000000,5.000000,37.000000,3.000000
1309626.861855,-85.000000,-1.000000,-19.000000,-17.000000,-13.000000,-20.000000,-51.000000,-16.000000
1309626.862571,-52.000000,15.000000,15.000000,-41.000000,-9.000000,5.000000,8.000000,-9.000000
1309626.862593,12.000000,-17.000000,22.000000,17.000000,3.000000,6.000000,-25.000000,3.000000
1309626.862865,16.000000,13.000000,26.000000,-40.000000,23.000000,15.000000,3.000000,7.000000
1309626.862898,-18.000000,9.000000,33.000000,59.000000,-5.000000,7.000000,-28.000000,-10.000000
1309626.872122,-10.000000,-20.000000,-45.000000,-7.000000,-16.000000,-6.000000,-6.000000,-11.000000
1309626.872148,19.000000,8.000000,30.000000,37.000000,10.000000,7.000000,-8.000000,-5.000000
1309626.872796,-20.000000,12.000000,3.000000,3.000000,-5.000000,6.000000,-1.000000,8.000000
1309626.872818,-52.000000,-18.000000,-19.000000,4.000000,10.000000,-6.000000,20.000000,0.000000
1309626.901970,47.000000,10.000000,-6.000000,-5.000000,2.000000,-4.000000,16.000000,3.000000
1309626.901986,7.000000,15.000000,4.000000,-8.000000,-13.000000,-12.000000,-46.000000,6.000000
1309626.909390,0.000000,-4.000000,7.000000,-14.000000,1.000000,14.000000,4.000000,-1.000000
1309626.909405,-19.000000,-12.000000,-24.000000,-3.000000,1.000000,-9.000000,-21.000000,-7.000000
1309626.923999,63.000000,7.000000,21.000000,-30.000000,-3.000000,-13.000000,-14.000000,13.000000
1309626.924009,-80.000000,11.000000,25.000000,10.000000,-28.000000,0.000000,8.000000,-3.000000
1309626.931688,30.000000,-25.000000,-39.000000,12.000000,19.000000,-6.000000,6.000000,-8.000000
1309626.931698,-41.000000,9.000000,9.000000,-26.000000,-17.000000,6.000000,-10.000000,-12.000000
1309626.953846,14.000000,-2.000000,-1.000000,-11.000000,-6.000000,10.000000,-5.000000,-3.000000
1309626.953869,-28.000000,9.000000,11.000000,57.000000,0.000000,-7.000000,5.000000,-5.000000
1309626.954507,7.000000,3.000000,-6.000000,5.000000,21.000000,5.000000,-1.000000,-1.000000
1309626.954520,13.000000,19.000000,9.000000,-20.000000,-10.000000,1.000000,30.000000,4.000000
1309626.955771,17.000000,-5.000000,1.000000,41.000000,4.000000,-9.000000,-60.000000,-4.000000
1309626.955784,36.000000,-4.000000,-48.000000,-41.000000,-3.000000,1.000000,17.000000,4.000000
1309626.956522,8.000000,8.000000,14.000000,-34.000000,-2.000000,6.000000,-57.000000,3.000000
1309626.956541,-39.000000,-11.000000,-2.000000,-17.000000,-4.000000,3.000000,72.000000,1.000000
1309626.969061,27.000000,-23.000000,-26.000000,20.000000,3.000000,-16.000000,-24.000000,-1.000000
1309626.969085,-37.000000,26.000000,72.000000,17.000000,11.000000,0.000000,-68.000000,-6.000000
1309626.976527,6.000000,3.000000,-24.000000,-12.000000,-5.000000,-1.000000,40.000000,-4.000000
1309626.976537,16.000000,-12.000000,24.000000,-46.000000,-9.000000,1.000000,-4.000000,-2.000000
1309626.991597,7.000000,9.000000,6.000000,-35.000000,16.000000,12.000000,23.000000,-1.000000
1309626.991610,-10.000000,13.000000,-2.000000,-14.000000,-6.000000,-4.000000,-27.000000,4.000000
1309626.992417,-19.000000,-32.000000,-11.000000,-16.000000,-15.000000,-4.000000,-9.000000,3.000000
1309626.992427,54.000000,-11.000000,-21.000000,-10.000000,-5.000000,-4.000000,10.000000,-7.000000
1309627.029389,-5.000000,23.000000,-14.000000,-26.000000,5.000000,10.000000,-3.000000,-12.000000
1309627.029402,-4.000000,-23.000000,30.000000,82.000000,2.000000,3.000000,-12.000000,-3.000000
1309627.036659,11.000000,-23.000000,-5.000000,-4.000000,1.000000,-4.000000,32.000000,22.000000
1309627.036670,4.000000,-13.000000,3.000000,-19.000000,-4.000000,-22.000000,-36.000000,-1.000000
1309627.059094,23.000000,-1.000000,-1.000000,-3.000000,-17.000000,11.000000,64.000000,0.000000
1309627.059104,12.000000,-2.000000,11.000000,-10.000000,8.000000,-6.000000,8.000000,-11.000000
1309627.066921,41.000000,2.000000,2.000000,-9.000000,16.000000,-8.000000,-57.000000,0.000000
1309627.066950,-1.000000,16.000000,4.000000,-10.000000,1.000000,14.000000,30.000000,4.000000
1309627.089043,2.000000,-6.000000,3.000000,-21.000000,-8.000000,-13.000000,-45.000000,-7.000000
1309627.089053,39.000000,-8.000000,-16.000000,6.000000,0.000000,-5.000000,31.000000,0.000000
1309627.089538,-2.000000,4.000000,31.000000,-20.000000,-5.000000,8.000000,-2.000000,1.000000
1309627.089563,13.000000,-7.000000,-10.000000,10.000000,3.000000,1.000000,21.000000,2.000000
1309627.090831,23.000000,-20.000000,-5.000000,-79.000000,1.000000,0.000000,-15.000000,-8.000000
1309627.090846,87.000000,11.000000,-12.000000,-12.000000,-20.000000,0.000000,12.000000,-3.000000
1309627.091408,-86.000000,-5.000000,-52.000000,10.000000,-4.000000,-1.000000,-20.000000,-6.000000
1309627.091425,6.000000,-13.000000,1.000000,3.000000,10.000000,-1.000000,-13.000000,-1.000000
1309627.092135,-16.000000,-3.000000,-7.000000,13.000000,-8.000000,-8.000000,-21.000000,2.000000
1309627.092142,49.000000,19.000000,53.000000,-25.000000,7.000000,3.000000,16.000000,21.000000
1309627.096857,-7.000000,-11.000000,-4.000000,5.000000,3.000000,-4.000000,-8.000000,-8.000000
1309627.096873,18.000000,5.000000,-18.000000,-1.000000,1.000000,3.000000,1.000000,-5.000000
1309627.111711,-11.000000,-3.000000,18.000000,-13.000000,6.000000,-5.000000,16.000000,-6.000000
1309627.111721,-16.000000,-14.000000,-10.000000,-4.000000,-1.000000,-21.000000,-47.000000,-1.000000
1309627.112216,22.000000,-12.000000,-29.000000,17.000000,7.000000,-5.000000,-26.000000,-14.000000
1309627.112224,24.000000,12.000000,10.000000,-12.000000,-4.000000,4.000000,29.000000,5.000000
1309627.148974,14.000000,1.000000,28.000000,12.000000,-1.000000,10.000000,41.000000,13.000000
1309627.148984,13.000000,-10.000000,-60.000000,28.000000,4.000000,2.000000,-24.000000,-5.000000
1309627.171892,-13.000000,9.000000,23.000000,-14.000000,-12.000000,-10.000000,-21.000000,-6.000000
1309627.171920,40.000000,4.000000,16.000000,-16.000000,4.000000,10.000000,7.000000,11.000000
1309627.186985,3.000000,-20.000000,-64.000000,-60.000000,-11.000000,-3.000000,15.000000,4.000000
1309627.186994,9.000000,5.000000,-1.000000,-23.000000,2.000000,-4.000000,-5.000000,-6.000000
1309627.187506,0.000000,4.000000,15.000000,31.000000,1.000000,8.000000,-3.000000,7.000000
1309627.187514,14.000000,-8.000000,-1.000000,-9.000000,4.000000,-4.000000,13.000000,12.000000
1309627.188932,-20.000000,-18.000000,-27.000000,-15.000000,12.000000,-2.000000,-7.000000,-13.000000
1309627.188946,10.000000,4.000000,29.000000,-14.000000,-11.000000,5.000000,-10.000000,1.000000
1309627.189485,1.000000,3.000000,5.000000,20.000000,13.000000,29.000000,32.000000,14.000000
1309627.189493,10.000000,-20.000000,-27.000000,-26.000000,-8.000000,-30.000000,-62.000000,-5.000000
1309627.190427,36.000000,16.000000,20.000000,20.000000,-4.000000,-12.000000,39.000000,2.000000
1309627.190435,36.000000,25.000000,9.000000,2.000000,-11.000000,-2.000000,-32.000000,0.000000
1309627.193811,-4.000000,-12.000000,-52.000000,-26.000000,-6.000000,9.000000,27.000000,5.000000
1309627.193826,-20.000000,16.000000,9.000000,113.000000,16.000000,7.000000,21.000000,-14.000000
1309627.201431,-7.000000,0.000000,33.000000,3.000000,1.000000,-3.000000,5.000000,12.000000
1309627.201441,-47.000000,-21.000000,-66.000000,-1.000000,-5.000000,-2.000000,-11.000000,-8.000000
1309627.231608,33.000000,-14.000000,-28.000000,-8.000000,-3.000000,-15.000000,-24.000000,2.000000
1309627.231621,25.000000,4.000000,31.000000,46.000000,8.000000,10.000000,26.000000,12.000000
1309627.254329,-4.000000,3.000000,37.000000,-13.000000,-13.000000,6.000000,-4.000000,11.000000
1309627.254340,-11.000000,-10.000000,-36.000000,16.000000,4.000000,7.000000,12.000000,-14.000000
1309627.261746,15.000000,21.000000,35.000000,62.000000,18.000000,-19.000000,-37.000000,3.000000
1309627.261757,-32.000000,-7.000000,8.000000,-39.000000,-30.000000,2.000000,-4.000000,-2.000000
1309627.291492,6.000000,-8.000000,-28.000000,55.000000,20.000000,6.000000,21.000000,-10.000000
1309627.291512,15.000000,8.000000,-7.000000,-14.000000,-5.000000,-8.000000,-28.000000,-14.000000
1309627.306675,-20.000000,17.000000,7.000000,-11.000000,-17.000000,-4.000000,11.000000,-1.000000
1309627.306684,5.000000,-22.000000,-2.000000,21.000000,-11.000000,0.000000,19.000000,-2.000000
1309627.329173,2.000000,-9.000000,-32.000000,-12.000000,4.000000,-4.000000,-18.000000,-6.000000
1309627.329184,-3.000000,2.000000,-3.000000,-18.000000,3.000000,10.000000,21.000000,-3.000000
1309627.336548,-10.000000,8.000000,17.000000,-51.000000,3.000000,5.000000,14.000000,11.000000
1309627.336558,30.000000,-10.000000,-19.000000,7.000000,1.000000,-17.000000,-52.000000,-2.000000
1309627.351749,9.000000,6.000000,-14.000000,-21.000000,-7.000000,1.000000,-2.000000,-7.000000
1309627.351759,13.000000,12.000000,32.000000,8.000000,-14.000000,7.000000,11.000000,14.000000
1309627.352290,-2.000000,-7.000000,-8.000000,-14.000000,-8.000000,9.000000,20.000000,1.000000
1309627.352298,12.000000,-6.000000,21.000000,16.000000,11.000000,-7.000000,-4.000000,-2.000000
1309627.352695,17.000000,-4.000000,-28.000000,-4.000000,-11.000000,11.000000,19.000000,6.000000
1309627.352702,41.000000,-25.000000,26.000000,-4.000000,-7.000000,4.000000,15.000000,-10.000000
1309627.353209,-19.000000,18.000000,20.000000,0.000000,17.000000,-4.000000,-47.000000,7.000000
1309627.353217,16.000000,6.000000,16.000000,-21.000000,-13.000000,-2.000000,14.000000,20.000000
1309627.353698,-3.000000,0.000000,-7.000000,11.000000,-3.000000,4.000000,15.000000,-15.000000
1309627.353706,-41.000000,-10.000000,-3.000000,-3.000000,4.000000,-12.000000,0.000000,-6.000000
1309627.354701,46.000000,16.000000,-3.000000,-32.000000,-24.000000,10.000000,10.000000,6.000000
1309627.354709,13.000000,-13.000000,4.000000,6.000000,9.000000,-8.000000,-23.000000,-1.000000
1309627.389262,64.000000,-22.000000,-32.000000,-13.000000,7.000000,8.000000,-7.000000,6.000000
1309627.389283,7.000000,13.000000,-18.000000,21.000000,-13.000000,-2.000000,-13.000000,-16.000000
1309627.411615,-70.000000,-14.000000,47.000000,2.000000,-9.000000,-6.000000,14.000000,15.000000
1309627.411625,45.000000,-22.000000,-29.000000,-22.000000,21.000000,13.000000,10.000000,-4.000000
1309627.449435,-62.000000,8.000000,-22.000000,-16.000000,-9.000000,6.000000,-18.000000,-10.000000
1309627.449452,1.000000,16.000000,40.000000,-18.000000,-15.000000,-3.000000,13.000000,8.000000
1309627.449709,-12.000000,-16.000000,-14.000000,2.000000,-1.000000,-3.000000,-1.000000,-4.000000
1309627.449731,14.000000,14.000000,-1.000000,-10.000000,9.000000,5.000000,-3.000000,-5.000000
1309627.450829,-40.000000,12.000000,35.000000,10.000000,9.000000,7.000000,-33.000000,-19.000000
1309627.450852,-56.000000,-21.000000,-20.000000,-33.000000,-2.000000,-2.000000,-1.000000,7.000000
1309627.451487,-73.000000,-1.000000,5.000000,-3.000000,5.000000,-7.000000,4.000000,-14.000000
1309627.451526,3.000000,-6.000000,-40.000000,39.000000,10.000000,1.000000,-15.000000,-4.000000
1309627.452190,-36.000000,-7.000000,-16.000000,-7.000000,-30.000000,0.000000,27.000000,-8.000000
1309627.452205,16.000000,-27.000000,-29.000000,35.000000,16.000000,-6.000000,-6.000000,4.000000
1309627.453188,6.000000,1.000000,16.000000,49.000000,-3.000000,0.000000,-7.000000,2.000000
1309627.453226,-26.000000,-11.000000,-11.000000,-10.000000,6.000000,-1.000000,-3.000000,-13.000000
1309627.464591,21.000000,15.000000,12.000000,-13.000000,-13.000000,5.000000,-5.000000,4.000000
1309627.464618,-9.000000,-7.000000,-43.000000,-3.000000,2.000000,5.000000,25.000000,2.000000
1309627.465394,-13.000000,-1.000000,19.000000,2.000000,14.000000,-11.000000,-9.000000,-11.000000
1309627.465421,-27.000000,7.000000,22.000000,-16.000000,19.000000,-1.000000,-35.000000,2.000000
1309627.524454,-6.000000,-14.000000,-12.000000,55.000000,-12.000000,-5.000000,9.000000,2.000000
1309627.524464,15.000000,-19.000000,-34.000000,-6.000000,-5.000000,2.000000,-12.000000,-2.000000
1309627.531616,34.000000,10.000000,33.000000,72.000000,3.000000,-1.000000,37.000000,9.000000
1309627.531640,19.000000,12.000000,5.000000,-32.000000,2.000000,0.000000,25.000000,1.000000
1309627.547020,-22.000000,-3.000000,-6.000000,0.000000,2.000000,5.000000,-12.000000,-8.000000
1309627.547028,10.000000,11.000000,38.000000,20.000000,-6.000000,-7.000000,-19.000000,-2.000000
1309627.547644,-9.000000,31.000000,13.000000,40.000000,-10.000000,1.000000,-5.000000,-5.000000
1309627.547652,1.000000,-24.000000,-23.000000,-6.000000,-8.000000,-13.000000,1.000000,-6.000000
1309627.548838,-1.000000,9.000000,-2.000000,36.000000,0.000000,9.000000,-6.000000,10.000000
1309627.548847,9.000000,-22.000000,-18.000000,-4.000000,-3.000000,0.000000,15.000000,-6.000000
1309627.550382,-4.000000,-4.000000,30.000000,67.000000,16.000000,8.000000,-17.000000,-2.000000
1309627.550390,41.000000,-11.000000,16.000000,-28.000000,-2.000000,-11.000000,30.000000,-3.000000
1309627.570087,-8.000000,17.000000,-10.000000,66.000000,5.000000,-4.000000,-27.000000,10.000000
1309627.570157,11.000000,-25.000000,24.000000,-26.000000,-2.000000,7.000000,-2.000000,0.000000
1309627.570523,24.000000,-9.000000,-47.000000,-21.000000,14.000000,-10.000000,13.000000,3.000000
1309627.570550,-30.000000,4.000000,26.000000,-10.000000,-10.000000,4.000000,-13.000000,-6.000000
1309627.584402,-10.000000,-17.000000,-33.000000,-31.000000,-10.000000,2.000000,27.000000,3.000000
1309627.584411,51.000000,-41.000000,-14.000000,-19.000000,-7.000000,-20.000000,-4.000000,-16.000000
1309627.585144,-30.000000,10.000000,-12.000000,8.000000,23.000000,8.000000,4.000000,7.000000
1309627.585153,-6.000000,3.000000,4.000000,-7.000000,-19.000000,-8.000000,-22.000000,-10.000000
1309627.621586,-10.000000,-9.000000,-26.000000,-13.000000,-5.000000,2.000000,5.000000,-8.000000
1309627.621599,10.000000,11.000000,14.000000,34.000000,0.000000,-4.000000,6.000000,-5.000000
1309627.629162,-19.000000,9.000000,12.000000,-38.000000,-15.000000,22.000000,17.000000,17.000000
1309627.629181,26.000000,-6.000000,-24.000000,-39.000000,6.000000,-18.000000,-25.000000,-6.000000
1309627.651851,24.000000,-13.000000,-9.000000,47.000000,13.000000,2.000000,37.000000,-8.000000
1309627.651864,-35.000000,4.000000,2.000000,-2.000000,-5.000000,4.000000,27.000000,3.000000
1309627.659004,46.000000,-30.000000,22.000000,-12.000000,-18.000000,-4.000000,-32.000000,-1.000000
1309627.659017,13.000000,-22.000000,-60.000000,-29.000000,-5.000000,-5.000000,-11.000000,-3.000000
1309627.666600,4.000000,8.000000,31.000000,7.000000,3.000000,12.000000,8.000000,7.000000
1309627.666617,-7.000000,7.000000,-21.000000,-9.000000,-16.000000,5.000000,-9.000000,7.000000
1309627.666977,14.000000,-13.000000,25.000000,0.000000,-6.000000,-6.000000,25.000000,3.000000
1309627.666996,-20.000000,7.000000,7.000000,13.000000,13.000000,-1.000000,-23.000000,-9.000000
1309627.668111,3.000000,6.000000,0.000000,-22.000000,-10.000000,-5.000000,-19.000000,0.000000
1309627.668120,-13.000000,-20.000000,19.000000,15.000000,4.000000,1.000000,-5.000000,12.000000
1309627.669159,12.000000,0.000000,27.000000,23.000000,0.000000,-1.000000,29.000000,-6.000000
1309627.669169,5.000000,0.000000,-14.000000,-42.000000,-11.000000,-9.000000,-37.000000,4.000000
1309627.689706,-6.000000,-13.000000,-8.000000,28.000000,7.000000,-6.000000,25.000000,-9.000000
1309627.689722,0.000000,-16.000000,-4.000000,-19.000000,-4.000000,-7.000000,7.000000,-7.000000
1309627.690350,23.000000,9.000000,-5.000000,-15.000000,-4.000000,4.000000,-7.000000,4.000000
1309627.690359,11.000000,3.000000,9.000000,-30.000000,-1.000000,-7.000000,-12.000000,-2.000000
1309627.704697,-14.000000,-4.000000,2.000000,10.000000,2.000000,0.000000,9.000000,-1.000000
1309627.704709,6.000000,5.000000,32.000000,40.000000,8.000000,7.000000,15.000000,4.000000
1309627.705336,-57.000000,14.000000,-42.000000,16.000000,-9.000000,-9.000000,-48.000000,6.000000
1309627.705344,14.000000,0.000000,6.000000,-55.000000,-8.000000,8.000000,23.000000,-1.000000
1309627.742843,34.000000,0.000000,-23.000000,-14.000000,2.000000,-3.000000,30.000000,9.000000
1309627.742872,-24.000000,9.000000,13.000000,-10.000000,0.000000,0.000000,-28.000000,-7.000000
1309627.749972,-6.000000,-10.000000,41.000000,-12.000000,-8.000000,-2.000000,5.000000,-3.000000
1309627.750002,10.000000,-5.000000,-35.000000,-19.000000,8.000000,4.000000,-8.000000,1.000000
1309627.765766,7.000000,0.000000,0.000000,-24.000000,-15.000000,-1.000000,21.000000,7.000000
1309627.765825,-14.000000,-3.000000,15.000000,54.000000,5.000000,5.000000,-13.000000,2.000000
1309627.788339,84.000000,11.000000,-12.000000,-4.000000,4.000000,-1.000000,-48.000000,-6.000000
1309627.789133,-42.000000,9.000000,30.000000,-14.000000,-8.000000,-4.000000,23.000000,1.000000
1309627.790687,40.000000,6.000000,-5.000000,-5.000000,-14.000000,3.000000,33.000000,5.000000
1309627.790754,29.000000,15.000000,-23.000000,-19.000000,-1.000000,-8.000000,-17.000000,-1.000000
1309627.791033,-35.000000,14.000000,13.000000,38.000000,12.000000,1.000000,-17.000000,-22.000000
1309627.791064,10.000000,3.000000,-1.000000,-22.000000,-9.000000,3.000000,28.000000,14.000000
1309627.792894,32.000000,13.000000,-7.000000,-21.000000,-11.000000,11.000000,38.000000,16.000000
1309627.792917,-6.000000,-8.000000,6.000000,8.000000,4.000000,-15.000000,-50.000000,-10.000000
1309627.793052,-4.000000,11.000000,-39.000000,-10.000000,-7.000000,3.000000,5.000000,-2.000000
1309627.793110,-13.000000,-7.000000,-4.000000,-22.000000,-15.000000,7.000000,22.000000,-8.000000
1309627.803894,-4.000000,-17.000000,-22.000000,1.000000,12.000000,0.000000,11.000000,-10.000000
1309627.803925,31.000000,25.000000,20.000000,-5.000000,2.000000,-5.000000,-29.000000,6.000000
1309627.810263,-22.000000,11.000000,33.000000,-11.000000,-7.000000,8.000000,10.000000,-3.000000
1309627.810292,15.000000,-14.000000,-43.000000,-24.000000,1.000000,-5.000000,-16.000000,0.000000
1309627.824914,17.000000,1.000000,-29.000000,17.000000,4.000000,-1.000000,-2.000000,-5.000000
1309627.825086,-27.000000,10.000000,24.000000,-13.000000,-10.000000,-1.000000,-18.000000,1.000000
1309627.825548,46.000000,-5.000000,18.000000,5.000000,-8.000000,6.000000,0.000000,-2.000000
1309627.825584,-82.000000,14.000000,7.000000,0.000000,12.000000,-2.000000,0.000000,-21.000000
1309627.861684,48.000000,-1.000000,-54.000000,-26.000000,-6.000000,-13.000000,-19.000000,6.000000
1309627.861697,-27.000000,-20.000000,10.000000,-5.000000,-7.000000,-4.000000,12.000000,6.000000
1309627.869076,5.000000,-6.000000,-22.000000,-11.000000,-5.000000,-6.000000,-11.000000,-11.000000
1309627.869090,12.000000,16.000000,41.000000,58.000000,11.000000,1.000000,-25.000000,-3.000000
1309627.891625,-17.000000,6.000000,5.000000,-19.000000,-30.000000,-4.000000,-9.000000,-3.000000
1309627.891639,2.000000,-2.000000,19.000000,-2.000000,-3.000000,3.000000,48.000000,4.000000
1309627.907132,-12.000000,-3.000000,14.000000,21.000000,-4.000000,-6.000000,-7.000000,-2.000000
1309627.907144,-27.000000,17.000000,34.000000,21.000000,8.000000,5.000000,-14.000000,1.000000
1309627.929033,16.000000,-8.000000,-12.000000,-13.000000,-14.000000,-4.000000,3.000000,-8.000000
1309627.929046,10.000000,-11.000000,-22.000000,-39.000000,2.000000,-12.000000,-19.000000,-9.000000
1309627.944262,-59.000000,-6.000000,14.000000,37.000000,9.000000,7.000000,-49.000000,-11.000000
1309627.944276,-16.000000,5.000000,17.000000,18.000000,-1.000000,8.000000,69.000000,15.000000
1309627.945285,61.000000,-21.000000,-15.000000,6.000000,-10.000000,-8.000000,-27.000000,-5.000000
1309627.945296,-39.000000,17.000000,9.000000,32.000000,19.000000,5.000000,1.000000,0.000000
1309627.945797,29.000000,5.000000,-25.000000,-4.000000,-8.000000,8.000000,5.000000,8.000000
1309627.945811,-53.000000,12.000000,3.000000,-13.000000,-10.000000,-5.000000,-38.000000,-29.000000
1309627.946428,18.000000,-6.000000,-8.000000,-7.000000,-17.000000,-7.000000,-44.000000,-6.000000
1309627.946438,-5.000000,-10.000000,-24.000000,-9.000000,3.000000,-3.000000,17.000000,-5.000000
1309627.966633,17.000000,-20.000000,-17.000000,-4.000000,-9.000000,-5.000000,-24.000000,-11.000000
1309627.966645,13.000000,0.000000,5.000000,-5.000000,2.000000,6.000000,1.000000,7.000000
1309627.989157,-6.000000,2.000000,-25.000000,-44.000000,4.000000,5.000000,13.000000,-1.000000
1309627.989169,43.000000,-20.000000,63.000000,40.000000,7.000000,-5.000000,19.000000,10.000000
1309628.011678,-44.000000,4.000000,4.000000,-9.000000,-3.000000,-21.000000,-71.000000,-5.000000
1309628.011709,-8.000000,21.000000,-14.000000,1.000000,14.000000,5.000000,16.000000,-3.000000
1309628.012581,12.000000,-18.000000,15.000000,42.000000,5.000000,-4.000000,5.000000,0.000000
1309628.012591,16.000000,-16.000000,-80.000000,-15.000000,6.000000,0.000000,2.000000,-1.000000
1309628.013212,-21.000000,15.000000,2.000000,-27.000000,-15.000000,-4.000000,-5.000000,-4.000000
1309628.013222,13.000000,-1.000000,-20.000000,-1.000000,-15.000000,3.000000,16.000000,4.000000
1309628.019272,-7.000000,-25.000000,11.000000,32.000000,26.000000,4.000000,17.000000,-1.000000
1309628.019293,35.000000,2.000000,30.000000,-12.000000,-5.000000,10.000000,-40.000000,-3.000000
1309628.019720,3.000000,5.000000,-17.000000,-10.000000,-6.000000,-6.000000,11.000000,11.000000
1309628.019740,-92.000000,-7.000000,9.000000,-3.000000,7.000000,-7.000000,-28.000000,-13.000000
1309628.021060,52.000000,14.000000,-17.000000,8.000000,-4.000000,1.000000,-30.000000,-6.000000
1309628.021072,-17.000000,12.000000,1.000000,9.000000,6.000000,4.000000,60.000000,13.000000
1309628.026598,-37.000000,-7.000000,-20.000000,-40.000000,-3.000000,11.000000,-8.000000,-21.000000
1309628.026611,32.000000,-10.000000,48.000000,25.000000,21.000000,-5.000000,-23.000000,10.000000
1309628.034689,-30.000000,12.000000,-6.000000,-26.000000,-15.000000,-2.000000,0.000000,4.000000
1309628.034700,17.000000,-8.000000,9.000000,32.000000,-13.000000,-9.000000,-24.000000,1.000000
1309628.057912,-9.000000,-20.000000,-28.000000,-13.000000,-6.000000,-4.000000,-13.000000,-3.000000
1309628.057967,14.000000,18.000000,34.000000,-15.000000,5.000000,6.000000,10.000000,-7.000000
1309628.066291,2.000000,12.000000,-13.000000,-25.000000,10.000000,7.000000,-19.000000,-5.000000
1309628.066320,-31.000000,8.000000,0.000000,-23.000000,-9.000000,-1.000000,16.000000,3.000000
1309628.066449,-23.000000,19.000000,-8.000000,-4.000000,30.000000,9.000000,15.000000,9.000000
1309628.066486,-2.000000,-16.000000,19.000000,-37.000000,-7.000000,-5.000000,-8.000000,-6.000000
1309628.086982,33.000000,-14.000000,-13.000000,-12.000000,-10.000000,2.000000,6.000000,10.000000
1309628.087011,30.000000,-4.000000,-8.000000,-10.000000,11.000000,-5.000000,-37.000000,1.000000
1309628.094369,32.000000,15.000000,6.000000,2.000000,-4.000000,5.000000,40.000000,10.000000
1309628.094384,-3.000000,2.000000,-5.000000,7.000000,-10.000000,4.000000,31.000000,-6.000000
1309628.124297,2.000000,-13.000000,-40.000000,-7.000000,9.000000,-1.000000,-14.000000,-5.000000
1309628.124335,-3.000000,3.000000,28.000000,3.000000,-10.000000,6.000000,-2.000000,-1.000000
1309628.139038,-19.000000,-5.000000,21.000000,-37.000000,-13.000000,8.000000,-19.000000,16.000000
1309628.139051,-7.000000,-13.000000,0.000000,75.000000,-1.000000,-6.000000,-14.000000,-2.000000
1309628.140158,-29.000000,6.000000,-9.000000,6.000000,17.000000,3.000000,16.000000,0.000000
1309628.140173,3.000000,19.000000,4.000000,45.000000,1.000000,11.000000,20.000000,-7.000000
1309628.140839,-80.000000,-6.000000,-15.000000,-28.000000,-17.000000,-10.000000,-11.000000,-15.000000
1309628.140861,11.000000,-1.000000,1.000000,-3.000000,17.000000,-5.000000,0.000000,9.000000
1309628.142455,44.000000,5.000000,24.000000,11.000000,8.000000,7.000000,4.000000,12.000000
1309628.142465,-38.000000,-15.000000,2.000000,13.000000,-9.000000,-2.000000,15.000000,1.000000
1309628.146582,19.000000,-13.000000,-40.000000,-31.000000,-12.000000,-12.000000,-15.000000,-2.000000
1309628.146592,-7.000000,-7.000000,-3.000000,-9.000000,9.000000,3.000000,34.000000,-7.000000
1309628.162087,30.000000,16.000000,8.000000,-7.000000,-10.000000,16.000000,-22.000000,-4.000000
1309628.162097,13.000000,-5.000000,-7.000000,-1.000000,2.000000,-1.000000,14.000000,12.000000
1309628.168993,-19.000000,4.000000,-6.000000,-13.000000,-9.000000,-23.000000,3.000000,-9.000000
1309628.169004,14.000000,17.000000,12.000000,17.000000,-17.000000,8.000000,29.000000,16.000000
1309628.184179,2.000000,-5.000000,3.000000,20.000000,-1.000000,-5.000000,-19.000000,1.000000
1309628.184192,26.000000,6.000000,-2.000000,55.000000,23.000000,5.000000,-8.000000,-3.000000
1309628.184818,12.000000,7.000000,-8.000000,-5.000000,-4.000000,3.000000,10.000000,1.000000
1309628.184828,31.000000,-4.000000,-14.000000,-37.000000,-33.000000,-8.000000,1.000000,3.000000
1309628.221705,-86.000000,-18.000000,-28.000000,31.000000,35.000000,10.000000,-5.000000,0.000000
1309628.221716,8.000000,-4.000000,-35.000000,-2.000000,-19.000000,-7.000000,-4.000000,-7.000000
1309628.244305,12.000000,-1.000000,12.000000,25.000000,-6.000000,-5.000000,11.000000,3.000000
1309628.244316,-16.000000,-28.000000,-44.000000,-26.000000,2.000000,-5.000000,-9.000000,0.000000
1309628.281805,41.000000,12.000000,26.000000,12.000000,9.000000,5.000000,-1.000000,2.000000
1309628.281820,-61.000000,23.000000,-3.000000,-39.000000,-28.000000,-14.000000,7.000000,-3.000000
1309628.282211,22.000000,-8.000000,14.000000,39.000000,12.000000,-4.000000,-38.000000,13.000000
1309628.282221,-15.000000,-7.000000,-10.000000,-11.000000,-5.000000,0.000000,5.000000,-13.000000
1309628.283238,38.000000,9.000000,46.000000,-12.000000,17.000000,21.000000,17.000000,8.000000
1309628.283248,-30.000000,-17.000000,7.000000,15.000000,5.000000,-1.000000,-36.000000,4.000000
1309628.283913,-96.000000,6.000000,-22.000000,-20.000000,7.000000,-12.000000,-2.000000,-19.000000
1309628.283923,77.000000,12.000000,11.000000,8.000000,-26.000000,10.000000,32.000000,14.000000
1309628.296745,-83.000000,4.000000,28.000000,34.000000,3.000000,0.000000,2.000000,-2.000000
1309628.296767,4.000000,-24.000000,-23.000000,-18.000000,-16.000000,-8.000000,-5.000000,9.000000
1309628.298128,-16.000000,-14.000000,-35.000000,2.000000,7.000000,-5.000000,-10.000000,-9.000000
1309628.298226,11.000000,5.000000,29.000000,20.000000,-9.000000,-6.000000,-14.000000,-10.000000
1309628.304305,-3.000000,-13.000000,-27.000000,-2.000000,-5.000000,2.000000,8.000000,5.000000
1309628.304335,-6.000000,-8.000000,-13.000000,-13.000000,-5.000000,-3.000000,-41.000000,-6.000000
1309628.334174,10.000000,13.000000,26.000000,-16.000000,-10.000000,-5.000000,36.000000,2.000000
1309628.334203,19.000000,4.000000,44.000000,20.000000,-3.000000,-3.000000,-31.000000,7.000000
1309628.341891,-19.000000,-22.000000,-40.000000,-14.000000,-1.000000,-20.000000,28.000000,-4.000000
1309628.341910,6.000000,19.000000,10.000000,-9.000000,0.000000,1.000000,5.000000,-3.000000
1309628.364407,1.000000,11.000000,2.000000,-33.000000,-17.000000,6.000000,6.000000,8.000000
1309628.364587,18.000000,-21.000000,16.000000,-29.000000,22.000000,4.000000,8.000000,-6.000000
1309628.364875,50.000000,1.000000,-10.000000,11.000000,14.000000,4.000000,8.000000,6.000000
1309628.364902,-101.000000,12.000000,-2.000000,-9.000000,14.000000,8.000000,-5.000000,1.000000
1309628.365879,-27.000000,-9.000000,-24.000000,-18.000000,-13.000000,-10.000000,-16.000000,-5.000000
1309628.365886,-5.000000,-21.000000,-1.000000,-20.000000,13.000000,5.000000,22.000000,0.000000
1309628.379394,6.000000,9.000000,3.000000,-4.000000,-4.000000,-1.000000,9.000000,4.000000
1309628.379423,-5.000000,-13.000000,-24.000000,3.000000,-1.000000,8.000000,5.000000,-3.000000
1309628.380335,7.000000,-2.000000,6.000000,-10.000000,-11.000000,-6.000000,-21.000000,-2.000000
1309628.380344,4.000000,-2.000000,3.000000,40.000000,36.000000,12.000000,18.000000,-4.000000
1309628.401546,8.000000,8.000000,-66.000000,2.000000,-11.000000,4.000000,-12.000000,6.000000
1309628.401556,-20.000000,-15.000000,10.000000,19.000000,12.000000,3.000000,21.000000,-8.000000
1309628.402735,1.000000,-16.000000,-14.000000,3.000000,0.000000,0.000000,-14.000000,3.000000
1309628.402752,0.000000,14.000000,1.000000,28.000000,12.000000,-11.000000,-45.000000,1.000000
1309628.416480,-5.000000,-13.000000,-13.000000,-25.000000,-18.000000,-3.000000,49.000000,6.000000
1309628.416492,20.000000,-21.000000,3.000000,-5.000000,9.000000,-14.000000,6.000000,8.000000
1309628.418219,58.000000,6.000000,22.000000,-38.000000,-13.000000,-11.000000,-41.000000,-7.000000
1309628.418232,-37.000000,3.000000,-6.000000,-13.000000,-2.000000,4.000000,-8.000000,-2.000000
1309628.439130,-45.000000,-10.000000,-5.000000,-17.000000,8.000000,5.000000,6.000000,-11.000000
1309628.439142,35.000000,-4.000000,-25.000000,41.000000,6.000000,-16.000000,7.000000,3.000000
1309628.455297,0.000000,31.000000,38.000000,53.000000,3.000000,0.000000,-3.000000,6.000000
1309628.455355,22.000000,-5.000000,-23.000000,-21.000000,-9.000000,0.000000,-29.000000,-3.000000
1309628.462724,-8.000000,-12.000000,-26.000000,-34.000000,0.000000,-8.000000,8.000000,-3.000000
1309628.462752,-40.000000,3.000000,-59.000000,-10.000000,2.000000,2.000000,7.000000,-15.000000
1309628.499389,13.000000,-14.000000,27.000000,-12.000000,0.000000,-1.000000,4.000000,0.000000
1309628.499405,1.000000,-25.000000,-33.000000,8.000000,12.000000,6.000000,22.000000,10.000000
1309628.521654,-12.000000,15.000000,-2.000000,-21.000000,-4.000000,-6.000000,-1.000000,-8.000000
1309628.521665,-27.000000,8.000000,1.000000,64.000000,-13.000000,-6.000000,-34.000000,-3.000000
1309628.559210,18.000000,-2.000000,2.000000,-3.000000,-8.000000,7.000000,11.000000,0.000000
1309628.559222,-6.000000,3.000000,-10.000000,-12.000000,11.000000,3.000000,-17.000000,-7.000000
1309628.566514,-11.000000,29.000000,22.000000,-6.000000,-6.000000,-3.000000,2.000000,11.000000
1309628.566524,48.000000,-9.000000,-21.000000,-5.000000,1.000000,12.000000,25.000000,-1.000000
1309628.581769,-98.000000,2.000000,1.000000,-4.000000,9.000000,6.000000,0.000000,-6.000000
1309628.581860,16.000000,13.000000,10.000000,-14.000000,-6.000000,-9.000000,-2.000000,-3.000000
1309628.619289,2.000000,1.000000,-26.000000,19.000000,0.000000,-3.000000,0.000000,-5.000000
1309628.619341,-43.000000,-1.000000,35.000000,40.000000,8.000000,8.000000,-19.000000,-7.000000
1309628.620447,38.000000,-1.000000,11.000000,10.000000,11.000000,-7.000000,-19.000000,1.000000
1309628.620473,4.000000,9.000000,17.000000,-6.000000,-4.000000,5.000000,-6.000000,-4.000000
1309628.620944,5.000000,15.000000,17.000000,-3.000000,-20.000000,-12.000000,6.000000,8.000000
1309628.620955,15.000000,-8.000000,-35.000000,120.000000,19.000000,16.000000,17.000000,11.000000
1309628.622115,-1.000000,-3.000000,22.000000,30.000000,-5.000000,7.000000,43.000000,8.000000
1309628.622136,10.000000,-28.000000,-27.000000,-26.000000,-10.000000,-15.000000,-44.000000,-11.000000
1309628.634016,20.000000,-10.000000,7.000000,15.000000,-9.000000,-9.000000,-24.000000,3.000000
1309628.634040,-9.000000,15.000000,7.000000,-46.000000,-8.000000,-9.000000,-9.000000,-14.000000
1309628.641597,7.000000,27.000000,20.000000,69.000000,-8.000000,6.000000,0.000000,10.000000
1309628.641608,22.000000,-2.000000,10.000000,-61.000000,-7.000000,-1.000000,3.000000,-5.000000
1309628.656497,-19.000000,-5.000000,-12.000000,32.000000,5.000000,3.000000,8.000000,4.000000
1309628.656506,22.000000,17.000000,8.000000,-9.000000,-11.000000,1.000000,2.000000,-3.000000
1309628.658159,-11.000000,-17.000000,-20.000000,11.000000,-1.000000,-8.000000,1.000000,16.000000
1309628.658171,66.000000,-14.000000,-19.000000,35.000000,25.000000,1.000000,3.000000,5.000000
1309628.679033,5.000000,8.000000,24.000000,-18.000000,-6.000000,1.000000,-3.000000,-14.000000
1309628.679043,-15.000000,-12.000000,-5.000000,0.000000,-10.000000,-3.000000,0.000000,4.000000
1309628.693993,22.000000,5.000000,24.000000,-1.000000,-1.000000,3.000000,-4.000000,-10.000000
1309628.694002,-42.000000,13.000000,-12.000000,-3.000000,-3.000000,-11.000000,7.000000,-7.000000
1309628.701830,3.000000,10.000000,-1.000000,3.000000,-14.000000,-5.000000,8.000000,11.000000
1309628.701859,-17.000000,-13.000000,-15.000000,1.000000,3.000000,-12.000000,-10.000000,-15.000000
1309628.724185,3.000000,-14.000000,-12.000000,-19.000000,0.000000,-11.000000,-15.000000,-7.000000
1309628.724201,-15.000000,11.000000,12.000000,-5.000000,0.000000,8.000000,21.000000,-2.000000
1309628.731449,30.000000,-1.000000,17.000000,39.000000,6.000000,1.000000,-37.000000,-3.000000
1309628.731459,-3.000000,-20.000000,-12.000000,48.000000,19.000000,-5.000000,5.000000,4.000000
1309628.739493,1.000000,17.000000,31.000000,50.000000,0.000000,-2.000000,3.000000,1.000000
1309628.739502,-10.000000,7.000000,8.000000,-14.000000,6.000000,-2.000000,-2.000000,-1.000000
1309628.740163,-38.000000,-9.000000,12.000000,-18.000000,-14.000000,0.000000,53.000000,6.000000
1309628.740172,6.000000,-3.000000,-39.000000,-10.000000,-2.000000,0.000000,-23.000000,-15.000000
1309628.741582,-22.000000,21.000000,29.000000,1.000000,-21.000000,11.000000,33.000000,-8.000000
1309628.741605,10.000000,-3.000000,9.000000,2.000000,1.000000,-5.000000,-97.000000,-9.000000
1309628.754306,-2.000000,-10.000000,-17.000000,6.000000,5.000000,-4.000000,9.000000,-14.000000
1309628.754319,-27.000000,5.000000,7.000000,5.000000,-12.000000,0.000000,9.000000,3.000000
1309628.761655,-24.000000,-26.000000,-1.000000,-2.000000,13.000000,0.000000,10.000000,-5.000000
1309628.761667,28.000000,-24.000000,-53.000000,22.000000,7.000000,-12.000000,-32.000000,-1.000000
1309628.776561,25.000000,2.000000,15.000000,-1.000000,-7.000000,1.000000,40.000000,0.000000
1309628.776572,5.000000,1.000000,1.000000,0.000000,-3.000000,-3.000000,-19.000000,7.000000
1309628.807040,-27.000000,-5.000000,-5.000000,-10.000000,6.000000,6.000000,11.000000,3.000000
1309628.807054,20.000000,16.000000,31.000000,-16.000000,-13.000000,-11.000000,-30.000000,1.000000
1309628.814232,10.000000,6.000000,6.000000,6.000000,23.000000,13.000000,14.000000,8.000000
1309628.814244,-5.000000,-10.000000,-7.000000,-9.000000,-6.000000,-10.000000,-15.000000,-9.000000
1309628.836788,-8.000000,-11.000000,-11.000000,-43.000000,-12.000000,1.000000,32.000000,-2.000000
1309628.836801,8.000000,3.000000,22.000000,62.000000,14.000000,4.000000,-3.000000,2.000000
1309628.851814,10.000000,-7.000000,-24.000000,-42.000000,-9.000000,-3.000000,-13.000000,2.000000
1309628.851828,-12.000000,-11.000000,5.000000,-5.000000,-11.000000,-6.000000,0.000000,-3.000000
1309628.852740,17.000000,15.000000,-51.000000,3.000000,0.000000,0.000000,14.000000,-2.000000
1309628.852750,15.000000,3.000000,-2.000000,-20.000000,-5.000000,8.000000,-7.000000,3.000000
1309628.853271,-19.000000,-4.000000,6.000000,16.000000,31.000000,-2.000000,35.000000,1.000000
1309628.853281,11.000000,7.000000,-11.000000,-9.000000,8.000000,2.000000,8.000000,2.000000
1309628.854845,-41.000000,-9.000000,-46.000000,-6.000000,-4.000000,-11.000000,-13.000000,-19.000000
1309628.854856,34.000000,2.000000,20.000000,-16.000000,-9.000000,-4.000000,4.000000,9.000000
1309628.859960,-6.000000,-19.000000,-11.000000,19.000000,-12.000000,2.000000,7.000000,-4.000000
1309628.859970,7.000000,3.000000,-26.000000,10.000000,28.000000,2.000000,-14.000000,-11.000000
1309628.866446,34.000000,11.000000,26.000000,-1.000000,-6.000000,-11.000000,-9.000000,1.000000
1309628.866456,-18.000000,-1.000000,-3.000000,-17.000000,-17.000000,6.000000,39.000000,4.000000
1309628.896752,18.000000,-27.000000,-2.000000,35.000000,13.000000,-2.000000,-20.000000,8.000000
1309628.896762,24.000000,0.000000,-10.000000,-29.000000,-15.000000,-15.000000,-13.000000,-9.000000
1309628.911579,-8.000000,28.000000,20.000000,30.000000,2.000000,8.000000,24.000000,3.000000
1309628.911589,-1.000000,-14.000000,-30.000000,-38.000000,0.000000,-3.000000,11.000000,-4.000000
1309628.934315,9.000000,-7.000000,-4.000000,14.000000,14.000000,-1.000000,-48.000000,10.000000
1309628.934344,18.000000,22.000000,50.000000,-40.000000,0.000000,10.000000,0.000000,-5.000000
1309628.956476,-3.000000,-15.000000,-8.000000,2.000000,-5.000000,1.000000,51.000000,-6.000000
1309628.956556,49.000000,-5.000000,-23.000000,35.000000,-8.000000,-28.000000,-25.000000,2.000000
1309628.957624,-6.000000,6.000000,7.000000,-26.000000,3.000000,8.000000,-23.000000,-6.000000
1309628.957633,2.000000,12.000000,30.000000,-18.000000,6.000000,1.000000,1.000000,-4.000000
1309628.958436,28.000000,-27.000000,6.000000,108.000000,13.000000,-8.000000,-14.000000,0.000000
1309628.958472,16.000000,13.000000,14.000000,-13.000000,-11.000000,-1.000000,-64.000000,-4.000000
1309628.959618,-9.000000,13.000000,-55.000000,-15.000000,-10.000000,8.000000,46.000000,6.000000
1309628.959626,-16.000000,-13.000000,16.000000,-7.000000,0.000000,-6.000000,41.000000,-4.000000
1309628.960580,21.000000,10.000000,-3.000000,-5.000000,3.000000,-2.000000,-9.000000,-1.000000
1309628.960597,-3.000000,33.000000,15.000000,-22.000000,-16.000000,-8.000000,-41.000000,-3.000000
1309628.971578,-16.000000,0.000000,24.000000,52.000000,2.000000,-5.000000,0.000000,-3.000000
1309628.971587,19.000000,-4.000000,-5.000000,-16.000000,-24.000000,-5.000000,-16.000000,4.000000
1309628.994181,20.000000,4.000000,5.000000,30.000000,10.000000,-5.000000,-13.000000,-3.000000
1309628.994211,-82.000000,30.000000,-2.000000,-16.000000,-10.000000,3.000000,8.000000,-6.000000
1309628.994693,-27.000000,-3.000000,1.000000,-25.000000,16.000000,5.000000,-9.000000,2.000000
1309628.994720,37.000000,-15.000000,-16.000000,2.000000,11.000000,-6.000000,12.000000,-1.000000
1309629.009082,12.000000,21.000000,12.000000,-40.000000,4.000000,-5.000000,-15.000000,-4.000000
1309629.009093,6.000000,5.000000,21.000000,3.000000,-1.000000,-4.000000,3.000000,0.000000
1309629.016419,-20.000000,-14.000000,2.000000,-9.000000,-12.000000,-1.000000,-5.000000,-3.000000
1309629.016428,42.000000,-8.000000,-2.000000,28.000000,11.000000,-6.000000,-10.000000,-4.000000
1309629.039568,-21.000000,8.000000,-6.000000,-36.000000,9.000000,7.000000,8.000000,11.000000
1309629.039599,-31.000000,0.000000,8.000000,-7.000000,0.000000,9.000000,21.000000,-9.000000
1309629.054147,-13.000000,-26.000000,-59.000000,-22.000000,14.000000,-28.000000,-3.000000,-13.000000
1309629.054158,32.000000,10.000000,126.000000,7.000000,5.000000,9.000000,-58.000000,12.000000
1309629.077206,-6.000000,9.000000,14.000000,-59.000000,-18.000000,11.000000,79.000000,21.000000
1309629.077217,28.000000,-24.000000,-18.000000,0.000000,-1.000000,-13.000000,-21.000000,-5.000000
1309629.077729,-67.000000,17.000000,-8.000000,3.000000,7.000000,8.000000,-11.000000,-13.000000
1309629.077744,32.000000,35.000000,65.000000,-18.000000,-16.000000,-8.000000,-1.000000,-6.000000
1309629.078915,-3.000000,-26.000000,-45.000000,41.000000,10.000000,-5.000000,-17.000000,-3.000000
1309629.078924,-5.000000,-18.000000,7.000000,20.000000,42.000000,7.000000,1.000000,3.000000
1309629.079555,8.000000,1.000000,-5.000000,-6.000000,0.000000,0.000000,7.000000,2.000000
1309629.079564,-3.000000,7.000000,19.000000,-41.000000,-14.000000,3.000000,4.000000,-3.000000
1309629.091876,-13.000000,4.000000,-10.000000,2.000000,-11.000000,0.000000,5.000000,-3.000000
1309629.091887,-25.000000,-7.000000,-21.000000,-10.000000,-6.000000,-6.000000,16.000000,0.000000
1309629.114535,11.000000,-16.000000,-52.000000,-26.000000,8.000000,1.000000,-5.000000,-8.000000
1309629.114558,-1.000000,35.000000,59.000000,-33.000000,-13.000000,-2.000000,-4.000000,2.000000
1309629.115107,13.000000,-35.000000,-46.000000,-34.000000,2.000000,6.000000,-52.000000,1.000000
1309629.115129,-7.000000,11.000000,17.000000,-16.000000,-1.000000,0.000000,35.000000,-13.000000
1309629.121412,-6.000000,-1.000000,-3.000000,-3.000000,3.000000,7.000000,17.000000,6.000000
1309629.121421,19.000000,8.000000,-7.000000,15.000000,-3.000000,-2.000000,-7.000000,8.000000
1309629.129307,-61.000000,-22.000000,-35.000000,-41.000000,-2.000000,-15.000000,-18.000000,-13.000000
1309629.129317,-12.000000,3.000000,16.000000,37.000000,16.000000,11.000000,12.000000,-8.000000
1309629.144157,-21.000000,7.000000,22.000000,2.000000,-8.000000,-6.000000,-22.000000,2.000000
1309629.144181,-7.000000,-10.000000,-12.000000,-26.000000,2.000000,-6.000000,12.000000,-7.000000
1309629.151583,-13.000000,11.000000,12.000000,-43.000000,-4.000000,-7.000000,-5.000000,-10.000000
1309629.151598,-18.000000,43.000000,24.000000,-9.000000,-3.000000,9.000000,7.000000,14.000000
1309629.166493,6.000000,-6.000000,8.000000,5.000000,-3.000000,-4.000000,-16.000000,-8.000000
1309629.166503,-3.000000,-6.000000,-45.000000,-37.000000,-14.000000,-9.000000,0.000000,-7.000000
1309629.174365,-13.000000,6.000000,32.000000,111.000000,27.000000,19.000000,25.000000,4.000000
1309629.174377,-4.000000,-7.000000,-17.000000,24.000000,4.000000,9.000000,-1.000000,1.000000
1309629.196554,30.000000,-24.000000,-26.000000,-23.000000,-19.000000,-19.000000,-18.000000,-10.000000
1309629.196580,34.000000,7.000000,13.000000,79.000000,37.000000,-1.000000,1.000000,14.000000
1309629.211752,26.000000,6.000000,-30.000000,-35.000000,-27.000000,5.000000,16.000000,-8.000000
1309629.211780,8.000000,-13.000000,2.000000,-14.000000,-3.000000,1.000000,-7.000000,1.000000
1309629.234588,4.000000,14.000000,-12.000000,-55.000000,-9.000000,-3.000000,-6.000000,-12.000000
1309629.234597,2.000000,20.000000,27.000000,17.000000,-13.000000,-2.000000,-22.000000,1.000000
1309629.235132,-1.000000,-14.000000,-21.000000,-7.000000,3.000000,7.000000,64.000000,-3.000000
1309629.235141,13.000000,-7.000000,-14.000000,10.000000,9.000000,-21.000000,-54.000000,1.000000
1309629.236398,-9.000000,14.000000,41.000000,-32.000000,-7.000000,1.000000,-9.000000,2.000000
1309629.236406,16.000000,-18.000000,-15.000000,-12.000000,10.000000,11.000000,9.000000,1.000000
1309629.237030,-43.000000,-22.000000,-12.000000,-7.000000,0.000000,-7.000000,-23.000000,-21.000000
1309629.237038,1.000000,11.000000,11.000000,8.000000,-19.000000,-1.000000,31.000000,3.000000
1309629.249048,5.000000,-5.000000,12.000000,-7.000000,-2.000000,-7.000000,3.000000,2.000000
1309629.249058,10.000000,-19.000000,-8.000000,-8.000000,3.000000,-6.000000,-31.000000,3.000000
1309629.256625,18.000000,15.000000,-22.000000,-9.000000,-1.000000,-1.000000,2.000000,-8.000000
1309629.256634,-42.000000,12.000000,44.000000,47.000000,-12.000000,6.000000,25.000000,-2.000000
1309629.294064,14.000000,-15.000000,-30.000000,3.000000,2.000000,-8.000000,-8.000000,8.000000
1309629.294077,6.000000,-8.000000,1.000000,-8.000000,7.000000,1.000000,12.000000,5.000000
1309629.309177,6.000000,12.000000,5.000000,-31.000000,-11.000000,-4.000000,5.000000,-1.000000
1309629.309207,-10.000000,-2.000000,20.000000,74.000000,4.000000,4.000000,-9.000000,-11.000000
1309629.317343,9.000000,-24.000000,-15.000000,-6.000000,7.000000,-10.000000,19.000000,-1.000000
1309629.317376,10.000000,8.000000,6.000000,-3.000000,1.000000,2.000000,2.000000,8.000000
1309629.317967,-94.000000,-11.000000,19.000000,-34.000000,-11.000000,2.000000,1.000000,-8.000000
1309629.317996,-28.000000,-11.000000,39.000000,52.000000,1.000000,-10.000000,-24.000000,-10.000000
1309629.319243,3.000000,19.000000,14.000000,-4.000000,48.000000,9.000000,-5.000000,-7.000000
1309629.319255,-25.000000,9.000000,3.000000,-8.000000,-23.000000,1.000000,0.000000,1.000000
1309629.320013,5.000000,-17.000000,-15.000000,-2.000000,4.000000,4.000000,9.000000,1.000000
1309629.320029,12.000000,-18.000000,-59.000000,-37.000000,-4.000000,-3.000000,7.000000,2.000000
1309629.331601,64.000000,-21.000000,-31.000000,-27.000000,0.000000,-10.000000,-33.000000,0.000000
1309629.331611,5.000000,11.000000,-12.000000,-51.000000,-8.000000,-9.000000,-7.000000,9.000000
1309629.354871,3.000000,-4.000000,25.000000,43.000000,18.000000,11.000000,37.000000,9.000000
1309629.354898,-4.000000,-6.000000,-10.000000,-9.000000,-5.000000,-9.000000,-17.000000,-11.000000
1309629.355412,28.000000,16.000000,-6.000000,11.000000,-7.000000,8.000000,3.000000,0.000000
1309629.355422,23.000000,17.000000,19.000000,-24.000000,-3.000000,1.000000,7.000000,6.000000
1309629.369140,32.000000,-24.000000,-1.000000,-15.000000,-16.000000,-4.000000,1.000000,0.000000
1309629.369168,13.000000,4.000000,-31.000000,34.000000,21.000000,4.000000,-12.000000,-4.000000
1309629.391762,6.000000,13.000000,23.000000,5.000000,-7.000000,6.000000,11.000000,4.000000
1309629.391776,-9.000000,-17.000000,10.000000,20.000000,-5.000000,11.000000,33.000000,7.000000
1309629.414735,11.000000,-15.000000,-29.000000,-22.000000,-7.000000,-6.000000,12.000000,-1.000000
1309629.414790,-13.000000,-2.000000,23.000000,22.000000,10.000000,-34.000000,-62.000000,-10.000000
1309629.421882,-11.000000,13.000000,31.000000,5.000000,18.000000,10.000000,1.000000,-2.000000
1309629.421913,21.000000,-22.000000,-12.000000,14.000000,0.000000,7.000000,27.000000,-6.000000
1309629.451813,20.000000,9.000000,1.000000,-12.000000,-17.000000,-3.000000,6.000000,5.000000
1309629.451828,0.000000,8.000000,6.000000,9.000000,-18.000000,-4.000000,-16.000000,1.000000
1309629.452205,17.000000,2.000000,-10.000000,-10.000000,3.000000,6.000000,-1.000000,11.000000
1309629.452215,9.000000,1.000000,3.000000,-20.000000,2.000000,5.000000,19.000000,-9.000000
1309629.453240,26.000000,-2.000000,-42.000000,5.000000,-2.000000,-19.000000,-34.000000,0.000000
1309629.453250,-16.000000,8.000000,-5.000000,-21.000000,-12.000000,3.000000,6.000000,-3.000000
1309629.453881,7.000000,-20.000000,-5.000000,21.000000,20.000000,2.000000,1.000000,-10.000000
1309629.453892,-24.000000,8.000000,-7.000000,-16.000000,4.000000,4.000000,7.000000,9.000000
1309629.455491,-57.000000,-8.000000,-11.000000,-9.000000,-15.000000,-4.000000,-12.000000,7.000000
1309629.455500,26.000000,-11.000000,-4.000000,4.000000,11.000000,-1.000000,1.000000,-9.000000
1309629.466790,42.000000,-6.000000,-40.000000,12.000000,9.000000,3.000000,33.000000,-3.000000
1309629.466815,2.000000,-3.000000,11.000000,-18.000000,-1.000000,-27.000000,-66.000000,-10.000000
1309629.474429,-48.000000,8.000000,-3.000000,18.000000,4.000000,2.000000,0.000000,3.000000
1309629.474444,10.000000,-13.000000,-14.000000,-10.000000,-4.000000,6.000000,13.000000,-7.000000
1309629.489046,11.000000,-12.000000,0.000000,-26.000000,8.000000,9.000000,28.000000,7.000000
1309629.489075,-31.000000,12.000000,-1.000000,-10.000000,0.000000,-14.000000,-19.000000,-7.000000
1309629.511694,79.000000,3.000000,2.000000,5.000000,12.000000,4.000000,-28.000000,6.000000
1309629.511723,-24.000000,-5.000000,-2.000000,-1.000000,-7.000000,9.000000,42.000000,0.000000
1309629.526822,-47.000000,6.000000,23.000000,-11.000000,-12.000000,-4.000000,-16.000000,-15.000000
1309629.526839,-1.000000,0.000000,30.000000,-18.000000,-27.000000,2.000000,-1.000000,0.000000
1309629.534254,-3.000000,15.000000,-16.000000,-21.000000,8.000000,-5.000000,-25.000000,-6.000000
1309629.534285,8.000000,27.000000,51.000000,58.000000,12.000000,8.000000,24.000000,-2.000000
1309629.571342,-19.000000,18.000000,27.000000,-21.000000,-5.000000,1.000000,14.000000,4.000000
1309629.571356,56.000000,-10.000000,-8.000000,4.000000,3.000000,9.000000,8.000000,3.000000
1309629.572017,-22.000000,-16.000000,-15.000000,-9.000000,-9.000000,-20.000000,-35.000000,-7.000000
1309629.572026,-2.000000,15.000000,-3.000000,-18.000000,1.000000,-1.000000,-5.000000,1.000000
1309629.573407,35.000000,-5.000000,-11.000000,-40.000000,15.000000,11.000000,2.000000,8.000000
1309629.573453,-67.000000,-24.000000,-4.000000,3.000000,-1.000000,0.000000,3.000000,-2.000000
1309629.573991,54.000000,19.000000,7.000000,8.000000,-10.000000,0.000000,1.000000,-1.000000
1309629.574001,-32.000000,-6.000000,-3.000000,-11.000000,-13.000000,-7.000000,11.000000,-2.000000
1309629.575584,-16.000000,-12.000000,-9.000000,0.000000,6.000000,7.000000,11.000000,-1.000000
1309629.575632,31.000000,4.000000,-22.000000,-10.000000,-1.000000,-11.000000,-19.000000,-4.000000
1309629.586941,2.000000,-12.000000,-16.000000,77.000000,21.000000,4.000000,-2.000000,1.000000
1309629.586966,-3.000000,22.000000,1.000000,-19.000000,-17.000000,-5.000000,-26.000000,-7.000000
1309629.593972,40.000000,-11.000000,-16.000000,-19.000000,-11.000000,-4.000000,25.000000,0.000000
1309629.593982,-53.000000,-22.000000,-40.000000,-34.000000,5.000000,-14.000000,-41.000000,-10.000000
1309629.609236,6.000000,5.000000,18.000000,-5.000000,-14.000000,-1.000000,-9.000000,-7.000000
1309629.609260,18.000000,0.000000,-56.000000,7.000000,-12.000000,2.000000,20.000000,2.000000
1309629.646647,-16.000000,-1.000000,-24.000000,-7.000000,18.000000,3.000000,-6.000000,-5.000000
1309629.646657,34.000000,6.000000,15.000000,8.000000,-12.000000,-1.000000,13.000000,14.000000
1309629.668882,-67.000000,14.000000,-17.000000,-19.000000,-1.000000,-4.000000,6.000000,2.000000
1309629.668898,4.000000,-3.000000,-4.000000,2.000000,-2.000000,6.000000,7.000000,-5.000000
1309629.684364,-9.000000,-16.000000,-2.000000,24.000000,29.000000,8.000000,-44.000000,-5.000000
1309629.684394,17.000000,17.000000,57.000000,28.000000,8.000000,-7.000000,11.000000,0.000000
1309629.685419,-12.000000,18.000000,-22.000000,-9.000000,-14.000000,5.000000,26.000000,5.000000
1309629.685446,-29.000000,-33.000000,-13.000000,3.000000,22.000000,-5.000000,-11.000000,-3.000000
1309629.685981,9.000000,9.000000,30.000000,-45.000000,-10.000000,1.000000,-20.000000,-9.000000
1309629.686007,-41.000000,11.000000,11.000000,-18.000000,-4.000000,6.000000,9.000000,8.000000
1309629.686475,-40.000000,-19.000000,-10.000000,-3.000000,11.000000,7.000000,12.000000,9.000000
1309629.686501,22.000000,1.000000,-19.000000,-2.000000,-11.000000,-8.000000,-9.000000,-12.000000
1309629.688212,1.000000,-5.000000,-21.000000,-24.000000,4.000000,-1.000000,-3.000000,-7.000000
1309629.688223,38.000000,19.000000,42.000000,0.000000,-4.000000,7.000000,19.000000,5.000000
1309629.691749,-13.000000,-4.000000,-21.000000,-13.000000,2.000000,0.000000,-8.000000,5.000000
1309629.691759,-5.000000,-20.000000,34.000000,45.000000,8.000000,-6.000000,-15.000000,-8.000000
1309629.699387,5.000000,8.000000,-7.000000,-35.000000,-23.000000,1.000000,-7.000000,0.000000
1309629.699431,-35.000000,16.000000,2.000000,-13.000000,2.000000,5.000000,8.000000,10.000000
1309629.714413,12.000000,-10.000000,-48.000000,-25.000000,-8.000000,-9.000000,0.000000,-4.000000
1309629.714426,-23.000000,16.000000,32.000000,32.000000,1.000000,7.000000,19.000000,-1.000000
1309629.751562,5.000000,16.000000,-24.000000,-13.000000,0.000000,-14.000000,-37.000000,-8.000000
1309629.751573,7.000000,-15.000000,2.000000,-25.000000,2.000000,3.000000,8.000000,10.000000
1309629.759017,6.000000,4.000000,-22.000000,-21.000000,6.000000,0.000000,36.000000,1.000000
1309629.759028,43.000000,13.000000,10.000000,6.000000,-9.000000,-5.000000,27.000000,10.000000
1309629.766834,-19.000000,-6.000000,-9.000000,12.000000,0.000000,-3.000000,-27.000000,-13.000000
1309629.766856,42.000000,-15.000000,-11.000000,4.000000,0.000000,0.000000,-4.000000,-5.000000
1309629.767508,1.000000,12.000000,1.000000,-23.000000,10.000000,2.000000,-4.000000,10.000000
1309629.767516,-120.000000,-6.000000,-44.000000,1.000000,-14.000000,8.000000,7.000000,-5.000000
1309629.769021,-1.000000,6.000000,-1.000000,14.000000,-15.000000,-7.000000,14.000000,4.000000
1309629.769028,35.000000,5.000000,9.000000,13.000000,5.000000,3.000000,7.000000,1.000000
1309629.789141,-50.000000,18.000000,-10.000000,-27.000000,-15.000000,7.000000,-2.000000,9.000000
1309629.789153,-6.000000,-2.000000,33.000000,19.000000,-13.000000,-8.000000,-4.000000,-5.000000
1309629.811423,2.000000,9.000000,3.000000,1.000000,11.000000,-2.000000,-21.000000,-21.000000
1309629.811442,0.000000,12.000000,16.000000,30.000000,-1.000000,4.000000,-4.000000,6.000000
1309629.811958,21.000000,-8.000000,2.000000,63.000000,-7.000000,-5.000000,19.000000,20.000000
1309629.811965,-33.000000,-14.000000,-10.000000,-10.000000,36.000000,-3.000000,31.000000,-9.000000
1309629.813437,1.000000,2.000000,-25.000000,-43.000000,2.000000,-7.000000,-58.000000,-15.000000
1309629.813464,4.000000,21.000000,21.000000,1.000000,-13.000000,7.000000,13.000000,15.000000
1309629.826721,27.000000,-15.000000,-6.000000,25.000000,-7.000000,-2.000000,0.000000,-3.000000
1309629.826732,1.000000,8.000000,11.000000,-4.000000,0.000000,3.000000,7.000000,-3.000000
1309629.864263,20.000000,21.000000,2.000000,-16.000000,-8.000000,10.000000,4.000000,8.000000
1309629.864273,25.000000,-9.000000,-71.000000,-4.000000,1.000000,-12.000000,-22.000000,5.000000
1309629.871825,9.000000,-20.000000,-37.000000,-9.000000,-15.000000,-7.000000,19.000000,-4.000000
1309629.871837,8.000000,6.000000,8.000000,8.000000,15.000000,4.000000,-4.000000,7.000000
1309629.872982,-36.000000,-5.000000,-5.000000,-10.000000,-7.000000,7.000000,21.000000,-2.000000
1309629.873010,32.000000,-22.000000,12.000000,48.000000,-7.000000,-17.000000,-48.000000,-6.000000
1309629.873290,-22.000000,-14.000000,2.000000,-12.000000,6.000000,1.000000,8.000000,-6.000000
1309629.873317,6.000000,5.000000,6.000000,-5.000000,-4.000000,6.000000,14.000000,-3.000000
1309629.875040,45.000000,29.000000,8.000000,-14.000000,-5.000000,0.000000,-42.000000,-5.000000
1309629.875049,-3.000000,-9.000000,-14.000000,-10.000000,-4.000000,1.000000,37.000000,-5.000000
1309629.879484,57.000000,-20.000000,-3.000000,-11.000000,-1.000000,-7.000000,5.000000,12.000000
1309629.879499,59.000000,11.000000,29.000000,-19.000000,14.000000,-33.000000,-94.000000,-2.000000
1309629.909251,23.000000,-25.000000,-53.000000,-6.000000,-6.000000,9.000000,45.000000,5.000000
1309629.909264,23.000000,0.000000,17.000000,22.000000,0.000000,7.000000,17.000000,-1.000000
1309629.910182,-16.000000,20.000000,18.000000,-24.000000,6.000000,2.000000,18.000000,-3.000000
1309629.910191,18.000000,-4.000000,-19.000000,23.000000,-2.000000,-15.000000,-42.000000,6.000000
1309629.910938,-17.000000,-4.000000,-42.000000,-4.000000,1.000000,2.000000,4.000000,-8.000000
1309629.910946,6.000000,2.000000,0.000000,-43.000000,-13.000000,-3.000000,-4.000000,-5.000000
1309629.924241,-41.000000,5.000000,22.000000,73.000000,-18.000000,4.000000,0.000000,3.000000
1309629.924256,-42.000000,-16.000000,4.000000,-19.000000,-5.000000,-1.000000,5.000000,-8.000000
1309629.946451,6.000000,8.000000,-5.000000,46.000000,4.000000,-2.000000,-5.000000,-1.000000
1309629.946471,37.000000,10.000000,-53.000000,1.000000,-10.000000,5.000000,-5.000000,4.000000
1309629.947806,3.000000,-19.000000,-3.000000,27.000000,-15.000000,-1.000000,17.000000,0.000000
1309629.947822,-19.000000,-3.000000,-4.000000,-20.000000,9.000000,10.000000,30.000000,-3.000000
1309629.961738,4.000000,-12.000000,-10.000000,-25.000000,-23.000000,-17.000000,-58.000000,0.000000
1309629.961751,5.000000,12.000000,27.000000,57.000000,11.000000,7.000000,-7.000000,0.000000
1309629.962887,-91.000000,-7.000000,14.000000,10.000000,12.000000,3.000000,52.000000,-11.000000
1309629.962896,5.000000,-3.000000,-22.000000,48.000000,-8.000000,-18.000000,-48.000000,-7.000000
1309629.969337,-3.000000,14.000000,9.000000,40.000000,-8.000000,-3.000000,-17.000000,2.000000
1309629.969348,-23.000000,-9.000000,-23.000000,-18.000000,1.000000,4.000000,15.000000,-9.000000
1309629.984032,19.000000,-1.000000,39.000000,-21.000000,2.000000,2.000000,0.000000,-14.000000
1309629.984053,0.000000,-1.000000,-61.000000,-5.000000,-8.000000,5.000000,7.000000,11.000000
1309630.006831,9.000000,-27.000000,-26.000000,-15.000000,4.000000,-9.000000,-2.000000,3.000000
1309630.006843,-68.000000,-1.000000,10.000000,28.000000,6.000000,0.000000,-29.000000,-10.000000
1309630.029241,17.000000,5.000000,18.000000,-22.000000,-13.000000,-3.000000,40.000000,9.000000
1309630.029259,12.000000,-23.000000,-38.000000,-26.000000,-5.000000,4.000000,2.000000,0.000000
1309630.044006,-19.000000,-13.000000,9.000000,66.000000,6.000000,2.000000,-13.000000,-14.000000
1309630.044015,-27.000000,-3.000000,3.000000,-10.000000,-10.000000,1.000000,-12.000000,5.000000
1309630.066534,-28.000000,8.000000,35.000000,4.000000,-1.000000,2.000000,23.000000,3.000000
1309630.066546,8.000000,-20.000000,-42.000000,-13.000000,-3.000000,-6.000000,-24.000000,-10.000000
1309630.067092,7.000000,2.000000,-8.000000,6.000000,0.000000,3.000000,30.000000,-1.000000
1309630.067102,-28.000000,-4.000000,6.000000,14.000000,-1.000000,-5.000000,-10.000000,18.000000
1309630.068282,25.000000,-1.000000,14.000000,-36.000000,-3.000000,4.000000,18.000000,3.000000
1309630.068293,28.000000,1.000000,-34.000000,4.000000,17.000000,-10.000000,-18.000000,-12.000000
1309630.068952,-9.000000,6.000000,27.000000,35.000000,6.000000,8.000000,-1.000000,-3.000000
1309630.068963,-25.000000,-3.000000,-5.000000,-14.000000,-10.000000,2.000000,11.000000,0.000000
1309630.069799,12.000000,-21.000000,-21.000000,28.000000,8.000000,4.000000,-11.000000,1.000000
1309630.069808,9.000000,9.000000,-3.000000,15.000000,-5.000000,2.000000,9.000000,-7.000000
1309630.074064,-12.000000,-1.000000,-15.000000,-29.000000,-4.000000,9.000000,2.000000,9.000000
1309630.074095,5.000000,-5.000000,-4.000000,2.000000,0.000000,-4.000000,-8.000000,-3.000000
1309630.081443,-6.000000,9.000000,4.000000,-6.000000,1.000000,-7.000000,-33.000000,-11.000000
1309630.081461,3.000000,25.000000,-24.000000,-52.000000,-19.000000,2.000000,35.000000,0.000000
1309630.088878,6.000000,-16.000000,22.000000,18.000000,12.000000,0.000000,8.000000,6.000000
1309630.088890,-26.000000,10.000000,1.000000,79.000000,17.000000,3.000000,-24.000000,-6.000000
1309630.111911,59.000000,-14.000000,-16.000000,-17.000000,-5.000000,0.000000,-1.000000,11.000000
1309630.111942,17.000000,2.000000,-12.000000,-24.000000,-11.000000,-8.000000,16.000000,6.000000
1309630.126499,16.000000,-29.000000,-49.000000,26.000000,10.000000,-10.000000,-13.000000,-3.000000
1309630.126509,18.000000,10.000000,29.000000,-34.000000,-5.000000,3.000000,-3.000000,4.000000
1309630.142010,-25.000000,-7.000000,2.000000,-43.000000,-23.000000,3.000000,29.000000,3.000000
1309630.142024,30.000000,-15.000000,-10.000000,3.000000,14.000000,-14.000000,-59.000000,0.000000
1309630.142560,-128.000000,-1.000000,1.000000,11.000000,10.000000,-10.000000,-3.000000,-7.000000
1309630.142570,15.000000,32.000000,5.000000,-10.000000,-12.000000,7.000000,17.000000,-3.000000
1309630.144580,17.000000,-4.000000,8.000000,17.000000,-3.000000,5.000000,26.000000,0.000000
1309630.144592,-3.000000,0.000000,-19.000000,-13.000000,-6.000000,1.000000,-12.000000,-3.000000
1309630.149322,-16.000000,-6.000000,14.000000,6.000000,-4.000000,-2.000000,30.000000,-4.000000
1309630.149333,-4.000000,-3.000000,1.000000,14.000000,15.000000,5.000000,11.000000,8.000000
1309630.165083,-2.000000,-20.000000,-27.000000,-19.000000,8.000000,-6.000000,-21.000000,-8.000000
1309630.165099,-10.000000,19.000000,18.000000,46.000000,3.000000,-4.000000,-11.000000,-9.000000
1309630.186536,-16.000000,22.000000,-31.000000,-35.000000,-1.000000,1.000000,13.000000,5.000000
1309630.186548,-100.000000,-19.000000,28.000000,34.000000,34.000000,13.000000,52.000000,-5.000000
1309630.188304,10.000000,3.000000,-13.000000,-6.000000,10.000000,-2.000000,-64.000000,7.000000
1309630.188333,26.000000,13.000000,-10.000000,-27.000000,-20.000000,-9.000000,0.000000,-10.000000
1309630.193960,-21.000000,-21.000000,27.000000,11.000000,-17.000000,-3.000000,-25.000000,-4.000000
1309630.193971,-42.000000,-21.000000,-66.000000,23.000000,13.000000,4.000000,-4.000000,-11.000000
1309630.201525,17.000000,31.000000,35.000000,-28.000000,-3.000000,16.000000,19.000000,-3.000000
1309630.201542,19.000000,1.000000,-8.000000,-19.000000,-16.000000,-1.000000,6.000000,5.000000
1309630.224181,12.000000,-27.000000,-18.000000,16.000000,12.000000,6.000000,46.000000,8.000000
1309630.224194,-24.000000,8.000000,26.000000,4.000000,-8.000000,-7.000000,-24.000000,-3.000000
1309630.239046,1.000000,10.000000,-14.000000,-29.000000,2.000000,0.000000,-2.000000,-6.000000
1309630.239056,27.000000,3.000000,10.000000,-9.000000,14.000000,-1.000000,-4.000000,16.000000
1309630.246644,21.000000,3.000000,-27.000000,13.000000,-3.000000,-3.000000,3.000000,1.000000
1309630.246654,-22.000000,34.000000,19.000000,-9.000000,13.000000,4.000000,-1.000000,-1.000000
1309630.261946,-32.000000,-3.000000,4.000000,-16.000000,-11.000000,-2.000000,32.000000,-8.000000
1309630.261971,-23.000000,-25.000000,-62.000000,-16.000000,-9.000000,-7.000000,-38.000000,-15.000000
1309630.276745,34.000000,12.000000,24.000000,-36.000000,7.000000,0.000000,10.000000,6.000000
1309630.276761,-24.000000,-1.000000,26.000000,0.000000,-8.000000,0.000000,14.000000,9.000000
1309630.284686,-7.000000,-26.000000,-19.000000,-25.000000,13.000000,1.000000,24.000000,-9.000000
1309630.284697,6.000000,13.000000,19.000000,-20.000000,-7.000000,-2.000000,-21.000000,7.000000
1309630.285415,-2.000000,2.000000,15.000000,8.000000,7.000000,6.000000,-2.000000,-4.000000
1309630.285426,-6.000000,-2.000000,-25.000000,-22.000000,0.000000,10.000000,26.000000,4.000000
1309630.286763,0.000000,1.000000,-13.000000,-6.000000,-17.000000,-5.000000,17.000000,-3.000000
1309630.286772,-16.000000,23.000000,32.000000,-28.000000,-21.000000,-5.000000,-25.000000,-2.000000
1309630.299030,4.000000,-16.000000,-12.000000,27.000000,6.000000,9.000000,6.000000,7.000000
1309630.299041,6.000000,11.000000,27.000000,51.000000,34.000000,-5.000000,5.000000,-21.000000
1309630.306858,42.000000,-3.000000,11.000000,-7.000000,-16.000000,0.000000,25.000000,7.000000
1309630.306881,-22.000000,-12.000000,-17.000000,-12.000000,-9.000000,-2.000000,-36.000000,5.000000
1309630.321594,3.000000,-27.000000,-22.000000,25.000000,2.000000,-5.000000,33.000000,-5.000000
1309630.321604,0.000000,11.000000,50.000000,1.000000,-8.000000,2.000000,2.000000,-3.000000
1309630.359067,15.000000,11.000000,17.000000,-10.000000,-4.000000,6.000000,1.000000,7.000000
1309630.359077,-31.000000,-10.000000,-23.000000,-19.000000,-10.000000,-8.000000,-7.000000,-4.000000
1309630.366532,12.000000,10.000000,4.000000,6.000000,4.000000,-1.000000,-39.000000,-5.000000
1309630.366548,61.000000,15.000000,15.000000,6.000000,-3.000000,13.000000,35.000000,10.000000
1309630.382209,-29.000000,4.000000,43.000000,7.000000,13.000000,-13.000000,-14.000000,-17.000000
1309630.382221,-57.000000,-4.000000,-15.000000,-17.000000,13.000000,-1.000000,19.000000,-3.000000
1309630.382754,6.000000,14.000000,-25.000000,-16.000000,-8.000000,-2.000000,-19.000000,6.000000
1309630.382764,63.000000,0.000000,41.000000,41.000000,-1.000000,5.000000,41.000000,12.000000
1309630.383960,86.000000,-10.000000,-23.000000,-17.000000,5.000000,-2.000000,1.000000,7.000000
1309630.383972,-82.000000,10.000000,33.000000,68.000000,5.000000,3.000000,-22.000000,-1.000000
1309630.384539,23.000000,2.000000,31.000000,45.000000,22.000000,10.000000,9.000000,14.000000
1309630.384549,-18.000000,-21.000000,6.000000,-21.000000,-10.000000,-4.000000,-1.000000,-4.000000
1309630.385942,46.000000,11.000000,-22.000000,-21.000000,-6.000000,0.000000,2.000000,-5.000000
1309630.385954,4.000000,26.000000,1.000000,-31.000000,-29.000000,-16.000000,-41.000000,-2.000000
1309630.396529,-5.000000,-7.000000,0.000000,-25.000000,6.000000,4.000000,70.000000,15.000000
1309630.396541,14.000000,-18.000000,-34.000000,-17.000000,16.000000,-20.000000,-94.000000,-3.000000
1309630.404661,18.000000,-6.000000,-6.000000,46.000000,26.000000,17.000000,33.000000,3.000000
1309630.404672,-15.000000,5.000000,-14.000000,-52.000000,-3.000000,6.000000,2.000000,3.000000
1309630.419129,-14.000000,-26.000000,-1.000000,19.000000,13.000000,-3.000000,-18.000000,-6.000000
1309630.419141,17.000000,14.000000,4.000000,36.000000,-18.000000,-6.000000,3.000000,2.000000
1309630.441623,-4.000000,2.000000,52.000000,-14.000000,1.000000,9.000000,28.000000,0.000000
1309630.441634,-38.000000,-17.000000,-50.000000,-5.000000,-3.000000,-12.000000,-26.000000,-16.000000
1309630.464020,8.000000,18.000000,9.000000,-4.000000,13.000000,1.000000,-11.000000,1.000000
1309630.464030,-14.000000,13.000000,37.000000,10.000000,-10.000000,0.000000,-15.000000,1.000000
1309630.486746,19.000000,0.000000,39.000000,2.000000,1.000000,4.000000,6.000000,-1.000000
1309630.486757,2.000000,-8.000000,-59.000000,44.000000,5.000000,-13.000000,-25.000000,-10.000000
1309630.501540,24.000000,4.000000,-15.000000,18.000000,10.000000,5.000000,-3.000000,4.000000
1309630.501550,-5.000000,-9.000000,-26.000000,-42.000000,-30.000000,12.000000,54.000000,6.000000
1309630.516430,0.000000,-16.000000,18.000000,49.000000,-12.000000,-6.000000,-23.000000,-3.000000
1309630.516454,-3.000000,14.000000,36.000000,-28.000000,19.000000,1.000000,-47.000000,3.000000
1309630.517542,10.000000,32.000000,-21.000000,-13.000000,-8.000000,-3.000000,-13.000000,2.000000
1309630.517550,6.000000,16.000000,26.000000,17.000000,14.000000,18.000000,58.000000,4.000000
1309630.518870,-22.000000,13.000000,26.000000,-25.000000,-8.000000,5.000000,-8.000000,4.000000
1309630.518877,24.000000,-9.000000,3.000000,24.000000,33.000000,10.000000,64.000000,-5.000000
1309630.520423,-37.000000,-14.000000,-9.000000,-3.000000,13.000000,-4.000000,-33.000000,-3.000000
1309630.520431,-32.000000,11.000000,-25.000000,-35.000000,-6.000000,-22.000000,26.000000,-16.000000
1309630.524132,14.000000,-5.000000,24.000000,-14.000000,-18.000000,2.000000,1.000000,9.000000
1309630.524142,-10.000000,-8.000000,-34.000000,-4.000000,18.000000,3.000000,-1.000000,-8.000000
1309630.532461,12.000000,8.000000,-1.000000,13.000000,-1.000000,1.000000,-4.000000,2.000000
1309630.532470,-6.000000,2.000000,15.000000,-11.000000,-4.000000,2.000000,4.000000,3.000000
1309630.561830,3.000000,-13.000000,6.000000,24.000000,-10.000000,-1.000000,3.000000,-3.000000
1309630.561843,8.000000,19.000000,-4.000000,-21.000000,17.000000,-9.000000,-22.000000,-6.000000
1309630.584203,0.000000,-1.000000,5.000000,34.000000,17.000000,1.000000,17.000000,1.000000
1309630.584216,-4.000000,5.000000,-35.000000,-3.000000,-8.000000,-12.000000,19.000000,4.000000
1309630.591504,21.000000,-11.000000,-15.000000,-3.000000,11.000000,0.000000,-5.000000,-4.000000
