# participant_id: P11
# gesture: medium
# trial_number: 2
# stream_name: Myo_EMG
# stream_type: emg
# timestamp: 20260420_171350
# samples: 5210
# duration_sec: 29.769
# nominal_sample_rate: 200.0
# effective_sample_rate: 174.98
#
timestamp,emg_1,emg_2,emg_3,emg_4,emg_5,emg_6,emg_7,emg_8
1309922.731958,-2.000000,-15.000000,-8.000000,-10.000000,-13.000000,-8.000000,6.000000,-21.000000
1309922.731982,-13.000000,-4.000000,14.000000,7.000000,12.000000,-31.000000,-43.000000,2.000000
1309922.732374,-4.000000,19.000000,27.000000,61.000000,-6.000000,10.000000,-31.000000,3.000000
1309922.732396,7.000000,-16.000000,-41.000000,-70.000000,-17.000000,6.000000,-44.000000,-13.000000
1309922.733515,14.000000,6.000000,3.000000,-83.000000,-15.000000,-18.000000,-23.000000,-4.000000
1309922.733536,-10.000000,2.000000,-3.000000,16.000000,7.000000,-25.000000,-66.000000,-12.000000
1309922.735195,3.000000,-4.000000,-1.000000,39.000000,-1.000000,-28.000000,-69.000000,-17.000000
1309922.735230,4.000000,-17.000000,-1.000000,2.000000,14.000000,-9.000000,-47.000000,10.000000
1309922.735959,9.000000,-9.000000,4.000000,38.000000,0.000000,-18.000000,38.000000,26.000000
1309922.735967,-19.000000,-14.000000,-8.000000,-4.000000,18.000000,15.000000,3.000000,-10.000000
1309922.747085,-5.000000,-35.000000,9.000000,1.000000,7.000000,10.000000,-2.000000,16.000000
1309922.747102,9.000000,39.000000,-16.000000,-17.000000,20.000000,17.000000,-43.000000,26.000000
1309922.784875,-5.000000,-90.000000,4.000000,81.000000,-1.000000,-11.000000,-23.000000,-15.000000
1309922.784886,5.000000,38.000000,17.000000,38.000000,13.000000,0.000000,-27.000000,6.000000
1309922.792136,11.000000,11.000000,6.000000,14.000000,28.000000,49.000000,3.000000,17.000000
1309922.792146,0.000000,7.000000,-11.000000,-44.000000,2.000000,36.000000,-38.000000,-14.000000
1309922.844700,7.000000,-4.000000,7.000000,32.000000,-1.000000,-74.000000,-23.000000,-3.000000
1309922.844727,-1.000000,14.000000,-5.000000,-15.000000,-3.000000,1.000000,-15.000000,17.000000
1309922.845129,-2.000000,21.000000,-16.000000,-38.000000,-15.000000,37.000000,125.000000,-2.000000
1309922.845148,-3.000000,4.000000,1.000000,19.000000,-15.000000,-49.000000,27.000000,-20.000000
1309922.846041,3.000000,-56.000000,-10.000000,23.000000,20.000000,17.000000,-33.000000,19.000000
1309922.846062,-14.000000,-17.000000,1.000000,-24.000000,12.000000,19.000000,40.000000,13.000000
1309922.846723,8.000000,26.000000,23.000000,82.000000,4.000000,-53.000000,-107.000000,-26.000000
1309922.846745,13.000000,-4.000000,-10.000000,-128.000000,0.000000,25.000000,36.000000,29.000000
1309922.848440,3.000000,6.000000,-11.000000,-7.000000,-4.000000,-41.000000,-54.000000,-25.000000
1309922.848451,-5.000000,86.000000,6.000000,-56.000000,-3.000000,56.000000,70.000000,22.000000
1309922.852611,4.000000,0.000000,2.000000,46.000000,-3.000000,-81.000000,-9.000000,34.000000
1309922.852634,15.000000,41.000000,5.000000,4.000000,23.000000,50.000000,-3.000000,8.000000
1309922.867083,-9.000000,-64.000000,-5.000000,-66.000000,14.000000,-8.000000,127.000000,31.000000
1309922.867095,2.000000,13.000000,8.000000,-21.000000,-1.000000,-1.000000,-14.000000,-5.000000
1309922.875357,4.000000,9.000000,-16.000000,-2.000000,-4.000000,-7.000000,-22.000000,11.000000
1309922.875368,-8.000000,-44.000000,15.000000,64.000000,8.000000,26.000000,66.000000,5.000000
1309922.882112,-1.000000,-10.000000,23.000000,25.000000,-11.000000,-107.000000,-32.000000,-2.000000
1309922.882124,8.000000,0.000000,-19.000000,0.000000,4.000000,57.000000,84.000000,35.000000
1309922.904385,4.000000,23.000000,-11.000000,-4.000000,26.000000,33.000000,-43.000000,-29.000000
1309922.904396,-15.000000,-59.000000,-1.000000,10.000000,-9.000000,-20.000000,-22.000000,0.000000
1309922.911951,-9.000000,9.000000,3.000000,80.000000,-1.000000,15.000000,-82.000000,-34.000000
1309922.911967,11.000000,31.000000,-13.000000,-28.000000,-5.000000,7.000000,-54.000000,0.000000
1309922.957273,4.000000,-2.000000,6.000000,5.000000,17.000000,35.000000,46.000000,-1.000000
1309922.957283,-3.000000,-11.000000,-3.000000,-8.000000,0.000000,64.000000,4.000000,8.000000
1309922.964492,8.000000,16.000000,0.000000,66.000000,2.000000,40.000000,10.000000,-7.000000
1309922.964501,-10.000000,-15.000000,-9.000000,-86.000000,15.000000,41.000000,-55.000000,-15.000000
1309923.002433,-5.000000,-3.000000,52.000000,40.000000,-16.000000,-48.000000,-10.000000,-8.000000
1309923.002457,-6.000000,-37.000000,-21.000000,-128.000000,-20.000000,-45.000000,-12.000000,-20.000000
1309923.009555,-14.000000,0.000000,-17.000000,2.000000,8.000000,-78.000000,-6.000000,0.000000
1309923.009579,-8.000000,11.000000,-1.000000,22.000000,21.000000,57.000000,-34.000000,-2.000000
1309923.046975,18.000000,36.000000,-3.000000,-59.000000,-6.000000,-39.000000,-77.000000,-3.000000
1309923.046999,13.000000,9.000000,13.000000,45.000000,38.000000,115.000000,127.000000,84.000000
1309923.069581,-17.000000,-3.000000,-14.000000,-91.000000,-19.000000,-30.000000,50.000000,12.000000
1309923.069591,3.000000,-21.000000,2.000000,-3.000000,-17.000000,-50.000000,-18.000000,-6.000000
1309923.070099,12.000000,7.000000,3.000000,-26.000000,-24.000000,-34.000000,-12.000000,31.000000
1309923.070107,-5.000000,-25.000000,-4.000000,17.000000,16.000000,14.000000,14.000000,-1.000000
1309923.070534,-2.000000,-11.000000,-2.000000,1.000000,3.000000,-32.000000,50.000000,-7.000000
1309923.070542,-8.000000,47.000000,-7.000000,-25.000000,1.000000,6.000000,34.000000,6.000000
1309923.071812,-4.000000,25.000000,-14.000000,-13.000000,5.000000,-41.000000,-3.000000,-17.000000
1309923.071820,-5.000000,8.000000,-3.000000,-3.000000,-10.000000,21.000000,-33.000000,33.000000
1309923.077541,-6.000000,0.000000,-1.000000,-6.000000,8.000000,44.000000,-17.000000,15.000000
1309923.077565,4.000000,3.000000,-4.000000,6.000000,-12.000000,1.000000,9.000000,-10.000000
1309923.084501,5.000000,7.000000,1.000000,20.000000,-8.000000,-33.000000,-58.000000,30.000000
1309923.084520,5.000000,21.000000,5.000000,17.000000,-32.000000,-37.000000,-45.000000,-20.000000
1309923.107788,-12.000000,-49.000000,-15.000000,-26.000000,6.000000,42.000000,-34.000000,-18.000000
1309923.107804,-4.000000,-14.000000,-9.000000,-128.000000,-22.000000,26.000000,4.000000,52.000000
1309923.108405,7.000000,43.000000,7.000000,22.000000,-21.000000,-14.000000,-14.000000,-22.000000
1309923.108415,-8.000000,-15.000000,-1.000000,36.000000,6.000000,9.000000,-39.000000,-12.000000
1309923.129595,-4.000000,2.000000,-4.000000,13.000000,11.000000,59.000000,94.000000,4.000000
1309923.129619,4.000000,-10.000000,-24.000000,-6.000000,-11.000000,-10.000000,67.000000,-4.000000
1309923.144668,12.000000,40.000000,22.000000,2.000000,10.000000,20.000000,57.000000,21.000000
1309923.144686,-20.000000,-24.000000,-6.000000,-128.000000,8.000000,-2.000000,45.000000,-24.000000
1309923.182057,1.000000,-43.000000,-11.000000,11.000000,-16.000000,-61.000000,-37.000000,-22.000000
1309923.182067,16.000000,41.000000,-3.000000,26.000000,-10.000000,-39.000000,-14.000000,-6.000000
1309923.182408,-7.000000,-46.000000,-30.000000,-63.000000,-1.000000,6.000000,33.000000,28.000000
1309923.182418,-12.000000,30.000000,-4.000000,-7.000000,-1.000000,26.000000,38.000000,-6.000000
1309923.183675,14.000000,-47.000000,8.000000,-19.000000,1.000000,4.000000,63.000000,57.000000
1309923.183693,-7.000000,1.000000,-7.000000,17.000000,0.000000,11.000000,28.000000,-5.000000
1309923.184428,4.000000,30.000000,11.000000,-29.000000,-7.000000,56.000000,-63.000000,-19.000000
1309923.184441,-5.000000,-33.000000,-2.000000,21.000000,0.000000,-6.000000,-28.000000,-29.000000
1309923.186074,-9.000000,25.000000,-25.000000,-63.000000,8.000000,38.000000,127.000000,53.000000
1309923.186087,3.000000,-17.000000,23.000000,23.000000,-11.000000,-4.000000,-22.000000,-4.000000
1309923.190046,3.000000,-5.000000,11.000000,7.000000,12.000000,16.000000,-38.000000,8.000000
1309923.190054,-7.000000,3.000000,-7.000000,-60.000000,-19.000000,25.000000,55.000000,17.000000
1309923.204696,2.000000,-1.000000,-3.000000,54.000000,-5.000000,-67.000000,-41.000000,-15.000000
1309923.204724,1.000000,3.000000,4.000000,-39.000000,2.000000,-20.000000,28.000000,-8.000000
1309923.226969,4.000000,12.000000,3.000000,43.000000,7.000000,73.000000,65.000000,11.000000
1309923.226979,-4.000000,9.000000,8.000000,21.000000,4.000000,24.000000,16.000000,-4.000000
1309923.227722,8.000000,15.000000,-4.000000,11.000000,8.000000,-17.000000,-68.000000,18.000000
1309923.227734,14.000000,7.000000,4.000000,-50.000000,12.000000,17.000000,-5.000000,14.000000
1309923.235090,1.000000,-11.000000,-10.000000,28.000000,-27.000000,-2.000000,-61.000000,-6.000000
1309923.235113,-12.000000,9.000000,16.000000,17.000000,-4.000000,-43.000000,25.000000,-15.000000
1309923.242356,-11.000000,-23.000000,-3.000000,-13.000000,5.000000,15.000000,-15.000000,-10.000000
1309923.242370,9.000000,10.000000,-7.000000,-11.000000,-2.000000,26.000000,42.000000,6.000000
1309923.279425,4.000000,20.000000,2.000000,1.000000,-2.000000,10.000000,7.000000,10.000000
1309923.279436,0.000000,-18.000000,-4.000000,29.000000,10.000000,-22.000000,-66.000000,-13.000000
1309923.287309,-7.000000,32.000000,-2.000000,-12.000000,-13.000000,28.000000,18.000000,-7.000000
1309923.287338,-2.000000,-67.000000,2.000000,16.000000,-3.000000,-57.000000,-7.000000,4.000000
1309923.324522,10.000000,-7.000000,-3.000000,-2.000000,7.000000,-14.000000,-66.000000,-13.000000
1309923.324534,7.000000,25.000000,7.000000,10.000000,15.000000,42.000000,22.000000,6.000000
1309923.324852,-3.000000,21.000000,19.000000,46.000000,-10.000000,-30.000000,-34.000000,6.000000
1309923.324860,-8.000000,-6.000000,-5.000000,64.000000,-9.000000,-6.000000,-22.000000,-10.000000
1309923.326005,-1.000000,26.000000,-2.000000,4.000000,5.000000,13.000000,-27.000000,-14.000000
1309923.326014,-3.000000,-21.000000,7.000000,-6.000000,-1.000000,-26.000000,-51.000000,-26.000000
1309923.326632,6.000000,-10.000000,-6.000000,25.000000,-35.000000,-7.000000,18.000000,17.000000
1309923.326639,2.000000,-8.000000,16.000000,52.000000,2.000000,-20.000000,29.000000,23.000000
1309923.328184,15.000000,24.000000,-4.000000,-5.000000,9.000000,-16.000000,-9.000000,3.000000
1309923.328192,-17.000000,-6.000000,0.000000,65.000000,21.000000,37.000000,2.000000,0.000000
1309923.340212,9.000000,38.000000,18.000000,39.000000,10.000000,-71.000000,-1.000000,-6.000000
1309923.340244,-10.000000,-92.000000,-2.000000,40.000000,-16.000000,-48.000000,-40.000000,2.000000
1309923.340986,0.000000,25.000000,-5.000000,-54.000000,5.000000,9.000000,-54.000000,-30.000000
1309923.340994,2.000000,12.000000,-12.000000,1.000000,-11.000000,-18.000000,-62.000000,39.000000
1309923.384572,12.000000,23.000000,-1.000000,-15.000000,-20.000000,-20.000000,8.000000,1.000000
1309923.384583,-4.000000,-34.000000,-14.000000,3.000000,-2.000000,-17.000000,-6.000000,-11.000000
1309923.399596,-17.000000,-27.000000,11.000000,3.000000,10.000000,-3.000000,3.000000,16.000000
1309923.399657,3.000000,15.000000,2.000000,-11.000000,-23.000000,-83.000000,-16.000000,2.000000
1309923.421924,6.000000,15.000000,-8.000000,37.000000,7.000000,56.000000,23.000000,-8.000000
1309923.421940,-10.000000,-41.000000,-8.000000,-72.000000,33.000000,54.000000,12.000000,-22.000000
1309923.422401,2.000000,13.000000,4.000000,29.000000,-6.000000,18.000000,-11.000000,5.000000
1309923.422409,6.000000,-11.000000,-2.000000,30.000000,-1.000000,-17.000000,-33.000000,-13.000000
1309923.423615,-9.000000,1.000000,-1.000000,-1.000000,-7.000000,4.000000,-13.000000,-13.000000
1309923.423622,-3.000000,-2.000000,-11.000000,-62.000000,-7.000000,-69.000000,-22.000000,-7.000000
1309923.424243,3.000000,-3.000000,1.000000,81.000000,-21.000000,-31.000000,23.000000,-8.000000
1309923.424286,16.000000,25.000000,13.000000,0.000000,2.000000,31.000000,33.000000,18.000000
1309923.425732,14.000000,67.000000,-5.000000,4.000000,-8.000000,7.000000,-42.000000,-5.000000
1309923.425752,-5.000000,41.000000,1.000000,4.000000,22.000000,31.000000,-40.000000,1.000000
1309923.437349,-8.000000,-42.000000,-2.000000,25.000000,0.000000,-24.000000,21.000000,-15.000000
1309923.437359,9.000000,-14.000000,4.000000,38.000000,-1.000000,34.000000,-21.000000,24.000000
1309923.444921,-5.000000,7.000000,-14.000000,-95.000000,19.000000,33.000000,-14.000000,-25.000000
1309923.444935,0.000000,1.000000,-3.000000,-5.000000,-8.000000,-91.000000,-17.000000,-25.000000
1309923.467060,11.000000,-5.000000,2.000000,24.000000,-19.000000,-37.000000,61.000000,6.000000
1309923.467103,-1.000000,-1.000000,11.000000,-8.000000,17.000000,32.000000,50.000000,54.000000
1309923.482421,-8.000000,-4.000000,6.000000,16.000000,8.000000,62.000000,51.000000,-3.000000
1309923.482434,7.000000,-3.000000,-7.000000,11.000000,-46.000000,-19.000000,34.000000,7.000000
1309923.527011,2.000000,0.000000,1.000000,23.000000,14.000000,-6.000000,-44.000000,-7.000000
1309923.527020,5.000000,44.000000,3.000000,-4.000000,10.000000,52.000000,39.000000,10.000000
1309923.542192,-6.000000,79.000000,-2.000000,10.000000,-14.000000,-40.000000,-5.000000,-26.000000
1309923.542201,-2.000000,-128.000000,3.000000,-30.000000,-18.000000,-20.000000,-69.000000,17.000000
1309923.557036,11.000000,51.000000,13.000000,60.000000,-4.000000,-3.000000,-64.000000,0.000000
1309923.557064,0.000000,38.000000,-17.000000,-109.000000,-10.000000,10.000000,89.000000,18.000000
1309923.564382,12.000000,5.000000,-2.000000,39.000000,-9.000000,-48.000000,-68.000000,-2.000000
1309923.564411,-7.000000,0.000000,-7.000000,-18.000000,0.000000,29.000000,40.000000,-4.000000
1309923.594513,2.000000,-15.000000,1.000000,-73.000000,-5.000000,-34.000000,-60.000000,-17.000000
1309923.594523,3.000000,12.000000,-5.000000,-4.000000,-4.000000,-14.000000,-19.000000,7.000000
1309923.602074,-2.000000,-24.000000,0.000000,33.000000,-13.000000,-76.000000,-28.000000,0.000000
1309923.602088,-4.000000,8.000000,-9.000000,-7.000000,10.000000,20.000000,-53.000000,-43.000000
1309923.602411,-2.000000,-4.000000,5.000000,12.000000,-4.000000,27.000000,127.000000,18.000000
1309923.602428,2.000000,14.000000,-1.000000,28.000000,-3.000000,35.000000,5.000000,-22.000000
1309923.603531,-3.000000,-90.000000,-13.000000,4.000000,-6.000000,10.000000,5.000000,20.000000
1309923.603539,11.000000,45.000000,0.000000,1.000000,12.000000,-41.000000,-24.000000,-21.000000
1309923.605272,17.000000,15.000000,7.000000,-56.000000,-13.000000,-54.000000,-1.000000,10.000000
1309923.605315,0.000000,26.000000,9.000000,36.000000,13.000000,32.000000,-14.000000,-7.000000
1309923.617773,-2.000000,-50.000000,-16.000000,-85.000000,-6.000000,36.000000,66.000000,35.000000
1309923.617794,-3.000000,0.000000,-3.000000,-26.000000,-2.000000,-38.000000,-62.000000,-27.000000
1309923.624468,12.000000,-9.000000,-10.000000,-81.000000,3.000000,39.000000,97.000000,-11.000000
1309923.624497,-15.000000,26.000000,-7.000000,36.000000,4.000000,3.000000,16.000000,12.000000
1309923.640393,2.000000,-107.000000,14.000000,-26.000000,-13.000000,-19.000000,18.000000,-1.000000
1309923.640422,16.000000,15.000000,3.000000,-3.000000,0.000000,-22.000000,-12.000000,-13.000000
1309923.647711,3.000000,24.000000,2.000000,11.000000,15.000000,-8.000000,-17.000000,24.000000
1309923.647735,-19.000000,-18.000000,2.000000,-19.000000,-7.000000,10.000000,8.000000,-21.000000
1309923.676965,13.000000,6.000000,-5.000000,63.000000,-14.000000,-90.000000,-76.000000,-28.000000
1309923.676975,-1.000000,2.000000,-8.000000,-32.000000,4.000000,109.000000,71.000000,6.000000
1309923.677332,-2.000000,26.000000,0.000000,28.000000,-1.000000,10.000000,-37.000000,-22.000000
1309923.677342,-6.000000,-45.000000,11.000000,-13.000000,-14.000000,-17.000000,28.000000,10.000000
1309923.678853,6.000000,33.000000,1.000000,72.000000,10.000000,27.000000,-31.000000,-11.000000
1309923.678863,-3.000000,-9.000000,2.000000,20.000000,3.000000,52.000000,-29.000000,26.000000
1309923.685285,-4.000000,16.000000,-10.000000,-37.000000,-11.000000,-51.000000,-25.000000,-14.000000
1309923.685301,3.000000,1.000000,7.000000,39.000000,-6.000000,-26.000000,-15.000000,-10.000000
1309923.722413,-4.000000,6.000000,7.000000,11.000000,1.000000,13.000000,-34.000000,12.000000
1309923.722426,6.000000,-9.000000,-2.000000,20.000000,-12.000000,-4.000000,72.000000,2.000000
1309923.737092,8.000000,79.000000,5.000000,33.000000,1.000000,-8.000000,30.000000,-2.000000
1309923.737104,-10.000000,-94.000000,-9.000000,-75.000000,-16.000000,-32.000000,1.000000,-2.000000
1309923.751872,-3.000000,-14.000000,-5.000000,-16.000000,-7.000000,-29.000000,15.000000,-7.000000
1309923.751883,3.000000,9.000000,-20.000000,-22.000000,-13.000000,18.000000,24.000000,9.000000
1309923.759410,15.000000,22.000000,17.000000,-46.000000,4.000000,18.000000,14.000000,13.000000
1309923.759419,-11.000000,16.000000,-12.000000,-73.000000,2.000000,35.000000,10.000000,-14.000000
1309923.782721,14.000000,-6.000000,-7.000000,-22.000000,2.000000,26.000000,31.000000,45.000000
1309923.782731,6.000000,4.000000,-1.000000,30.000000,0.000000,-56.000000,-8.000000,-12.000000
1309923.783217,-14.000000,-1.000000,-19.000000,-74.000000,6.000000,26.000000,-33.000000,16.000000
1309923.783227,-1.000000,-6.000000,0.000000,-29.000000,-13.000000,-35.000000,33.000000,-10.000000
1309923.785004,-9.000000,28.000000,2.000000,17.000000,-7.000000,-21.000000,-26.000000,-20.000000
1309923.785020,10.000000,-11.000000,6.000000,21.000000,-13.000000,58.000000,50.000000,-5.000000
1309923.786132,-3.000000,33.000000,2.000000,-6.000000,-4.000000,-36.000000,-39.000000,13.000000
1309923.786223,-8.000000,-84.000000,-9.000000,-4.000000,1.000000,8.000000,7.000000,38.000000
1309923.798807,-2.000000,5.000000,-4.000000,-24.000000,18.000000,33.000000,-8.000000,6.000000
1309923.798832,-8.000000,-14.000000,-7.000000,10.000000,-6.000000,-54.000000,-21.000000,6.000000
1309923.820331,9.000000,6.000000,0.000000,32.000000,-17.000000,-19.000000,1.000000,5.000000
1309923.820345,-2.000000,39.000000,-3.000000,-49.000000,-4.000000,-24.000000,-12.000000,-10.000000
1309923.842169,-9.000000,-70.000000,2.000000,19.000000,-8.000000,-10.000000,-32.000000,-4.000000
1309923.842183,-3.000000,17.000000,1.000000,10.000000,-14.000000,-4.000000,35.000000,7.000000
1309923.849777,-14.000000,55.000000,-15.000000,38.000000,9.000000,17.000000,40.000000,-6.000000
1309923.849807,1.000000,-38.000000,7.000000,-77.000000,-11.000000,39.000000,30.000000,33.000000
1309923.864887,2.000000,84.000000,5.000000,13.000000,-24.000000,-7.000000,42.000000,30.000000
1309923.864909,-4.000000,-32.000000,-5.000000,-37.000000,8.000000,-8.000000,-51.000000,-14.000000
1309923.872117,-1.000000,26.000000,-14.000000,-53.000000,9.000000,12.000000,-36.000000,-15.000000
1309923.872131,-4.000000,-46.000000,1.000000,56.000000,-2.000000,1.000000,44.000000,-9.000000
1309923.887409,-7.000000,-21.000000,0.000000,8.000000,-2.000000,-31.000000,94.000000,-14.000000
1309923.887442,1.000000,8.000000,-12.000000,-87.000000,6.000000,11.000000,-38.000000,-14.000000
1309923.894503,-7.000000,4.000000,6.000000,-9.000000,-5.000000,8.000000,24.000000,4.000000
1309923.894562,-2.000000,3.000000,0.000000,29.000000,-26.000000,-128.000000,-22.000000,-23.000000
1309923.902403,9.000000,-10.000000,-1.000000,22.000000,11.000000,23.000000,-42.000000,4.000000
1309923.902412,0.000000,12.000000,-4.000000,-106.000000,-2.000000,32.000000,-16.000000,-1.000000
1309923.909347,8.000000,26.000000,-7.000000,52.000000,-12.000000,-54.000000,-22.000000,-3.000000
1309923.909357,-16.000000,-3.000000,10.000000,3.000000,9.000000,15.000000,2.000000,-10.000000
1309923.917635,-9.000000,-48.000000,-6.000000,11.000000,13.000000,17.000000,-8.000000,-11.000000
1309923.917647,-8.000000,17.000000,2.000000,-14.000000,-8.000000,-18.000000,-14.000000,-12.000000
1309923.918090,19.000000,-7.000000,7.000000,27.000000,-2.000000,-7.000000,-22.000000,-19.000000
1309923.918100,-12.000000,50.000000,-17.000000,11.000000,8.000000,0.000000,-69.000000,13.000000
1309923.919532,-3.000000,-31.000000,-3.000000,-17.000000,-15.000000,-30.000000,21.000000,3.000000
1309923.919542,4.000000,-30.000000,0.000000,50.000000,-22.000000,-60.000000,8.000000,-8.000000
1309923.939538,-2.000000,2.000000,1.000000,-8.000000,9.000000,75.000000,11.000000,-16.000000
1309923.939559,-5.000000,10.000000,-8.000000,-13.000000,29.000000,51.000000,17.000000,6.000000
1309923.962020,6.000000,6.000000,5.000000,6.000000,-5.000000,9.000000,20.000000,10.000000
1309923.962029,16.000000,2.000000,-10.000000,-7.000000,9.000000,11.000000,-44.000000,1.000000
1309923.977492,-10.000000,21.000000,12.000000,-45.000000,9.000000,66.000000,79.000000,4.000000
1309923.977504,-6.000000,-22.000000,-10.000000,10.000000,3.000000,-24.000000,18.000000,12.000000
1309924.014470,-9.000000,-21.000000,-3.000000,-3.000000,-16.000000,-42.000000,6.000000,-37.000000
1309924.014480,5.000000,16.000000,15.000000,73.000000,13.000000,2.000000,7.000000,13.000000
1309924.014862,-1.000000,43.000000,7.000000,0.000000,-5.000000,13.000000,14.000000,2.000000
1309924.014871,2.000000,-5.000000,0.000000,4.000000,-14.000000,-45.000000,-8.000000,7.000000
1309924.016170,-23.000000,-113.000000,-11.000000,23.000000,5.000000,15.000000,28.000000,-9.000000
1309924.016178,0.000000,47.000000,2.000000,4.000000,1.000000,34.000000,1.000000,-14.000000
1309924.017093,0.000000,9.000000,4.000000,5.000000,-14.000000,-37.000000,-13.000000,30.000000
1309924.017104,-6.000000,38.000000,13.000000,39.000000,31.000000,75.000000,97.000000,5.000000
1309924.021847,-9.000000,-50.000000,6.000000,-5.000000,11.000000,22.000000,15.000000,10.000000
1309924.021859,-11.000000,7.000000,1.000000,15.000000,-8.000000,-97.000000,-83.000000,-13.000000
1309924.037919,-1.000000,27.000000,-13.000000,-45.000000,-10.000000,12.000000,29.000000,-7.000000
1309924.037938,2.000000,-39.000000,-3.000000,57.000000,2.000000,-19.000000,-70.000000,-14.000000
1309924.059554,2.000000,43.000000,4.000000,-63.000000,24.000000,48.000000,17.000000,1.000000
1309924.059563,-10.000000,-33.000000,-6.000000,49.000000,-9.000000,-12.000000,-2.000000,-1.000000
1309924.104594,6.000000,-20.000000,-27.000000,-3.000000,-21.000000,-49.000000,19.000000,-8.000000
1309924.104607,-6.000000,-11.000000,14.000000,-8.000000,1.000000,46.000000,-100.000000,21.000000
1309924.111818,1.000000,29.000000,-3.000000,-32.000000,-23.000000,-78.000000,-17.000000,2.000000
1309924.111833,3.000000,7.000000,7.000000,-12.000000,-24.000000,-72.000000,-84.000000,-1.000000
1309924.112985,-8.000000,-4.000000,-10.000000,1.000000,-2.000000,19.000000,62.000000,-10.000000
1309924.112995,-6.000000,6.000000,-1.000000,18.000000,5.000000,42.000000,-27.000000,18.000000
1309924.113638,17.000000,23.000000,-8.000000,-35.000000,-10.000000,-46.000000,-24.000000,10.000000
1309924.113648,-1.000000,-19.000000,-3.000000,2.000000,10.000000,28.000000,56.000000,-5.000000
1309924.115822,-4.000000,-33.000000,2.000000,36.000000,-5.000000,29.000000,26.000000,-12.000000
1309924.115830,11.000000,65.000000,-8.000000,-73.000000,-28.000000,-47.000000,80.000000,47.000000
1309924.134722,0.000000,-43.000000,13.000000,-13.000000,11.000000,12.000000,9.000000,34.000000
1309924.134742,-7.000000,52.000000,-7.000000,-2.000000,0.000000,9.000000,-6.000000,-23.000000
1309924.135703,-7.000000,-63.000000,2.000000,-110.000000,-4.000000,-26.000000,-9.000000,-14.000000
1309924.135711,-1.000000,19.000000,-3.000000,18.000000,11.000000,3.000000,43.000000,19.000000
1309924.141955,0.000000,19.000000,5.000000,19.000000,12.000000,39.000000,13.000000,-12.000000
1309924.141987,-1.000000,12.000000,-7.000000,10.000000,-6.000000,-20.000000,-14.000000,-14.000000
1309924.156887,6.000000,2.000000,-6.000000,-4.000000,-15.000000,-34.000000,-33.000000,6.000000
1309924.156897,-5.000000,-9.000000,4.000000,-3.000000,11.000000,-1.000000,-53.000000,-3.000000
1309924.172171,-9.000000,-15.000000,-9.000000,30.000000,-7.000000,29.000000,-25.000000,-4.000000
1309924.172182,2.000000,6.000000,0.000000,-44.000000,-7.000000,-55.000000,-116.000000,-2.000000
1309924.186959,4.000000,1.000000,-2.000000,-31.000000,-6.000000,-18.000000,48.000000,-21.000000
1309924.186982,2.000000,39.000000,8.000000,45.000000,6.000000,34.000000,-69.000000,13.000000
1309924.194338,-8.000000,-38.000000,-3.000000,26.000000,12.000000,-31.000000,8.000000,-13.000000
1309924.194346,-7.000000,-11.000000,-15.000000,7.000000,13.000000,66.000000,28.000000,-7.000000
1309924.232091,-3.000000,4.000000,-9.000000,-30.000000,13.000000,76.000000,-10.000000,2.000000
1309924.232111,-11.000000,55.000000,0.000000,11.000000,-10.000000,-53.000000,-45.000000,-23.000000
1309924.239446,-4.000000,-78.000000,-11.000000,-60.000000,-11.000000,-4.000000,119.000000,17.000000
1309924.239461,-11.000000,-2.000000,11.000000,2.000000,7.000000,6.000000,-34.000000,6.000000
1309924.262269,-1.000000,12.000000,-1.000000,9.000000,-12.000000,-18.000000,-21.000000,22.000000
1309924.262298,18.000000,12.000000,-5.000000,-26.000000,-2.000000,-47.000000,-13.000000,-14.000000
1309924.277062,-12.000000,25.000000,-6.000000,-74.000000,12.000000,10.000000,-56.000000,33.000000
1309924.277073,5.000000,22.000000,23.000000,24.000000,-8.000000,10.000000,-116.000000,4.000000
1309924.277898,4.000000,-19.000000,-2.000000,31.000000,-1.000000,16.000000,88.000000,25.000000
1309924.277921,1.000000,-2.000000,-1.000000,5.000000,13.000000,28.000000,28.000000,-4.000000
1309924.278702,-10.000000,0.000000,0.000000,-12.000000,3.000000,19.000000,-46.000000,-19.000000
1309924.278720,16.000000,1.000000,-3.000000,-12.000000,-8.000000,-43.000000,87.000000,-17.000000
1309924.281083,1.000000,49.000000,5.000000,53.000000,4.000000,54.000000,-22.000000,4.000000
1309924.281093,-19.000000,-67.000000,0.000000,-33.000000,-14.000000,52.000000,7.000000,7.000000
1309924.291891,8.000000,38.000000,-7.000000,-9.000000,-8.000000,-9.000000,-38.000000,-17.000000
1309924.291902,11.000000,-11.000000,4.000000,10.000000,-6.000000,12.000000,3.000000,2.000000
1309924.314596,-21.000000,-16.000000,-5.000000,-1.000000,-5.000000,-17.000000,-11.000000,28.000000
1309924.314608,-7.000000,6.000000,13.000000,46.000000,-3.000000,-10.000000,-66.000000,21.000000
1309924.337033,8.000000,4.000000,-13.000000,-2.000000,9.000000,29.000000,22.000000,11.000000
1309924.337043,-3.000000,14.000000,-9.000000,3.000000,10.000000,14.000000,-29.000000,-21.000000
1309924.374546,-4.000000,-23.000000,-1.000000,-43.000000,6.000000,23.000000,-20.000000,-30.000000
1309924.374556,17.000000,32.000000,6.000000,-29.000000,-7.000000,9.000000,35.000000,74.000000
1309924.374801,-11.000000,-22.000000,9.000000,-5.000000,-3.000000,-5.000000,-40.000000,-17.000000
1309924.374809,-6.000000,-4.000000,-11.000000,-10.000000,-3.000000,-12.000000,-27.000000,-7.000000
1309924.376465,10.000000,2.000000,0.000000,-1.000000,-5.000000,68.000000,67.000000,8.000000
1309924.376477,11.000000,23.000000,5.000000,-1.000000,11.000000,-11.000000,-48.000000,22.000000
1309924.377106,-14.000000,-12.000000,-6.000000,5.000000,14.000000,41.000000,-4.000000,-20.000000
1309924.377125,-5.000000,-40.000000,-7.000000,43.000000,-10.000000,-43.000000,-39.000000,-1.000000
1309924.378378,-3.000000,-21.000000,1.000000,11.000000,4.000000,2.000000,-49.000000,-12.000000
1309924.378406,5.000000,32.000000,0.000000,3.000000,-2.000000,-12.000000,16.000000,-3.000000
1309924.389751,-4.000000,-19.000000,-6.000000,14.000000,-17.000000,-75.000000,-41.000000,-10.000000
1309924.389765,3.000000,10.000000,-11.000000,-114.000000,-1.000000,-24.000000,30.000000,12.000000
1309924.397274,-13.000000,16.000000,2.000000,21.000000,1.000000,24.000000,-16.000000,-7.000000
1309924.397285,-5.000000,-3.000000,-13.000000,-33.000000,-1.000000,-16.000000,47.000000,-8.000000
1309924.412006,13.000000,4.000000,4.000000,9.000000,-7.000000,-26.000000,-44.000000,12.000000
1309924.412016,-1.000000,30.000000,-7.000000,-41.000000,13.000000,22.000000,16.000000,-4.000000
1309924.434524,-17.000000,-74.000000,-5.000000,95.000000,-20.000000,-55.000000,-10.000000,1.000000
1309924.434576,7.000000,17.000000,16.000000,36.000000,-20.000000,-48.000000,-17.000000,-7.000000
1309924.450163,6.000000,10.000000,5.000000,2.000000,23.000000,13.000000,-24.000000,-10.000000
1309924.450202,-7.000000,7.000000,-11.000000,24.000000,-10.000000,-34.000000,42.000000,8.000000
1309924.471982,2.000000,42.000000,-2.000000,39.000000,-15.000000,-9.000000,19.000000,15.000000
1309924.472059,-12.000000,-41.000000,4.000000,-21.000000,5.000000,32.000000,-1.000000,-12.000000
1309924.472351,-13.000000,-31.000000,-6.000000,-12.000000,2.000000,16.000000,-23.000000,0.000000
1309924.472360,7.000000,18.000000,12.000000,7.000000,9.000000,-43.000000,17.000000,-15.000000
1309924.473726,10.000000,29.000000,-22.000000,-41.000000,8.000000,-24.000000,-19.000000,-3.000000
1309924.473735,-3.000000,14.000000,9.000000,-26.000000,17.000000,13.000000,-35.000000,0.000000
1309924.474263,-6.000000,26.000000,14.000000,10.000000,7.000000,-20.000000,13.000000,3.000000
1309924.474273,7.000000,-39.000000,0.000000,2.000000,-8.000000,-23.000000,-12.000000,-9.000000
1309924.494807,7.000000,17.000000,-6.000000,-2.000000,15.000000,27.000000,1.000000,31.000000
1309924.494850,-1.000000,27.000000,3.000000,21.000000,-14.000000,-1.000000,13.000000,-4.000000
1309924.495284,-1.000000,6.000000,-4.000000,8.000000,-19.000000,-29.000000,39.000000,-33.000000
1309924.495292,-10.000000,-82.000000,-3.000000,11.000000,12.000000,53.000000,-49.000000,10.000000
1309924.496385,5.000000,27.000000,2.000000,-23.000000,15.000000,56.000000,-22.000000,-13.000000
1309924.496394,0.000000,0.000000,-3.000000,1.000000,-20.000000,-53.000000,-45.000000,-21.000000
1309924.509637,-1.000000,-8.000000,-7.000000,-12.000000,11.000000,-18.000000,-62.000000,-10.000000
1309924.509656,16.000000,32.000000,9.000000,34.000000,20.000000,73.000000,113.000000,38.000000
1309924.517036,-13.000000,-6.000000,6.000000,43.000000,-9.000000,-56.000000,-64.000000,-21.000000
1309924.517047,-3.000000,-35.000000,-10.000000,2.000000,2.000000,22.000000,104.000000,-5.000000
1309924.532152,5.000000,19.000000,-2.000000,0.000000,5.000000,23.000000,-20.000000,10.000000
1309924.532163,13.000000,9.000000,13.000000,21.000000,-9.000000,6.000000,-23.000000,-27.000000
1309924.547091,-2.000000,94.000000,-15.000000,-20.000000,-5.000000,-39.000000,4.000000,28.000000
1309924.547103,-6.000000,-128.000000,13.000000,58.000000,1.000000,-15.000000,22.000000,31.000000
1309924.554628,1.000000,20.000000,-5.000000,-5.000000,-1.000000,10.000000,-39.000000,-15.000000
1309924.554640,0.000000,25.000000,-13.000000,-9.000000,-6.000000,-28.000000,-35.000000,-21.000000
1309924.569384,1.000000,-16.000000,-8.000000,1.000000,14.000000,5.000000,87.000000,17.000000
1309924.569393,-4.000000,32.000000,6.000000,33.000000,21.000000,87.000000,-32.000000,-15.000000
1309924.577046,-8.000000,-18.000000,-5.000000,-5.000000,-17.000000,-50.000000,-82.000000,14.000000
1309924.577058,-5.000000,-18.000000,1.000000,6.000000,-11.000000,-50.000000,15.000000,-4.000000
1309924.578385,2.000000,-9.000000,2.000000,4.000000,9.000000,26.000000,-16.000000,5.000000
1309924.578395,-6.000000,-2.000000,6.000000,9.000000,-7.000000,45.000000,24.000000,-9.000000
1309924.591988,2.000000,-4.000000,-5.000000,15.000000,-20.000000,-31.000000,43.000000,1.000000
1309924.592010,-8.000000,-37.000000,0.000000,60.000000,2.000000,-1.000000,-26.000000,-20.000000
1309924.614489,-10.000000,36.000000,-1.000000,20.000000,7.000000,59.000000,-13.000000,-5.000000
1309924.614505,6.000000,-18.000000,2.000000,52.000000,8.000000,-9.000000,-23.000000,-5.000000
1309924.614910,-10.000000,-34.000000,-13.000000,-30.000000,6.000000,9.000000,-30.000000,-10.000000
1309924.614946,-3.000000,-13.000000,10.000000,9.000000,2.000000,5.000000,-9.000000,6.000000
1309924.616370,-2.000000,70.000000,-4.000000,-33.000000,-16.000000,-6.000000,-59.000000,-7.000000
1309924.616379,0.000000,-54.000000,2.000000,18.000000,-2.000000,-48.000000,-58.000000,-22.000000
1309924.629761,3.000000,-26.000000,-15.000000,-28.000000,12.000000,45.000000,27.000000,-6.000000
1309924.629786,-34.000000,-59.000000,-1.000000,11.000000,-18.000000,-52.000000,-28.000000,-29.000000
1309924.652014,8.000000,14.000000,2.000000,-64.000000,-22.000000,-5.000000,11.000000,5.000000
1309924.652030,10.000000,29.000000,-2.000000,-22.000000,12.000000,6.000000,33.000000,14.000000
1309924.666929,0.000000,-6.000000,-11.000000,-118.000000,-7.000000,37.000000,2.000000,-6.000000
1309924.666951,-2.000000,-8.000000,-11.000000,16.000000,-6.000000,-24.000000,-46.000000,14.000000
1309924.690314,0.000000,25.000000,-1.000000,-107.000000,8.000000,19.000000,2.000000,-3.000000
1309924.690324,-6.000000,-27.000000,12.000000,7.000000,1.000000,12.000000,-25.000000,5.000000
1309924.712099,8.000000,-18.000000,-1.000000,39.000000,-4.000000,-7.000000,-21.000000,-3.000000
1309924.712123,7.000000,92.000000,-4.000000,7.000000,-8.000000,-40.000000,1.000000,13.000000
1309924.727384,-16.000000,-128.000000,-11.000000,-37.000000,-6.000000,9.000000,0.000000,-5.000000
1309924.727394,3.000000,42.000000,-7.000000,-25.000000,-4.000000,3.000000,-33.000000,-10.000000
1309924.727881,3.000000,20.000000,4.000000,63.000000,-19.000000,-30.000000,34.000000,9.000000
1309924.727889,-4.000000,10.000000,4.000000,11.000000,10.000000,-2.000000,-45.000000,-28.000000
1309924.728693,-16.000000,-36.000000,-8.000000,0.000000,-22.000000,-4.000000,-22.000000,2.000000
1309924.728701,4.000000,11.000000,-5.000000,-4.000000,-5.000000,-6.000000,-8.000000,-3.000000
1309924.729287,-7.000000,6.000000,-1.000000,-84.000000,14.000000,-71.000000,-49.000000,-18.000000
1309924.729295,-8.000000,25.000000,3.000000,11.000000,9.000000,89.000000,46.000000,7.000000
1309924.729891,0.000000,9.000000,-11.000000,-92.000000,-19.000000,4.000000,-29.000000,-1.000000
1309924.729898,2.000000,-19.000000,10.000000,23.000000,-8.000000,5.000000,-59.000000,-1.000000
1309924.730914,-12.000000,-47.000000,0.000000,14.000000,-15.000000,10.000000,33.000000,12.000000
1309924.730922,1.000000,10.000000,-7.000000,10.000000,-2.000000,12.000000,18.000000,9.000000
1309924.735198,10.000000,-2.000000,1.000000,7.000000,4.000000,-43.000000,-21.000000,50.000000
1309924.735207,-2.000000,60.000000,5.000000,4.000000,-2.000000,9.000000,-30.000000,16.000000
1309924.749528,-15.000000,-80.000000,5.000000,-14.000000,1.000000,2.000000,-53.000000,-23.000000
1309924.749538,11.000000,64.000000,9.000000,54.000000,-9.000000,-2.000000,-32.000000,-19.000000
1309924.787165,1.000000,-63.000000,-10.000000,11.000000,4.000000,17.000000,9.000000,-13.000000
1309924.787183,-15.000000,9.000000,2.000000,31.000000,3.000000,22.000000,-62.000000,-10.000000
1309924.794442,-2.000000,17.000000,-5.000000,-4.000000,-12.000000,-27.000000,-32.000000,39.000000
1309924.794452,6.000000,21.000000,5.000000,16.000000,0.000000,-14.000000,-25.000000,-3.000000
1309924.810169,-11.000000,-35.000000,-3.000000,18.000000,1.000000,21.000000,12.000000,-15.000000
1309924.810178,-5.000000,0.000000,3.000000,37.000000,-11.000000,-14.000000,-42.000000,-24.000000
1309924.810710,9.000000,4.000000,-8.000000,8.000000,-11.000000,-47.000000,118.000000,3.000000
1309924.810718,-1.000000,31.000000,17.000000,-4.000000,1.000000,9.000000,-30.000000,-15.000000
1309924.811754,-19.000000,-13.000000,-13.000000,8.000000,-1.000000,-2.000000,-31.000000,-10.000000
1309924.811762,4.000000,0.000000,-1.000000,-13.000000,-4.000000,27.000000,83.000000,12.000000
1309924.812411,4.000000,14.000000,3.000000,16.000000,9.000000,-14.000000,1.000000,-20.000000
1309924.812419,-12.000000,-15.000000,-11.000000,-15.000000,16.000000,118.000000,127.000000,25.000000
1309924.817044,6.000000,10.000000,12.000000,-35.000000,-8.000000,-53.000000,-30.000000,12.000000
1309924.817054,8.000000,3.000000,-16.000000,-23.000000,-3.000000,-50.000000,-10.000000,-3.000000
1309924.825363,-16.000000,32.000000,0.000000,16.000000,21.000000,96.000000,127.000000,37.000000
1309924.825382,-9.000000,-63.000000,9.000000,41.000000,-30.000000,-102.000000,-63.000000,-18.000000
1309924.847147,4.000000,-2.000000,-5.000000,24.000000,-7.000000,-35.000000,-6.000000,-15.000000
1309924.847157,4.000000,10.000000,-10.000000,-11.000000,8.000000,52.000000,-12.000000,9.000000
1309924.854565,2.000000,24.000000,6.000000,22.000000,-11.000000,3.000000,-37.000000,-21.000000
1309924.854586,-11.000000,28.000000,6.000000,-5.000000,-28.000000,-128.000000,-17.000000,-27.000000
1309924.869866,8.000000,-6.000000,-6.000000,-7.000000,11.000000,82.000000,127.000000,4.000000
1309924.869886,3.000000,33.000000,5.000000,-24.000000,17.000000,28.000000,-6.000000,48.000000
1309924.891937,-12.000000,-29.000000,-7.000000,8.000000,-26.000000,-41.000000,-7.000000,-5.000000
1309924.891962,2.000000,21.000000,0.000000,-6.000000,-16.000000,-24.000000,-8.000000,-9.000000
1309924.892925,-4.000000,-31.000000,-14.000000,-59.000000,-5.000000,22.000000,-15.000000,7.000000
1309924.892947,4.000000,13.000000,11.000000,10.000000,0.000000,0.000000,55.000000,-11.000000
1309924.893499,4.000000,38.000000,-1.000000,27.000000,5.000000,-18.000000,9.000000,-16.000000
1309924.893507,-9.000000,-91.000000,-10.000000,2.000000,4.000000,24.000000,-68.000000,0.000000
1309924.906963,-4.000000,62.000000,-1.000000,9.000000,-10.000000,-5.000000,50.000000,-28.000000
1309924.906974,-15.000000,-26.000000,-3.000000,-36.000000,-13.000000,-33.000000,-21.000000,-10.000000
1309924.907615,0.000000,-51.000000,-7.000000,54.000000,12.000000,-4.000000,-36.000000,-3.000000
1309924.907624,-4.000000,62.000000,23.000000,-2.000000,-9.000000,-22.000000,27.000000,9.000000
1309924.930082,5.000000,10.000000,-19.000000,-16.000000,5.000000,19.000000,-21.000000,-4.000000
1309924.930097,-1.000000,-32.000000,-13.000000,32.000000,-3.000000,-3.000000,-4.000000,-1.000000
1309924.930606,-8.000000,-6.000000,11.000000,41.000000,14.000000,13.000000,14.000000,-4.000000
1309924.930614,4.000000,4.000000,5.000000,28.000000,-1.000000,-24.000000,-40.000000,-1.000000
1309924.944459,3.000000,-8.000000,-7.000000,-10.000000,-5.000000,-22.000000,46.000000,-22.000000
1309924.944482,-6.000000,34.000000,-23.000000,-128.000000,-17.000000,-3.000000,36.000000,72.000000
1309924.945134,-7.000000,-71.000000,3.000000,6.000000,-14.000000,-1.000000,-45.000000,7.000000
1309924.945155,6.000000,11.000000,-3.000000,-1.000000,-12.000000,-53.000000,32.000000,-14.000000
1309924.967552,-1.000000,7.000000,-7.000000,0.000000,16.000000,4.000000,1.000000,-21.000000
1309924.967562,-8.000000,-2.000000,-9.000000,-11.000000,21.000000,56.000000,-5.000000,2.000000
1309924.968238,4.000000,1.000000,-2.000000,-20.000000,-15.000000,-12.000000,-44.000000,17.000000
1309924.968247,14.000000,22.000000,-1.000000,6.000000,3.000000,27.000000,-7.000000,-12.000000
1309925.004955,-26.000000,-27.000000,8.000000,95.000000,25.000000,51.000000,11.000000,-14.000000
1309925.004969,6.000000,31.000000,-15.000000,-128.000000,-8.000000,-103.000000,-72.000000,12.000000
1309925.012116,13.000000,-29.000000,-10.000000,-54.000000,-7.000000,10.000000,-5.000000,-5.000000
1309925.012128,-7.000000,-21.000000,-2.000000,-5.000000,0.000000,-14.000000,-9.000000,-14.000000
1309925.049580,14.000000,56.000000,3.000000,18.000000,12.000000,47.000000,-19.000000,5.000000
1309925.049595,-18.000000,-85.000000,-18.000000,-63.000000,-35.000000,-128.000000,-16.000000,-12.000000
1309925.050067,10.000000,22.000000,9.000000,40.000000,-2.000000,9.000000,70.000000,33.000000
1309925.050077,-5.000000,9.000000,-1.000000,-8.000000,-2.000000,14.000000,10.000000,-2.000000
1309925.051156,2.000000,9.000000,-15.000000,-57.000000,-4.000000,-5.000000,-27.000000,-25.000000
1309925.051165,5.000000,-1.000000,-8.000000,-10.000000,17.000000,-8.000000,-6.000000,-9.000000
1309925.051809,-2.000000,1.000000,2.000000,31.000000,26.000000,55.000000,8.000000,-5.000000
1309925.051818,2.000000,20.000000,-6.000000,-85.000000,-18.000000,-38.000000,30.000000,23.000000
1309925.053502,-5.000000,27.000000,2.000000,31.000000,-1.000000,56.000000,4.000000,-5.000000
1309925.053511,9.000000,-37.000000,-9.000000,4.000000,-29.000000,-61.000000,18.000000,12.000000
1309925.056971,-1.000000,37.000000,1.000000,7.000000,2.000000,-21.000000,-24.000000,2.000000
1309925.056981,-14.000000,-23.000000,22.000000,60.000000,9.000000,47.000000,127.000000,30.000000
1309925.064594,6.000000,-4.000000,-18.000000,-37.000000,-21.000000,-79.000000,-26.000000,-24.000000
1309925.064606,4.000000,4.000000,-6.000000,22.000000,12.000000,53.000000,-41.000000,-11.000000
1309925.087230,-2.000000,42.000000,0.000000,-16.000000,26.000000,17.000000,11.000000,1.000000
1309925.087248,13.000000,-31.000000,10.000000,20.000000,-19.000000,-7.000000,98.000000,37.000000
1309925.087951,2.000000,42.000000,8.000000,24.000000,-14.000000,-59.000000,-43.000000,-9.000000
1309925.087977,-1.000000,6.000000,-4.000000,51.000000,17.000000,38.000000,-42.000000,-16.000000
1309925.102983,5.000000,15.000000,-4.000000,24.000000,-12.000000,-9.000000,-20.000000,3.000000
1309925.102992,8.000000,43.000000,19.000000,51.000000,-8.000000,6.000000,1.000000,15.000000
1309925.109850,-12.000000,-74.000000,-13.000000,-25.000000,8.000000,1.000000,-13.000000,-12.000000
1309925.109869,5.000000,14.000000,-3.000000,-58.000000,-2.000000,2.000000,41.000000,13.000000
1309925.147708,2.000000,-3.000000,-9.000000,-27.000000,-13.000000,5.000000,-6.000000,4.000000
1309925.147747,-4.000000,-9.000000,-10.000000,3.000000,8.000000,-41.000000,-46.000000,-35.000000
1309925.169698,6.000000,46.000000,6.000000,1.000000,18.000000,55.000000,24.000000,4.000000
1309925.169713,5.000000,-9.000000,-13.000000,-122.000000,-2.000000,-24.000000,-22.000000,14.000000
1309925.184965,5.000000,21.000000,10.000000,24.000000,-3.000000,10.000000,-24.000000,8.000000
1309925.184975,-9.000000,-62.000000,-2.000000,16.000000,0.000000,14.000000,-35.000000,-14.000000
1309925.209462,6.000000,24.000000,4.000000,-6.000000,-7.000000,-5.000000,-4.000000,18.000000
1309925.209486,-4.000000,9.000000,-13.000000,-1.000000,-12.000000,-26.000000,84.000000,13.000000
1309925.210144,21.000000,15.000000,5.000000,6.000000,1.000000,-25.000000,-2.000000,27.000000
1309925.210157,-9.000000,-34.000000,-7.000000,10.000000,5.000000,80.000000,39.000000,9.000000
1309925.210773,4.000000,48.000000,-3.000000,-87.000000,10.000000,9.000000,-4.000000,-14.000000
1309925.210795,-8.000000,-96.000000,-4.000000,13.000000,11.000000,38.000000,-57.000000,-20.000000
1309925.212685,-5.000000,37.000000,-11.000000,-26.000000,-32.000000,-23.000000,-9.000000,-3.000000
1309925.212762,-4.000000,-5.000000,12.000000,0.000000,29.000000,24.000000,-16.000000,-9.000000
1309925.212950,6.000000,11.000000,2.000000,44.000000,-8.000000,-13.000000,2.000000,-7.000000
1309925.212983,0.000000,-18.000000,-8.000000,-6.000000,-10.000000,-106.000000,68.000000,-16.000000
1309925.214927,-7.000000,-24.000000,1.000000,3.000000,-12.000000,-21.000000,18.000000,32.000000
1309925.214939,-5.000000,13.000000,5.000000,25.000000,3.000000,-31.000000,-75.000000,-12.000000
1309925.229729,0.000000,16.000000,-11.000000,32.000000,17.000000,79.000000,14.000000,4.000000
1309925.229758,8.000000,-5.000000,-5.000000,-25.000000,-8.000000,-62.000000,12.000000,3.000000
1309925.259695,-6.000000,-7.000000,20.000000,3.000000,-10.000000,-5.000000,33.000000,-6.000000
1309925.259714,-7.000000,-18.000000,-2.000000,24.000000,6.000000,58.000000,-41.000000,4.000000
1309925.267776,7.000000,42.000000,-1.000000,-23.000000,-11.000000,-67.000000,-35.000000,-17.000000
1309925.267792,-15.000000,-31.000000,6.000000,57.000000,-10.000000,-113.000000,-8.000000,12.000000
1309925.289950,4.000000,20.000000,3.000000,-6.000000,7.000000,57.000000,-7.000000,-8.000000
1309925.290006,-3.000000,19.000000,0.000000,8.000000,-8.000000,4.000000,-32.000000,7.000000
1309925.304617,9.000000,-4.000000,2.000000,1.000000,-7.000000,-9.000000,-24.000000,1.000000
1309925.304628,1.000000,-1.000000,-3.000000,24.000000,1.000000,-52.000000,-27.000000,-23.000000
1309925.305648,-8.000000,-9.000000,-1.000000,10.000000,9.000000,60.000000,17.000000,53.000000
1309925.305664,9.000000,9.000000,-2.000000,-100.000000,-12.000000,39.000000,-52.000000,6.000000
1309925.306237,1.000000,1.000000,4.000000,32.000000,-2.000000,37.000000,94.000000,-14.000000
1309925.306264,-12.000000,-11.000000,-21.000000,-102.000000,-7.000000,-28.000000,11.000000,-10.000000
1309925.307712,0.000000,17.000000,0.000000,-46.000000,2.000000,25.000000,-21.000000,-1.000000
1309925.307729,5.000000,-19.000000,0.000000,2.000000,1.000000,-21.000000,-11.000000,-5.000000
1309925.327033,6.000000,0.000000,-4.000000,39.000000,9.000000,13.000000,23.000000,-15.000000
1309925.327045,-5.000000,30.000000,6.000000,33.000000,-11.000000,-14.000000,-2.000000,7.000000
1309925.327970,-7.000000,33.000000,12.000000,-40.000000,0.000000,-18.000000,-3.000000,-15.000000
1309925.327980,-13.000000,-128.000000,-21.000000,-56.000000,3.000000,18.000000,7.000000,-12.000000
1309925.328613,10.000000,71.000000,21.000000,37.000000,5.000000,105.000000,78.000000,31.000000
1309925.328622,-6.000000,-26.000000,-3.000000,16.000000,2.000000,6.000000,38.000000,-20.000000
1309925.342247,12.000000,14.000000,-2.000000,30.000000,13.000000,-48.000000,25.000000,-8.000000
1309925.342258,9.000000,27.000000,0.000000,-2.000000,-2.000000,26.000000,0.000000,18.000000
1309925.349744,-7.000000,-2.000000,-5.000000,-3.000000,-3.000000,-19.000000,44.000000,-12.000000
1309925.349757,-25.000000,-16.000000,-2.000000,15.000000,0.000000,4.000000,12.000000,-8.000000
1309925.379689,2.000000,-31.000000,4.000000,-9.000000,19.000000,99.000000,11.000000,-26.000000
1309925.379717,0.000000,9.000000,-18.000000,-116.000000,-22.000000,-101.000000,-10.000000,-7.000000
1309925.387571,0.000000,0.000000,1.000000,-56.000000,-6.000000,-9.000000,16.000000,-9.000000
1309925.387587,-7.000000,-15.000000,-13.000000,20.000000,10.000000,11.000000,2.000000,-8.000000
1309925.424815,-8.000000,-3.000000,2.000000,-7.000000,8.000000,30.000000,-66.000000,-24.000000
1309925.424845,3.000000,50.000000,15.000000,25.000000,-22.000000,-91.000000,33.000000,39.000000
1309925.425332,-12.000000,-112.000000,-16.000000,-69.000000,-25.000000,-41.000000,-4.000000,-17.000000
1309925.425359,2.000000,-21.000000,-5.000000,-6.000000,16.000000,-3.000000,-37.000000,12.000000
1309925.426187,7.000000,71.000000,-5.000000,-61.000000,17.000000,54.000000,-48.000000,-40.000000
1309925.426194,-3.000000,-100.000000,-7.000000,81.000000,-2.000000,32.000000,75.000000,22.000000
1309925.426927,-12.000000,17.000000,15.000000,48.000000,-4.000000,-46.000000,53.000000,9.000000
1309925.426938,-10.000000,48.000000,-5.000000,-48.000000,4.000000,23.000000,-29.000000,-16.000000
1309925.428485,2.000000,-28.000000,0.000000,4.000000,-10.000000,-23.000000,7.000000,24.000000
1309925.428499,3.000000,11.000000,4.000000,40.000000,14.000000,9.000000,23.000000,-5.000000
1309925.447027,-10.000000,-2.000000,4.000000,-19.000000,6.000000,55.000000,-6.000000,-7.000000
1309925.447038,-5.000000,9.000000,-8.000000,10.000000,-9.000000,-7.000000,-50.000000,-10.000000
1309925.448096,0.000000,-10.000000,-11.000000,18.000000,-1.000000,53.000000,-74.000000,-26.000000
1309925.448119,-8.000000,-6.000000,-1.000000,-11.000000,31.000000,7.000000,43.000000,49.000000
1309925.448863,6.000000,4.000000,5.000000,9.000000,-3.000000,-3.000000,30.000000,-27.000000
1309925.448879,1.000000,-2.000000,-2.000000,2.000000,-15.000000,-12.000000,-10.000000,6.000000
1309925.462054,-3.000000,-7.000000,-7.000000,0.000000,8.000000,32.000000,-1.000000,-2.000000
1309925.462077,-3.000000,-4.000000,0.000000,27.000000,10.000000,94.000000,-22.000000,2.000000
1309925.484429,9.000000,41.000000,-6.000000,-41.000000,-14.000000,-32.000000,22.000000,0.000000
1309925.484446,-11.000000,-44.000000,-8.000000,19.000000,9.000000,40.000000,34.000000,-1.000000
1309925.522524,-9.000000,-34.000000,-4.000000,-24.000000,-1.000000,6.000000,-38.000000,-26.000000
1309925.522553,5.000000,53.000000,14.000000,16.000000,-12.000000,-33.000000,-14.000000,23.000000
1309925.529449,0.000000,-20.000000,-1.000000,28.000000,7.000000,6.000000,82.000000,-3.000000
1309925.529460,-5.000000,-20.000000,-12.000000,-25.000000,5.000000,-39.000000,-5.000000,27.000000
1309925.544590,5.000000,26.000000,1.000000,-2.000000,-15.000000,2.000000,14.000000,5.000000
1309925.544611,11.000000,13.000000,-3.000000,-10.000000,-15.000000,-55.000000,-27.000000,-9.000000
1309925.559774,-3.000000,-2.000000,4.000000,21.000000,10.000000,-2.000000,14.000000,-8.000000
1309925.559802,-6.000000,0.000000,-5.000000,-47.000000,-15.000000,3.000000,-11.000000,1.000000
1309925.560661,1.000000,-7.000000,0.000000,18.000000,-18.000000,-59.000000,36.000000,-4.000000
1309925.560669,2.000000,26.000000,-9.000000,-12.000000,-7.000000,29.000000,20.000000,17.000000
1309925.566926,-15.000000,-26.000000,2.000000,38.000000,6.000000,-9.000000,-40.000000,-21.000000
1309925.566938,3.000000,74.000000,26.000000,12.000000,7.000000,-24.000000,58.000000,61.000000
1309925.567416,-6.000000,-66.000000,-7.000000,-22.000000,-1.000000,14.000000,-17.000000,-12.000000
1309925.567425,6.000000,-10.000000,-18.000000,-41.000000,-3.000000,-29.000000,-15.000000,-23.000000
1309925.568528,12.000000,18.000000,7.000000,-34.000000,0.000000,54.000000,17.000000,3.000000
1309925.568537,-3.000000,35.000000,11.000000,6.000000,5.000000,13.000000,-38.000000,-10.000000
1309925.569164,3.000000,-3.000000,-12.000000,-36.000000,-15.000000,-23.000000,-11.000000,-7.000000
1309925.569173,4.000000,-38.000000,4.000000,1.000000,1.000000,28.000000,1.000000,-2.000000
1309925.581991,4.000000,12.000000,3.000000,-3.000000,29.000000,39.000000,-5.000000,44.000000
1309925.582002,-6.000000,22.000000,0.000000,11.000000,-5.000000,-77.000000,-57.000000,-22.000000
1309925.604639,-1.000000,-33.000000,14.000000,4.000000,-20.000000,8.000000,84.000000,77.000000
1309925.604652,-7.000000,6.000000,-13.000000,-12.000000,17.000000,24.000000,20.000000,2.000000
1309925.619990,2.000000,27.000000,-7.000000,-19.000000,-8.000000,-5.000000,-19.000000,22.000000
1309925.620007,7.000000,4.000000,-3.000000,31.000000,-6.000000,-60.000000,19.000000,3.000000
1309925.627177,-7.000000,-31.000000,-14.000000,-1.000000,16.000000,-16.000000,69.000000,11.000000
1309925.627201,-8.000000,9.000000,-1.000000,5.000000,-3.000000,6.000000,8.000000,-6.000000
1309925.664921,10.000000,-1.000000,10.000000,9.000000,-24.000000,-20.000000,29.000000,32.000000
1309925.665018,6.000000,-9.000000,-12.000000,-71.000000,11.000000,20.000000,-16.000000,-2.000000
1309925.679646,-8.000000,46.000000,-6.000000,5.000000,16.000000,27.000000,-12.000000,-13.000000
1309925.679657,-7.000000,36.000000,8.000000,-17.000000,-18.000000,-33.000000,-14.000000,11.000000
1309925.680434,6.000000,-128.000000,-5.000000,-101.000000,0.000000,-14.000000,-24.000000,-18.000000
1309925.680442,2.000000,-45.000000,-10.000000,29.000000,21.000000,11.000000,-13.000000,58.000000
1309925.681164,-1.000000,22.000000,7.000000,42.000000,-2.000000,-5.000000,-21.000000,-27.000000
1309925.681176,5.000000,43.000000,6.000000,-47.000000,-6.000000,38.000000,27.000000,12.000000
1309925.682568,-5.000000,1.000000,-5.000000,-17.000000,20.000000,51.000000,7.000000,3.000000
1309925.682577,-2.000000,0.000000,-5.000000,-13.000000,1.000000,7.000000,-23.000000,13.000000
1309925.683431,-9.000000,4.000000,-2.000000,-9.000000,16.000000,56.000000,2.000000,3.000000
1309925.683450,3.000000,38.000000,-5.000000,-31.000000,-14.000000,-113.000000,-21.000000,-4.000000
1309925.702274,1.000000,-79.000000,2.000000,-6.000000,17.000000,23.000000,76.000000,1.000000
1309925.702283,-5.000000,37.000000,8.000000,-4.000000,11.000000,-74.000000,-99.000000,17.000000
1309925.724569,2.000000,6.000000,-21.000000,-23.000000,-3.000000,5.000000,26.000000,-21.000000
1309925.724580,4.000000,37.000000,5.000000,47.000000,6.000000,-7.000000,85.000000,37.000000
1309925.763021,-26.000000,-90.000000,-8.000000,7.000000,-7.000000,-2.000000,-10.000000,-15.000000
1309925.763181,1.000000,84.000000,-6.000000,-64.000000,0.000000,8.000000,19.000000,5.000000
1309925.763684,1.000000,-98.000000,4.000000,19.000000,-24.000000,-26.000000,-6.000000,-3.000000
1309925.763702,-5.000000,-33.000000,-2.000000,-8.000000,13.000000,63.000000,-38.000000,-26.000000
1309925.764491,9.000000,25.000000,-7.000000,1.000000,12.000000,32.000000,104.000000,34.000000
1309925.764503,-4.000000,-45.000000,1.000000,31.000000,30.000000,77.000000,56.000000,-6.000000
1309925.764557,-6.000000,33.000000,-8.000000,23.000000,-4.000000,-29.000000,44.000000,44.000000
1309925.764575,1.000000,19.000000,2.000000,23.000000,-8.000000,-4.000000,-40.000000,-25.000000
1309925.766740,9.000000,47.000000,6.000000,20.000000,-12.000000,-51.000000,49.000000,43.000000
1309925.766818,-6.000000,-58.000000,0.000000,17.000000,-8.000000,-80.000000,-16.000000,-32.000000
1309925.777271,-4.000000,-10.000000,2.000000,2.000000,-23.000000,-55.000000,13.000000,-2.000000
1309925.777296,-6.000000,9.000000,2.000000,-7.000000,-2.000000,2.000000,-19.000000,-9.000000
1309925.777741,-5.000000,-48.000000,-16.000000,1.000000,4.000000,46.000000,-47.000000,2.000000
1309925.777750,10.000000,28.000000,2.000000,7.000000,-7.000000,20.000000,39.000000,7.000000
1309925.800898,6.000000,3.000000,-6.000000,-18.000000,4.000000,-1.000000,-29.000000,-11.000000
1309925.800921,-15.000000,21.000000,-5.000000,17.000000,4.000000,9.000000,2.000000,-16.000000
1309925.801961,4.000000,-14.000000,-4.000000,-9.000000,-9.000000,1.000000,3.000000,-9.000000
1309925.801976,4.000000,28.000000,0.000000,10.000000,-10.000000,-35.000000,-36.000000,-12.000000
1309925.837127,-9.000000,-51.000000,-6.000000,-44.000000,9.000000,-46.000000,61.000000,5.000000
1309925.837137,-1.000000,19.000000,-3.000000,11.000000,-19.000000,17.000000,-82.000000,-36.000000
1309925.844692,13.000000,22.000000,12.000000,88.000000,-34.000000,-34.000000,58.000000,35.000000
1309925.844721,-1.000000,-2.000000,-9.000000,13.000000,5.000000,-17.000000,-2.000000,29.000000
1309925.867026,-4.000000,-11.000000,7.000000,39.000000,12.000000,115.000000,-29.000000,2.000000
1309925.867039,-4.000000,30.000000,-10.000000,-62.000000,-25.000000,-73.000000,-21.000000,-22.000000
1309925.897245,10.000000,-26.000000,7.000000,4.000000,21.000000,33.000000,68.000000,2.000000
1309925.897277,0.000000,-5.000000,7.000000,11.000000,15.000000,32.000000,-18.000000,7.000000
1309925.898264,4.000000,14.000000,-3.000000,12.000000,-12.000000,-42.000000,-21.000000,-26.000000
1309925.898282,9.000000,46.000000,3.000000,8.000000,9.000000,7.000000,-22.000000,42.000000
1309925.898992,-6.000000,-80.000000,-1.000000,-11.000000,-16.000000,-36.000000,-88.000000,7.000000
1309925.899005,-8.000000,10.000000,-5.000000,-31.000000,3.000000,30.000000,-28.000000,-25.000000
1309925.900216,1.000000,35.000000,0.000000,127.000000,-17.000000,-8.000000,35.000000,32.000000
1309925.900225,-4.000000,-28.000000,-6.000000,20.000000,11.000000,46.000000,-18.000000,-24.000000
1309925.901159,-14.000000,5.000000,-1.000000,-40.000000,-15.000000,1.000000,59.000000,-13.000000
1309925.901181,-2.000000,-4.000000,13.000000,16.000000,-12.000000,-77.000000,-6.000000,4.000000
1309925.919956,-14.000000,-53.000000,-5.000000,-6.000000,-2.000000,27.000000,-9.000000,0.000000
1309925.919967,1.000000,32.000000,4.000000,-27.000000,-18.000000,42.000000,48.000000,13.000000
1309925.920796,5.000000,32.000000,0.000000,9.000000,-29.000000,-76.000000,-4.000000,2.000000
1309925.920813,0.000000,-10.000000,-10.000000,-15.000000,-4.000000,30.000000,51.000000,-6.000000
1309925.942143,-4.000000,3.000000,0.000000,-56.000000,-3.000000,5.000000,-50.000000,2.000000
1309925.942171,6.000000,-20.000000,7.000000,12.000000,-5.000000,-19.000000,31.000000,-7.000000
1309925.957172,2.000000,-16.000000,-15.000000,2.000000,11.000000,15.000000,-42.000000,-2.000000
1309925.957196,-4.000000,22.000000,2.000000,-17.000000,17.000000,38.000000,51.000000,30.000000
1309925.972056,-1.000000,24.000000,16.000000,23.000000,-22.000000,-21.000000,8.000000,7.000000
1309925.972080,-6.000000,-16.000000,-5.000000,14.000000,-4.000000,-94.000000,-36.000000,-22.000000
1309925.979840,-2.000000,0.000000,-8.000000,-4.000000,7.000000,-19.000000,23.000000,3.000000
1309925.979868,7.000000,13.000000,3.000000,41.000000,-7.000000,-22.000000,-11.000000,32.000000
1309926.002724,6.000000,11.000000,9.000000,19.000000,-14.000000,-85.000000,-40.000000,-7.000000
1309926.002738,0.000000,-33.000000,-21.000000,-41.000000,5.000000,-4.000000,-35.000000,-21.000000
1309926.002991,-5.000000,37.000000,12.000000,20.000000,16.000000,-17.000000,62.000000,25.000000
1309926.002999,6.000000,-32.000000,-8.000000,-3.000000,-16.000000,-22.000000,8.000000,-4.000000
1309926.004410,-13.000000,-58.000000,-5.000000,8.000000,-1.000000,-42.000000,-24.000000,-3.000000
1309926.004420,2.000000,8.000000,-1.000000,6.000000,-8.000000,31.000000,11.000000,3.000000
1309926.005191,8.000000,35.000000,-6.000000,-92.000000,1.000000,9.000000,41.000000,-7.000000
1309926.005210,1.000000,79.000000,-8.000000,27.000000,-14.000000,-21.000000,48.000000,11.000000
1309926.017019,-26.000000,-128.000000,-5.000000,3.000000,15.000000,-2.000000,-10.000000,-13.000000
1309926.017032,5.000000,58.000000,8.000000,19.000000,-10.000000,22.000000,0.000000,-15.000000
1309926.017620,13.000000,29.000000,-9.000000,-41.000000,-20.000000,-128.000000,-5.000000,-12.000000
1309926.017645,-8.000000,2.000000,2.000000,19.000000,15.000000,13.000000,15.000000,14.000000
1309926.054739,10.000000,8.000000,-2.000000,0.000000,8.000000,16.000000,-3.000000,8.000000
1309926.054763,6.000000,27.000000,-3.000000,-10.000000,-31.000000,-46.000000,22.000000,4.000000
1309926.062220,-9.000000,-62.000000,-6.000000,-11.000000,17.000000,25.000000,-20.000000,-10.000000
1309926.062235,-10.000000,-3.000000,2.000000,17.000000,0.000000,26.000000,14.000000,4.000000
1309926.085081,10.000000,21.000000,8.000000,9.000000,2.000000,10.000000,59.000000,21.000000
1309926.085100,-11.000000,-36.000000,-8.000000,39.000000,-9.000000,-32.000000,0.000000,-27.000000
1309926.099774,1.000000,6.000000,-6.000000,2.000000,10.000000,-2.000000,-48.000000,2.000000
1309926.099811,-5.000000,4.000000,5.000000,13.000000,-14.000000,-6.000000,58.000000,-11.000000
1309926.121929,8.000000,-1.000000,2.000000,4.000000,-5.000000,-37.000000,25.000000,-10.000000
1309926.121939,2.000000,-1.000000,-15.000000,-92.000000,10.000000,11.000000,-9.000000,-7.000000
1309926.137423,3.000000,23.000000,-1.000000,42.000000,-5.000000,0.000000,1.000000,16.000000
1309926.137446,2.000000,-33.000000,11.000000,34.000000,-8.000000,-19.000000,5.000000,14.000000
1309926.174633,1.000000,30.000000,4.000000,-28.000000,-8.000000,-32.000000,-38.000000,-18.000000
1309926.174656,-11.000000,-32.000000,-14.000000,7.000000,20.000000,52.000000,3.000000,-15.000000
1309926.182524,6.000000,46.000000,2.000000,15.000000,2.000000,-46.000000,92.000000,17.000000
1309926.182556,6.000000,-20.000000,6.000000,37.000000,-6.000000,29.000000,9.000000,27.000000
1309926.197237,15.000000,5.000000,2.000000,7.000000,-2.000000,-13.000000,-15.000000,-8.000000
1309926.197247,-2.000000,-12.000000,-21.000000,-62.000000,1.000000,-4.000000,61.000000,28.000000
1309926.211916,-5.000000,-12.000000,-3.000000,13.000000,4.000000,-23.000000,-40.000000,-35.000000
1309926.211928,-6.000000,15.000000,0.000000,18.000000,6.000000,60.000000,52.000000,26.000000
1309926.234973,-5.000000,62.000000,2.000000,20.000000,7.000000,54.000000,127.000000,43.000000
1309926.235000,-8.000000,-37.000000,-13.000000,-7.000000,-22.000000,-128.000000,-56.000000,-22.000000
1309926.235482,-4.000000,28.000000,-9.000000,-10.000000,-13.000000,-27.000000,-21.000000,-19.000000
1309926.235503,-16.000000,-110.000000,1.000000,7.000000,3.000000,6.000000,59.000000,11.000000
1309926.237018,3.000000,-3.000000,-17.000000,-62.000000,-6.000000,-95.000000,-75.000000,-37.000000
1309926.237038,13.000000,29.000000,8.000000,13.000000,-12.000000,30.000000,70.000000,17.000000
1309926.242005,-9.000000,8.000000,-20.000000,-17.000000,-28.000000,-55.000000,-13.000000,-10.000000
1309926.242019,6.000000,18.000000,-2.000000,-2.000000,-1.000000,66.000000,-33.000000,-7.000000
1309926.257507,8.000000,34.000000,4.000000,-117.000000,-11.000000,-53.000000,103.000000,47.000000
1309926.257516,-12.000000,-17.000000,19.000000,40.000000,9.000000,-7.000000,-47.000000,-24.000000
1309926.279583,-2.000000,-32.000000,-15.000000,20.000000,8.000000,33.000000,-56.000000,0.000000
1309926.279601,3.000000,4.000000,2.000000,-9.000000,0.000000,23.000000,46.000000,32.000000
1309926.280492,5.000000,20.000000,-1.000000,25.000000,-1.000000,-33.000000,-14.000000,-14.000000
1309926.280514,11.000000,21.000000,5.000000,-1.000000,5.000000,18.000000,29.000000,2.000000
1309926.281419,-14.000000,50.000000,5.000000,1.000000,-10.000000,5.000000,-26.000000,-8.000000
1309926.281428,-14.000000,-128.000000,-7.000000,-10.000000,-35.000000,-22.000000,29.000000,21.000000
1309926.317082,4.000000,35.000000,-11.000000,-28.000000,12.000000,-22.000000,-38.000000,-10.000000
1309926.317092,-5.000000,23.000000,-3.000000,2.000000,3.000000,-45.000000,-49.000000,-44.000000
1309926.339540,15.000000,10.000000,3.000000,6.000000,4.000000,-9.000000,32.000000,53.000000
1309926.339560,-23.000000,-17.000000,-9.000000,24.000000,8.000000,9.000000,39.000000,-17.000000
1309926.355374,-5.000000,20.000000,6.000000,11.000000,18.000000,-15.000000,-16.000000,-27.000000
1309926.355401,3.000000,-6.000000,2.000000,-86.000000,-22.000000,-19.000000,113.000000,5.000000
1309926.355710,10.000000,-3.000000,-5.000000,63.000000,-13.000000,-39.000000,-12.000000,-10.000000
1309926.355736,-8.000000,-28.000000,-2.000000,18.000000,8.000000,-4.000000,17.000000,12.000000
1309926.356766,-10.000000,50.000000,2.000000,-7.000000,-3.000000,-21.000000,-16.000000,-28.000000
1309926.356773,12.000000,-16.000000,2.000000,4.000000,-4.000000,4.000000,-35.000000,17.000000
1309926.357530,-16.000000,-84.000000,-9.000000,-41.000000,-5.000000,52.000000,10.000000,-17.000000
1309926.357538,1.000000,57.000000,-9.000000,-51.000000,24.000000,64.000000,97.000000,45.000000
1309926.358375,5.000000,4.000000,10.000000,37.000000,-13.000000,-7.000000,-64.000000,-15.000000
1309926.358383,-13.000000,20.000000,-4.000000,-71.000000,-3.000000,39.000000,2.000000,-16.000000
1309926.377095,2.000000,10.000000,-2.000000,17.000000,16.000000,-22.000000,-11.000000,18.000000
1309926.377108,1.000000,11.000000,2.000000,23.000000,6.000000,56.000000,54.000000,-14.000000
1309926.378714,1.000000,10.000000,-11.000000,-33.000000,-8.000000,-16.000000,-55.000000,-6.000000
1309926.378733,10.000000,-25.000000,-7.000000,5.000000,7.000000,79.000000,-39.000000,25.000000
1309926.384981,0.000000,29.000000,7.000000,37.000000,-3.000000,-79.000000,-8.000000,30.000000
1309926.385024,-8.000000,-34.000000,4.000000,-1.000000,-7.000000,-7.000000,-113.000000,-55.000000
1309926.392591,-7.000000,-26.000000,4.000000,16.000000,-9.000000,-39.000000,-10.000000,17.000000
1309926.392601,3.000000,26.000000,1.000000,-3.000000,11.000000,4.000000,-26.000000,-1.000000
1309926.399510,6.000000,26.000000,-10.000000,-7.000000,-13.000000,-44.000000,-12.000000,-5.000000
1309926.399534,-3.000000,-48.000000,-3.000000,21.000000,10.000000,81.000000,-30.000000,19.000000
1309926.437179,6.000000,-3.000000,0.000000,-73.000000,9.000000,2.000000,4.000000,2.000000
1309926.437199,-3.000000,16.000000,3.000000,-33.000000,-3.000000,-63.000000,-18.000000,-7.000000
1309926.452333,1.000000,4.000000,-6.000000,17.000000,-2.000000,-18.000000,-9.000000,-15.000000
1309926.452344,9.000000,-15.000000,-4.000000,-51.000000,10.000000,50.000000,25.000000,9.000000
1309926.474461,-4.000000,41.000000,-17.000000,-67.000000,-16.000000,9.000000,37.000000,8.000000
1309926.474490,5.000000,-67.000000,2.000000,24.000000,-23.000000,-24.000000,-38.000000,-3.000000
1309926.474956,-5.000000,25.000000,-4.000000,-10.000000,7.000000,102.000000,-13.000000,-19.000000
1309926.474965,-9.000000,-32.000000,6.000000,12.000000,13.000000,6.000000,-8.000000,9.000000
1309926.476209,-1.000000,-41.000000,-14.000000,22.000000,-4.000000,9.000000,-62.000000,-9.000000
1309926.476217,7.000000,70.000000,14.000000,-44.000000,0.000000,17.000000,-31.000000,-4.000000
1309926.476855,-8.000000,-12.000000,1.000000,-1.000000,10.000000,58.000000,-34.000000,-6.000000
1309926.476863,2.000000,-20.000000,-15.000000,-36.000000,-21.000000,-5.000000,3.000000,13.000000
1309926.478326,0.000000,5.000000,1.000000,3.000000,-6.000000,-46.000000,23.000000,2.000000
1309926.478334,2.000000,28.000000,5.000000,26.000000,14.000000,-40.000000,-60.000000,-8.000000
1309926.481805,0.000000,-8.000000,-4.000000,-75.000000,-25.000000,-17.000000,-21.000000,-10.000000
1309926.481815,6.000000,-12.000000,-3.000000,32.000000,-15.000000,8.000000,-4.000000,26.000000
1309926.497687,7.000000,83.000000,-1.000000,-17.000000,0.000000,17.000000,-61.000000,-16.000000
1309926.497719,-20.000000,-102.000000,7.000000,34.000000,-3.000000,-2.000000,30.000000,2.000000
1309926.511990,6.000000,-13.000000,-1.000000,-30.000000,-7.000000,4.000000,-19.000000,-1.000000
1309926.512067,-2.000000,17.000000,-13.000000,-8.000000,-3.000000,-86.000000,-17.000000,-4.000000
1309926.513185,-4.000000,50.000000,17.000000,-61.000000,3.000000,33.000000,-84.000000,-3.000000
1309926.513194,-9.000000,-113.000000,-6.000000,8.000000,-6.000000,-25.000000,62.000000,5.000000
1309926.519778,10.000000,23.000000,-9.000000,14.000000,21.000000,-37.000000,-9.000000,16.000000
1309926.519811,-1.000000,15.000000,2.000000,33.000000,9.000000,3.000000,32.000000,-31.000000
1309926.534464,2.000000,1.000000,0.000000,-38.000000,5.000000,74.000000,74.000000,36.000000
1309926.534493,0.000000,10.000000,2.000000,1.000000,-3.000000,-59.000000,58.000000,-29.000000
1309926.557138,6.000000,-6.000000,-1.000000,-5.000000,14.000000,-31.000000,-12.000000,-4.000000
1309926.557167,-8.000000,-4.000000,-6.000000,-9.000000,10.000000,32.000000,33.000000,13.000000
1309926.594602,1.000000,-13.000000,-4.000000,-26.000000,-13.000000,-70.000000,-92.000000,5.000000
1309926.594614,5.000000,15.000000,0.000000,16.000000,32.000000,64.000000,117.000000,47.000000
1309926.609608,-5.000000,90.000000,2.000000,-58.000000,18.000000,9.000000,25.000000,4.000000
1309926.609620,-5.000000,-85.000000,16.000000,39.000000,-20.000000,-33.000000,-20.000000,-23.000000
1309926.610540,-2.000000,-102.000000,-13.000000,19.000000,-3.000000,-17.000000,-62.000000,10.000000
1309926.610559,-17.000000,-18.000000,-7.000000,-59.000000,5.000000,23.000000,47.000000,10.000000
1309926.611496,5.000000,62.000000,9.000000,14.000000,-4.000000,-8.000000,20.000000,-14.000000
1309926.611530,-7.000000,-22.000000,-11.000000,22.000000,-15.000000,-30.000000,-16.000000,-11.000000
1309926.612767,1.000000,-6.000000,3.000000,62.000000,5.000000,12.000000,-10.000000,-17.000000
1309926.612807,-2.000000,-2.000000,2.000000,-54.000000,0.000000,-29.000000,-38.000000,2.000000
1309926.632059,-3.000000,-38.000000,-6.000000,19.000000,-20.000000,-44.000000,65.000000,10.000000
1309926.632079,-12.000000,17.000000,-9.000000,-21.000000,16.000000,40.000000,-18.000000,-19.000000
1309926.633839,-1.000000,18.000000,1.000000,24.000000,-4.000000,9.000000,-36.000000,57.000000
1309926.633853,12.000000,15.000000,20.000000,3.000000,-19.000000,-34.000000,32.000000,-5.000000
1309926.639612,-17.000000,-3.000000,5.000000,39.000000,4.000000,61.000000,-22.000000,-13.000000
1309926.639623,1.000000,-12.000000,-7.000000,24.000000,10.000000,80.000000,2.000000,3.000000
1309926.669611,3.000000,25.000000,-17.000000,20.000000,-14.000000,-77.000000,18.000000,-4.000000
1309926.669671,-12.000000,-75.000000,-1.000000,-83.000000,1.000000,33.000000,-34.000000,-14.000000
1309926.676959,-13.000000,-30.000000,-1.000000,18.000000,18.000000,18.000000,81.000000,3.000000
1309926.676970,4.000000,12.000000,-6.000000,6.000000,-3.000000,-6.000000,4.000000,9.000000
1309926.714750,16.000000,29.000000,7.000000,21.000000,3.000000,-16.000000,-40.000000,-5.000000
1309926.714768,-20.000000,-47.000000,-12.000000,-5.000000,26.000000,25.000000,7.000000,-10.000000
1309926.715304,-8.000000,9.000000,4.000000,20.000000,-10.000000,2.000000,-29.000000,-20.000000
1309926.715318,7.000000,26.000000,4.000000,-41.000000,-5.000000,-19.000000,0.000000,9.000000
1309926.716251,-6.000000,-3.000000,3.000000,38.000000,3.000000,-27.000000,-16.000000,-10.000000
1309926.716260,-4.000000,0.000000,-7.000000,3.000000,4.000000,20.000000,9.000000,-12.000000
1309926.717147,17.000000,8.000000,-1.000000,-20.000000,-17.000000,2.000000,-9.000000,10.000000
1309926.717160,-8.000000,-16.000000,-3.000000,5.000000,7.000000,-33.000000,-33.000000,-25.000000
1309926.718788,-4.000000,20.000000,-2.000000,6.000000,12.000000,52.000000,127.000000,17.000000
1309926.718805,-11.000000,-35.000000,-1.000000,21.000000,-9.000000,-12.000000,19.000000,-13.000000
1309926.729494,4.000000,56.000000,13.000000,12.000000,3.000000,-8.000000,-31.000000,22.000000
1309926.729504,-11.000000,-70.000000,-2.000000,40.000000,3.000000,52.000000,-5.000000,-21.000000
1309926.731433,10.000000,54.000000,-2.000000,6.000000,-10.000000,-128.000000,-29.000000,2.000000
1309926.731468,6.000000,49.000000,-1.000000,26.000000,8.000000,8.000000,37.000000,3.000000
1309926.752724,6.000000,-55.000000,-14.000000,-43.000000,6.000000,53.000000,-4.000000,-15.000000
1309926.752737,-4.000000,57.000000,6.000000,-1.000000,-10.000000,10.000000,-38.000000,14.000000
1309926.774670,4.000000,6.000000,-1.000000,-51.000000,-10.000000,-46.000000,-39.000000,-20.000000
1309926.774698,6.000000,7.000000,3.000000,27.000000,7.000000,26.000000,-42.000000,4.000000
1309926.789736,-3.000000,-4.000000,-4.000000,31.000000,6.000000,-2.000000,36.000000,0.000000
1309926.789748,-13.000000,-15.000000,7.000000,22.000000,-9.000000,-62.000000,-29.000000,-9.000000
1309926.834715,0.000000,15.000000,9.000000,-2.000000,-12.000000,30.000000,117.000000,-14.000000
1309926.834835,4.000000,-1.000000,-10.000000,-9.000000,22.000000,37.000000,13.000000,-9.000000
1309926.835129,-2.000000,5.000000,8.000000,4.000000,-5.000000,4.000000,-36.000000,-12.000000
1309926.835141,-13.000000,-9.000000,-8.000000,20.000000,-1.000000,-14.000000,-21.000000,26.000000
1309926.836229,-5.000000,-4.000000,-2.000000,0.000000,4.000000,10.000000,-10.000000,0.000000
1309926.836247,-1.000000,4.000000,3.000000,-31.000000,-4.000000,-7.000000,-66.000000,-6.000000
1309926.836908,0.000000,-48.000000,8.000000,38.000000,-30.000000,-17.000000,41.000000,2.000000
1309926.836916,4.000000,36.000000,-3.000000,-8.000000,-1.000000,-4.000000,-31.000000,-6.000000
1309926.838377,-6.000000,29.000000,9.000000,10.000000,22.000000,82.000000,7.000000,-15.000000
1309926.838387,-1.000000,-32.000000,0.000000,55.000000,-2.000000,-102.000000,-18.000000,-8.000000
1309926.849579,-19.000000,-78.000000,-9.000000,11.000000,10.000000,-49.000000,-50.000000,-5.000000
1309926.849590,11.000000,23.000000,9.000000,24.000000,3.000000,75.000000,127.000000,27.000000
1309926.850750,7.000000,2.000000,4.000000,5.000000,-32.000000,-80.000000,-63.000000,-11.000000
1309926.850766,-7.000000,-43.000000,-1.000000,-3.000000,12.000000,38.000000,10.000000,29.000000
1309926.872292,3.000000,15.000000,-1.000000,50.000000,8.000000,46.000000,-17.000000,0.000000
1309926.872321,-2.000000,23.000000,4.000000,-20.000000,-24.000000,-42.000000,12.000000,-5.000000
1309926.873304,-2.000000,-60.000000,-17.000000,-54.000000,3.000000,40.000000,24.000000,-6.000000
1309926.873311,0.000000,27.000000,-3.000000,24.000000,21.000000,73.000000,28.000000,4.000000
1309926.887058,1.000000,4.000000,-8.000000,-56.000000,-16.000000,-35.000000,-53.000000,-16.000000
1309926.887069,-12.000000,-78.000000,-3.000000,-60.000000,-2.000000,40.000000,71.000000,-21.000000
1309926.909859,5.000000,17.000000,6.000000,25.000000,-4.000000,-1.000000,-32.000000,-10.000000
1309926.909872,3.000000,16.000000,2.000000,10.000000,1.000000,25.000000,2.000000,4.000000
1309926.932161,12.000000,35.000000,-12.000000,-14.000000,-22.000000,5.000000,-9.000000,-13.000000
1309926.932185,-6.000000,-33.000000,-1.000000,-64.000000,6.000000,45.000000,-33.000000,16.000000
1309926.948260,-15.000000,-15.000000,1.000000,-44.000000,-17.000000,-33.000000,-24.000000,-6.000000
1309926.948278,12.000000,28.000000,1.000000,25.000000,-12.000000,-35.000000,-27.000000,-12.000000
1309926.948442,0.000000,-3.000000,-3.000000,44.000000,-3.000000,-69.000000,-49.000000,-22.000000
1309926.948474,-1.000000,-6.000000,2.000000,-7.000000,19.000000,64.000000,65.000000,7.000000
1309926.949965,-1.000000,-3.000000,2.000000,18.000000,-5.000000,-14.000000,-26.000000,-6.000000
1309926.949991,0.000000,-4.000000,0.000000,9.000000,-8.000000,-25.000000,71.000000,-12.000000
1309926.951026,12.000000,94.000000,-2.000000,-31.000000,-1.000000,-59.000000,-67.000000,22.000000
1309926.951142,-17.000000,-94.000000,0.000000,4.000000,-6.000000,33.000000,-3.000000,-12.000000
1309926.955029,-4.000000,-106.000000,3.000000,31.000000,-5.000000,-46.000000,-7.000000,-18.000000
1309926.955040,14.000000,32.000000,1.000000,-14.000000,-2.000000,57.000000,-31.000000,-25.000000
1309926.970312,-12.000000,13.000000,-12.000000,34.000000,14.000000,-11.000000,17.000000,15.000000
1309926.970328,-8.000000,7.000000,-9.000000,-38.000000,27.000000,66.000000,60.000000,-3.000000
1309926.971080,5.000000,-25.000000,13.000000,52.000000,-13.000000,-21.000000,14.000000,17.000000
1309926.971090,-2.000000,30.000000,10.000000,23.000000,30.000000,37.000000,-6.000000,-5.000000
1309926.992009,-2.000000,-4.000000,-7.000000,37.000000,2.000000,-19.000000,-10.000000,-22.000000
1309926.992028,9.000000,-3.000000,1.000000,9.000000,-2.000000,-59.000000,7.000000,19.000000
1309926.993186,-8.000000,21.000000,-6.000000,7.000000,-2.000000,47.000000,32.000000,0.000000
1309926.993195,-17.000000,-61.000000,-8.000000,-29.000000,-7.000000,-44.000000,-23.000000,-17.000000
1309927.007277,8.000000,59.000000,-8.000000,5.000000,-12.000000,-54.000000,20.000000,-9.000000
1309927.007305,-7.000000,-33.000000,-5.000000,21.000000,8.000000,90.000000,-35.000000,-9.000000
1309927.029766,1.000000,-32.000000,7.000000,9.000000,-16.000000,-14.000000,-7.000000,0.000000
1309927.029784,2.000000,19.000000,-9.000000,-41.000000,-5.000000,-62.000000,-5.000000,25.000000
1309927.037251,-8.000000,34.000000,12.000000,80.000000,12.000000,-11.000000,-13.000000,-14.000000
1309927.037262,0.000000,-37.000000,-3.000000,11.000000,8.000000,11.000000,46.000000,-5.000000
1309927.052344,5.000000,42.000000,2.000000,-49.000000,-22.000000,-12.000000,50.000000,-12.000000
1309927.052369,4.000000,-3.000000,16.000000,17.000000,-10.000000,-7.000000,-22.000000,11.000000
1309927.052810,5.000000,24.000000,-3.000000,10.000000,1.000000,8.000000,61.000000,22.000000
1309927.052986,7.000000,31.000000,-9.000000,44.000000,3.000000,10.000000,-69.000000,-7.000000
1309927.053927,6.000000,7.000000,12.000000,30.000000,-1.000000,0.000000,60.000000,9.000000
1309927.053935,-22.000000,-27.000000,23.000000,15.000000,0.000000,21.000000,-44.000000,-10.000000
1309927.067148,1.000000,26.000000,2.000000,12.000000,-1.000000,-26.000000,-39.000000,-1.000000
1309927.067191,6.000000,-15.000000,-4.000000,-34.000000,-8.000000,12.000000,127.000000,-15.000000
1309927.089582,8.000000,-8.000000,-14.000000,-22.000000,17.000000,-13.000000,4.000000,13.000000
1309927.089607,-15.000000,1.000000,0.000000,14.000000,7.000000,40.000000,-104.000000,-28.000000
1309927.090008,-5.000000,35.000000,2.000000,-108.000000,-3.000000,-91.000000,74.000000,-5.000000
1309927.090030,13.000000,6.000000,1.000000,-18.000000,-22.000000,-44.000000,-1.000000,24.000000
1309927.091607,-16.000000,-1.000000,-7.000000,-1.000000,6.000000,4.000000,-10.000000,3.000000
1309927.091616,-7.000000,-40.000000,-8.000000,7.000000,-10.000000,10.000000,27.000000,8.000000
1309927.112093,-7.000000,14.000000,-5.000000,-12.000000,-10.000000,-78.000000,-30.000000,-26.000000
1309927.112117,-2.000000,4.000000,-12.000000,-3.000000,17.000000,38.000000,101.000000,30.000000
1309927.113386,-1.000000,2.000000,7.000000,-10.000000,-1.000000,12.000000,-66.000000,2.000000
1309927.113395,4.000000,-12.000000,-3.000000,9.000000,-10.000000,-41.000000,-27.000000,-1.000000
1309927.120182,-1.000000,-6.000000,-3.000000,-7.000000,10.000000,44.000000,-23.000000,-4.000000
1309927.120247,-15.000000,22.000000,12.000000,7.000000,17.000000,28.000000,-18.000000,-16.000000
1309927.150536,3.000000,-9.000000,-10.000000,-11.000000,-9.000000,-2.000000,-17.000000,31.000000
1309927.150557,6.000000,17.000000,-4.000000,9.000000,2.000000,-8.000000,-36.000000,-19.000000
1309927.156942,1.000000,-51.000000,4.000000,-35.000000,9.000000,7.000000,-31.000000,-3.000000
1309927.156966,-11.000000,23.000000,1.000000,8.000000,-5.000000,2.000000,120.000000,4.000000
1309927.172069,-9.000000,-43.000000,7.000000,21.000000,-3.000000,-45.000000,-30.000000,-23.000000
1309927.172086,-4.000000,13.000000,2.000000,15.000000,1.000000,44.000000,-3.000000,25.000000
1309927.172473,7.000000,19.000000,-4.000000,-12.000000,5.000000,-90.000000,-37.000000,-14.000000
1309927.172481,3.000000,13.000000,1.000000,-38.000000,-24.000000,11.000000,-23.000000,-32.000000
1309927.173940,-6.000000,-8.000000,-4.000000,-6.000000,24.000000,-41.000000,5.000000,-6.000000
1309927.173956,1.000000,9.000000,-21.000000,-128.000000,18.000000,107.000000,14.000000,-2.000000
1309927.189300,-3.000000,18.000000,18.000000,22.000000,-18.000000,-25.000000,31.000000,-5.000000
1309927.189341,-3.000000,-38.000000,-21.000000,18.000000,26.000000,-1.000000,92.000000,-22.000000
1309927.194440,4.000000,27.000000,12.000000,15.000000,4.000000,-42.000000,8.000000,34.000000
1309927.194451,7.000000,6.000000,6.000000,-1.000000,-13.000000,-22.000000,6.000000,-20.000000
1309927.209716,-8.000000,5.000000,4.000000,18.000000,-11.000000,4.000000,-9.000000,10.000000
1309927.209730,-2.000000,-69.000000,1.000000,-41.000000,11.000000,10.000000,-25.000000,22.000000
1309927.224803,-3.000000,27.000000,4.000000,39.000000,7.000000,13.000000,-22.000000,22.000000
1309927.224818,-5.000000,-27.000000,0.000000,17.000000,-6.000000,-15.000000,62.000000,3.000000
1309927.225324,-1.000000,-16.000000,2.000000,-25.000000,17.000000,54.000000,126.000000,3.000000
1309927.225334,4.000000,26.000000,-4.000000,39.000000,5.000000,28.000000,-13.000000,29.000000
1309927.232748,3.000000,17.000000,0.000000,8.000000,-9.000000,-24.000000,-39.000000,-14.000000
1309927.232759,-7.000000,-17.000000,-1.000000,1.000000,3.000000,-12.000000,17.000000,-26.000000
1309927.247277,-4.000000,-8.000000,-5.000000,-9.000000,19.000000,-28.000000,20.000000,5.000000
1309927.247329,2.000000,21.000000,12.000000,39.000000,-9.000000,14.000000,44.000000,4.000000
1309927.284471,7.000000,31.000000,-3.000000,-1.000000,6.000000,22.000000,-54.000000,-4.000000
1309927.284483,-6.000000,-50.000000,-4.000000,28.000000,4.000000,11.000000,-26.000000,-10.000000
1309927.292176,-16.000000,3.000000,-3.000000,23.000000,8.000000,20.000000,59.000000,-24.000000
1309927.292193,9.000000,-14.000000,2.000000,-4.000000,-19.000000,-51.000000,-59.000000,-4.000000
1309927.329560,-1.000000,-17.000000,6.000000,3.000000,-4.000000,29.000000,-42.000000,5.000000
1309927.329570,-11.000000,0.000000,-4.000000,-11.000000,11.000000,24.000000,94.000000,-9.000000
1309927.329841,-8.000000,4.000000,-3.000000,-11.000000,4.000000,-20.000000,-35.000000,-44.000000
1309927.329849,15.000000,27.000000,1.000000,57.000000,10.000000,21.000000,96.000000,54.000000
1309927.331529,1.000000,21.000000,7.000000,-13.000000,8.000000,52.000000,-48.000000,6.000000
1309927.331546,-4.000000,15.000000,-10.000000,-26.000000,-10.000000,1.000000,-14.000000,1.000000
1309927.333027,-3.000000,-85.000000,-4.000000,11.000000,-12.000000,51.000000,-48.000000,-3.000000
1309927.333066,-4.000000,3.000000,6.000000,1.000000,6.000000,36.000000,35.000000,-22.000000
1309927.334399,2.000000,10.000000,9.000000,49.000000,18.000000,24.000000,-21.000000,19.000000
1309927.334409,-7.000000,-6.000000,-8.000000,16.000000,22.000000,25.000000,15.000000,3.000000
1309927.344616,2.000000,26.000000,-3.000000,21.000000,0.000000,33.000000,16.000000,11.000000
1309927.344644,-2.000000,-33.000000,1.000000,0.000000,3.000000,19.000000,42.000000,-2.000000
1309927.352469,-7.000000,-44.000000,-4.000000,13.000000,9.000000,-77.000000,-22.000000,-11.000000
1309927.352480,7.000000,21.000000,-2.000000,-28.000000,-20.000000,-22.000000,-30.000000,-13.000000
1309927.389605,0.000000,63.000000,15.000000,58.000000,-31.000000,-128.000000,-95.000000,3.000000
1309927.389650,2.000000,-93.000000,-13.000000,-48.000000,15.000000,28.000000,-14.000000,-16.000000
1309927.404673,-1.000000,8.000000,-1.000000,15.000000,-9.000000,-14.000000,25.000000,-11.000000
1309927.404684,-1.000000,12.000000,-3.000000,-2.000000,-22.000000,-98.000000,-2.000000,-7.000000
1309927.441963,6.000000,26.000000,-8.000000,-7.000000,6.000000,61.000000,-29.000000,-6.000000
1309927.441974,-11.000000,-18.000000,-3.000000,-30.000000,0.000000,44.000000,62.000000,9.000000
1309927.449740,-2.000000,-23.000000,6.000000,14.000000,-10.000000,-10.000000,-8.000000,-4.000000
1309927.449751,3.000000,20.000000,4.000000,-12.000000,2.000000,0.000000,-15.000000,-4.000000
1309927.465265,-4.000000,-4.000000,-10.000000,-16.000000,19.000000,31.000000,-17.000000,-4.000000
1309927.465292,6.000000,20.000000,-11.000000,-58.000000,-13.000000,9.000000,105.000000,13.000000
1309927.465765,3.000000,13.000000,0.000000,24.000000,-2.000000,-46.000000,-31.000000,-1.000000
1309927.465792,-17.000000,-35.000000,1.000000,-8.000000,1.000000,75.000000,-51.000000,-3.000000
1309927.466235,-6.000000,18.000000,-1.000000,25.000000,9.000000,-12.000000,14.000000,9.000000
1309927.466246,-4.000000,25.000000,-6.000000,-50.000000,13.000000,28.000000,-26.000000,2.000000
1309927.466859,-29.000000,-128.000000,3.000000,-19.000000,12.000000,67.000000,60.000000,4.000000
1309927.466867,16.000000,31.000000,-1.000000,18.000000,-3.000000,-38.000000,32.000000,18.000000
1309927.467510,5.000000,11.000000,-5.000000,28.000000,-2.000000,76.000000,0.000000,-16.000000
1309927.467519,-2.000000,6.000000,-8.000000,-69.000000,21.000000,20.000000,-73.000000,15.000000
1309927.468340,-1.000000,-11.000000,-5.000000,-3.000000,0.000000,-27.000000,98.000000,9.000000
1309927.468348,-6.000000,-11.000000,-2.000000,55.000000,-12.000000,-33.000000,-2.000000,-7.000000
1309927.502073,-1.000000,-19.000000,-1.000000,41.000000,14.000000,21.000000,15.000000,3.000000
1309927.502113,2.000000,10.000000,-7.000000,-32.000000,15.000000,21.000000,-8.000000,-3.000000
1309927.509468,4.000000,4.000000,4.000000,6.000000,-10.000000,-26.000000,-30.000000,-6.000000
1309927.509491,14.000000,32.000000,7.000000,10.000000,3.000000,38.000000,47.000000,2.000000
1309927.524870,-9.000000,-26.000000,-11.000000,5.000000,19.000000,52.000000,-12.000000,30.000000
1309927.524890,-9.000000,-45.000000,2.000000,-5.000000,-26.000000,-17.000000,-19.000000,8.000000
1309927.525506,11.000000,35.000000,15.000000,1.000000,-9.000000,-82.000000,35.000000,-15.000000
1309927.525521,-3.000000,-2.000000,-15.000000,-1.000000,24.000000,2.000000,-28.000000,-20.000000
1309927.526885,-8.000000,28.000000,-5.000000,14.000000,-3.000000,10.000000,-33.000000,-23.000000
1309927.526894,-3.000000,1.000000,4.000000,-9.000000,-27.000000,-60.000000,5.000000,3.000000
1309927.527615,-7.000000,-68.000000,-1.000000,3.000000,16.000000,86.000000,118.000000,16.000000
1309927.527624,-7.000000,-31.000000,4.000000,1.000000,-4.000000,-58.000000,-79.000000,-22.000000
1309927.547938,13.000000,41.000000,-6.000000,48.000000,-4.000000,25.000000,57.000000,16.000000
1309927.547971,-2.000000,-22.000000,15.000000,24.000000,4.000000,0.000000,28.000000,-11.000000
1309927.548543,-2.000000,18.000000,-2.000000,6.000000,35.000000,5.000000,8.000000,11.000000
1309927.548570,-3.000000,-4.000000,-4.000000,-10.000000,-6.000000,-34.000000,28.000000,-10.000000
1309927.562329,9.000000,-9.000000,-15.000000,-53.000000,-7.000000,35.000000,75.000000,18.000000
1309927.562339,3.000000,5.000000,-4.000000,13.000000,5.000000,-20.000000,-29.000000,2.000000
1309927.562807,0.000000,24.000000,17.000000,-5.000000,-6.000000,-26.000000,-10.000000,9.000000
1309927.562834,8.000000,63.000000,-3.000000,-16.000000,-7.000000,-10.000000,-18.000000,-14.000000
1309927.584692,-4.000000,-83.000000,-2.000000,53.000000,12.000000,0.000000,63.000000,18.000000
1309927.584712,-9.000000,-7.000000,4.000000,-19.000000,-2.000000,17.000000,-1.000000,-10.000000
1309927.585352,2.000000,7.000000,-8.000000,-33.000000,-16.000000,-31.000000,-56.000000,4.000000
1309927.585360,23.000000,41.000000,14.000000,-14.000000,12.000000,43.000000,-25.000000,8.000000
1309927.622162,-5.000000,18.000000,-8.000000,-79.000000,19.000000,-13.000000,-24.000000,-40.000000
1309927.622172,5.000000,-61.000000,-1.000000,19.000000,-23.000000,-102.000000,-9.000000,34.000000
1309927.629572,20.000000,27.000000,-2.000000,5.000000,-10.000000,-47.000000,-16.000000,-8.000000
1309927.629582,-14.000000,-14.000000,9.000000,54.000000,16.000000,57.000000,-8.000000,0.000000
1309927.667076,-2.000000,20.000000,1.000000,-13.000000,7.000000,4.000000,51.000000,-9.000000
1309927.667092,2.000000,11.000000,-6.000000,-30.000000,-22.000000,-81.000000,-53.000000,5.000000
1309927.667637,-9.000000,-27.000000,-8.000000,-22.000000,-19.000000,-27.000000,-19.000000,-1.000000
1309927.667645,-10.000000,16.000000,1.000000,23.000000,8.000000,26.000000,-4.000000,-12.000000
1309927.668704,-3.000000,-4.000000,-4.000000,37.000000,-9.000000,17.000000,-46.000000,-33.000000
1309927.668713,0.000000,9.000000,-7.000000,-1.000000,7.000000,43.000000,48.000000,22.000000
1309927.669210,-4.000000,-54.000000,-10.000000,24.000000,11.000000,43.000000,-37.000000,-10.000000
1309927.669218,-1.000000,8.000000,1.000000,-7.000000,1.000000,34.000000,-16.000000,13.000000
1309927.671050,-5.000000,15.000000,-8.000000,-11.000000,-18.000000,7.000000,-25.000000,-5.000000
1309927.671059,-8.000000,-3.000000,3.000000,-6.000000,-10.000000,-65.000000,-43.000000,-15.000000
1309927.674520,2.000000,-38.000000,7.000000,13.000000,2.000000,46.000000,-7.000000,5.000000
1309927.674542,1.000000,24.000000,2.000000,38.000000,9.000000,28.000000,80.000000,-12.000000
1309927.682111,10.000000,81.000000,-5.000000,-56.000000,-7.000000,28.000000,101.000000,18.000000
1309927.682188,-9.000000,-58.000000,-23.000000,-101.000000,0.000000,-93.000000,-43.000000,-40.000000
1309927.705568,0.000000,-31.000000,6.000000,14.000000,1.000000,20.000000,50.000000,39.000000
1309927.705584,4.000000,40.000000,-3.000000,12.000000,-3.000000,5.000000,-2.000000,-1.000000
1309927.706042,5.000000,12.000000,3.000000,13.000000,-2.000000,17.000000,0.000000,4.000000
1309927.706050,9.000000,10.000000,-19.000000,-43.000000,8.000000,-38.000000,44.000000,30.000000
1309927.726950,-9.000000,-32.000000,4.000000,64.000000,-5.000000,18.000000,91.000000,-8.000000
1309927.726961,23.000000,12.000000,1.000000,-17.000000,-19.000000,-55.000000,-23.000000,-1.000000
1309927.742415,-17.000000,-5.000000,-4.000000,-13.000000,8.000000,11.000000,-16.000000,-17.000000
1309927.742444,2.000000,20.000000,8.000000,-11.000000,-2.000000,40.000000,-28.000000,-3.000000
1309927.756828,-6.000000,6.000000,-5.000000,21.000000,-16.000000,-38.000000,-58.000000,21.000000
1309927.756838,-3.000000,-40.000000,-11.000000,-128.000000,11.000000,23.000000,60.000000,-1.000000
1309927.779888,-7.000000,7.000000,-4.000000,20.000000,-1.000000,-14.000000,-36.000000,-3.000000
1309927.779921,-2.000000,-2.000000,-5.000000,-60.000000,4.000000,-11.000000,20.000000,-28.000000
1309927.781010,17.000000,49.000000,0.000000,-45.000000,-26.000000,-11.000000,31.000000,23.000000
1309927.781042,-11.000000,-99.000000,1.000000,16.000000,-1.000000,1.000000,-39.000000,-11.000000
1309927.782270,-1.000000,54.000000,-3.000000,-22.000000,6.000000,14.000000,41.000000,10.000000
1309927.782301,-1.000000,4.000000,4.000000,-12.000000,-4.000000,-85.000000,-112.000000,15.000000
1309927.782820,4.000000,-5.000000,-1.000000,-9.000000,-14.000000,98.000000,78.000000,1.000000
1309927.782846,1.000000,10.000000,3.000000,24.000000,-10.000000,33.000000,10.000000,9.000000
1309927.786879,-6.000000,25.000000,-6.000000,-1.000000,2.000000,-13.000000,-33.000000,-24.000000
1309927.786887,-6.000000,-35.000000,-2.000000,-15.000000,3.000000,38.000000,14.000000,13.000000
1309927.801994,-1.000000,-6.000000,-16.000000,-43.000000,9.000000,34.000000,-7.000000,-27.000000
1309927.802004,0.000000,13.000000,8.000000,5.000000,-3.000000,-89.000000,2.000000,1.000000
1309927.802627,5.000000,13.000000,1.000000,11.000000,-18.000000,-81.000000,-20.000000,-11.000000
1309927.802655,5.000000,56.000000,0.000000,-17.000000,6.000000,30.000000,27.000000,16.000000
1309927.839676,-12.000000,-75.000000,-5.000000,24.000000,-14.000000,9.000000,43.000000,1.000000
1309927.839705,16.000000,4.000000,3.000000,-3.000000,-10.000000,-11.000000,-39.000000,3.000000
1309927.847343,3.000000,78.000000,2.000000,19.000000,-5.000000,12.000000,42.000000,7.000000
1309927.847371,-9.000000,-66.000000,4.000000,10.000000,-5.000000,-18.000000,-21.000000,-12.000000
1309927.884797,5.000000,7.000000,1.000000,22.000000,-15.000000,-10.000000,-94.000000,6.000000
1309927.884808,3.000000,-15.000000,-13.000000,-89.000000,-5.000000,31.000000,8.000000,-6.000000
1309927.899615,-9.000000,13.000000,3.000000,10.000000,17.000000,35.000000,-39.000000,-11.000000
1309927.899628,3.000000,6.000000,6.000000,68.000000,-5.000000,18.000000,15.000000,18.000000
1309927.900440,11.000000,9.000000,-8.000000,-81.000000,0.000000,6.000000,2.000000,18.000000
1309927.900449,0.000000,40.000000,3.000000,42.000000,9.000000,-33.000000,-28.000000,0.000000
1309927.901344,-13.000000,-54.000000,4.000000,6.000000,-13.000000,-34.000000,-4.000000,-18.000000
1309927.901355,-1.000000,-38.000000,-12.000000,23.000000,17.000000,44.000000,-31.000000,-7.000000
1309927.902711,1.000000,4.000000,-8.000000,-7.000000,0.000000,29.000000,-27.000000,13.000000
1309927.902730,-5.000000,69.000000,22.000000,14.000000,6.000000,47.000000,86.000000,6.000000
1309927.906713,-4.000000,-80.000000,3.000000,35.000000,6.000000,-35.000000,-55.000000,-7.000000
1309927.906785,3.000000,22.000000,8.000000,2.000000,5.000000,34.000000,-44.000000,-4.000000
1309927.922137,0.000000,10.000000,5.000000,-8.000000,5.000000,7.000000,57.000000,25.000000
1309927.922148,11.000000,-1.000000,0.000000,3.000000,-2.000000,-14.000000,-15.000000,-17.000000
1309927.922636,7.000000,2.000000,-13.000000,34.000000,16.000000,7.000000,6.000000,9.000000
1309927.922645,-14.000000,4.000000,1.000000,-5.000000,-9.000000,25.000000,8.000000,-20.000000
1309927.952055,-4.000000,-28.000000,8.000000,5.000000,-18.000000,-64.000000,-73.000000,-10.000000
1309927.952074,9.000000,39.000000,4.000000,12.000000,13.000000,9.000000,46.000000,18.000000
1309927.959480,-1.000000,66.000000,20.000000,28.000000,1.000000,91.000000,-5.000000,0.000000
1309927.959490,-8.000000,-119.000000,-15.000000,8.000000,-15.000000,-9.000000,48.000000,-10.000000
1309927.997104,9.000000,15.000000,-14.000000,-43.000000,1.000000,-54.000000,-6.000000,-2.000000
1309927.997129,-1.000000,16.000000,-10.000000,-27.000000,9.000000,34.000000,-10.000000,-13.000000
1309928.004485,4.000000,21.000000,-7.000000,-57.000000,-15.000000,-74.000000,-11.000000,13.000000
1309928.004501,-3.000000,-43.000000,0.000000,22.000000,-12.000000,-14.000000,19.000000,-3.000000
1309928.027043,-7.000000,-16.000000,3.000000,-21.000000,9.000000,-13.000000,40.000000,-5.000000
1309928.027054,10.000000,45.000000,1.000000,25.000000,-1.000000,-60.000000,-36.000000,26.000000
1309928.034636,7.000000,-31.000000,-13.000000,-71.000000,-49.000000,-39.000000,-24.000000,-23.000000
1309928.034646,-1.000000,23.000000,-8.000000,-10.000000,24.000000,61.000000,-23.000000,-17.000000
1309928.056847,-17.000000,-22.000000,6.000000,32.000000,-15.000000,-24.000000,-4.000000,-4.000000
1309928.056858,-1.000000,46.000000,9.000000,-5.000000,-1.000000,-13.000000,-30.000000,-9.000000
1309928.057959,-14.000000,-17.000000,-11.000000,-2.000000,15.000000,28.000000,21.000000,23.000000
1309928.057967,-9.000000,57.000000,-5.000000,29.000000,-9.000000,-11.000000,-21.000000,-31.000000
1309928.058619,-16.000000,-114.000000,-6.000000,7.000000,-32.000000,-62.000000,18.000000,-14.000000
1309928.058627,9.000000,42.000000,7.000000,6.000000,7.000000,62.000000,20.000000,-4.000000
1309928.059245,-4.000000,-24.000000,10.000000,34.000000,-1.000000,26.000000,-5.000000,-12.000000
1309928.059253,7.000000,-15.000000,-3.000000,-22.000000,4.000000,10.000000,-47.000000,-5.000000
1309928.064675,1.000000,22.000000,-15.000000,-41.000000,11.000000,-21.000000,42.000000,-6.000000
1309928.064687,-1.000000,16.000000,9.000000,49.000000,10.000000,76.000000,73.000000,4.000000
1309928.079541,5.000000,41.000000,6.000000,14.000000,5.000000,36.000000,-40.000000,7.000000
1309928.079552,17.000000,-68.000000,-6.000000,-6.000000,-3.000000,4.000000,57.000000,-6.000000
1309928.102125,7.000000,-1.000000,-2.000000,32.000000,18.000000,21.000000,27.000000,22.000000
1309928.102137,-6.000000,28.000000,-1.000000,-5.000000,5.000000,-15.000000,-23.000000,-4.000000
1309928.109889,-5.000000,-28.000000,-6.000000,20.000000,-17.000000,-42.000000,12.000000,14.000000
1309928.109902,-19.000000,-26.000000,7.000000,26.000000,9.000000,43.000000,5.000000,4.000000
1309928.124919,-6.000000,-16.000000,-14.000000,-39.000000,13.000000,18.000000,-17.000000,-17.000000
1309928.124934,-2.000000,4.000000,3.000000,7.000000,-2.000000,16.000000,20.000000,-12.000000
1309928.139649,9.000000,60.000000,0.000000,5.000000,-1.000000,33.000000,-50.000000,-18.000000
1309928.139679,-5.000000,-19.000000,10.000000,0.000000,14.000000,26.000000,-34.000000,23.000000
1309928.140591,-8.000000,-25.000000,-11.000000,-40.000000,-22.000000,-30.000000,43.000000,6.000000
1309928.140681,11.000000,-33.000000,-1.000000,18.000000,-10.000000,-50.000000,-13.000000,-3.000000
1309928.141270,-4.000000,41.000000,0.000000,-36.000000,11.000000,-6.000000,-44.000000,-7.000000
1309928.141283,-12.000000,-46.000000,-9.000000,30.000000,-11.000000,22.000000,21.000000,-6.000000
1309928.142623,7.000000,16.000000,13.000000,40.000000,-24.000000,-58.000000,8.000000,19.000000
1309928.142631,3.000000,3.000000,-9.000000,-15.000000,10.000000,34.000000,-35.000000,-15.000000
1309928.162332,-14.000000,8.000000,-4.000000,7.000000,17.000000,71.000000,5.000000,-10.000000
1309928.162343,10.000000,6.000000,3.000000,7.000000,-16.000000,-62.000000,-40.000000,6.000000
1309928.177403,6.000000,-38.000000,-3.000000,1.000000,-1.000000,-1.000000,-35.000000,-9.000000
1309928.177412,-4.000000,13.000000,-1.000000,-7.000000,32.000000,113.000000,23.000000,-14.000000
1309928.178198,-3.000000,-15.000000,2.000000,4.000000,-13.000000,-128.000000,-54.000000,-8.000000
1309928.178206,3.000000,48.000000,1.000000,8.000000,-15.000000,-36.000000,-15.000000,8.000000
1309928.199940,-14.000000,-52.000000,-9.000000,-46.000000,-6.000000,-12.000000,-32.000000,-14.000000
1309928.199952,-4.000000,7.000000,-12.000000,-22.000000,-2.000000,50.000000,60.000000,21.000000
1309928.229750,9.000000,4.000000,3.000000,33.000000,-4.000000,-2.000000,-42.000000,9.000000
1309928.229771,-4.000000,53.000000,17.000000,41.000000,19.000000,-39.000000,-15.000000,-7.000000
1309928.237389,-2.000000,-1.000000,8.000000,-24.000000,-8.000000,52.000000,-4.000000,-12.000000
1309928.237399,-4.000000,-60.000000,-24.000000,35.000000,-1.000000,-128.000000,34.000000,42.000000
1309928.237941,-1.000000,49.000000,-4.000000,-11.000000,-3.000000,26.000000,-70.000000,-29.000000
1309928.237949,-10.000000,-39.000000,-4.000000,-96.000000,3.000000,111.000000,25.000000,11.000000
1309928.239378,7.000000,11.000000,-1.000000,21.000000,-5.000000,-64.000000,-40.000000,-18.000000
1309928.239398,8.000000,19.000000,3.000000,-21.000000,0.000000,-11.000000,55.000000,27.000000
1309928.240301,2.000000,38.000000,14.000000,27.000000,10.000000,20.000000,-1.000000,-5.000000
1309928.240343,-6.000000,-26.000000,-12.000000,27.000000,-7.000000,49.000000,-9.000000,-8.000000
1309928.259681,5.000000,23.000000,0.000000,3.000000,-1.000000,6.000000,-23.000000,39.000000
1309928.259705,-2.000000,2.000000,-4.000000,-1.000000,-12.000000,-14.000000,73.000000,-6.000000
1309928.260802,-2.000000,-9.000000,-1.000000,-43.000000,6.000000,-27.000000,-43.000000,-15.000000
1309928.260810,1.000000,-13.000000,-6.000000,6.000000,8.000000,24.000000,42.000000,41.000000
1309928.274811,8.000000,16.000000,10.000000,14.000000,-27.000000,-5.000000,-45.000000,-15.000000
1309928.274884,-1.000000,25.000000,-4.000000,-78.000000,20.000000,12.000000,48.000000,-24.000000
1309928.275709,5.000000,-9.000000,15.000000,41.000000,7.000000,11.000000,-65.000000,-1.000000
1309928.275718,-14.000000,-51.000000,0.000000,11.000000,-13.000000,-128.000000,22.000000,-17.000000
1309928.297168,26.000000,53.000000,-14.000000,-29.000000,-4.000000,-24.000000,-37.000000,10.000000
1309928.297181,-19.000000,-51.000000,12.000000,12.000000,-4.000000,-34.000000,-10.000000,-17.000000
1309928.319598,-5.000000,3.000000,-15.000000,-30.000000,14.000000,46.000000,68.000000,18.000000
1309928.319608,13.000000,26.000000,3.000000,34.000000,-1.000000,-10.000000,-2.000000,8.000000
1309928.327152,3.000000,-14.000000,-12.000000,-24.000000,20.000000,61.000000,37.000000,13.000000
1309928.327170,0.000000,22.000000,0.000000,11.000000,8.000000,18.000000,-14.000000,-13.000000
1309928.341893,-7.000000,15.000000,6.000000,8.000000,10.000000,-128.000000,20.000000,-10.000000
1309928.341902,-1.000000,-12.000000,-13.000000,-29.000000,-10.000000,-36.000000,-100.000000,-16.000000
1309928.357574,4.000000,8.000000,0.000000,7.000000,13.000000,38.000000,81.000000,31.000000
1309928.357585,2.000000,20.000000,2.000000,-13.000000,-13.000000,-5.000000,-21.000000,-19.000000
1309928.379876,-3.000000,-38.000000,-9.000000,-8.000000,-14.000000,-78.000000,-35.000000,-8.000000
1309928.379899,-8.000000,56.000000,-5.000000,23.000000,27.000000,71.000000,0.000000,-2.000000
1309928.380512,-7.000000,-26.000000,11.000000,45.000000,-12.000000,-12.000000,-48.000000,-28.000000
1309928.380528,8.000000,-59.000000,5.000000,-47.000000,-19.000000,-17.000000,127.000000,97.000000
1309928.381879,-11.000000,14.000000,-14.000000,-33.000000,9.000000,-48.000000,-52.000000,-40.000000
1309928.381888,-2.000000,19.000000,0.000000,-14.000000,8.000000,46.000000,-10.000000,21.000000
1309928.382423,1.000000,29.000000,-3.000000,6.000000,-20.000000,-35.000000,-26.000000,-14.000000
1309928.382447,0.000000,-26.000000,2.000000,-12.000000,-11.000000,-53.000000,3.000000,19.000000
1309928.386692,5.000000,17.000000,-8.000000,36.000000,-5.000000,-101.000000,-15.000000,-5.000000
1309928.386714,-8.000000,-1.000000,11.000000,-14.000000,0.000000,-94.000000,-20.000000,-25.000000
1309928.395258,13.000000,1.000000,-9.000000,5.000000,3.000000,66.000000,51.000000,41.000000
1309928.395267,1.000000,58.000000,-4.000000,9.000000,-33.000000,-128.000000,-45.000000,-22.000000
1309928.416987,-16.000000,-115.000000,-7.000000,-13.000000,14.000000,52.000000,-25.000000,-17.000000
1309928.416998,-8.000000,9.000000,12.000000,18.000000,-2.000000,31.000000,-12.000000,-15.000000
1309928.432065,5.000000,71.000000,-12.000000,-34.000000,16.000000,26.000000,81.000000,-10.000000
1309928.432075,-13.000000,-82.000000,4.000000,10.000000,-4.000000,-19.000000,39.000000,9.000000
1309928.439756,5.000000,23.000000,-1.000000,-14.000000,16.000000,69.000000,-34.000000,-11.000000
1309928.439767,10.000000,16.000000,-4.000000,-11.000000,2.000000,21.000000,2.000000,-21.000000
1309928.469555,3.000000,22.000000,-4.000000,6.000000,2.000000,-33.000000,-20.000000,3.000000
1309928.469576,-11.000000,-82.000000,-7.000000,8.000000,-4.000000,-6.000000,-42.000000,-16.000000
1309928.477087,-6.000000,65.000000,15.000000,4.000000,-11.000000,7.000000,73.000000,19.000000
1309928.477096,2.000000,-43.000000,-13.000000,-39.000000,-5.000000,-17.000000,-32.000000,1.000000
1309928.499844,-1.000000,7.000000,-16.000000,34.000000,4.000000,-60.000000,-82.000000,-43.000000
1309928.499853,6.000000,37.000000,13.000000,-19.000000,-10.000000,-11.000000,75.000000,9.000000
1309928.500451,-3.000000,13.000000,0.000000,-5.000000,-16.000000,-39.000000,18.000000,-10.000000
1309928.500461,-5.000000,-47.000000,-7.000000,-51.000000,-3.000000,3.000000,17.000000,6.000000
1309928.501877,-4.000000,49.000000,2.000000,34.000000,17.000000,41.000000,8.000000,1.000000
1309928.501906,-7.000000,-48.000000,-1.000000,15.000000,-4.000000,4.000000,-8.000000,-4.000000
1309928.514571,9.000000,20.000000,-1.000000,6.000000,-9.000000,-63.000000,-8.000000,-11.000000
1309928.514588,6.000000,40.000000,1.000000,-14.000000,5.000000,53.000000,5.000000,2.000000
1309928.515475,-4.000000,-7.000000,-15.000000,-102.000000,18.000000,-20.000000,68.000000,2.000000
1309928.515484,11.000000,51.000000,8.000000,24.000000,-2.000000,-4.000000,-40.000000,21.000000
1309928.517080,-3.000000,-45.000000,-6.000000,-1.000000,2.000000,3.000000,-41.000000,-33.000000
1309928.517092,-4.000000,0.000000,-12.000000,-75.000000,-2.000000,42.000000,-47.000000,-1.000000
1309928.537288,0.000000,13.000000,-1.000000,10.000000,27.000000,15.000000,-7.000000,1.000000
1309928.537299,2.000000,3.000000,1.000000,-8.000000,0.000000,-14.000000,-4.000000,-21.000000
1309928.559539,-1.000000,-8.000000,1.000000,18.000000,5.000000,6.000000,-53.000000,-10.000000
1309928.559575,-1.000000,0.000000,-3.000000,-14.000000,-10.000000,-48.000000,-26.000000,14.000000
1309928.574563,0.000000,29.000000,10.000000,16.000000,8.000000,3.000000,-50.000000,-19.000000
1309928.574592,-9.000000,-26.000000,-6.000000,-9.000000,-40.000000,-42.000000,1.000000,11.000000
1309928.597070,12.000000,41.000000,-1.000000,28.000000,2.000000,51.000000,-32.000000,16.000000
1309928.597097,-16.000000,-20.000000,-3.000000,40.000000,7.000000,-72.000000,-62.000000,-28.000000
1309928.597531,4.000000,8.000000,10.000000,22.000000,16.000000,2.000000,16.000000,7.000000
1309928.597542,4.000000,-18.000000,-11.000000,47.000000,3.000000,-24.000000,-32.000000,-23.000000
1309928.598655,1.000000,-14.000000,-12.000000,-76.000000,14.000000,18.000000,-38.000000,-12.000000
1309928.598714,0.000000,29.000000,9.000000,-12.000000,-8.000000,-79.000000,-29.000000,10.000000
1309928.599420,8.000000,-10.000000,6.000000,21.000000,-19.000000,-41.000000,-12.000000,2.000000
1309928.599428,-3.000000,27.000000,-7.000000,-40.000000,-13.000000,27.000000,-21.000000,-30.000000
1309928.611878,6.000000,10.000000,-18.000000,-43.000000,0.000000,8.000000,6.000000,-5.000000
1309928.611887,-6.000000,-34.000000,1.000000,36.000000,-8.000000,25.000000,55.000000,18.000000
1309928.619713,2.000000,33.000000,1.000000,1.000000,-5.000000,-34.000000,-26.000000,8.000000
1309928.619742,0.000000,19.000000,15.000000,-9.000000,-5.000000,-24.000000,-28.000000,-24.000000
1309928.634673,-4.000000,-7.000000,-2.000000,25.000000,18.000000,44.000000,-35.000000,10.000000
1309928.634703,-5.000000,-42.000000,-10.000000,-69.000000,-22.000000,4.000000,101.000000,-4.000000
1309928.635902,2.000000,29.000000,-3.000000,17.000000,9.000000,-11.000000,-40.000000,-8.000000
1309928.635910,2.000000,32.000000,-2.000000,15.000000,3.000000,-17.000000,-12.000000,6.000000
1309928.657065,-5.000000,-10.000000,11.000000,-11.000000,1.000000,5.000000,-39.000000,-12.000000
1309928.657075,1.000000,10.000000,6.000000,17.000000,-29.000000,12.000000,56.000000,4.000000
1309928.694669,-7.000000,47.000000,4.000000,3.000000,6.000000,61.000000,-49.000000,-24.000000
1309928.694689,-6.000000,-92.000000,-3.000000,37.000000,16.000000,1.000000,35.000000,-3.000000
1309928.702038,-2.000000,12.000000,-3.000000,2.000000,-28.000000,-92.000000,-45.000000,-1.000000
1309928.702047,3.000000,47.000000,-3.000000,0.000000,4.000000,-27.000000,-11.000000,-7.000000
1309928.717376,-14.000000,-61.000000,-4.000000,3.000000,28.000000,67.000000,5.000000,-2.000000
1309928.717388,12.000000,13.000000,0.000000,17.000000,12.000000,32.000000,-21.000000,-2.000000
1309928.725137,3.000000,2.000000,-3.000000,15.000000,-4.000000,10.000000,103.000000,23.000000
1309928.725151,-4.000000,13.000000,6.000000,1.000000,13.000000,50.000000,20.000000,11.000000
1309928.739415,-2.000000,49.000000,5.000000,-49.000000,-12.000000,28.000000,94.000000,14.000000
1309928.739438,-18.000000,-47.000000,-1.000000,27.000000,-14.000000,-64.000000,-30.000000,-40.000000
1309928.754525,-7.000000,-48.000000,-19.000000,-115.000000,9.000000,-33.000000,-43.000000,-8.000000
1309928.754535,-1.000000,43.000000,10.000000,30.000000,7.000000,39.000000,88.000000,2.000000
1309928.777669,3.000000,-18.000000,-6.000000,5.000000,-1.000000,-17.000000,-2.000000,-5.000000
1309928.777688,7.000000,21.000000,-17.000000,3.000000,20.000000,35.000000,-32.000000,-14.000000
1309928.791961,1.000000,37.000000,8.000000,-8.000000,-4.000000,-29.000000,-31.000000,-7.000000
1309928.791972,-15.000000,-53.000000,5.000000,-41.000000,-5.000000,-14.000000,58.000000,-9.000000
1309928.793142,-7.000000,-3.000000,-14.000000,-36.000000,-12.000000,-63.000000,-19.000000,-16.000000
1309928.793174,3.000000,22.000000,2.000000,3.000000,-4.000000,32.000000,20.000000,-7.000000
1309928.793710,-9.000000,9.000000,3.000000,2.000000,-3.000000,-34.000000,5.000000,6.000000
1309928.793729,23.000000,5.000000,2.000000,60.000000,-13.000000,17.000000,62.000000,47.000000
1309928.794293,-1.000000,28.000000,-16.000000,31.000000,-16.000000,14.000000,-27.000000,3.000000
1309928.794309,-21.000000,-54.000000,-16.000000,-99.000000,5.000000,1.000000,-37.000000,-10.000000
1309928.814680,6.000000,2.000000,-5.000000,-16.000000,1.000000,-3.000000,0.000000,13.000000
1309928.814691,1.000000,-28.000000,-4.000000,-22.000000,-13.000000,-13.000000,83.000000,16.000000
1309928.815611,1.000000,26.000000,-2.000000,46.000000,2.000000,8.000000,-10.000000,-9.000000
1309928.815619,-13.000000,34.000000,4.000000,9.000000,7.000000,4.000000,6.000000,-3.000000
1309928.816343,-3.000000,-31.000000,3.000000,16.000000,-27.000000,-56.000000,-52.000000,17.000000
1309928.816351,-4.000000,31.000000,-1.000000,18.000000,18.000000,78.000000,8.000000,-4.000000
1309928.830421,-11.000000,-41.000000,2.000000,15.000000,23.000000,-26.000000,-29.000000,2.000000
1309928.830431,1.000000,20.000000,-23.000000,1.000000,-8.000000,-8.000000,-3.000000,-5.000000
1309928.837018,11.000000,-46.000000,-5.000000,-3.000000,-18.000000,-44.000000,-26.000000,-13.000000
1309928.837026,6.000000,35.000000,9.000000,20.000000,16.000000,6.000000,-10.000000,-14.000000
1309928.852549,-10.000000,7.000000,13.000000,17.000000,-8.000000,-57.000000,-53.000000,-14.000000
1309928.852572,3.000000,3.000000,5.000000,46.000000,-3.000000,6.000000,-10.000000,-7.000000
1309928.859516,-1.000000,-9.000000,-26.000000,-90.000000,0.000000,-53.000000,11.000000,46.000000
1309928.859527,-6.000000,-8.000000,-5.000000,-4.000000,-6.000000,7.000000,-15.000000,-14.000000
1309928.889519,-1.000000,-1.000000,-7.000000,-7.000000,-12.000000,20.000000,-24.000000,-6.000000
1309928.889529,-9.000000,-7.000000,-6.000000,16.000000,6.000000,-14.000000,-66.000000,-21.000000
1309928.897290,7.000000,-3.000000,0.000000,10.000000,-11.000000,42.000000,34.000000,16.000000
1309928.897300,8.000000,71.000000,5.000000,31.000000,-12.000000,-44.000000,-36.000000,-3.000000
1309928.912559,-17.000000,-105.000000,1.000000,1.000000,-4.000000,52.000000,-30.000000,6.000000
1309928.912569,0.000000,18.000000,-9.000000,-5.000000,-13.000000,-121.000000,9.000000,12.000000
1309928.913223,14.000000,28.000000,1.000000,-75.000000,-5.000000,23.000000,-10.000000,9.000000
1309928.913253,-12.000000,-45.000000,-14.000000,17.000000,-6.000000,-31.000000,127.000000,23.000000
1309928.914675,0.000000,13.000000,-5.000000,1.000000,9.000000,63.000000,-12.000000,0.000000
1309928.914701,2.000000,24.000000,-5.000000,27.000000,-8.000000,-97.000000,-33.000000,-24.000000
1309928.934653,9.000000,22.000000,8.000000,-15.000000,-14.000000,-12.000000,49.000000,67.000000
1309928.934679,-6.000000,-12.000000,16.000000,17.000000,25.000000,33.000000,37.000000,12.000000
1309928.949574,-7.000000,12.000000,-6.000000,-2.000000,23.000000,78.000000,42.000000,7.000000
1309928.949584,5.000000,24.000000,5.000000,18.000000,-8.000000,2.000000,21.000000,-13.000000
1309928.957366,7.000000,-71.000000,-7.000000,7.000000,-11.000000,-3.000000,46.000000,-8.000000
1309928.957379,0.000000,-1.000000,-21.000000,-41.000000,33.000000,39.000000,13.000000,30.000000
1309928.972360,-7.000000,29.000000,1.000000,-22.000000,0.000000,26.000000,-7.000000,-7.000000
1309928.972371,-12.000000,-46.000000,-6.000000,6.000000,2.000000,-94.000000,-21.000000,-12.000000
1309928.973231,0.000000,3.000000,2.000000,5.000000,3.000000,-36.000000,-29.000000,29.000000
1309928.973263,2.000000,53.000000,10.000000,24.000000,4.000000,67.000000,11.000000,2.000000
1309928.975488,3.000000,-45.000000,-1.000000,30.000000,-19.000000,-42.000000,-37.000000,-5.000000
1309928.975541,0.000000,12.000000,-2.000000,-11.000000,5.000000,54.000000,-14.000000,-2.000000
1309928.979612,0.000000,23.000000,10.000000,38.000000,6.000000,17.000000,73.000000,7.000000
1309928.979632,3.000000,0.000000,-6.000000,14.000000,0.000000,-3.000000,-64.000000,5.000000
1309928.987857,-17.000000,-37.000000,-4.000000,25.000000,-7.000000,-5.000000,-45.000000,-4.000000
1309928.987869,12.000000,26.000000,7.000000,-50.000000,1.000000,58.000000,-21.000000,7.000000
1309928.994501,8.000000,10.000000,-6.000000,-4.000000,-7.000000,-4.000000,31.000000,6.000000
1309928.994511,10.000000,5.000000,1.000000,-28.000000,-5.000000,-30.000000,2.000000,-16.000000
1309929.017138,4.000000,-26.000000,-10.000000,-25.000000,1.000000,9.000000,-13.000000,-10.000000
1309929.017149,-3.000000,-4.000000,-10.000000,-1.000000,-11.000000,60.000000,22.000000,1.000000
1309929.031918,3.000000,44.000000,-4.000000,-28.000000,-16.000000,-111.000000,-11.000000,2.000000
1309929.031928,-10.000000,-61.000000,-6.000000,-3.000000,-3.000000,14.000000,-48.000000,-21.000000
1309929.061812,-1.000000,9.000000,1.000000,27.000000,9.000000,34.000000,43.000000,-6.000000
1309929.061824,-1.000000,31.000000,-1.000000,32.000000,-1.000000,20.000000,26.000000,-15.000000
1309929.069611,1.000000,-26.000000,0.000000,20.000000,-3.000000,-12.000000,-9.000000,46.000000
1309929.069628,1.000000,-6.000000,-12.000000,-38.000000,29.000000,3.000000,-21.000000,-22.000000
1309929.070531,2.000000,-2.000000,-8.000000,17.000000,-10.000000,21.000000,5.000000,-24.000000
1309929.070557,2.000000,53.000000,9.000000,27.000000,-8.000000,-43.000000,-40.000000,-7.000000
1309929.071104,-4.000000,9.000000,-7.000000,16.000000,7.000000,24.000000,23.000000,10.000000
1309929.071132,0.000000,-37.000000,-2.000000,-41.000000,9.000000,-17.000000,-22.000000,-10.000000
1309929.072692,3.000000,-1.000000,-6.000000,73.000000,-13.000000,-24.000000,2.000000,17.000000
1309929.072704,-7.000000,26.000000,-13.000000,-82.000000,-6.000000,20.000000,-21.000000,-12.000000
1309929.084460,-23.000000,-15.000000,8.000000,34.000000,-1.000000,-36.000000,37.000000,-5.000000
1309929.084469,18.000000,20.000000,-14.000000,-45.000000,-23.000000,15.000000,-40.000000,-10.000000
1309929.092747,3.000000,13.000000,-8.000000,-1.000000,0.000000,-4.000000,-72.000000,1.000000
1309929.092757,-1.000000,-58.000000,8.000000,4.000000,1.000000,60.000000,47.000000,23.000000
1309929.099669,-3.000000,-19.000000,5.000000,9.000000,-19.000000,-14.000000,-5.000000,-18.000000
1309929.099679,5.000000,18.000000,-7.000000,-68.000000,-3.000000,-11.000000,-17.000000,-9.000000
1309929.107707,4.000000,15.000000,0.000000,33.000000,-7.000000,-57.000000,-27.000000,-10.000000
1309929.107750,-15.000000,-5.000000,-13.000000,-79.000000,-7.000000,-1.000000,-30.000000,6.000000
1309929.129599,18.000000,32.000000,6.000000,-18.000000,-22.000000,-11.000000,11.000000,44.000000
1309929.129625,6.000000,-30.000000,1.000000,21.000000,11.000000,-13.000000,-26.000000,-7.000000
1309929.174554,-16.000000,-42.000000,5.000000,23.000000,12.000000,78.000000,42.000000,-3.000000
1309929.174578,0.000000,6.000000,1.000000,1.000000,15.000000,-16.000000,-29.000000,-18.000000
1309929.182057,6.000000,53.000000,-6.000000,-67.000000,5.000000,-5.000000,-7.000000,41.000000
1309929.182068,-16.000000,-125.000000,-6.000000,-23.000000,3.000000,0.000000,-20.000000,7.000000
1309929.189893,4.000000,65.000000,-1.000000,7.000000,-12.000000,-9.000000,1.000000,-5.000000
1309929.189920,7.000000,-16.000000,11.000000,-60.000000,-23.000000,-73.000000,-60.000000,-18.000000
1309929.190896,-6.000000,-35.000000,5.000000,49.000000,26.000000,36.000000,127.000000,39.000000
1309929.190922,4.000000,32.000000,-5.000000,-26.000000,-7.000000,17.000000,-72.000000,-15.000000
1309929.212409,1.000000,-46.000000,1.000000,34.000000,-27.000000,-94.000000,-56.000000,6.000000
1309929.212433,-4.000000,12.000000,-3.000000,-9.000000,17.000000,13.000000,-30.000000,11.000000
1309929.213893,8.000000,36.000000,1.000000,-44.000000,-2.000000,-3.000000,-47.000000,12.000000
1309929.213912,-4.000000,-21.000000,-11.000000,6.000000,-8.000000,11.000000,44.000000,3.000000
1309929.215147,-6.000000,-55.000000,-9.000000,32.000000,21.000000,15.000000,2.000000,-7.000000
1309929.215156,-11.000000,55.000000,-9.000000,-60.000000,-30.000000,-75.000000,6.000000,-1.000000
1309929.226934,4.000000,-39.000000,4.000000,-8.000000,-11.000000,-29.000000,-44.000000,-42.000000
1309929.226944,17.000000,30.000000,4.000000,35.000000,10.000000,56.000000,25.000000,38.000000
1309929.228217,-14.000000,-41.000000,-12.000000,-5.000000,6.000000,7.000000,-28.000000,-27.000000
1309929.228225,3.000000,20.000000,4.000000,2.000000,-7.000000,-9.000000,105.000000,2.000000
1309929.249634,0.000000,21.000000,6.000000,-18.000000,2.000000,-60.000000,-24.000000,16.000000
1309929.249644,-5.000000,-11.000000,-10.000000,-45.000000,28.000000,101.000000,90.000000,0.000000
1309929.271955,-6.000000,-17.000000,-12.000000,46.000000,-10.000000,-35.000000,-34.000000,-17.000000
1309929.271985,12.000000,19.000000,-2.000000,24.000000,-3.000000,-13.000000,14.000000,26.000000
1309929.287164,-3.000000,-21.000000,-8.000000,-17.000000,4.000000,34.000000,-73.000000,-13.000000
1309929.287193,-5.000000,-31.000000,17.000000,20.000000,-19.000000,-12.000000,23.000000,-1.000000
1309929.309469,9.000000,25.000000,-3.000000,11.000000,-11.000000,-40.000000,-55.000000,-12.000000
1309929.309479,-3.000000,26.000000,-2.000000,-3.000000,21.000000,20.000000,30.000000,15.000000
1309929.348253,-11.000000,-29.000000,-4.000000,4.000000,3.000000,21.000000,-6.000000,2.000000
1309929.348349,6.000000,17.000000,6.000000,-30.000000,-7.000000,-55.000000,-33.000000,-18.000000
1309929.348942,17.000000,14.000000,-1.000000,24.000000,6.000000,18.000000,-5.000000,46.000000
1309929.348973,-15.000000,-8.000000,-1.000000,-128.000000,-4.000000,8.000000,109.000000,7.000000
1309929.349238,9.000000,56.000000,-1.000000,39.000000,6.000000,58.000000,-31.000000,-4.000000
1309929.349266,-6.000000,-81.000000,0.000000,2.000000,-6.000000,-102.000000,-10.000000,-9.000000
1309929.350576,7.000000,23.000000,-14.000000,-30.000000,5.000000,-16.000000,94.000000,10.000000
1309929.350591,2.000000,49.000000,8.000000,20.000000,-7.000000,-9.000000,-17.000000,3.000000
1309929.369739,8.000000,50.000000,3.000000,20.000000,13.000000,48.000000,16.000000,31.000000
1309929.369750,-15.000000,-80.000000,-2.000000,12.000000,11.000000,39.000000,27.000000,18.000000
1309929.392151,8.000000,31.000000,-7.000000,16.000000,-14.000000,-12.000000,-18.000000,-13.000000
1309929.392170,7.000000,-26.000000,-8.000000,6.000000,0.000000,5.000000,-22.000000,-12.000000
1309929.407112,-8.000000,19.000000,-7.000000,-25.000000,1.000000,-11.000000,-32.000000,-15.000000
1309929.407141,5.000000,-2.000000,9.000000,6.000000,-12.000000,-39.000000,10.000000,19.000000
1309929.430375,-6.000000,-10.000000,-1.000000,-67.000000,-5.000000,-4.000000,-32.000000,-21.000000
1309929.430506,3.000000,12.000000,4.000000,1.000000,2.000000,-21.000000,22.000000,20.000000
1309929.430810,10.000000,8.000000,4.000000,8.000000,-12.000000,-20.000000,-6.000000,11.000000
1309929.430827,8.000000,2.000000,-19.000000,-3.000000,-8.000000,-11.000000,-8.000000,5.000000
1309929.431376,-21.000000,-15.000000,-12.000000,-63.000000,-5.000000,-92.000000,-49.000000,-15.000000
1309929.431411,5.000000,-6.000000,15.000000,24.000000,-6.000000,90.000000,50.000000,26.000000
1309929.432163,9.000000,19.000000,7.000000,21.000000,-6.000000,-98.000000,-16.000000,20.000000
1309929.432171,5.000000,12.000000,-2.000000,-13.000000,8.000000,-6.000000,9.000000,-8.000000
1309929.433398,-11.000000,-10.000000,-12.000000,-7.000000,-6.000000,19.000000,11.000000,-6.000000
1309929.433406,-3.000000,-38.000000,9.000000,-22.000000,-18.000000,-76.000000,-25.000000,-10.000000
1309929.444419,6.000000,10.000000,-4.000000,-65.000000,-2.000000,-11.000000,-27.000000,1.000000
1309929.444433,-10.000000,5.000000,-7.000000,8.000000,2.000000,69.000000,-28.000000,3.000000
1309929.459445,6.000000,10.000000,-1.000000,-4.000000,-16.000000,67.000000,33.000000,22.000000
1309929.459454,-16.000000,-18.000000,-20.000000,-85.000000,2.000000,-31.000000,-54.000000,-34.000000
1309929.467361,11.000000,16.000000,-3.000000,6.000000,4.000000,45.000000,49.000000,27.000000
1309929.467387,-9.000000,-79.000000,-5.000000,31.000000,-10.000000,-14.000000,-41.000000,1.000000
1309929.468313,8.000000,40.000000,13.000000,9.000000,-9.000000,-71.000000,7.000000,-1.000000
1309929.468321,-1.000000,39.000000,-3.000000,7.000000,-6.000000,72.000000,-14.000000,4.000000
1309929.489640,-14.000000,-71.000000,-7.000000,-22.000000,5.000000,-8.000000,-2.000000,14.000000
1309929.489651,3.000000,0.000000,-2.000000,18.000000,-7.000000,32.000000,26.000000,5.000000
1309929.504513,9.000000,25.000000,3.000000,51.000000,24.000000,35.000000,-10.000000,-16.000000
1309929.504523,8.000000,52.000000,0.000000,20.000000,8.000000,31.000000,26.000000,7.000000
1309929.512201,-7.000000,-67.000000,-3.000000,-42.000000,6.000000,4.000000,-13.000000,-23.000000
1309929.512214,0.000000,1.000000,-9.000000,19.000000,10.000000,5.000000,23.000000,-4.000000
1309929.551696,1.000000,-45.000000,7.000000,5.000000,-33.000000,-128.000000,20.000000,-5.000000
1309929.551710,4.000000,51.000000,-8.000000,-11.000000,-4.000000,99.000000,-13.000000,-22.000000
1309929.552970,-8.000000,-53.000000,1.000000,2.000000,-1.000000,-17.000000,-8.000000,-5.000000
1309929.553016,9.000000,-17.000000,21.000000,28.000000,-1.000000,-21.000000,-5.000000,-9.000000
1309929.553099,0.000000,36.000000,-12.000000,-57.000000,19.000000,12.000000,3.000000,6.000000
1309929.553106,0.000000,-3.000000,1.000000,50.000000,-3.000000,-44.000000,10.000000,15.000000
1309929.553163,5.000000,31.000000,2.000000,-15.000000,3.000000,8.000000,-37.000000,-9.000000
1309929.553171,-2.000000,31.000000,11.000000,43.000000,17.000000,35.000000,57.000000,-23.000000
1309929.565658,-5.000000,15.000000,2.000000,25.000000,8.000000,-2.000000,41.000000,-2.000000
1309929.565679,9.000000,22.000000,-2.000000,-11.000000,-11.000000,-15.000000,-8.000000,8.000000
1309929.572273,5.000000,-20.000000,0.000000,18.000000,-5.000000,-12.000000,-69.000000,10.000000
1309929.572286,1.000000,-3.000000,9.000000,16.000000,11.000000,-7.000000,19.000000,-15.000000
1309929.587135,-7.000000,1.000000,-17.000000,-9.000000,-8.000000,-17.000000,-39.000000,7.000000
1309929.587201,-6.000000,-69.000000,2.000000,1.000000,-14.000000,23.000000,0.000000,-1.000000
1309929.588712,1.000000,21.000000,7.000000,4.000000,10.000000,-38.000000,-20.000000,-11.000000
1309929.588730,-7.000000,44.000000,-4.000000,-8.000000,16.000000,90.000000,39.000000,25.000000
1309929.609752,5.000000,5.000000,7.000000,18.000000,-15.000000,5.000000,-63.000000,-10.000000
1309929.609763,-5.000000,-37.000000,-5.000000,-20.000000,4.000000,-27.000000,-42.000000,4.000000
1309929.662351,1.000000,9.000000,-7.000000,21.000000,32.000000,99.000000,127.000000,1.000000
1309929.662373,12.000000,20.000000,6.000000,-14.000000,-1.000000,-28.000000,-38.000000,22.000000
1309929.669538,-7.000000,-9.000000,6.000000,24.000000,-16.000000,-53.000000,-1.000000,-7.000000
1309929.669548,1.000000,27.000000,7.000000,-16.000000,11.000000,5.000000,3.000000,-12.000000
1309929.685033,1.000000,25.000000,-7.000000,17.000000,5.000000,-50.000000,-23.000000,0.000000
1309929.685082,-3.000000,-62.000000,-9.000000,-24.000000,-24.000000,-23.000000,69.000000,-18.000000
1309929.685614,2.000000,-26.000000,-4.000000,-37.000000,18.000000,30.000000,43.000000,84.000000
1309929.685624,-7.000000,33.000000,5.000000,23.000000,4.000000,18.000000,20.000000,-17.000000
1309929.687022,1.000000,27.000000,-14.000000,-76.000000,1.000000,-74.000000,-9.000000,3.000000
1309929.687034,-7.000000,18.000000,6.000000,1.000000,-2.000000,10.000000,-14.000000,-4.000000
1309929.687615,1.000000,1.000000,6.000000,-33.000000,-2.000000,42.000000,75.000000,3.000000
1309929.687625,9.000000,4.000000,-1.000000,5.000000,-16.000000,-51.000000,-43.000000,4.000000
