# participant_id: P4
# gesture: medium
# trial_number: 2
# stream_name: Myo_EMG
# stream_type: emg
# timestamp: 20260420_135008
# samples: 5598
# duration_sec: 30.481
# nominal_sample_rate: 200.0
# effective_sample_rate: 183.62
#
timestamp,emg_1,emg_2,emg_3,emg_4,emg_5,emg_6,emg_7,emg_8
1297700.539704,-27.000000,-39.000000,-21.000000,-101.000000,-6.000000,-10.000000,-6.000000,-7.000000
1297700.539722,9.000000,27.000000,16.000000,48.000000,-4.000000,-6.000000,-9.000000,-3.000000
1297700.548089,62.000000,127.000000,13.000000,69.000000,14.000000,13.000000,8.000000,9.000000
1297700.548117,-16.000000,18.000000,4.000000,-7.000000,5.000000,-4.000000,-11.000000,-13.000000
1297700.548660,16.000000,-88.000000,4.000000,10.000000,5.000000,4.000000,8.000000,16.000000
1297700.548697,44.000000,-71.000000,-49.000000,-29.000000,3.000000,0.000000,0.000000,-1.000000
1297700.549988,-34.000000,-5.000000,14.000000,71.000000,-8.000000,-5.000000,-19.000000,-15.000000
1297700.550001,-15.000000,4.000000,3.000000,-48.000000,-8.000000,2.000000,-2.000000,-4.000000
1297700.554774,-32.000000,-7.000000,7.000000,4.000000,10.000000,-6.000000,-6.000000,0.000000
1297700.554792,7.000000,29.000000,7.000000,66.000000,14.000000,7.000000,12.000000,14.000000
1297700.562618,44.000000,-74.000000,-6.000000,-19.000000,-17.000000,-1.000000,-3.000000,-6.000000
1297700.562634,-31.000000,7.000000,3.000000,1.000000,8.000000,-5.000000,-5.000000,-7.000000
1297700.569571,5.000000,-27.000000,-12.000000,25.000000,4.000000,5.000000,3.000000,4.000000
1297700.569587,0.000000,9.000000,9.000000,72.000000,-7.000000,-1.000000,2.000000,5.000000
1297700.592666,53.000000,15.000000,7.000000,-28.000000,-2.000000,2.000000,14.000000,15.000000
1297700.592684,-36.000000,-96.000000,-30.000000,-128.000000,0.000000,5.000000,-13.000000,-17.000000
1297700.593450,-13.000000,-14.000000,13.000000,42.000000,2.000000,-5.000000,-7.000000,-6.000000
1297700.593460,-1.000000,-14.000000,12.000000,9.000000,-14.000000,-6.000000,-1.000000,1.000000
1297700.600111,31.000000,-10.000000,-3.000000,4.000000,6.000000,13.000000,14.000000,18.000000
1297700.600121,-92.000000,-40.000000,-29.000000,-59.000000,-5.000000,-9.000000,-20.000000,-53.000000
1297700.629683,3.000000,28.000000,31.000000,31.000000,-13.000000,-5.000000,0.000000,10.000000
1297700.629703,-4.000000,-4.000000,-5.000000,-52.000000,-2.000000,5.000000,1.000000,4.000000
1297700.667183,59.000000,26.000000,18.000000,82.000000,6.000000,2.000000,5.000000,12.000000
1297700.667204,-40.000000,-15.000000,-18.000000,-95.000000,6.000000,7.000000,2.000000,-6.000000
1297700.675066,18.000000,-38.000000,-5.000000,42.000000,-2.000000,-1.000000,-1.000000,2.000000
1297700.675105,-16.000000,-67.000000,3.000000,38.000000,-3.000000,5.000000,0.000000,-10.000000
1297700.675673,15.000000,-10.000000,-19.000000,15.000000,-2.000000,-5.000000,-3.000000,1.000000
1297700.675682,37.000000,16.000000,26.000000,8.000000,3.000000,1.000000,-15.000000,-3.000000
1297700.676801,-30.000000,12.000000,2.000000,-84.000000,-3.000000,-2.000000,4.000000,2.000000
1297700.676810,8.000000,17.000000,22.000000,72.000000,0.000000,4.000000,6.000000,13.000000
1297700.678474,13.000000,26.000000,11.000000,30.000000,-12.000000,-5.000000,-1.000000,-1.000000
1297700.678490,10.000000,-11.000000,-11.000000,-10.000000,-4.000000,-5.000000,-1.000000,-2.000000
1297700.682632,-4.000000,15.000000,5.000000,0.000000,3.000000,-1.000000,-1.000000,0.000000
1297700.682649,39.000000,5.000000,15.000000,19.000000,-6.000000,3.000000,12.000000,8.000000
1297700.689595,8.000000,-18.000000,0.000000,-54.000000,6.000000,2.000000,-9.000000,-11.000000
1297700.689615,-26.000000,50.000000,-4.000000,3.000000,-2.000000,2.000000,7.000000,5.000000
1297700.705537,30.000000,9.000000,18.000000,40.000000,-7.000000,-11.000000,-13.000000,-9.000000
1297700.705555,-10.000000,-16.000000,-15.000000,-43.000000,7.000000,-4.000000,-11.000000,-4.000000
1297700.712194,-50.000000,-33.000000,-33.000000,-64.000000,-2.000000,3.000000,-4.000000,-7.000000
1297700.712215,20.000000,30.000000,6.000000,27.000000,-7.000000,-2.000000,10.000000,9.000000
1297700.720136,-32.000000,-14.000000,-15.000000,30.000000,-16.000000,-5.000000,1.000000,-3.000000
1297700.720146,1.000000,-28.000000,-6.000000,4.000000,3.000000,-1.000000,-3.000000,-17.000000
1297700.734651,17.000000,15.000000,15.000000,37.000000,5.000000,4.000000,7.000000,7.000000
1297700.734660,-4.000000,-17.000000,-27.000000,-54.000000,0.000000,-4.000000,-4.000000,-5.000000
1297700.757220,37.000000,3.000000,9.000000,28.000000,2.000000,-4.000000,-6.000000,8.000000
1297700.757242,3.000000,6.000000,-19.000000,-65.000000,-5.000000,-1.000000,7.000000,4.000000
1297700.779751,2.000000,-113.000000,7.000000,57.000000,4.000000,3.000000,1.000000,2.000000
1297700.779765,-72.000000,-23.000000,-17.000000,-15.000000,-6.000000,2.000000,-4.000000,-9.000000
1297700.787577,-13.000000,-11.000000,-11.000000,-33.000000,-4.000000,-4.000000,-1.000000,-2.000000
1297700.787597,-14.000000,-113.000000,9.000000,98.000000,4.000000,-3.000000,-5.000000,-11.000000
1297700.788233,-7.000000,0.000000,-7.000000,-28.000000,2.000000,1.000000,1.000000,5.000000
1297700.788254,17.000000,14.000000,10.000000,1.000000,-7.000000,-1.000000,4.000000,8.000000
1297700.789752,-7.000000,4.000000,7.000000,9.000000,9.000000,5.000000,7.000000,6.000000
1297700.789772,-79.000000,4.000000,11.000000,-29.000000,-4.000000,-9.000000,-13.000000,-22.000000
1297700.794642,19.000000,-5.000000,1.000000,27.000000,1.000000,1.000000,0.000000,-3.000000
1297700.794658,5.000000,23.000000,-1.000000,5.000000,-5.000000,5.000000,16.000000,18.000000
1297700.802942,25.000000,23.000000,-7.000000,-11.000000,6.000000,-2.000000,1.000000,-6.000000
1297700.802963,21.000000,4.000000,-16.000000,-7.000000,5.000000,-9.000000,-16.000000,-15.000000
1297700.818157,-28.000000,-128.000000,-14.000000,23.000000,-3.000000,4.000000,0.000000,-2.000000
1297700.818196,28.000000,90.000000,34.000000,25.000000,-3.000000,3.000000,11.000000,14.000000
1297700.826386,-26.000000,-124.000000,-18.000000,-53.000000,-6.000000,-14.000000,-24.000000,-16.000000
1297700.826406,-20.000000,-24.000000,-18.000000,-55.000000,4.000000,0.000000,2.000000,-6.000000
1297700.832996,-21.000000,-58.000000,-6.000000,23.000000,-2.000000,-5.000000,0.000000,-1.000000
1297700.833117,-3.000000,-8.000000,6.000000,27.000000,-5.000000,-2.000000,3.000000,1.000000
1297700.840951,3.000000,9.000000,12.000000,28.000000,-4.000000,5.000000,4.000000,3.000000
1297700.840988,0.000000,-20.000000,-42.000000,-85.000000,1.000000,-8.000000,-21.000000,-22.000000
1297700.855091,17.000000,-57.000000,-3.000000,13.000000,4.000000,-5.000000,-7.000000,-6.000000
1297700.855132,-3.000000,-108.000000,5.000000,45.000000,2.000000,1.000000,9.000000,8.000000
1297700.870352,-9.000000,20.000000,4.000000,-50.000000,-5.000000,4.000000,5.000000,6.000000
1297700.870373,13.000000,-39.000000,-20.000000,-17.000000,2.000000,-6.000000,-18.000000,-20.000000
1297700.877927,-4.000000,-16.000000,4.000000,-14.000000,-8.000000,-4.000000,4.000000,7.000000
1297700.877960,-17.000000,-10.000000,-25.000000,-26.000000,3.000000,-5.000000,-3.000000,1.000000
1297700.908574,-58.000000,-48.000000,-3.000000,73.000000,3.000000,-5.000000,3.000000,-8.000000
1297700.908594,17.000000,5.000000,-22.000000,-89.000000,-1.000000,2.000000,-3.000000,3.000000
1297700.909474,6.000000,6.000000,5.000000,20.000000,7.000000,1.000000,0.000000,3.000000
1297700.909511,20.000000,1.000000,2.000000,-1.000000,-14.000000,-5.000000,-6.000000,-4.000000
1297700.910335,25.000000,13.000000,13.000000,18.000000,4.000000,2.000000,1.000000,3.000000
1297700.910372,-11.000000,-56.000000,-10.000000,-20.000000,-2.000000,2.000000,5.000000,5.000000
1297700.915093,-4.000000,56.000000,5.000000,43.000000,1.000000,-1.000000,-12.000000,-8.000000
1297700.915114,-7.000000,-105.000000,-17.000000,-102.000000,-10.000000,-14.000000,-14.000000,-13.000000
1297700.945232,12.000000,-5.000000,-6.000000,-17.000000,-4.000000,2.000000,4.000000,7.000000
1297700.945254,-5.000000,-75.000000,-17.000000,13.000000,-12.000000,-4.000000,3.000000,1.000000
1297700.952421,-5.000000,-62.000000,-16.000000,-10.000000,-12.000000,-4.000000,0.000000,3.000000
1297700.952461,-29.000000,-26.000000,-3.000000,-27.000000,19.000000,3.000000,-2.000000,-15.000000
1297700.982953,33.000000,6.000000,-6.000000,21.000000,-8.000000,0.000000,-2.000000,1.000000
1297700.982977,-16.000000,6.000000,20.000000,79.000000,-6.000000,-7.000000,-6.000000,-7.000000
1297700.990487,-6.000000,-6.000000,-8.000000,-79.000000,9.000000,3.000000,2.000000,8.000000
1297700.990521,-23.000000,-8.000000,-5.000000,9.000000,1.000000,4.000000,2.000000,2.000000
1297701.005174,-32.000000,57.000000,12.000000,11.000000,3.000000,2.000000,6.000000,6.000000
1297701.005199,-1.000000,-98.000000,-46.000000,-20.000000,-10.000000,-13.000000,-29.000000,-31.000000
1297701.027924,-9.000000,30.000000,4.000000,-19.000000,-8.000000,-4.000000,-2.000000,-1.000000
1297701.027965,2.000000,54.000000,16.000000,-7.000000,4.000000,1.000000,11.000000,9.000000
1297701.029134,-8.000000,9.000000,14.000000,48.000000,6.000000,6.000000,11.000000,7.000000
1297701.029359,45.000000,12.000000,-3.000000,-11.000000,-4.000000,-10.000000,-10.000000,-8.000000
1297701.031014,-11.000000,-20.000000,-22.000000,-35.000000,1.000000,2.000000,2.000000,1.000000
1297701.031182,-4.000000,32.000000,17.000000,32.000000,0.000000,0.000000,-1.000000,-1.000000
1297701.031415,-35.000000,3.000000,9.000000,2.000000,-2.000000,1.000000,-9.000000,-17.000000
1297701.031455,34.000000,63.000000,-15.000000,-11.000000,3.000000,-4.000000,7.000000,11.000000
1297701.034983,-19.000000,-9.000000,6.000000,71.000000,1.000000,-8.000000,-11.000000,-16.000000
1297701.035020,-11.000000,3.000000,1.000000,-22.000000,-1.000000,1.000000,-1.000000,0.000000
1297701.043744,38.000000,-2.000000,-3.000000,-31.000000,-7.000000,3.000000,7.000000,12.000000
1297701.043784,-20.000000,-60.000000,4.000000,20.000000,2.000000,1.000000,5.000000,2.000000
1297701.057787,27.000000,20.000000,18.000000,52.000000,3.000000,0.000000,-11.000000,-11.000000
1297701.057810,-60.000000,-17.000000,-2.000000,-77.000000,-19.000000,-6.000000,-16.000000,-16.000000
1297701.072633,23.000000,9.000000,-7.000000,-42.000000,6.000000,2.000000,11.000000,17.000000
1297701.072662,-16.000000,5.000000,-4.000000,1.000000,-1.000000,1.000000,5.000000,-4.000000
1297701.073340,30.000000,77.000000,10.000000,29.000000,6.000000,1.000000,-14.000000,-9.000000
1297701.073359,2.000000,-128.000000,-36.000000,-51.000000,-7.000000,-1.000000,5.000000,4.000000
1297701.081056,18.000000,7.000000,6.000000,26.000000,-15.000000,-1.000000,0.000000,3.000000
1297701.081102,-4.000000,-45.000000,-10.000000,13.000000,2.000000,-5.000000,2.000000,1.000000
1297701.095131,3.000000,2.000000,-28.000000,-118.000000,-8.000000,-7.000000,3.000000,-5.000000
1297701.095152,24.000000,30.000000,12.000000,21.000000,6.000000,1.000000,-8.000000,2.000000
1297701.110065,1.000000,-1.000000,3.000000,-31.000000,-11.000000,0.000000,1.000000,5.000000
1297701.110106,13.000000,17.000000,8.000000,66.000000,4.000000,4.000000,2.000000,-2.000000
1297701.132759,-10.000000,-8.000000,-15.000000,-50.000000,-4.000000,-3.000000,-5.000000,-10.000000
1297701.132781,12.000000,7.000000,14.000000,6.000000,2.000000,-3.000000,4.000000,12.000000
1297701.147893,8.000000,-88.000000,7.000000,53.000000,-8.000000,-1.000000,1.000000,1.000000
1297701.147916,-65.000000,3.000000,-13.000000,-35.000000,-5.000000,-6.000000,-4.000000,-3.000000
1297701.155276,-16.000000,-128.000000,-27.000000,-50.000000,-2.000000,-5.000000,-6.000000,-3.000000
1297701.155329,16.000000,14.000000,1.000000,1.000000,-3.000000,0.000000,-5.000000,-3.000000
1297701.156957,1.000000,108.000000,17.000000,28.000000,0.000000,0.000000,1.000000,5.000000
1297701.157003,20.000000,-29.000000,6.000000,-20.000000,-5.000000,5.000000,7.000000,6.000000
1297701.157769,-18.000000,5.000000,6.000000,12.000000,2.000000,-2.000000,-3.000000,1.000000
1297701.157812,32.000000,-27.000000,-35.000000,-28.000000,-10.000000,-8.000000,-6.000000,-5.000000
1297701.170987,23.000000,66.000000,14.000000,46.000000,-3.000000,4.000000,5.000000,4.000000
1297701.171024,7.000000,-6.000000,1.000000,-9.000000,8.000000,5.000000,5.000000,-5.000000
1297701.185007,-7.000000,63.000000,-6.000000,-45.000000,3.000000,-6.000000,-3.000000,-8.000000
1297701.185212,-31.000000,-8.000000,6.000000,25.000000,4.000000,-2.000000,-7.000000,-3.000000
1297701.186517,-73.000000,-91.000000,-42.000000,-17.000000,-20.000000,-7.000000,-16.000000,-17.000000
1297701.186588,25.000000,-2.000000,9.000000,43.000000,2.000000,-1.000000,0.000000,6.000000
1297701.192636,-76.000000,9.000000,18.000000,64.000000,4.000000,5.000000,8.000000,6.000000
1297701.192674,19.000000,13.000000,5.000000,-41.000000,0.000000,2.000000,3.000000,-19.000000
1297701.230514,-3.000000,-22.000000,-36.000000,-107.000000,0.000000,1.000000,3.000000,9.000000
1297701.230536,3.000000,82.000000,26.000000,62.000000,12.000000,7.000000,12.000000,16.000000
1297701.238649,14.000000,68.000000,3.000000,2.000000,-9.000000,-6.000000,-6.000000,-8.000000
1297701.238711,-38.000000,-89.000000,7.000000,28.000000,-4.000000,0.000000,1.000000,-2.000000
1297701.260645,27.000000,-11.000000,-9.000000,-6.000000,0.000000,2.000000,13.000000,13.000000
1297701.260697,-19.000000,-24.000000,0.000000,34.000000,-9.000000,-3.000000,-13.000000,-18.000000
1297701.268148,-36.000000,-14.000000,-16.000000,-71.000000,2.000000,-5.000000,-5.000000,-5.000000
1297701.268200,-10.000000,-16.000000,-10.000000,66.000000,-7.000000,-7.000000,0.000000,-1.000000
1297701.282895,-6.000000,2.000000,-30.000000,-110.000000,-5.000000,1.000000,16.000000,15.000000
1297701.282948,-4.000000,22.000000,19.000000,25.000000,-7.000000,0.000000,1.000000,3.000000
1297701.290545,44.000000,39.000000,-5.000000,8.000000,-7.000000,-14.000000,-17.000000,-9.000000
1297701.290599,4.000000,-15.000000,-7.000000,-17.000000,-1.000000,2.000000,6.000000,10.000000
1297701.298721,-16.000000,-109.000000,-31.000000,-38.000000,-8.000000,-8.000000,-10.000000,-14.000000
1297701.298767,8.000000,1.000000,4.000000,2.000000,10.000000,7.000000,6.000000,5.000000
1297701.306444,11.000000,15.000000,16.000000,20.000000,-1.000000,-3.000000,7.000000,7.000000
1297701.306493,-3.000000,-23.000000,0.000000,-13.000000,-5.000000,6.000000,-3.000000,-3.000000
1297701.307405,-28.000000,-7.000000,11.000000,-44.000000,-11.000000,-4.000000,-1.000000,-4.000000
1297701.307472,37.000000,127.000000,27.000000,42.000000,31.000000,9.000000,14.000000,12.000000
1297701.308721,10.000000,-6.000000,-18.000000,-52.000000,-10.000000,-1.000000,2.000000,2.000000
1297701.309029,30.000000,-9.000000,7.000000,46.000000,-2.000000,-5.000000,-9.000000,-2.000000
1297701.313118,-28.000000,-65.000000,-9.000000,-9.000000,0.000000,2.000000,5.000000,1.000000
1297701.313147,42.000000,-74.000000,6.000000,13.000000,3.000000,3.000000,-5.000000,-7.000000
1297701.343741,-7.000000,-1.000000,-19.000000,-15.000000,5.000000,-6.000000,-13.000000,-11.000000
1297701.343905,0.000000,-20.000000,3.000000,16.000000,-11.000000,-5.000000,3.000000,2.000000
1297701.350777,16.000000,-47.000000,3.000000,0.000000,10.000000,5.000000,8.000000,12.000000
1297701.350837,-9.000000,8.000000,-5.000000,26.000000,-8.000000,1.000000,9.000000,-2.000000
1297701.380574,2.000000,-2.000000,-22.000000,-14.000000,-8.000000,-12.000000,-21.000000,-24.000000
1297701.380631,-21.000000,-21.000000,11.000000,62.000000,5.000000,-5.000000,-5.000000,2.000000
1297701.388166,0.000000,-13.000000,-24.000000,-34.000000,-1.000000,3.000000,7.000000,6.000000
1297701.388228,15.000000,20.000000,3.000000,-1.000000,-3.000000,5.000000,0.000000,3.000000
1297701.390225,-24.000000,-30.000000,-7.000000,17.000000,-10.000000,-11.000000,-20.000000,-12.000000
1297701.390922,-39.000000,-128.000000,-30.000000,-42.000000,-6.000000,-4.000000,-8.000000,-30.000000
1297701.391963,-19.000000,-4.000000,2.000000,35.000000,3.000000,-3.000000,10.000000,9.000000
1297701.391989,40.000000,12.000000,15.000000,-51.000000,-7.000000,1.000000,4.000000,7.000000
1297701.392377,-7.000000,-24.000000,-14.000000,5.000000,10.000000,-1.000000,-2.000000,4.000000
1297701.392401,5.000000,-6.000000,-9.000000,-60.000000,-5.000000,-6.000000,-5.000000,-6.000000
1297701.395450,24.000000,-16.000000,-3.000000,13.000000,1.000000,-5.000000,3.000000,3.000000
1297701.395478,-9.000000,95.000000,20.000000,49.000000,2.000000,7.000000,8.000000,11.000000
1297701.418137,53.000000,30.000000,0.000000,14.000000,-5.000000,-2.000000,-5.000000,-6.000000
1297701.418191,-60.000000,-49.000000,-27.000000,-2.000000,4.000000,-4.000000,-9.000000,-9.000000
1297701.426508,-26.000000,-113.000000,-22.000000,-28.000000,-7.000000,-13.000000,-17.000000,-14.000000
1297701.426588,31.000000,27.000000,14.000000,28.000000,2.000000,5.000000,7.000000,9.000000
1297701.428038,-45.000000,57.000000,19.000000,47.000000,13.000000,9.000000,14.000000,10.000000
1297701.428097,6.000000,-4.000000,-12.000000,-113.000000,-4.000000,-4.000000,-10.000000,-11.000000
1297701.433089,13.000000,-33.000000,-8.000000,23.000000,10.000000,2.000000,3.000000,5.000000
1297701.433149,7.000000,22.000000,18.000000,-13.000000,3.000000,3.000000,10.000000,9.000000
1297701.470498,-29.000000,-18.000000,7.000000,45.000000,-5.000000,-4.000000,0.000000,0.000000
1297701.470574,-50.000000,-24.000000,-14.000000,-3.000000,-3.000000,-5.000000,-22.000000,-13.000000
1297701.478357,-2.000000,6.000000,2.000000,-32.000000,-1.000000,1.000000,-2.000000,-3.000000
1297701.478385,-3.000000,77.000000,23.000000,15.000000,4.000000,1.000000,6.000000,4.000000
1297701.508031,-7.000000,1.000000,5.000000,-22.000000,9.000000,6.000000,12.000000,12.000000
1297701.508097,8.000000,7.000000,8.000000,79.000000,-3.000000,-3.000000,-4.000000,-1.000000
1297701.510060,-10.000000,-88.000000,-30.000000,-34.000000,0.000000,-6.000000,-10.000000,-18.000000
1297701.510406,5.000000,-50.000000,-8.000000,-35.000000,1.000000,1.000000,3.000000,3.000000
1297701.511484,9.000000,-5.000000,-1.000000,-20.000000,-4.000000,1.000000,6.000000,11.000000
1297701.511510,11.000000,-6.000000,-1.000000,12.000000,2.000000,2.000000,-4.000000,-5.000000
1297701.512206,-24.000000,-36.000000,-1.000000,19.000000,-4.000000,-3.000000,1.000000,0.000000
1297701.512233,22.000000,-9.000000,-23.000000,-60.000000,0.000000,0.000000,-10.000000,2.000000
1297701.516556,13.000000,-21.000000,-18.000000,-27.000000,7.000000,2.000000,8.000000,9.000000
1297701.516584,-22.000000,-17.000000,7.000000,28.000000,2.000000,1.000000,8.000000,3.000000
1297701.538320,13.000000,127.000000,36.000000,1.000000,-8.000000,-4.000000,-20.000000,-19.000000
1297701.538349,-17.000000,-31.000000,-16.000000,-8.000000,12.000000,4.000000,-2.000000,-1.000000
1297701.539201,11.000000,-24.000000,4.000000,19.000000,1.000000,2.000000,4.000000,6.000000
1297701.539256,31.000000,59.000000,4.000000,-8.000000,-9.000000,-1.000000,5.000000,13.000000
1297701.546835,10.000000,-4.000000,-3.000000,-39.000000,-2.000000,7.000000,8.000000,1.000000
1297701.546862,12.000000,0.000000,-13.000000,-45.000000,0.000000,-9.000000,-18.000000,-29.000000
1297701.553055,-15.000000,-12.000000,9.000000,41.000000,-1.000000,-2.000000,2.000000,6.000000
1297701.553083,-25.000000,7.000000,-26.000000,-118.000000,-3.000000,0.000000,-3.000000,-4.000000
1297701.582996,9.000000,12.000000,9.000000,9.000000,-2.000000,-5.000000,-3.000000,5.000000
1297701.583171,15.000000,15.000000,12.000000,26.000000,-13.000000,-5.000000,4.000000,9.000000
1297701.590549,-3.000000,-4.000000,-8.000000,11.000000,12.000000,3.000000,-1.000000,-5.000000
1297701.590606,31.000000,11.000000,15.000000,57.000000,16.000000,10.000000,3.000000,3.000000
1297701.628136,3.000000,22.000000,-1.000000,-111.000000,-19.000000,-8.000000,-7.000000,2.000000
1297701.628191,60.000000,75.000000,10.000000,67.000000,4.000000,4.000000,11.000000,16.000000
1297701.636204,-44.000000,-104.000000,-36.000000,-128.000000,-11.000000,-9.000000,-5.000000,-14.000000
1297701.636260,7.000000,-11.000000,1.000000,38.000000,5.000000,-4.000000,-11.000000,-7.000000
1297701.658847,19.000000,14.000000,2.000000,-3.000000,-4.000000,-3.000000,-2.000000,12.000000
1297701.658904,23.000000,-5.000000,11.000000,35.000000,-8.000000,0.000000,6.000000,-13.000000
1297701.660335,2.000000,-22.000000,0.000000,34.000000,6.000000,4.000000,-12.000000,-18.000000
1297701.660655,8.000000,-8.000000,3.000000,-17.000000,0.000000,-1.000000,1.000000,8.000000
1297701.661527,11.000000,-53.000000,8.000000,-86.000000,-20.000000,0.000000,2.000000,3.000000
1297701.661583,15.000000,36.000000,-25.000000,54.000000,38.000000,7.000000,-1.000000,-4.000000
1297701.662661,-10.000000,-23.000000,3.000000,106.000000,2.000000,-1.000000,1.000000,-7.000000
1297701.662690,-16.000000,-4.000000,-14.000000,-128.000000,-10.000000,-5.000000,-10.000000,-4.000000
1297701.666444,30.000000,4.000000,20.000000,119.000000,9.000000,-1.000000,2.000000,2.000000
1297701.666469,-5.000000,-19.000000,-17.000000,-69.000000,-11.000000,-4.000000,-11.000000,-10.000000
1297701.673136,10.000000,127.000000,24.000000,39.000000,13.000000,3.000000,6.000000,11.000000
1297701.673206,-6.000000,-6.000000,-5.000000,-9.000000,4.000000,3.000000,7.000000,2.000000
1297701.710446,11.000000,-8.000000,4.000000,-27.000000,-2.000000,-4.000000,-11.000000,-8.000000
1297701.710501,8.000000,-11.000000,-3.000000,21.000000,2.000000,1.000000,4.000000,4.000000
1297701.725843,-35.000000,12.000000,0.000000,6.000000,-2.000000,4.000000,1.000000,-2.000000
1297701.725899,11.000000,33.000000,14.000000,4.000000,3.000000,1.000000,-3.000000,-1.000000
1297701.741477,27.000000,0.000000,23.000000,93.000000,9.000000,5.000000,9.000000,12.000000
1297701.742169,2.000000,10.000000,6.000000,-57.000000,-14.000000,-2.000000,-9.000000,-5.000000
1297701.744080,41.000000,1.000000,-16.000000,31.000000,17.000000,4.000000,3.000000,9.000000
1297701.744156,4.000000,50.000000,13.000000,70.000000,14.000000,4.000000,10.000000,2.000000
1297701.744505,11.000000,18.000000,3.000000,0.000000,13.000000,3.000000,8.000000,6.000000
1297701.745078,-6.000000,1.000000,-4.000000,19.000000,-10.000000,-5.000000,-9.000000,-9.000000
1297701.745474,4.000000,-39.000000,6.000000,34.000000,-9.000000,-6.000000,-7.000000,-1.000000
1297701.745500,-3.000000,67.000000,8.000000,-15.000000,11.000000,-2.000000,5.000000,7.000000
1297701.747883,-21.000000,4.000000,19.000000,13.000000,-10.000000,-2.000000,1.000000,-7.000000
1297701.747910,-22.000000,-28.000000,-60.000000,-76.000000,4.000000,1.000000,-6.000000,-2.000000
1297701.763437,21.000000,-64.000000,-5.000000,-32.000000,7.000000,-1.000000,-10.000000,-5.000000
1297701.763494,-19.000000,87.000000,13.000000,34.000000,-6.000000,-2.000000,2.000000,1.000000
1297701.778684,-4.000000,-13.000000,9.000000,12.000000,-12.000000,-8.000000,-8.000000,-11.000000
1297701.778737,22.000000,93.000000,9.000000,-27.000000,3.000000,5.000000,9.000000,13.000000
1297701.779625,22.000000,-12.000000,-27.000000,-11.000000,9.000000,5.000000,8.000000,12.000000
1297701.779677,-10.000000,-110.000000,-6.000000,5.000000,-4.000000,-9.000000,-9.000000,-32.000000
1297701.786556,-22.000000,38.000000,7.000000,-9.000000,-8.000000,0.000000,-3.000000,4.000000
1297701.786583,16.000000,-10.000000,-13.000000,-19.000000,7.000000,0.000000,0.000000,0.000000
1297701.793212,-27.000000,-2.000000,0.000000,-46.000000,-6.000000,-10.000000,-14.000000,-5.000000
1297701.793239,0.000000,-15.000000,2.000000,47.000000,4.000000,4.000000,11.000000,8.000000
1297701.823928,-3.000000,14.000000,12.000000,25.000000,-1.000000,7.000000,8.000000,8.000000
1297701.824112,19.000000,20.000000,-14.000000,-72.000000,3.000000,0.000000,-1.000000,-2.000000
1297701.830682,-27.000000,-11.000000,-20.000000,16.000000,4.000000,-13.000000,-31.000000,-27.000000
1297701.830737,25.000000,-1.000000,16.000000,-2.000000,-5.000000,-1.000000,4.000000,1.000000
1297701.845870,-3.000000,9.000000,-13.000000,-6.000000,-3.000000,0.000000,2.000000,0.000000
1297701.845902,-4.000000,-22.000000,-3.000000,25.000000,-5.000000,-3.000000,5.000000,8.000000
1297701.861250,-1.000000,15.000000,-1.000000,-13.000000,-9.000000,4.000000,11.000000,5.000000
1297701.861620,8.000000,7.000000,-10.000000,25.000000,3.000000,1.000000,1.000000,-1.000000
1297701.863241,-29.000000,-28.000000,-21.000000,13.000000,-4.000000,-11.000000,-17.000000,-19.000000
1297701.863290,5.000000,5.000000,4.000000,-6.000000,-9.000000,-6.000000,-1.000000,0.000000
1297701.863812,28.000000,-3.000000,2.000000,4.000000,5.000000,6.000000,17.000000,18.000000
1297701.863860,13.000000,68.000000,14.000000,39.000000,2.000000,-5.000000,-4.000000,-4.000000
1297701.867899,-33.000000,7.000000,19.000000,13.000000,2.000000,1.000000,-10.000000,-4.000000
1297701.867926,-6.000000,-107.000000,-42.000000,-54.000000,-10.000000,-7.000000,1.000000,2.000000
1297701.890616,24.000000,1.000000,12.000000,52.000000,-2.000000,3.000000,2.000000,3.000000
1297701.890647,6.000000,34.000000,8.000000,-24.000000,3.000000,5.000000,6.000000,4.000000
1297701.906138,-4.000000,55.000000,-10.000000,38.000000,-2.000000,-8.000000,-16.000000,-15.000000
1297701.906584,16.000000,27.000000,-6.000000,41.000000,-6.000000,-3.000000,7.000000,2.000000
1297701.907086,19.000000,-4.000000,1.000000,-31.000000,-3.000000,2.000000,8.000000,9.000000
1297701.907436,-29.000000,64.000000,15.000000,-42.000000,4.000000,1.000000,-9.000000,-13.000000
1297701.908232,26.000000,2.000000,4.000000,-1.000000,-4.000000,-2.000000,4.000000,7.000000
1297701.908256,-17.000000,-38.000000,8.000000,62.000000,4.000000,0.000000,6.000000,0.000000
1297701.913201,-21.000000,-50.000000,-12.000000,-78.000000,-11.000000,-5.000000,-10.000000,-7.000000
1297701.913262,-22.000000,5.000000,-5.000000,53.000000,8.000000,1.000000,0.000000,4.000000
1297701.936314,9.000000,2.000000,0.000000,3.000000,3.000000,7.000000,13.000000,11.000000
1297701.936414,7.000000,-19.000000,-9.000000,-29.000000,-6.000000,-9.000000,-8.000000,-9.000000
1297701.943768,-49.000000,-10.000000,2.000000,62.000000,0.000000,4.000000,0.000000,-2.000000
1297701.943931,45.000000,39.000000,4.000000,-61.000000,-5.000000,0.000000,-7.000000,6.000000
1297701.982541,-15.000000,-3.000000,4.000000,27.000000,-6.000000,-1.000000,3.000000,4.000000
1297701.982589,7.000000,43.000000,11.000000,35.000000,11.000000,-3.000000,-7.000000,-8.000000
1297701.982838,-3.000000,-28.000000,-6.000000,14.000000,-7.000000,1.000000,6.000000,6.000000
1297701.982872,6.000000,15.000000,-5.000000,-17.000000,9.000000,-2.000000,3.000000,-10.000000
1297701.984080,-6.000000,8.000000,5.000000,-9.000000,-13.000000,-6.000000,3.000000,9.000000
1297701.984118,12.000000,8.000000,18.000000,21.000000,3.000000,5.000000,11.000000,4.000000
1297701.984318,-4.000000,35.000000,6.000000,7.000000,-3.000000,4.000000,0.000000,5.000000
1297701.984349,-15.000000,-14.000000,2.000000,16.000000,5.000000,-2.000000,-3.000000,-7.000000
1297701.988322,8.000000,34.000000,-38.000000,-41.000000,3.000000,1.000000,-11.000000,-8.000000
1297701.988380,37.000000,28.000000,0.000000,48.000000,6.000000,-1.000000,-3.000000,0.000000
1297702.004191,-18.000000,63.000000,20.000000,-23.000000,-3.000000,5.000000,10.000000,5.000000
1297702.004440,18.000000,-17.000000,-6.000000,-20.000000,-14.000000,-5.000000,-13.000000,-13.000000
1297702.019525,12.000000,-43.000000,-5.000000,70.000000,9.000000,6.000000,13.000000,17.000000
1297702.019575,19.000000,-2.000000,1.000000,45.000000,0.000000,-5.000000,-10.000000,-26.000000
1297702.020058,-5.000000,-16.000000,-10.000000,-91.000000,12.000000,3.000000,-4.000000,-1.000000
1297702.020115,-18.000000,-92.000000,-17.000000,-4.000000,-3.000000,2.000000,10.000000,4.000000
1297702.027235,1.000000,19.000000,10.000000,-18.000000,-6.000000,-9.000000,-13.000000,-14.000000
1297702.027379,-20.000000,-27.000000,-28.000000,-24.000000,-5.000000,-10.000000,-15.000000,-7.000000
1297702.057176,7.000000,9.000000,-9.000000,29.000000,1.000000,4.000000,11.000000,12.000000
1297702.057438,-27.000000,-58.000000,17.000000,-15.000000,-4.000000,-3.000000,-12.000000,-12.000000
1297702.072434,-7.000000,18.000000,7.000000,11.000000,6.000000,2.000000,4.000000,8.000000
1297702.072473,4.000000,-11.000000,5.000000,44.000000,5.000000,-1.000000,4.000000,1.000000
1297702.085197,24.000000,5.000000,4.000000,-33.000000,-5.000000,-2.000000,-3.000000,0.000000
1297702.085240,17.000000,81.000000,22.000000,-12.000000,7.000000,1.000000,3.000000,4.000000
1297702.094073,3.000000,-4.000000,0.000000,30.000000,12.000000,8.000000,11.000000,11.000000
1297702.094228,-9.000000,-6.000000,7.000000,5.000000,-2.000000,3.000000,-2.000000,0.000000
1297702.094864,6.000000,-33.000000,-5.000000,-7.000000,2.000000,-5.000000,-15.000000,-5.000000
1297702.094893,-8.000000,12.000000,-4.000000,-5.000000,-1.000000,-3.000000,8.000000,2.000000
1297702.095899,-11.000000,-107.000000,-8.000000,53.000000,-10.000000,-11.000000,-15.000000,-9.000000
1297702.095926,4.000000,11.000000,-17.000000,-25.000000,-4.000000,4.000000,1.000000,2.000000
1297702.096205,32.000000,0.000000,-15.000000,-31.000000,-1.000000,-2.000000,-5.000000,1.000000
1297702.096229,-14.000000,68.000000,23.000000,53.000000,4.000000,6.000000,0.000000,4.000000
1297702.107407,26.000000,-4.000000,-26.000000,-96.000000,-8.000000,1.000000,7.000000,6.000000
1297702.107430,19.000000,70.000000,21.000000,32.000000,-3.000000,1.000000,16.000000,15.000000
1297702.115095,3.000000,83.000000,12.000000,-8.000000,-6.000000,-8.000000,-15.000000,-5.000000
1297702.115128,8.000000,3.000000,9.000000,-20.000000,5.000000,0.000000,-5.000000,2.000000
1297702.137236,-9.000000,-1.000000,-7.000000,2.000000,-1.000000,-1.000000,5.000000,9.000000
1297702.137263,8.000000,16.000000,11.000000,-12.000000,0.000000,4.000000,13.000000,4.000000
1297702.137867,-56.000000,24.000000,10.000000,70.000000,-2.000000,0.000000,-14.000000,-12.000000
1297702.137878,13.000000,14.000000,-10.000000,-68.000000,12.000000,0.000000,1.000000,4.000000
1297702.145351,21.000000,5.000000,-1.000000,-73.000000,-5.000000,2.000000,8.000000,8.000000
1297702.145373,-46.000000,-26.000000,8.000000,54.000000,-1.000000,-1.000000,-7.000000,-7.000000
1297702.167244,-8.000000,28.000000,-1.000000,-26.000000,3.000000,4.000000,-4.000000,-8.000000
1297702.167289,-66.000000,22.000000,-6.000000,29.000000,-12.000000,-4.000000,1.000000,-1.000000
1297702.182174,4.000000,-1.000000,-14.000000,-10.000000,2.000000,-1.000000,-8.000000,2.000000
1297702.182199,2.000000,-98.000000,3.000000,55.000000,0.000000,1.000000,5.000000,8.000000
1297702.190003,49.000000,125.000000,19.000000,-60.000000,-4.000000,1.000000,4.000000,6.000000
1297702.190021,-45.000000,-14.000000,1.000000,19.000000,-12.000000,-3.000000,-8.000000,-1.000000
1297702.212680,39.000000,7.000000,7.000000,-43.000000,5.000000,2.000000,5.000000,8.000000
1297702.212701,-12.000000,-12.000000,4.000000,71.000000,1.000000,0.000000,0.000000,4.000000
1297702.213585,-24.000000,-26.000000,-36.000000,-52.000000,-17.000000,-4.000000,-13.000000,-12.000000
1297702.213607,-10.000000,1.000000,2.000000,-9.000000,9.000000,0.000000,-11.000000,-10.000000
1297702.227383,23.000000,32.000000,24.000000,17.000000,-4.000000,-2.000000,12.000000,12.000000
1297702.227427,-5.000000,-68.000000,-13.000000,28.000000,-10.000000,-5.000000,-3.000000,-12.000000
1297702.257411,24.000000,-88.000000,-16.000000,-49.000000,-7.000000,-3.000000,-5.000000,8.000000
1297702.257624,23.000000,1.000000,8.000000,24.000000,2.000000,4.000000,2.000000,-18.000000
1297702.258481,-16.000000,-37.000000,-18.000000,30.000000,-1.000000,-6.000000,-7.000000,0.000000
1297702.258555,6.000000,121.000000,15.000000,9.000000,10.000000,-1.000000,7.000000,7.000000
1297702.259003,23.000000,-6.000000,7.000000,28.000000,3.000000,-2.000000,-13.000000,-12.000000
1297702.259015,23.000000,4.000000,13.000000,36.000000,-10.000000,-1.000000,-5.000000,2.000000
1297702.260306,-51.000000,-7.000000,-8.000000,-34.000000,2.000000,0.000000,11.000000,9.000000
1297702.260326,-18.000000,-21.000000,3.000000,21.000000,5.000000,1.000000,3.000000,-5.000000
1297702.261184,-5.000000,2.000000,6.000000,-2.000000,-2.000000,-7.000000,-11.000000,-6.000000
1297702.261251,36.000000,1.000000,1.000000,-45.000000,-5.000000,-1.000000,2.000000,6.000000
1297702.265439,11.000000,-1.000000,-6.000000,-5.000000,14.000000,4.000000,6.000000,6.000000
1297702.265453,-7.000000,24.000000,7.000000,-3.000000,-9.000000,-2.000000,1.000000,4.000000
1297702.295422,49.000000,-45.000000,-21.000000,-34.000000,-16.000000,-12.000000,-14.000000,-10.000000
1297702.295465,-14.000000,-116.000000,-17.000000,28.000000,10.000000,2.000000,-3.000000,-1.000000
1297702.332878,31.000000,26.000000,-4.000000,-9.000000,-5.000000,2.000000,15.000000,14.000000
1297702.332905,-27.000000,-45.000000,-1.000000,36.000000,-10.000000,-9.000000,-9.000000,-9.000000
1297702.333153,21.000000,-11.000000,-2.000000,-56.000000,4.000000,-4.000000,-16.000000,-5.000000
1297702.333309,-2.000000,-2.000000,9.000000,9.000000,-7.000000,7.000000,16.000000,8.000000
1297702.334408,-14.000000,18.000000,5.000000,5.000000,4.000000,1.000000,3.000000,-2.000000
1297702.334436,-64.000000,-22.000000,-16.000000,-28.000000,-3.000000,-9.000000,-5.000000,-9.000000
1297702.335242,23.000000,-17.000000,11.000000,-41.000000,2.000000,1.000000,-8.000000,-3.000000
1297702.335280,16.000000,98.000000,49.000000,42.000000,-1.000000,2.000000,0.000000,5.000000
1297702.336853,35.000000,0.000000,-7.000000,-26.000000,-4.000000,0.000000,7.000000,7.000000
1297702.336871,-40.000000,-3.000000,8.000000,12.000000,0.000000,2.000000,5.000000,-4.000000
1297702.347594,25.000000,-37.000000,2.000000,70.000000,15.000000,3.000000,1.000000,4.000000
1297702.347620,18.000000,-6.000000,-25.000000,-113.000000,1.000000,-1.000000,-8.000000,-6.000000
1297702.370275,-27.000000,-4.000000,11.000000,75.000000,-3.000000,1.000000,0.000000,-4.000000
1297702.370311,3.000000,-11.000000,-39.000000,-24.000000,-4.000000,-8.000000,-11.000000,0.000000
1297702.371547,28.000000,-24.000000,4.000000,31.000000,0.000000,-2.000000,5.000000,10.000000
1297702.371590,11.000000,68.000000,18.000000,15.000000,7.000000,0.000000,-4.000000,-2.000000
1297702.377930,16.000000,18.000000,-11.000000,-57.000000,-4.000000,-1.000000,-9.000000,-1.000000
1297702.377994,-4.000000,-8.000000,-5.000000,-21.000000,-10.000000,0.000000,3.000000,-3.000000
1297702.392655,17.000000,11.000000,7.000000,21.000000,-4.000000,0.000000,6.000000,7.000000
1297702.392673,2.000000,33.000000,-7.000000,11.000000,3.000000,3.000000,8.000000,7.000000
1297702.415189,5.000000,0.000000,22.000000,-9.000000,-1.000000,0.000000,-4.000000,-2.000000
1297702.415209,35.000000,10.000000,0.000000,-12.000000,-6.000000,1.000000,-1.000000,-18.000000
1297702.430372,7.000000,91.000000,9.000000,37.000000,6.000000,-3.000000,-3.000000,1.000000
1297702.430407,36.000000,12.000000,3.000000,-18.000000,7.000000,-1.000000,-6.000000,0.000000
1297702.452727,10.000000,-6.000000,2.000000,22.000000,3.000000,3.000000,6.000000,5.000000
1297702.452771,-12.000000,24.000000,24.000000,37.000000,-14.000000,-1.000000,-2.000000,-9.000000
1297702.454291,5.000000,-17.000000,4.000000,-5.000000,-16.000000,-4.000000,3.000000,3.000000
1297702.454308,-32.000000,-78.000000,-51.000000,-107.000000,2.000000,-1.000000,-8.000000,-12.000000
1297702.454660,13.000000,6.000000,16.000000,79.000000,-3.000000,-2.000000,-9.000000,-5.000000
1297702.454690,9.000000,15.000000,-13.000000,-92.000000,-8.000000,-1.000000,3.000000,7.000000
1297702.456038,-49.000000,-54.000000,-14.000000,55.000000,-2.000000,-3.000000,-12.000000,-14.000000
1297702.456058,0.000000,-3.000000,-11.000000,-78.000000,-4.000000,-1.000000,1.000000,3.000000
1297702.459922,27.000000,25.000000,8.000000,36.000000,-3.000000,-1.000000,-5.000000,-5.000000
1297702.459960,6.000000,83.000000,3.000000,-16.000000,-3.000000,0.000000,-1.000000,3.000000
1297702.467612,-38.000000,-67.000000,-26.000000,-30.000000,3.000000,-1.000000,-1.000000,1.000000
1297702.467649,0.000000,21.000000,17.000000,29.000000,-5.000000,0.000000,10.000000,4.000000
1297702.482510,0.000000,-6.000000,-7.000000,-14.000000,-11.000000,-3.000000,-10.000000,-16.000000
1297702.482594,-16.000000,25.000000,9.000000,25.000000,10.000000,1.000000,-1.000000,3.000000
1297702.490880,14.000000,78.000000,30.000000,38.000000,5.000000,1.000000,1.000000,3.000000
1297702.490914,-29.000000,52.000000,9.000000,-22.000000,-6.000000,1.000000,0.000000,-1.000000
1297702.497475,10.000000,-35.000000,8.000000,3.000000,2.000000,1.000000,7.000000,5.000000
1297702.497494,11.000000,13.000000,0.000000,-32.000000,6.000000,0.000000,-13.000000,-1.000000
1297702.512708,-8.000000,-37.000000,-3.000000,67.000000,8.000000,-7.000000,-10.000000,-31.000000
1297702.512808,15.000000,36.000000,24.000000,-14.000000,-7.000000,1.000000,7.000000,12.000000
1297702.535096,-1.000000,13.000000,-4.000000,-26.000000,-3.000000,-4.000000,-10.000000,-4.000000
1297702.535131,-12.000000,-85.000000,-4.000000,22.000000,3.000000,-3.000000,-3.000000,4.000000
1297702.557645,14.000000,16.000000,16.000000,37.000000,-2.000000,5.000000,15.000000,11.000000
1297702.557666,-44.000000,-128.000000,-27.000000,12.000000,-5.000000,-2.000000,-7.000000,-14.000000
1297702.572461,13.000000,17.000000,-10.000000,-76.000000,-5.000000,-2.000000,0.000000,-1.000000
1297702.572481,20.000000,5.000000,-18.000000,5.000000,2.000000,-4.000000,-10.000000,-4.000000
1297702.610328,-8.000000,44.000000,16.000000,-14.000000,2.000000,3.000000,14.000000,17.000000
1297702.610541,39.000000,10.000000,-2.000000,-30.000000,-10.000000,-9.000000,-19.000000,-23.000000
1297702.611033,6.000000,-3.000000,-6.000000,21.000000,-1.000000,-3.000000,-1.000000,4.000000
1297702.611282,-2.000000,10.000000,21.000000,33.000000,6.000000,5.000000,5.000000,2.000000
1297702.612534,21.000000,-11.000000,-13.000000,-12.000000,-6.000000,0.000000,2.000000,5.000000
1297702.612576,-67.000000,-77.000000,7.000000,55.000000,-10.000000,0.000000,-1.000000,-6.000000
1297702.613404,-25.000000,-5.000000,-20.000000,-111.000000,4.000000,0.000000,5.000000,1.000000
1297702.613431,11.000000,-51.000000,7.000000,3.000000,-1.000000,-3.000000,1.000000,-1.000000
1297702.613983,17.000000,13.000000,-30.000000,-44.000000,-10.000000,1.000000,-8.000000,1.000000
1297702.614001,-24.000000,-72.000000,4.000000,57.000000,2.000000,0.000000,4.000000,-2.000000
1297702.614197,-10.000000,13.000000,-6.000000,-12.000000,-1.000000,-1.000000,-6.000000,-14.000000
1297702.614208,-2.000000,19.000000,20.000000,34.000000,-3.000000,0.000000,0.000000,-2.000000
1297702.617614,-25.000000,-8.000000,-12.000000,-31.000000,3.000000,0.000000,-4.000000,-3.000000
1297702.617651,33.000000,113.000000,-1.000000,0.000000,3.000000,4.000000,1.000000,7.000000
1297702.632653,-8.000000,31.000000,33.000000,93.000000,-13.000000,-3.000000,-1.000000,3.000000
1297702.632692,-11.000000,-1.000000,-19.000000,-100.000000,-2.000000,2.000000,-3.000000,1.000000
1297702.647888,13.000000,72.000000,-19.000000,8.000000,6.000000,-2.000000,5.000000,-5.000000
1297702.647916,19.000000,-12.000000,6.000000,47.000000,0.000000,1.000000,3.000000,8.000000
1297702.662667,17.000000,-21.000000,-29.000000,-101.000000,-8.000000,1.000000,-3.000000,-8.000000
1297702.662687,13.000000,-40.000000,5.000000,-2.000000,-7.000000,-5.000000,-2.000000,0.000000
1297702.685072,7.000000,-6.000000,-6.000000,3.000000,-6.000000,-2.000000,-2.000000,-6.000000
1297702.685107,-21.000000,-22.000000,-16.000000,-41.000000,-9.000000,-4.000000,0.000000,1.000000
1297702.693693,8.000000,-1.000000,-2.000000,16.000000,1.000000,-2.000000,-2.000000,2.000000
1297702.693727,9.000000,-3.000000,5.000000,69.000000,1.000000,1.000000,3.000000,13.000000
1297702.693927,9.000000,79.000000,-10.000000,-119.000000,3.000000,-1.000000,1.000000,-15.000000
1297702.693955,-14.000000,-18.000000,0.000000,55.000000,-3.000000,-4.000000,-7.000000,-4.000000
1297702.695451,-17.000000,37.000000,-5.000000,66.000000,-14.000000,-3.000000,5.000000,5.000000
1297702.695470,22.000000,-26.000000,-22.000000,-80.000000,9.000000,5.000000,3.000000,3.000000
1297702.699959,22.000000,18.000000,8.000000,54.000000,0.000000,-3.000000,-6.000000,1.000000
1297702.700051,-41.000000,-23.000000,-7.000000,-30.000000,-13.000000,-8.000000,-7.000000,-12.000000
1297702.707670,23.000000,40.000000,20.000000,40.000000,4.000000,4.000000,6.000000,8.000000
1297702.707698,20.000000,33.000000,1.000000,29.000000,-7.000000,-2.000000,4.000000,8.000000
1297702.722797,13.000000,8.000000,-10.000000,-73.000000,7.000000,-5.000000,-14.000000,-5.000000
1297702.722816,-44.000000,6.000000,18.000000,6.000000,5.000000,1.000000,0.000000,-15.000000
1297702.730960,43.000000,24.000000,20.000000,29.000000,0.000000,5.000000,12.000000,16.000000
1297702.730998,-4.000000,-91.000000,-13.000000,20.000000,0.000000,-7.000000,-5.000000,-6.000000
1297702.737415,-75.000000,-38.000000,-33.000000,4.000000,-6.000000,-9.000000,-20.000000,-24.000000
1297702.737433,25.000000,78.000000,10.000000,-7.000000,3.000000,6.000000,5.000000,11.000000
1297702.805405,24.000000,16.000000,17.000000,-4.000000,0.000000,-3.000000,3.000000,-1.000000
1297702.805450,-38.000000,-4.000000,3.000000,-14.000000,4.000000,7.000000,5.000000,1.000000
1297702.812871,23.000000,75.000000,13.000000,12.000000,3.000000,-3.000000,-3.000000,0.000000
1297702.813093,3.000000,6.000000,-12.000000,-82.000000,-15.000000,-7.000000,-10.000000,-10.000000
1297702.814580,-50.000000,-15.000000,6.000000,-22.000000,-2.000000,-3.000000,-6.000000,-7.000000
1297702.814617,21.000000,42.000000,8.000000,66.000000,5.000000,5.000000,11.000000,16.000000
1297702.814949,28.000000,8.000000,8.000000,8.000000,6.000000,2.000000,9.000000,13.000000
1297702.815270,27.000000,0.000000,-14.000000,-79.000000,3.000000,-4.000000,-12.000000,-18.000000
1297702.820421,-45.000000,-38.000000,-6.000000,19.000000,-2.000000,-2.000000,-4.000000,-3.000000
1297702.820462,-7.000000,-76.000000,-2.000000,-5.000000,-4.000000,4.000000,5.000000,4.000000
1297702.821191,11.000000,4.000000,11.000000,27.000000,-5.000000,-3.000000,-1.000000,1.000000
1297702.821229,21.000000,-24.000000,-1.000000,-1.000000,-12.000000,2.000000,7.000000,15.000000
1297702.835248,-29.000000,61.000000,2.000000,0.000000,13.000000,8.000000,8.000000,3.000000
1297702.835308,3.000000,-11.000000,-8.000000,-11.000000,-7.000000,-9.000000,-18.000000,-33.000000
1297702.836192,-32.000000,-11.000000,-6.000000,-5.000000,1.000000,-6.000000,-6.000000,1.000000
1297702.836236,18.000000,-6.000000,6.000000,-5.000000,-3.000000,2.000000,3.000000,-4.000000
1297702.850284,8.000000,34.000000,12.000000,21.000000,-4.000000,-3.000000,-5.000000,2.000000
1297702.850306,21.000000,73.000000,-13.000000,-32.000000,2.000000,1.000000,1.000000,1.000000
1297702.857819,7.000000,-1.000000,2.000000,17.000000,-3.000000,-4.000000,-5.000000,-2.000000
1297702.857856,-15.000000,-12.000000,3.000000,10.000000,7.000000,0.000000,2.000000,-3.000000
1297702.887683,-52.000000,-1.000000,-9.000000,11.000000,-3.000000,5.000000,-1.000000,-3.000000
1297702.887704,15.000000,23.000000,11.000000,19.000000,-13.000000,0.000000,6.000000,1.000000
1297702.894984,14.000000,6.000000,10.000000,26.000000,10.000000,-5.000000,-17.000000,-6.000000
1297702.895023,31.000000,9.000000,-14.000000,23.000000,16.000000,8.000000,17.000000,22.000000
1297702.910153,8.000000,-73.000000,-5.000000,-16.000000,-14.000000,-7.000000,-19.000000,-21.000000
1297702.910191,-6.000000,30.000000,-6.000000,-43.000000,3.000000,0.000000,-4.000000,-5.000000
1297702.925313,23.000000,-21.000000,3.000000,35.000000,7.000000,4.000000,16.000000,16.000000
1297702.925352,10.000000,6.000000,9.000000,81.000000,-9.000000,-6.000000,1.000000,6.000000
1297702.947688,-31.000000,-126.000000,-9.000000,-12.000000,0.000000,1.000000,-10.000000,-11.000000
1297702.947907,-13.000000,-23.000000,-10.000000,-22.000000,10.000000,-6.000000,1.000000,-1.000000
1297702.948746,16.000000,-29.000000,5.000000,7.000000,-5.000000,-1.000000,2.000000,-1.000000
1297702.948782,-57.000000,-13.000000,13.000000,51.000000,-6.000000,-3.000000,1.000000,-5.000000
1297702.949593,36.000000,5.000000,11.000000,56.000000,8.000000,7.000000,20.000000,17.000000
1297702.949608,-48.000000,-9.000000,-26.000000,-105.000000,-19.000000,-5.000000,-32.000000,-22.000000
1297702.950286,6.000000,5.000000,16.000000,-8.000000,9.000000,-5.000000,-9.000000,-5.000000
1297702.950327,-5.000000,-18.000000,10.000000,53.000000,4.000000,4.000000,9.000000,4.000000
1297702.951023,18.000000,-23.000000,1.000000,24.000000,-7.000000,-3.000000,3.000000,13.000000
1297702.951041,-3.000000,-7.000000,-9.000000,-59.000000,-1.000000,0.000000,-8.000000,-15.000000
1297702.970578,-13.000000,6.000000,11.000000,-19.000000,3.000000,-5.000000,-4.000000,-2.000000
1297702.970662,12.000000,-2.000000,6.000000,37.000000,8.000000,5.000000,14.000000,18.000000
1297702.971441,26.000000,102.000000,23.000000,32.000000,4.000000,4.000000,17.000000,12.000000
1297702.971519,-34.000000,-27.000000,-7.000000,-23.000000,-13.000000,-14.000000,-37.000000,-37.000000
1297702.977951,-10.000000,-26.000000,5.000000,-18.000000,-4.000000,0.000000,1.000000,1.000000
1297702.977993,3.000000,-70.000000,-14.000000,11.000000,6.000000,5.000000,9.000000,7.000000
1297703.015102,18.000000,-13.000000,5.000000,15.000000,0.000000,2.000000,4.000000,7.000000
1297703.015135,-11.000000,-92.000000,-8.000000,24.000000,-5.000000,0.000000,-11.000000,-8.000000
1297703.022785,-13.000000,10.000000,7.000000,-35.000000,22.000000,4.000000,-6.000000,-6.000000
1297703.022805,-8.000000,7.000000,-3.000000,-23.000000,5.000000,-4.000000,-3.000000,8.000000
1297703.045681,6.000000,-40.000000,8.000000,51.000000,-5.000000,0.000000,1.000000,-11.000000
1297703.045719,-87.000000,5.000000,8.000000,2.000000,-9.000000,-1.000000,4.000000,0.000000
1297703.047047,12.000000,61.000000,-11.000000,-25.000000,-14.000000,-4.000000,4.000000,2.000000
1297703.047075,-24.000000,-21.000000,5.000000,34.000000,10.000000,2.000000,-14.000000,-19.000000
1297703.047481,1.000000,-13.000000,-8.000000,-8.000000,1.000000,-2.000000,-5.000000,3.000000
1297703.047496,22.000000,13.000000,-1.000000,23.000000,-7.000000,0.000000,7.000000,2.000000
1297703.048393,-2.000000,-20.000000,-4.000000,30.000000,-2.000000,-4.000000,-6.000000,-1.000000
1297703.048416,6.000000,-1.000000,10.000000,25.000000,0.000000,1.000000,0.000000,-3.000000
1297703.049527,14.000000,17.000000,13.000000,35.000000,1.000000,0.000000,-6.000000,-2.000000
1297703.049554,0.000000,-128.000000,-24.000000,-61.000000,5.000000,-3.000000,-4.000000,-1.000000
1297703.060320,-28.000000,-49.000000,-33.000000,-51.000000,-12.000000,-9.000000,-22.000000,-16.000000
1297703.060472,17.000000,-18.000000,10.000000,38.000000,0.000000,3.000000,6.000000,13.000000
1297703.075002,-1.000000,16.000000,2.000000,-2.000000,-3.000000,3.000000,12.000000,10.000000
1297703.075039,22.000000,12.000000,11.000000,25.000000,-7.000000,1.000000,7.000000,3.000000
1297703.090110,11.000000,-50.000000,-8.000000,-16.000000,-12.000000,-13.000000,-18.000000,-15.000000
1297703.090325,21.000000,-4.000000,-13.000000,-41.000000,5.000000,0.000000,-2.000000,0.000000
1297703.091473,13.000000,67.000000,35.000000,11.000000,2.000000,4.000000,7.000000,9.000000
1297703.091491,0.000000,0.000000,-8.000000,68.000000,-3.000000,2.000000,9.000000,4.000000
1297703.097433,23.000000,63.000000,8.000000,-84.000000,15.000000,-2.000000,-15.000000,-12.000000
1297703.097495,7.000000,-16.000000,-5.000000,49.000000,12.000000,-5.000000,-1.000000,-3.000000
1297703.135132,-15.000000,21.000000,13.000000,6.000000,-11.000000,2.000000,6.000000,3.000000
1297703.135169,41.000000,-6.000000,10.000000,9.000000,2.000000,0.000000,9.000000,8.000000
1297703.165096,-21.000000,-20.000000,-5.000000,12.000000,-6.000000,-5.000000,-8.000000,-11.000000
1297703.165117,3.000000,-6.000000,-6.000000,-29.000000,-6.000000,1.000000,-1.000000,-1.000000
1297703.181298,0.000000,-93.000000,-4.000000,21.000000,0.000000,-1.000000,0.000000,-1.000000
1297703.181326,-15.000000,-4.000000,3.000000,-13.000000,-8.000000,0.000000,-9.000000,-11.000000
1297703.181494,6.000000,-20.000000,-6.000000,18.000000,-3.000000,-6.000000,4.000000,9.000000
1297703.181527,10.000000,2.000000,-13.000000,-65.000000,-9.000000,-1.000000,2.000000,0.000000
1297703.182699,16.000000,46.000000,11.000000,-12.000000,2.000000,-5.000000,-5.000000,0.000000
1297703.182722,16.000000,-27.000000,-7.000000,-4.000000,6.000000,9.000000,9.000000,6.000000
1297703.183331,13.000000,78.000000,-11.000000,-3.000000,3.000000,-5.000000,-11.000000,-6.000000
1297703.183369,3.000000,7.000000,16.000000,24.000000,-9.000000,4.000000,10.000000,13.000000
1297703.202724,-4.000000,-25.000000,-22.000000,-69.000000,-16.000000,-10.000000,-15.000000,-18.000000
1297703.202964,-31.000000,7.000000,22.000000,28.000000,6.000000,-4.000000,-4.000000,-1.000000
1297703.203438,-1.000000,6.000000,14.000000,11.000000,11.000000,1.000000,1.000000,4.000000
1297703.203645,14.000000,16.000000,1.000000,-5.000000,-12.000000,-4.000000,-2.000000,4.000000
1297703.210301,40.000000,-24.000000,-11.000000,-27.000000,-2.000000,1.000000,6.000000,6.000000
1297703.210339,-19.000000,92.000000,16.000000,20.000000,22.000000,8.000000,15.000000,6.000000
1297703.217533,-49.000000,-10.000000,3.000000,19.000000,-11.000000,-9.000000,-24.000000,-25.000000
1297703.217574,-24.000000,4.000000,-10.000000,-38.000000,-6.000000,-3.000000,4.000000,4.000000
1297703.255219,38.000000,18.000000,-9.000000,-5.000000,7.000000,7.000000,16.000000,21.000000
1297703.255257,35.000000,12.000000,7.000000,38.000000,0.000000,12.000000,21.000000,8.000000
1297703.285035,-15.000000,-103.000000,-31.000000,-68.000000,-14.000000,-12.000000,-45.000000,-43.000000
1297703.285210,-4.000000,5.000000,3.000000,-14.000000,7.000000,-6.000000,-7.000000,-7.000000
1297703.286233,18.000000,23.000000,27.000000,41.000000,7.000000,4.000000,10.000000,13.000000
1297703.286261,33.000000,12.000000,-5.000000,8.000000,4.000000,6.000000,12.000000,17.000000
1297703.286925,-5.000000,-8.000000,10.000000,3.000000,17.000000,9.000000,6.000000,-6.000000
1297703.286962,-11.000000,-2.000000,-3.000000,-11.000000,-17.000000,-16.000000,-28.000000,-16.000000
1297703.288545,-7.000000,48.000000,-5.000000,16.000000,3.000000,1.000000,1.000000,0.000000
1297703.288582,6.000000,-30.000000,-6.000000,-24.000000,3.000000,10.000000,11.000000,12.000000
1297703.289216,-4.000000,0.000000,-11.000000,14.000000,1.000000,-5.000000,-4.000000,1.000000
1297703.289252,-17.000000,5.000000,1.000000,19.000000,-5.000000,-3.000000,-10.000000,-20.000000
1297703.299906,-3.000000,14.000000,0.000000,-29.000000,6.000000,2.000000,5.000000,6.000000
1297703.299941,28.000000,-4.000000,6.000000,-21.000000,2.000000,4.000000,-9.000000,-7.000000
1297703.315112,9.000000,0.000000,-20.000000,-40.000000,5.000000,-3.000000,3.000000,-1.000000
1297703.315149,-25.000000,-53.000000,-4.000000,19.000000,-5.000000,-7.000000,-8.000000,0.000000
1297703.322744,14.000000,18.000000,27.000000,49.000000,0.000000,4.000000,7.000000,12.000000
1297703.322780,-32.000000,-72.000000,-11.000000,1.000000,-4.000000,-1.000000,-17.000000,-11.000000
1297703.330109,-26.000000,-11.000000,-13.000000,32.000000,-8.000000,-11.000000,-27.000000,-40.000000
1297703.330131,19.000000,13.000000,12.000000,-9.000000,5.000000,-1.000000,11.000000,19.000000
1297703.367803,17.000000,92.000000,10.000000,32.000000,3.000000,9.000000,14.000000,17.000000
1297703.367843,6.000000,-19.000000,-25.000000,-63.000000,-8.000000,-1.000000,6.000000,-1.000000
1297703.390535,-19.000000,126.000000,34.000000,18.000000,8.000000,0.000000,2.000000,2.000000
1297703.390556,13.000000,-36.000000,5.000000,63.000000,-6.000000,-4.000000,-11.000000,-9.000000
1297703.405347,14.000000,-31.000000,-21.000000,-87.000000,4.000000,2.000000,-1.000000,-2.000000
1297703.405399,-25.000000,11.000000,24.000000,23.000000,-9.000000,1.000000,5.000000,5.000000
1297703.406680,-5.000000,9.000000,-18.000000,-20.000000,-4.000000,-4.000000,0.000000,1.000000
1297703.406938,-14.000000,6.000000,13.000000,23.000000,0.000000,5.000000,4.000000,1.000000
1297703.407745,-3.000000,17.000000,17.000000,13.000000,-6.000000,-3.000000,-5.000000,-6.000000
1297703.407766,6.000000,-103.000000,-40.000000,1.000000,-7.000000,-3.000000,0.000000,1.000000
1297703.408829,7.000000,6.000000,1.000000,-27.000000,-2.000000,-1.000000,6.000000,10.000000
1297703.408848,-1.000000,-45.000000,-7.000000,-21.000000,9.000000,4.000000,0.000000,-5.000000
1297703.408937,8.000000,-26.000000,13.000000,48.000000,-6.000000,-4.000000,3.000000,3.000000
1297703.408947,3.000000,-32.000000,-47.000000,-102.000000,-15.000000,-10.000000,-23.000000,-26.000000
1297703.412574,-51.000000,57.000000,5.000000,-16.000000,-6.000000,-2.000000,6.000000,8.000000
1297703.412593,-10.000000,-46.000000,3.000000,42.000000,0.000000,-2.000000,-5.000000,-9.000000
1297703.427481,-8.000000,8.000000,12.000000,14.000000,-1.000000,3.000000,-3.000000,1.000000
1297703.427502,7.000000,-14.000000,-43.000000,-53.000000,-14.000000,-6.000000,5.000000,7.000000
1297703.442655,7.000000,-1.000000,12.000000,50.000000,7.000000,4.000000,5.000000,7.000000
1297703.442681,-14.000000,1.000000,-6.000000,-52.000000,-5.000000,1.000000,7.000000,5.000000
1297703.443369,-8.000000,0.000000,6.000000,24.000000,-7.000000,2.000000,6.000000,3.000000
1297703.443405,6.000000,7.000000,-5.000000,-46.000000,-3.000000,-4.000000,-10.000000,-10.000000
1297703.450181,12.000000,57.000000,12.000000,27.000000,5.000000,-12.000000,-9.000000,-4.000000
1297703.450220,28.000000,101.000000,19.000000,54.000000,3.000000,5.000000,1.000000,8.000000
1297703.457747,-2.000000,127.000000,11.000000,-46.000000,5.000000,4.000000,7.000000,1.000000
1297703.457777,-21.000000,-24.000000,-12.000000,9.000000,-16.000000,-9.000000,-17.000000,-20.000000
1297703.487673,15.000000,8.000000,12.000000,65.000000,17.000000,4.000000,3.000000,10.000000
1297703.487711,-20.000000,-10.000000,-8.000000,-59.000000,6.000000,7.000000,12.000000,6.000000
1297703.495325,11.000000,16.000000,3.000000,20.000000,2.000000,0.000000,5.000000,7.000000
1297703.495366,16.000000,-15.000000,3.000000,34.000000,5.000000,7.000000,12.000000,5.000000
1297703.510108,-46.000000,-13.000000,-16.000000,-56.000000,-4.000000,-5.000000,-12.000000,-11.000000
1297703.510193,-7.000000,-28.000000,0.000000,-50.000000,6.000000,-6.000000,-8.000000,-20.000000
1297703.525281,14.000000,11.000000,18.000000,17.000000,-8.000000,0.000000,2.000000,7.000000
1297703.525325,-10.000000,15.000000,7.000000,13.000000,13.000000,10.000000,6.000000,-5.000000
1297703.555203,-25.000000,-21.000000,-11.000000,45.000000,0.000000,-8.000000,-8.000000,-7.000000
1297703.555577,-3.000000,-15.000000,-4.000000,-22.000000,-7.000000,-9.000000,-9.000000,-3.000000
1297703.556112,17.000000,36.000000,7.000000,-21.000000,4.000000,6.000000,12.000000,9.000000
1297703.556129,11.000000,-18.000000,-6.000000,-23.000000,2.000000,5.000000,7.000000,5.000000
1297703.562366,-1.000000,0.000000,22.000000,108.000000,15.000000,7.000000,6.000000,2.000000
1297703.562392,-27.000000,-10.000000,-7.000000,-30.000000,-7.000000,-9.000000,-13.000000,-12.000000
1297703.562973,-22.000000,40.000000,-10.000000,-96.000000,-14.000000,-12.000000,-6.000000,4.000000
1297703.563013,-8.000000,20.000000,8.000000,-22.000000,11.000000,3.000000,9.000000,-8.000000
1297703.564501,32.000000,21.000000,16.000000,92.000000,4.000000,3.000000,-9.000000,-10.000000
1297703.564528,-7.000000,-14.000000,-14.000000,-55.000000,-9.000000,-2.000000,-7.000000,1.000000
1297703.565190,-20.000000,-97.000000,-12.000000,56.000000,-6.000000,-4.000000,-3.000000,-2.000000
1297703.565208,-63.000000,1.000000,4.000000,-14.000000,1.000000,1.000000,1.000000,1.000000
1297703.569912,4.000000,-20.000000,-10.000000,-21.000000,0.000000,4.000000,6.000000,8.000000
1297703.569950,-14.000000,-69.000000,6.000000,46.000000,-11.000000,-3.000000,-10.000000,-12.000000
1297703.577627,7.000000,-26.000000,-16.000000,-72.000000,5.000000,6.000000,4.000000,-5.000000
1297703.577663,-16.000000,0.000000,18.000000,39.000000,-1.000000,2.000000,-1.000000,-1.000000
1297703.600125,24.000000,-4.000000,-18.000000,-24.000000,0.000000,-3.000000,-10.000000,4.000000
1297703.600163,-1.000000,2.000000,10.000000,21.000000,1.000000,1.000000,11.000000,16.000000
1297703.607791,-3.000000,-12.000000,-41.000000,-30.000000,-4.000000,-3.000000,-20.000000,-25.000000
1297703.607823,14.000000,-49.000000,-14.000000,-54.000000,-9.000000,-2.000000,0.000000,0.000000
1297703.637562,11.000000,-1.000000,6.000000,40.000000,7.000000,1.000000,3.000000,9.000000
1297703.637581,-4.000000,-19.000000,-10.000000,-30.000000,-4.000000,3.000000,6.000000,1.000000
1297703.645129,-43.000000,-23.000000,-19.000000,-14.000000,0.000000,-7.000000,-17.000000,-15.000000
1297703.645476,1.000000,0.000000,7.000000,79.000000,9.000000,2.000000,0.000000,8.000000
1297703.646588,35.000000,-7.000000,-11.000000,-69.000000,-3.000000,4.000000,12.000000,12.000000
1297703.646623,-55.000000,-40.000000,8.000000,42.000000,-5.000000,0.000000,-1.000000,-13.000000
1297703.646892,10.000000,8.000000,-16.000000,-36.000000,-2.000000,0.000000,-1.000000,1.000000
1297703.646925,22.000000,-85.000000,-4.000000,28.000000,14.000000,4.000000,12.000000,11.000000
1297703.652923,-18.000000,-66.000000,-4.000000,-8.000000,-3.000000,-6.000000,-16.000000,-13.000000
1297703.652959,-10.000000,32.000000,-2.000000,-23.000000,-4.000000,-2.000000,1.000000,6.000000
1297703.682521,24.000000,-13.000000,-1.000000,27.000000,1.000000,1.000000,4.000000,-20.000000
1297703.682557,-34.000000,-44.000000,-16.000000,-25.000000,-10.000000,-2.000000,-9.000000,-6.000000
1297703.683084,16.000000,5.000000,9.000000,38.000000,6.000000,1.000000,0.000000,5.000000
1297703.683101,4.000000,-1.000000,-6.000000,-33.000000,-6.000000,7.000000,5.000000,5.000000
1297703.684406,1.000000,6.000000,0.000000,-21.000000,-12.000000,-5.000000,-5.000000,-8.000000
1297703.684443,5.000000,1.000000,4.000000,31.000000,18.000000,0.000000,-6.000000,-3.000000
1297703.690158,5.000000,-30.000000,-6.000000,-56.000000,-5.000000,0.000000,5.000000,1.000000
1297703.690196,-17.000000,6.000000,1.000000,28.000000,0.000000,3.000000,9.000000,7.000000
1297703.727801,22.000000,19.000000,16.000000,23.000000,-9.000000,-2.000000,1.000000,6.000000
1297703.727907,17.000000,109.000000,16.000000,2.000000,2.000000,-4.000000,-7.000000,3.000000
1297703.742749,0.000000,41.000000,1.000000,-26.000000,5.000000,-3.000000,-7.000000,-30.000000
1297703.742770,13.000000,-5.000000,4.000000,-4.000000,-3.000000,-4.000000,-4.000000,1.000000
1297703.757578,-7.000000,21.000000,-5.000000,-32.000000,6.000000,9.000000,9.000000,11.000000
1297703.757772,16.000000,96.000000,3.000000,-3.000000,-5.000000,-3.000000,2.000000,-4.000000
1297703.758258,45.000000,2.000000,4.000000,15.000000,7.000000,-2.000000,-5.000000,0.000000
1297703.758283,2.000000,-15.000000,-4.000000,-35.000000,-1.000000,-2.000000,2.000000,8.000000
1297703.759360,6.000000,-15.000000,4.000000,32.000000,-2.000000,1.000000,9.000000,6.000000
1297703.759388,-6.000000,-16.000000,-21.000000,-78.000000,-6.000000,-5.000000,-15.000000,-12.000000
1297703.760149,-2.000000,1.000000,19.000000,50.000000,3.000000,-1.000000,2.000000,0.000000
1297703.760183,40.000000,5.000000,-17.000000,-19.000000,1.000000,4.000000,22.000000,28.000000
1297703.765618,7.000000,2.000000,-4.000000,7.000000,-10.000000,-2.000000,-16.000000,-27.000000
1297703.765654,-63.000000,-42.000000,-8.000000,7.000000,-6.000000,-12.000000,-12.000000,-13.000000
1297703.772782,-51.000000,-55.000000,1.000000,-23.000000,-5.000000,-4.000000,-4.000000,-3.000000
1297703.772820,38.000000,-28.000000,-6.000000,-33.000000,-8.000000,5.000000,9.000000,11.000000
1297703.780609,-33.000000,16.000000,17.000000,20.000000,1.000000,4.000000,10.000000,4.000000
1297703.780644,26.000000,66.000000,6.000000,18.000000,-1.000000,-1.000000,-6.000000,-5.000000
1297703.802716,10.000000,10.000000,5.000000,74.000000,24.000000,8.000000,3.000000,1.000000
1297703.802736,10.000000,-57.000000,-17.000000,-86.000000,-12.000000,-7.000000,-12.000000,-7.000000
1297703.817554,-36.000000,4.000000,4.000000,0.000000,-6.000000,0.000000,0.000000,-4.000000
1297703.817595,33.000000,21.000000,9.000000,8.000000,-2.000000,-1.000000,7.000000,16.000000
1297703.840348,-48.000000,-16.000000,-14.000000,-6.000000,-3.000000,-4.000000,-6.000000,-32.000000
1297703.840370,12.000000,6.000000,-2.000000,-82.000000,-1.000000,-7.000000,-13.000000,-11.000000
1297703.855304,-17.000000,-7.000000,17.000000,72.000000,3.000000,3.000000,3.000000,3.000000
1297703.855340,5.000000,34.000000,2.000000,-35.000000,-7.000000,3.000000,13.000000,10.000000
1297703.870180,-3.000000,72.000000,23.000000,73.000000,14.000000,0.000000,2.000000,1.000000
1297703.870213,35.000000,86.000000,3.000000,-56.000000,5.000000,6.000000,-2.000000,2.000000
1297703.885380,-1.000000,-11.000000,-2.000000,32.000000,-5.000000,1.000000,6.000000,1.000000
1297703.885484,33.000000,24.000000,-5.000000,-49.000000,-8.000000,-8.000000,1.000000,1.000000
1297703.892945,4.000000,-3.000000,3.000000,34.000000,3.000000,-1.000000,-8.000000,-3.000000
1297703.892963,21.000000,-14.000000,1.000000,-19.000000,0.000000,-3.000000,-5.000000,1.000000
1297703.922479,23.000000,19.000000,8.000000,-2.000000,-1.000000,2.000000,0.000000,4.000000
1297703.922500,10.000000,11.000000,9.000000,69.000000,5.000000,-1.000000,2.000000,5.000000
1297703.930025,9.000000,-16.000000,-29.000000,-88.000000,-9.000000,-4.000000,-2.000000,0.000000
1297703.930063,-8.000000,-21.000000,8.000000,84.000000,7.000000,1.000000,5.000000,2.000000
1297703.960142,-17.000000,-128.000000,-2.000000,-62.000000,-12.000000,-5.000000,-10.000000,-7.000000
1297703.960185,-9.000000,-1.000000,3.000000,13.000000,0.000000,-4.000000,-13.000000,-11.000000
1297703.967438,25.000000,-27.000000,-22.000000,-61.000000,13.000000,8.000000,4.000000,3.000000
1297703.967480,-9.000000,8.000000,17.000000,79.000000,-2.000000,-1.000000,6.000000,6.000000
1297703.990190,-48.000000,-16.000000,5.000000,-7.000000,-2.000000,2.000000,1.000000,4.000000
1297703.990210,8.000000,-2.000000,-7.000000,-4.000000,5.000000,0.000000,-1.000000,-23.000000
1297703.999276,1.000000,-9.000000,3.000000,4.000000,-7.000000,-2.000000,6.000000,1.000000
1297703.999357,19.000000,-20.000000,6.000000,12.000000,-5.000000,0.000000,-6.000000,-9.000000
1297704.000256,3.000000,83.000000,16.000000,31.000000,11.000000,0.000000,5.000000,6.000000
1297704.000294,8.000000,2.000000,6.000000,-3.000000,-17.000000,0.000000,3.000000,4.000000
1297704.006153,16.000000,-9.000000,9.000000,-23.000000,-5.000000,1.000000,-7.000000,-6.000000
1297704.006172,8.000000,-12.000000,-5.000000,-32.000000,-4.000000,-7.000000,-13.000000,-6.000000
1297704.012784,-3.000000,26.000000,-5.000000,37.000000,6.000000,1.000000,5.000000,7.000000
1297704.012809,17.000000,19.000000,15.000000,24.000000,7.000000,4.000000,16.000000,20.000000
1297704.035669,-42.000000,-13.000000,1.000000,-10.000000,-16.000000,-6.000000,-16.000000,-24.000000
1297704.035779,7.000000,-91.000000,-7.000000,-3.000000,7.000000,1.000000,-5.000000,-7.000000
1297704.036520,6.000000,25.000000,12.000000,-15.000000,2.000000,4.000000,6.000000,6.000000
1297704.036547,-12.000000,-31.000000,1.000000,15.000000,-12.000000,-7.000000,-6.000000,0.000000
1297704.050591,12.000000,11.000000,-2.000000,-6.000000,-7.000000,0.000000,1.000000,4.000000
1297704.050645,5.000000,-4.000000,-4.000000,-14.000000,18.000000,4.000000,0.000000,1.000000
1297704.065208,5.000000,-1.000000,2.000000,3.000000,-1.000000,4.000000,5.000000,2.000000
1297704.065253,23.000000,-11.000000,8.000000,-21.000000,1.000000,0.000000,6.000000,3.000000
1297704.087769,6.000000,104.000000,25.000000,72.000000,-1.000000,3.000000,6.000000,6.000000
1297704.087788,23.000000,-4.000000,-41.000000,-102.000000,-5.000000,3.000000,3.000000,5.000000
1297704.117606,-50.000000,-12.000000,14.000000,12.000000,3.000000,-1.000000,-7.000000,-7.000000
1297704.117692,-24.000000,67.000000,1.000000,-20.000000,1.000000,-10.000000,-27.000000,-31.000000
1297704.125976,14.000000,-2.000000,2.000000,31.000000,-1.000000,4.000000,12.000000,20.000000
1297704.125994,8.000000,11.000000,5.000000,-8.000000,0.000000,-4.000000,4.000000,-4.000000
1297704.126515,26.000000,-109.000000,-9.000000,-7.000000,-11.000000,-5.000000,-4.000000,-5.000000
1297704.126774,-102.000000,-55.000000,-40.000000,0.000000,-6.000000,-2.000000,0.000000,-8.000000
1297704.127962,-1.000000,5.000000,12.000000,-31.000000,-6.000000,0.000000,0.000000,0.000000
1297704.127982,2.000000,-13.000000,-5.000000,-3.000000,0.000000,2.000000,1.000000,3.000000
1297704.128560,12.000000,9.000000,8.000000,63.000000,10.000000,6.000000,5.000000,6.000000
1297704.128596,9.000000,-7.000000,-1.000000,5.000000,6.000000,-4.000000,5.000000,7.000000
1297704.132541,-49.000000,-52.000000,-17.000000,-28.000000,-4.000000,5.000000,7.000000,5.000000
1297704.132559,-10.000000,-4.000000,5.000000,26.000000,-8.000000,-5.000000,-8.000000,-16.000000
1297704.162670,-15.000000,-128.000000,-13.000000,22.000000,-5.000000,-6.000000,1.000000,4.000000
1297704.162774,-22.000000,6.000000,-15.000000,-85.000000,7.000000,6.000000,-4.000000,-2.000000
1297704.170278,-14.000000,-9.000000,7.000000,33.000000,-4.000000,2.000000,2.000000,7.000000
1297704.170324,37.000000,16.000000,17.000000,46.000000,-8.000000,2.000000,9.000000,9.000000
1297704.207646,-20.000000,-60.000000,-20.000000,-60.000000,8.000000,-9.000000,-23.000000,-19.000000
1297704.207684,17.000000,-26.000000,13.000000,35.000000,8.000000,1.000000,8.000000,12.000000
1297704.222804,18.000000,3.000000,12.000000,49.000000,8.000000,9.000000,11.000000,6.000000
1297704.222840,-41.000000,-18.000000,-26.000000,-68.000000,-6.000000,-8.000000,-19.000000,-16.000000
1297704.238680,10.000000,1.000000,13.000000,38.000000,4.000000,0.000000,-4.000000,10.000000
1297704.238707,-4.000000,11.000000,22.000000,54.000000,11.000000,2.000000,-1.000000,-19.000000
1297704.239396,3.000000,38.000000,21.000000,-43.000000,-5.000000,-4.000000,4.000000,3.000000
1297704.239424,-18.000000,-8.000000,4.000000,25.000000,-2.000000,-3.000000,3.000000,1.000000
1297704.241230,59.000000,11.000000,0.000000,37.000000,8.000000,6.000000,2.000000,8.000000
1297704.241275,-9.000000,-10.000000,8.000000,27.000000,-11.000000,-3.000000,-8.000000,-8.000000
1297704.275197,-16.000000,-19.000000,-26.000000,8.000000,-2.000000,4.000000,-4.000000,-2.000000
1297704.275234,21.000000,23.000000,6.000000,-12.000000,0.000000,0.000000,2.000000,3.000000
1297704.290581,11.000000,1.000000,7.000000,26.000000,9.000000,5.000000,6.000000,6.000000
1297704.290623,-45.000000,-40.000000,-10.000000,-27.000000,-6.000000,-5.000000,-5.000000,-7.000000
1297704.312722,18.000000,-3.000000,3.000000,65.000000,11.000000,5.000000,-4.000000,4.000000
1297704.312843,9.000000,77.000000,-4.000000,-83.000000,4.000000,4.000000,4.000000,7.000000
1297704.327631,-12.000000,15.000000,8.000000,31.000000,-13.000000,-3.000000,-5.000000,-12.000000
1297704.327940,4.000000,-8.000000,-6.000000,42.000000,2.000000,0.000000,6.000000,12.000000
1297704.328703,11.000000,-15.000000,-9.000000,13.000000,15.000000,6.000000,-10.000000,-22.000000
1297704.329017,27.000000,-10.000000,2.000000,-46.000000,-14.000000,-3.000000,2.000000,4.000000
1297704.329575,-11.000000,11.000000,-17.000000,-44.000000,10.000000,-5.000000,-9.000000,-5.000000
1297704.329611,42.000000,-2.000000,8.000000,23.000000,-1.000000,2.000000,8.000000,8.000000
1297704.330212,-12.000000,-12.000000,-2.000000,-12.000000,-4.000000,-7.000000,-5.000000,-9.000000
1297704.330249,16.000000,2.000000,10.000000,-6.000000,-6.000000,-9.000000,-14.000000,-13.000000
1297704.335210,20.000000,19.000000,4.000000,26.000000,-6.000000,-3.000000,-7.000000,1.000000
1297704.335233,26.000000,-14.000000,-1.000000,-6.000000,-1.000000,0.000000,-7.000000,-3.000000
1297704.357789,-56.000000,13.000000,15.000000,37.000000,-1.000000,1.000000,6.000000,-12.000000
1297704.357812,39.000000,63.000000,23.000000,-47.000000,12.000000,-3.000000,-11.000000,-7.000000
1297704.358368,-9.000000,58.000000,8.000000,38.000000,4.000000,5.000000,7.000000,5.000000
1297704.358384,-9.000000,-4.000000,7.000000,-56.000000,-4.000000,-3.000000,6.000000,9.000000
1297704.364923,31.000000,64.000000,12.000000,47.000000,-9.000000,-8.000000,-6.000000,-8.000000
1297704.364942,-1.000000,-5.000000,-8.000000,-29.000000,19.000000,9.000000,0.000000,3.000000
1297704.388426,12.000000,9.000000,3.000000,-19.000000,-4.000000,-2.000000,3.000000,-2.000000
1297704.388472,21.000000,13.000000,17.000000,4.000000,-8.000000,-6.000000,1.000000,2.000000
1297704.403032,-8.000000,4.000000,9.000000,47.000000,2.000000,2.000000,9.000000,9.000000
1297704.403057,-84.000000,-35.000000,-10.000000,7.000000,-13.000000,-2.000000,1.000000,-4.000000
1297704.410542,15.000000,4.000000,3.000000,-21.000000,4.000000,-3.000000,-10.000000,-26.000000
1297704.410569,-7.000000,7.000000,-4.000000,7.000000,1.000000,-5.000000,-6.000000,-3.000000
1297704.440561,-1.000000,68.000000,12.000000,4.000000,10.000000,4.000000,-4.000000,-5.000000
1297704.440588,5.000000,4.000000,16.000000,25.000000,-6.000000,4.000000,7.000000,7.000000
1297704.447973,6.000000,-14.000000,-1.000000,12.000000,0.000000,0.000000,13.000000,13.000000
1297704.448034,-6.000000,97.000000,17.000000,-27.000000,0.000000,1.000000,0.000000,2.000000
1297704.478782,-3.000000,-5.000000,-5.000000,7.000000,-4.000000,-5.000000,-11.000000,-9.000000
1297704.479017,-7.000000,50.000000,12.000000,18.000000,-1.000000,-3.000000,-3.000000,-11.000000
1297704.479268,-12.000000,-18.000000,-11.000000,-51.000000,6.000000,4.000000,9.000000,11.000000
1297704.479293,-30.000000,-58.000000,13.000000,30.000000,-3.000000,4.000000,-6.000000,-5.000000
1297704.485412,10.000000,-5.000000,5.000000,21.000000,-3.000000,2.000000,-2.000000,-3.000000
1297704.485440,34.000000,5.000000,11.000000,15.000000,-3.000000,5.000000,4.000000,8.000000
1297704.487345,-8.000000,5.000000,5.000000,47.000000,7.000000,-6.000000,1.000000,0.000000
1297704.487373,-15.000000,-68.000000,7.000000,-23.000000,-7.000000,-8.000000,-11.000000,-17.000000
1297704.488896,-13.000000,-24.000000,-27.000000,-91.000000,-5.000000,0.000000,2.000000,-7.000000
1297704.488926,-4.000000,-112.000000,-14.000000,82.000000,-1.000000,1.000000,-9.000000,-5.000000
1297704.500622,13.000000,-31.000000,-2.000000,-37.000000,-7.000000,-5.000000,3.000000,2.000000
1297704.500648,-2.000000,29.000000,-3.000000,-15.000000,2.000000,1.000000,-3.000000,3.000000
1297704.522921,-32.000000,0.000000,13.000000,23.000000,1.000000,3.000000,3.000000,-2.000000
1297704.522972,5.000000,12.000000,-5.000000,9.000000,-1.000000,-1.000000,1.000000,4.000000
1297704.553239,-9.000000,-14.000000,2.000000,25.000000,-1.000000,4.000000,3.000000,1.000000
1297704.553265,-19.000000,-19.000000,3.000000,23.000000,7.000000,2.000000,-3.000000,-1.000000
1297704.568005,-35.000000,-11.000000,-19.000000,-81.000000,4.000000,3.000000,-1.000000,-6.000000
1297704.568051,8.000000,-69.000000,8.000000,9.000000,0.000000,-2.000000,4.000000,9.000000
1297704.575514,-16.000000,24.000000,-4.000000,59.000000,-5.000000,1.000000,-6.000000,-13.000000
1297704.575566,9.000000,-9.000000,-6.000000,-52.000000,-1.000000,1.000000,5.000000,3.000000
1297704.592409,-54.000000,-15.000000,-5.000000,63.000000,-3.000000,1.000000,-2.000000,-7.000000
1297704.592743,10.000000,5.000000,-7.000000,-49.000000,-7.000000,-3.000000,-6.000000,0.000000
1297704.593164,16.000000,-32.000000,-5.000000,-5.000000,4.000000,0.000000,3.000000,2.000000
1297704.593187,-13.000000,-2.000000,10.000000,45.000000,-1.000000,-4.000000,-17.000000,-17.000000
1297704.593609,22.000000,-3.000000,-8.000000,-15.000000,-11.000000,-3.000000,1.000000,-1.000000
1297704.593658,24.000000,8.000000,10.000000,3.000000,4.000000,-1.000000,3.000000,2.000000
1297704.594883,-9.000000,-20.000000,-9.000000,14.000000,-6.000000,-3.000000,-5.000000,-2.000000
1297704.594933,11.000000,-23.000000,-10.000000,-22.000000,3.000000,1.000000,-11.000000,-16.000000
1297704.595125,-1.000000,-94.000000,-25.000000,15.000000,-11.000000,-5.000000,-11.000000,-4.000000
1297704.595164,12.000000,-30.000000,3.000000,25.000000,2.000000,4.000000,15.000000,18.000000
1297704.605341,-28.000000,-8.000000,-11.000000,-22.000000,-3.000000,-4.000000,-10.000000,-19.000000
1297704.605367,-32.000000,-15.000000,-14.000000,-86.000000,4.000000,2.000000,-9.000000,-16.000000
1297704.612747,12.000000,13.000000,-1.000000,61.000000,11.000000,-2.000000,7.000000,11.000000
1297704.612771,14.000000,-24.000000,-8.000000,-28.000000,-7.000000,2.000000,18.000000,15.000000
1297704.643070,-12.000000,-48.000000,-18.000000,19.000000,1.000000,-5.000000,-23.000000,-20.000000
1297704.643122,28.000000,-9.000000,-1.000000,-15.000000,-3.000000,-1.000000,-2.000000,-1.000000
1297704.650997,9.000000,18.000000,-5.000000,-9.000000,-3.000000,3.000000,13.000000,10.000000
1297704.651040,-45.000000,77.000000,8.000000,-11.000000,-2.000000,-2.000000,3.000000,4.000000
1297704.673337,-5.000000,-10.000000,-9.000000,26.000000,6.000000,-6.000000,-8.000000,-8.000000
1297704.673449,-3.000000,-6.000000,-4.000000,-42.000000,-7.000000,-3.000000,-2.000000,-8.000000
1297704.680565,-7.000000,-62.000000,-26.000000,-27.000000,2.000000,3.000000,-3.000000,-4.000000
1297704.680977,1.000000,-1.000000,-9.000000,19.000000,-11.000000,-4.000000,10.000000,8.000000
1297704.683510,-8.000000,-15.000000,4.000000,32.000000,6.000000,4.000000,-5.000000,-2.000000
1297704.683541,11.000000,8.000000,1.000000,-45.000000,1.000000,-2.000000,-1.000000,0.000000
1297704.683741,36.000000,-8.000000,2.000000,16.000000,3.000000,2.000000,8.000000,4.000000
1297704.683789,-49.000000,-10.000000,12.000000,33.000000,1.000000,-3.000000,-4.000000,-6.000000
1297704.684861,-12.000000,-1.000000,-11.000000,-51.000000,-5.000000,-3.000000,3.000000,3.000000
1297704.684909,-19.000000,11.000000,-7.000000,-45.000000,10.000000,-1.000000,-12.000000,-7.000000
1297704.710593,-16.000000,-13.000000,12.000000,30.000000,-5.000000,-5.000000,-7.000000,8.000000
1297704.710643,24.000000,-61.000000,0.000000,0.000000,3.000000,3.000000,13.000000,7.000000
1297704.719460,-7.000000,13.000000,-1.000000,15.000000,3.000000,5.000000,-10.000000,-4.000000
1297704.719845,-8.000000,86.000000,23.000000,-20.000000,-12.000000,-4.000000,6.000000,0.000000
1297704.720177,17.000000,-47.000000,-14.000000,-10.000000,6.000000,1.000000,-3.000000,4.000000
1297704.720215,-51.000000,-15.000000,-4.000000,30.000000,-7.000000,-8.000000,3.000000,-3.000000
1297704.725426,5.000000,-33.000000,-14.000000,-44.000000,-9.000000,1.000000,5.000000,6.000000
1297704.725450,-14.000000,-20.000000,-2.000000,10.000000,-9.000000,-7.000000,-16.000000,-10.000000
1297704.740702,44.000000,10.000000,-4.000000,-67.000000,6.000000,3.000000,1.000000,6.000000
1297704.740986,-41.000000,-29.000000,6.000000,20.000000,4.000000,7.000000,12.000000,0.000000
1297704.742549,-11.000000,21.000000,2.000000,4.000000,-10.000000,-10.000000,-18.000000,-9.000000
1297704.742573,7.000000,-11.000000,-4.000000,24.000000,6.000000,0.000000,-2.000000,-2.000000
1297704.755555,12.000000,-28.000000,0.000000,28.000000,2.000000,6.000000,3.000000,3.000000
1297704.755580,1.000000,-76.000000,-19.000000,-25.000000,-9.000000,-7.000000,-7.000000,-8.000000
1297704.778115,5.000000,2.000000,7.000000,-11.000000,1.000000,3.000000,12.000000,11.000000
1297704.778141,18.000000,23.000000,20.000000,89.000000,-2.000000,-6.000000,2.000000,-5.000000
1297704.793173,3.000000,-30.000000,-38.000000,-107.000000,-7.000000,-4.000000,-21.000000,-12.000000
1297704.793230,13.000000,127.000000,47.000000,70.000000,4.000000,0.000000,13.000000,10.000000
1297704.808036,-36.000000,-9.000000,-10.000000,-92.000000,-11.000000,-2.000000,2.000000,-13.000000
1297704.808087,-4.000000,-26.000000,-6.000000,7.000000,0.000000,-3.000000,5.000000,4.000000
1297704.830799,-14.000000,-40.000000,-10.000000,3.000000,-5.000000,0.000000,3.000000,2.000000
1297704.830852,16.000000,12.000000,12.000000,42.000000,7.000000,1.000000,-1.000000,5.000000
1297704.845405,-5.000000,-52.000000,3.000000,34.000000,-1.000000,-2.000000,-11.000000,-7.000000
1297704.845454,7.000000,-23.000000,-22.000000,-39.000000,-10.000000,-5.000000,1.000000,1.000000
1297704.868418,17.000000,25.000000,6.000000,-13.000000,-5.000000,-4.000000,5.000000,5.000000
1297704.868461,2.000000,3.000000,-5.000000,21.000000,5.000000,1.000000,1.000000,-1.000000
1297704.883045,7.000000,28.000000,33.000000,34.000000,2.000000,2.000000,4.000000,3.000000
1297704.883085,13.000000,2.000000,-14.000000,-41.000000,3.000000,-1.000000,-2.000000,-5.000000
1297704.898129,-53.000000,67.000000,9.000000,39.000000,2.000000,-7.000000,-13.000000,-16.000000
1297704.898221,19.000000,12.000000,0.000000,-52.000000,-9.000000,0.000000,3.000000,3.000000
1297704.921461,56.000000,25.000000,3.000000,4.000000,2.000000,7.000000,13.000000,16.000000
1297704.921522,-18.000000,35.000000,20.000000,120.000000,4.000000,-2.000000,-6.000000,-2.000000
1297704.928363,-6.000000,-63.000000,-37.000000,-128.000000,1.000000,-2.000000,-9.000000,-11.000000
1297704.928396,-11.000000,-10.000000,4.000000,5.000000,-5.000000,-3.000000,2.000000,0.000000
1297704.953349,13.000000,6.000000,-22.000000,-69.000000,-8.000000,0.000000,-6.000000,-4.000000
1297704.953412,-27.000000,41.000000,13.000000,32.000000,16.000000,4.000000,8.000000,7.000000
1297704.954121,19.000000,74.000000,24.000000,117.000000,12.000000,4.000000,9.000000,10.000000
1297704.954168,-6.000000,-36.000000,-12.000000,-33.000000,-3.000000,-1.000000,-2.000000,-1.000000
1297704.955696,-4.000000,0.000000,-1.000000,21.000000,15.000000,0.000000,2.000000,2.000000
1297704.955746,7.000000,9.000000,5.000000,40.000000,-1.000000,-1.000000,0.000000,-2.000000
1297704.966598,-15.000000,-2.000000,-1.000000,6.000000,-4.000000,0.000000,4.000000,4.000000
1297704.966669,10.000000,-9.000000,3.000000,4.000000,10.000000,2.000000,6.000000,3.000000
1297704.981339,3.000000,-8.000000,-2.000000,-13.000000,-4.000000,3.000000,6.000000,5.000000
1297704.981388,14.000000,21.000000,14.000000,-10.000000,2.000000,-5.000000,-15.000000,-9.000000
1297704.982831,3.000000,3.000000,-11.000000,64.000000,3.000000,4.000000,-1.000000,-1.000000
1297704.982891,-16.000000,-10.000000,-1.000000,6.000000,-4.000000,-4.000000,-3.000000,3.000000
1297704.995820,-4.000000,-35.000000,9.000000,39.000000,13.000000,1.000000,5.000000,5.000000
1297704.995868,12.000000,12.000000,13.000000,60.000000,4.000000,3.000000,3.000000,1.000000
1297705.025907,-1.000000,5.000000,7.000000,24.000000,1.000000,0.000000,4.000000,-4.000000
1297705.025961,5.000000,-4.000000,-3.000000,-36.000000,-14.000000,-3.000000,-2.000000,-3.000000
1297705.033182,6.000000,-5.000000,3.000000,14.000000,-1.000000,-4.000000,-6.000000,-4.000000
1297705.033537,-14.000000,-26.000000,-24.000000,-25.000000,-4.000000,-1.000000,-3.000000,-9.000000
1297705.035045,-17.000000,5.000000,10.000000,10.000000,1.000000,-2.000000,2.000000,5.000000
1297705.035070,5.000000,7.000000,2.000000,-13.000000,5.000000,5.000000,3.000000,-5.000000
1297705.035410,21.000000,95.000000,-16.000000,-128.000000,1.000000,-2.000000,4.000000,2.000000
1297705.035434,-54.000000,-7.000000,10.000000,48.000000,7.000000,3.000000,6.000000,6.000000
1297705.041689,9.000000,0.000000,-1.000000,6.000000,-11.000000,-8.000000,-16.000000,-13.000000
1297705.041729,22.000000,14.000000,9.000000,20.000000,-1.000000,-2.000000,-11.000000,-6.000000
1297705.056271,-33.000000,-19.000000,-8.000000,-24.000000,-7.000000,-4.000000,4.000000,4.000000
1297705.056300,10.000000,4.000000,-6.000000,26.000000,2.000000,4.000000,9.000000,8.000000
1297705.072246,11.000000,-34.000000,-14.000000,5.000000,2.000000,-3.000000,1.000000,-3.000000
1297705.072462,-16.000000,-20.000000,27.000000,-30.000000,8.000000,-3.000000,-4.000000,-3.000000
1297705.072823,-56.000000,1.000000,1.000000,-8.000000,-2.000000,5.000000,3.000000,2.000000
1297705.072873,-22.000000,-3.000000,1.000000,77.000000,17.000000,5.000000,3.000000,-10.000000
1297705.085962,-4.000000,-31.000000,-17.000000,-69.000000,-8.000000,-7.000000,-1.000000,0.000000
1297705.085996,35.000000,13.000000,7.000000,18.000000,-12.000000,-9.000000,-9.000000,1.000000
1297705.108824,-30.000000,1.000000,-22.000000,-9.000000,4.000000,2.000000,-3.000000,-13.000000
1297705.108912,12.000000,6.000000,2.000000,-11.000000,0.000000,-1.000000,-7.000000,-2.000000
1297705.123367,19.000000,35.000000,14.000000,80.000000,-3.000000,-1.000000,-1.000000,3.000000
1297705.123419,11.000000,17.000000,1.000000,-122.000000,-15.000000,0.000000,2.000000,4.000000
1297705.146133,24.000000,-51.000000,-31.000000,34.000000,-3.000000,2.000000,3.000000,-3.000000
1297705.146163,10.000000,6.000000,-8.000000,-14.000000,18.000000,1.000000,2.000000,6.000000
1297705.161069,-12.000000,-23.000000,-8.000000,1.000000,2.000000,-2.000000,0.000000,0.000000
1297705.161135,-33.000000,12.000000,6.000000,-30.000000,-17.000000,-4.000000,-5.000000,-7.000000
1297705.190778,33.000000,-11.000000,-7.000000,2.000000,5.000000,0.000000,-5.000000,-10.000000
1297705.190829,25.000000,39.000000,9.000000,22.000000,6.000000,0.000000,5.000000,11.000000
1297705.199847,30.000000,22.000000,-9.000000,-40.000000,7.000000,2.000000,3.000000,8.000000
1297705.200306,17.000000,14.000000,6.000000,28.000000,8.000000,5.000000,17.000000,21.000000
1297705.200610,-45.000000,-28.000000,-2.000000,-7.000000,-15.000000,-5.000000,-13.000000,-16.000000
1297705.200661,13.000000,-3.000000,9.000000,68.000000,7.000000,2.000000,-7.000000,0.000000
1297705.201950,-26.000000,41.000000,12.000000,-12.000000,4.000000,7.000000,11.000000,11.000000
1297705.201990,-89.000000,-14.000000,2.000000,50.000000,-8.000000,-6.000000,-16.000000,-14.000000
1297705.220769,30.000000,8.000000,4.000000,6.000000,3.000000,-2.000000,2.000000,6.000000
1297705.220934,17.000000,-11.000000,3.000000,56.000000,6.000000,0.000000,6.000000,14.000000
1297705.227728,-5.000000,85.000000,14.000000,33.000000,11.000000,4.000000,-7.000000,-14.000000
1297705.227841,-17.000000,-14.000000,-3.000000,29.000000,-12.000000,-10.000000,-16.000000,-12.000000
1297705.242585,-35.000000,-15.000000,0.000000,-24.000000,1.000000,0.000000,3.000000,1.000000
1297705.242617,28.000000,9.000000,12.000000,28.000000,-2.000000,-1.000000,13.000000,9.000000
1297705.265125,20.000000,10.000000,-3.000000,-7.000000,0.000000,0.000000,-8.000000,-10.000000
1297705.265143,-70.000000,2.000000,0.000000,-4.000000,-4.000000,-5.000000,-15.000000,-15.000000
1297705.280206,5.000000,11.000000,25.000000,5.000000,3.000000,0.000000,6.000000,1.000000
1297705.280229,5.000000,-74.000000,-19.000000,32.000000,9.000000,2.000000,3.000000,-4.000000
1297705.309921,14.000000,19.000000,6.000000,-9.000000,-7.000000,0.000000,-5.000000,0.000000
1297705.309940,22.000000,-3.000000,-30.000000,-48.000000,-4.000000,-3.000000,-2.000000,-5.000000
1297705.311233,-36.000000,36.000000,23.000000,-7.000000,-5.000000,2.000000,11.000000,8.000000
1297705.311256,-17.000000,-17.000000,6.000000,52.000000,12.000000,6.000000,7.000000,7.000000
1297705.311856,12.000000,17.000000,-8.000000,-55.000000,-17.000000,-11.000000,-13.000000,-28.000000
1297705.311889,26.000000,109.000000,16.000000,27.000000,-4.000000,-1.000000,5.000000,10.000000
1297705.313117,38.000000,18.000000,-1.000000,4.000000,7.000000,0.000000,0.000000,4.000000
1297705.313149,22.000000,20.000000,37.000000,33.000000,-8.000000,-1.000000,4.000000,4.000000
1297705.313873,-23.000000,-16.000000,-26.000000,-26.000000,2.000000,-2.000000,-10.000000,-10.000000
1297705.313904,-16.000000,-3.000000,2.000000,-20.000000,0.000000,-6.000000,-7.000000,-11.000000
1297705.317398,-18.000000,10.000000,1.000000,-23.000000,-3.000000,-2.000000,-17.000000,-23.000000
1297705.317429,3.000000,47.000000,18.000000,15.000000,4.000000,-1.000000,-2.000000,7.000000
1297705.355032,15.000000,-4.000000,-11.000000,-34.000000,4.000000,-1.000000,9.000000,8.000000
1297705.355065,4.000000,8.000000,17.000000,12.000000,4.000000,7.000000,8.000000,9.000000
1297705.370364,3.000000,11.000000,8.000000,37.000000,-1.000000,-1.000000,1.000000,0.000000
1297705.370384,18.000000,127.000000,11.000000,-16.000000,-7.000000,-4.000000,-12.000000,-8.000000
1297705.392724,6.000000,65.000000,-13.000000,-20.000000,2.000000,-2.000000,6.000000,6.000000
1297705.392740,18.000000,12.000000,12.000000,24.000000,2.000000,1.000000,7.000000,8.000000
1297705.400586,-8.000000,-6.000000,0.000000,36.000000,1.000000,-1.000000,-12.000000,-15.000000
1297705.400823,-43.000000,8.000000,4.000000,-36.000000,-7.000000,-2.000000,-4.000000,-2.000000
1297705.401901,-3.000000,-12.000000,-11.000000,-41.000000,-2.000000,-3.000000,5.000000,1.000000
1297705.401936,18.000000,-18.000000,-6.000000,5.000000,-8.000000,-2.000000,-1.000000,2.000000
1297705.402767,-31.000000,-27.000000,-2.000000,38.000000,-5.000000,-5.000000,-17.000000,-32.000000
1297705.402787,0.000000,18.000000,8.000000,-47.000000,0.000000,6.000000,9.000000,6.000000
1297705.403602,3.000000,-20.000000,10.000000,41.000000,0.000000,1.000000,-2.000000,-3.000000
1297705.403829,-15.000000,-51.000000,-16.000000,-14.000000,3.000000,-1.000000,-12.000000,-21.000000
1297705.422692,8.000000,39.000000,20.000000,30.000000,0.000000,-2.000000,2.000000,11.000000
1297705.422710,-4.000000,-15.000000,-21.000000,3.000000,-2.000000,-2.000000,5.000000,5.000000
1297705.430003,11.000000,-70.000000,-20.000000,-9.000000,-3.000000,3.000000,-4.000000,-4.000000
1297705.430020,-37.000000,-5.000000,4.000000,-27.000000,-5.000000,-6.000000,-6.000000,-8.000000
1297705.445215,-6.000000,-24.000000,-1.000000,56.000000,-3.000000,-5.000000,-2.000000,0.000000
1297705.445233,1.000000,0.000000,-6.000000,-2.000000,0.000000,-3.000000,3.000000,3.000000
1297705.452867,-32.000000,9.000000,5.000000,-33.000000,7.000000,-1.000000,-4.000000,-25.000000
1297705.452892,8.000000,-6.000000,-6.000000,-18.000000,2.000000,2.000000,10.000000,12.000000
1297705.467717,11.000000,24.000000,9.000000,25.000000,2.000000,2.000000,3.000000,5.000000
1297705.467742,11.000000,-29.000000,11.000000,29.000000,-9.000000,-7.000000,-19.000000,-9.000000
1297705.475149,-16.000000,-2.000000,-6.000000,-65.000000,-7.000000,1.000000,2.000000,-3.000000
1297705.475167,26.000000,13.000000,-16.000000,-44.000000,4.000000,1.000000,0.000000,6.000000
1297705.505113,-21.000000,1.000000,-6.000000,-12.000000,8.000000,2.000000,0.000000,-3.000000
1297705.505147,62.000000,127.000000,18.000000,-5.000000,0.000000,-3.000000,-11.000000,-6.000000
1297705.512416,-8.000000,57.000000,21.000000,80.000000,-4.000000,1.000000,9.000000,9.000000
1297705.512434,-59.000000,-12.000000,-10.000000,-115.000000,1.000000,2.000000,5.000000,-5.000000
1297705.513539,-1.000000,-17.000000,-11.000000,-28.000000,-4.000000,-1.000000,-4.000000,6.000000
1297705.513556,13.000000,4.000000,-12.000000,-22.000000,-11.000000,-6.000000,-10.000000,-24.000000
1297705.514204,-10.000000,-71.000000,5.000000,14.000000,11.000000,1.000000,-1.000000,3.000000
1297705.514283,2.000000,5.000000,6.000000,23.000000,-8.000000,-1.000000,12.000000,11.000000
1297705.515724,-25.000000,-23.000000,-1.000000,-24.000000,0.000000,1.000000,6.000000,-1.000000
1297705.515755,-4.000000,-6.000000,7.000000,22.000000,-5.000000,-5.000000,-6.000000,-1.000000
1297705.535037,26.000000,-12.000000,-4.000000,48.000000,8.000000,8.000000,6.000000,6.000000
1297705.535055,-29.000000,-19.000000,0.000000,-29.000000,2.000000,-6.000000,-6.000000,-14.000000
1297705.542731,10.000000,-4.000000,6.000000,63.000000,3.000000,-5.000000,-3.000000,-3.000000
1297705.542772,8.000000,-5.000000,-23.000000,-121.000000,-3.000000,-3.000000,3.000000,9.000000
1297705.544340,-42.000000,83.000000,15.000000,0.000000,6.000000,-2.000000,-3.000000,-7.000000
1297705.544364,42.000000,27.000000,11.000000,23.000000,5.000000,0.000000,1.000000,10.000000
1297705.557410,-64.000000,-17.000000,3.000000,6.000000,-6.000000,3.000000,8.000000,1.000000
1297705.557518,2.000000,-4.000000,-10.000000,3.000000,-11.000000,-4.000000,-8.000000,-7.000000
1297705.572483,0.000000,-19.000000,-2.000000,14.000000,-2.000000,-4.000000,1.000000,-2.000000
1297705.572521,-20.000000,9.000000,10.000000,32.000000,-1.000000,3.000000,-2.000000,0.000000
1297705.580223,4.000000,9.000000,12.000000,-15.000000,2.000000,2.000000,5.000000,6.000000
1297705.580374,33.000000,-23.000000,-13.000000,-60.000000,4.000000,-2.000000,-10.000000,-6.000000
1297705.625285,-31.000000,-22.000000,6.000000,14.000000,-9.000000,-15.000000,-18.000000,-11.000000
1297705.625315,-27.000000,-3.000000,4.000000,13.000000,3.000000,7.000000,2.000000,-4.000000
1297705.632879,19.000000,74.000000,11.000000,11.000000,-5.000000,10.000000,11.000000,10.000000
1297705.632907,3.000000,28.000000,1.000000,-43.000000,1.000000,-2.000000,7.000000,6.000000
1297705.662985,-7.000000,-21.000000,0.000000,4.000000,0.000000,3.000000,-7.000000,1.000000
1297705.663007,-9.000000,-84.000000,1.000000,42.000000,-1.000000,-2.000000,-12.000000,-31.000000
1297705.663569,-10.000000,9.000000,3.000000,-2.000000,6.000000,4.000000,-4.000000,2.000000
1297705.663598,17.000000,-26.000000,-32.000000,-45.000000,-1.000000,-4.000000,6.000000,3.000000
1297705.664937,26.000000,22.000000,21.000000,-26.000000,-12.000000,-4.000000,0.000000,4.000000
1297705.664967,9.000000,4.000000,16.000000,75.000000,6.000000,-3.000000,-1.000000,0.000000
1297705.666425,19.000000,28.000000,4.000000,27.000000,-1.000000,-2.000000,-5.000000,-13.000000
1297705.666451,-19.000000,9.000000,11.000000,10.000000,-5.000000,-2.000000,-1.000000,-1.000000
1297705.677574,6.000000,-13.000000,-8.000000,-50.000000,7.000000,4.000000,2.000000,-9.000000
1297705.677600,-27.000000,38.000000,12.000000,-1.000000,11.000000,-9.000000,-24.000000,-15.000000
1297705.685248,19.000000,55.000000,2.000000,-32.000000,-4.000000,0.000000,8.000000,16.000000
1297705.685267,33.000000,-9.000000,8.000000,38.000000,-6.000000,-3.000000,5.000000,-1.000000
1297705.700218,12.000000,8.000000,7.000000,34.000000,2.000000,0.000000,-17.000000,-18.000000
1297705.700249,-30.000000,-19.000000,-24.000000,-64.000000,-7.000000,-2.000000,11.000000,5.000000
1297705.722620,9.000000,5.000000,6.000000,22.000000,1.000000,0.000000,2.000000,1.000000
1297705.722654,-45.000000,-46.000000,7.000000,-14.000000,0.000000,0.000000,-1.000000,6.000000
1297705.737980,13.000000,11.000000,-1.000000,-30.000000,4.000000,-2.000000,-2.000000,-5.000000
1297705.738051,9.000000,1.000000,-4.000000,11.000000,-4.000000,1.000000,5.000000,1.000000
1297705.753045,-4.000000,7.000000,6.000000,-11.000000,-4.000000,3.000000,6.000000,12.000000
1297705.753102,40.000000,109.000000,18.000000,-42.000000,4.000000,-7.000000,4.000000,10.000000
1297705.775588,-3.000000,-5.000000,-18.000000,24.000000,-4.000000,-9.000000,-12.000000,-10.000000
1297705.775616,-31.000000,-9.000000,0.000000,11.000000,1.000000,5.000000,5.000000,-5.000000
1297705.784237,16.000000,69.000000,11.000000,-55.000000,0.000000,6.000000,6.000000,4.000000
1297705.784285,45.000000,70.000000,23.000000,98.000000,17.000000,6.000000,2.000000,21.000000
1297705.784541,22.000000,5.000000,1.000000,11.000000,3.000000,5.000000,4.000000,-16.000000
1297705.784580,-9.000000,-26.000000,-29.000000,-128.000000,7.000000,-2.000000,-1.000000,1.000000
1297705.786001,-19.000000,-7.000000,20.000000,88.000000,0.000000,4.000000,7.000000,6.000000
1297705.786056,-15.000000,36.000000,-7.000000,-35.000000,-17.000000,-5.000000,-7.000000,-9.000000
1297705.787031,8.000000,16.000000,15.000000,35.000000,3.000000,4.000000,11.000000,10.000000
1297705.787220,37.000000,2.000000,-11.000000,-29.000000,-5.000000,0.000000,0.000000,-5.000000
1297705.798079,-15.000000,119.000000,17.000000,-26.000000,9.000000,9.000000,15.000000,1.000000
1297705.798317,32.000000,74.000000,-2.000000,-13.000000,5.000000,4.000000,11.000000,10.000000
1297705.820792,-8.000000,-25.000000,-4.000000,11.000000,-3.000000,-3.000000,-19.000000,-1.000000
1297705.820968,15.000000,40.000000,6.000000,10.000000,4.000000,1.000000,7.000000,11.000000
1297705.828453,-5.000000,-1.000000,3.000000,-16.000000,-9.000000,-1.000000,2.000000,0.000000
1297705.828505,10.000000,-8.000000,-15.000000,-15.000000,1.000000,-5.000000,-9.000000,-9.000000
1297705.865577,-31.000000,0.000000,16.000000,11.000000,1.000000,-8.000000,-14.000000,-13.000000
1297705.865626,18.000000,-30.000000,-38.000000,-69.000000,-14.000000,-3.000000,-5.000000,-5.000000
1297705.873083,-4.000000,24.000000,-2.000000,0.000000,-2.000000,-4.000000,7.000000,3.000000
1297705.873477,35.000000,11.000000,-3.000000,8.000000,-3.000000,3.000000,10.000000,9.000000
1297705.874504,-24.000000,-124.000000,-5.000000,19.000000,-10.000000,-5.000000,-23.000000,-16.000000
1297705.874544,-19.000000,28.000000,10.000000,37.000000,-7.000000,-4.000000,-5.000000,-7.000000
1297705.875453,-21.000000,58.000000,-22.000000,-83.000000,-1.000000,-6.000000,-4.000000,-1.000000
1297705.875477,38.000000,-3.000000,19.000000,76.000000,9.000000,3.000000,9.000000,15.000000
1297705.876936,17.000000,-11.000000,0.000000,2.000000,-9.000000,2.000000,3.000000,7.000000
1297705.876985,-1.000000,10.000000,1.000000,11.000000,4.000000,-7.000000,-8.000000,-7.000000
1297705.889329,-4.000000,11.000000,14.000000,32.000000,-5.000000,-8.000000,-19.000000,-9.000000
1297705.889359,-1.000000,2.000000,-5.000000,-46.000000,-2.000000,-8.000000,-5.000000,-2.000000
1297705.903813,-9.000000,-3.000000,3.000000,55.000000,2.000000,-4.000000,-14.000000,-12.000000
1297705.903848,3.000000,-16.000000,1.000000,-56.000000,0.000000,7.000000,19.000000,24.000000
1297705.905491,16.000000,63.000000,-10.000000,9.000000,9.000000,4.000000,8.000000,2.000000
1297705.905538,-10.000000,6.000000,14.000000,70.000000,2.000000,-3.000000,-5.000000,-1.000000
1297705.940751,5.000000,126.000000,19.000000,-36.000000,1.000000,6.000000,2.000000,10.000000
1297705.940810,13.000000,-13.000000,6.000000,7.000000,-2.000000,0.000000,2.000000,0.000000
1297705.955574,24.000000,13.000000,12.000000,53.000000,5.000000,-3.000000,0.000000,-4.000000
1297705.955624,1.000000,-36.000000,-12.000000,11.000000,-7.000000,-6.000000,-2.000000,4.000000
1297705.978053,-1.000000,1.000000,-27.000000,-56.000000,-3.000000,1.000000,11.000000,7.000000
1297705.978104,14.000000,1.000000,2.000000,10.000000,2.000000,-3.000000,-19.000000,-18.000000
1297705.993369,-18.000000,-7.000000,5.000000,4.000000,-2.000000,-3.000000,1.000000,-2.000000
1297705.993419,-6.000000,-6.000000,7.000000,-42.000000,-3.000000,-6.000000,-3.000000,-10.000000
1297706.000386,-3.000000,-5.000000,3.000000,48.000000,3.000000,2.000000,12.000000,18.000000
1297706.000437,16.000000,7.000000,12.000000,18.000000,13.000000,6.000000,4.000000,-5.000000
1297706.023952,-55.000000,-6.000000,-11.000000,-33.000000,-10.000000,-9.000000,-10.000000,-7.000000
1297706.024258,35.000000,14.000000,10.000000,6.000000,-10.000000,0.000000,0.000000,-8.000000
1297706.025642,-39.000000,116.000000,21.000000,63.000000,19.000000,10.000000,16.000000,8.000000
1297706.025694,-11.000000,-9.000000,-4.000000,2.000000,-4.000000,-5.000000,-9.000000,-12.000000
1297706.027021,4.000000,-62.000000,-20.000000,8.000000,-5.000000,-3.000000,-4.000000,-4.000000
1297706.027042,-14.000000,11.000000,23.000000,70.000000,3.000000,0.000000,-3.000000,-1.000000
1297706.027238,13.000000,-40.000000,-16.000000,-83.000000,-3.000000,-3.000000,-2.000000,1.000000
1297706.027276,18.000000,5.000000,-14.000000,10.000000,6.000000,-5.000000,-4.000000,2.000000
1297706.028134,1.000000,4.000000,12.000000,64.000000,1.000000,3.000000,7.000000,-1.000000
1297706.028183,0.000000,7.000000,-6.000000,-40.000000,1.000000,1.000000,9.000000,6.000000
1297706.053587,-13.000000,28.000000,7.000000,-4.000000,9.000000,1.000000,-6.000000,-1.000000
1297706.053628,39.000000,67.000000,6.000000,22.000000,2.000000,0.000000,3.000000,7.000000
1297706.068288,-19.000000,-12.000000,-3.000000,-24.000000,-6.000000,4.000000,8.000000,2.000000
1297706.068370,-12.000000,52.000000,8.000000,16.000000,1.000000,-6.000000,-4.000000,-2.000000
1297706.076003,5.000000,0.000000,-7.000000,-16.000000,-3.000000,-4.000000,-3.000000,-6.000000
1297706.076050,15.000000,14.000000,13.000000,38.000000,0.000000,6.000000,1.000000,4.000000
1297706.105890,-4.000000,3.000000,-10.000000,-75.000000,-4.000000,-7.000000,-5.000000,-4.000000
1297706.105948,-3.000000,-12.000000,-3.000000,34.000000,-1.000000,-2.000000,-3.000000,0.000000
1297706.113030,43.000000,62.000000,9.000000,-11.000000,-6.000000,4.000000,8.000000,8.000000
1297706.113058,-110.000000,-66.000000,-21.000000,-51.000000,7.000000,3.000000,-1.000000,-11.000000
1297706.143697,15.000000,-26.000000,-4.000000,21.000000,-2.000000,-4.000000,-6.000000,-20.000000
1297706.144025,2.000000,-6.000000,-10.000000,-37.000000,-14.000000,-3.000000,0.000000,-1.000000
1297706.145207,-24.000000,-5.000000,-5.000000,-6.000000,-4.000000,-8.000000,0.000000,6.000000
1297706.145235,-12.000000,-44.000000,8.000000,29.000000,12.000000,4.000000,7.000000,8.000000
1297706.145962,-3.000000,2.000000,20.000000,43.000000,2.000000,-3.000000,4.000000,5.000000
1297706.145989,64.000000,62.000000,10.000000,-24.000000,-6.000000,8.000000,1.000000,5.000000
1297706.147141,-42.000000,-5.000000,-11.000000,-37.000000,-7.000000,-8.000000,-16.000000,-23.000000
1297706.147163,17.000000,-4.000000,-4.000000,21.000000,7.000000,1.000000,3.000000,7.000000
1297706.150325,3.000000,-5.000000,-12.000000,-23.000000,0.000000,-2.000000,2.000000,0.000000
1297706.150375,13.000000,74.000000,8.000000,-4.000000,3.000000,-2.000000,-10.000000,-24.000000
1297706.165642,-11.000000,-3.000000,9.000000,24.000000,0.000000,3.000000,7.000000,4.000000
1297706.165694,3.000000,1.000000,3.000000,13.000000,-4.000000,-3.000000,-14.000000,-12.000000
1297706.188212,-23.000000,-118.000000,-1.000000,41.000000,-1.000000,-2.000000,1.000000,4.000000
1297706.188242,40.000000,22.000000,4.000000,-50.000000,-1.000000,-4.000000,3.000000,2.000000
1297706.203310,-11.000000,34.000000,11.000000,-2.000000,12.000000,3.000000,8.000000,6.000000
1297706.203359,-39.000000,-21.000000,-3.000000,12.000000,-5.000000,2.000000,2.000000,-4.000000
1297706.225606,-9.000000,8.000000,4.000000,50.000000,-4.000000,-8.000000,-28.000000,-24.000000
1297706.225656,-13.000000,-115.000000,-28.000000,-36.000000,-2.000000,-3.000000,1.000000,3.000000
1297706.233389,-26.000000,3.000000,6.000000,19.000000,9.000000,8.000000,10.000000,10.000000
1297706.233749,-36.000000,-39.000000,-12.000000,28.000000,-13.000000,-8.000000,-3.000000,-9.000000
1297706.234903,32.000000,-15.000000,-2.000000,-29.000000,-3.000000,-2.000000,-14.000000,2.000000
1297706.235043,-8.000000,-5.000000,-3.000000,-6.000000,1.000000,2.000000,0.000000,-1.000000
1297706.235546,36.000000,-22.000000,0.000000,49.000000,18.000000,7.000000,16.000000,14.000000
1297706.235855,-30.000000,-14.000000,-11.000000,2.000000,-14.000000,-1.000000,4.000000,4.000000
1297706.255638,17.000000,29.000000,10.000000,-2.000000,0.000000,1.000000,4.000000,13.000000
1297706.255947,12.000000,-32.000000,-3.000000,34.000000,1.000000,5.000000,13.000000,14.000000
1297706.257438,28.000000,42.000000,8.000000,18.000000,-5.000000,1.000000,3.000000,0.000000
1297706.257484,16.000000,36.000000,2.000000,-11.000000,1.000000,-6.000000,-9.000000,-5.000000
1297706.257908,-87.000000,-20.000000,-5.000000,-20.000000,-5.000000,-1.000000,1.000000,-7.000000
1297706.257954,14.000000,0.000000,7.000000,43.000000,6.000000,6.000000,9.000000,4.000000
1297706.270362,12.000000,-6.000000,5.000000,-19.000000,-9.000000,-7.000000,-17.000000,-5.000000
1297706.270413,-24.000000,8.000000,14.000000,75.000000,0.000000,-1.000000,7.000000,8.000000
1297706.300583,24.000000,2.000000,-11.000000,-63.000000,5.000000,2.000000,6.000000,1.000000
1297706.300632,-26.000000,-112.000000,-16.000000,-4.000000,-3.000000,-6.000000,-21.000000,-22.000000
1297706.330397,1.000000,93.000000,31.000000,26.000000,-4.000000,1.000000,8.000000,15.000000
1297706.330423,-19.000000,-14.000000,-18.000000,-42.000000,-1.000000,1.000000,10.000000,4.000000
1297706.338141,5.000000,-34.000000,4.000000,21.000000,-4.000000,-5.000000,-8.000000,-9.000000
1297706.338335,-31.000000,-10.000000,-17.000000,-46.000000,2.000000,-3.000000,2.000000,8.000000
1297706.340282,11.000000,12.000000,15.000000,62.000000,-3.000000,-3.000000,-9.000000,-6.000000
1297706.340308,-22.000000,-128.000000,-18.000000,29.000000,1.000000,-4.000000,-12.000000,-10.000000
1297706.340686,21.000000,0.000000,-5.000000,-96.000000,-8.000000,-1.000000,2.000000,6.000000
1297706.340708,3.000000,-7.000000,-5.000000,4.000000,-10.000000,-7.000000,2.000000,-1.000000
1297706.342007,-30.000000,-11.000000,-11.000000,32.000000,3.000000,-1.000000,3.000000,-3.000000
1297706.342028,16.000000,5.000000,10.000000,4.000000,0.000000,0.000000,4.000000,13.000000
1297706.345530,18.000000,-9.000000,-29.000000,0.000000,2.000000,-3.000000,1.000000,2.000000
1297706.345587,-46.000000,107.000000,15.000000,30.000000,11.000000,1.000000,0.000000,-2.000000
1297706.376510,37.000000,5.000000,3.000000,-1.000000,-5.000000,5.000000,14.000000,9.000000
1297706.376559,2.000000,-3.000000,14.000000,-7.000000,-4.000000,0.000000,9.000000,2.000000
1297706.378168,-26.000000,-4.000000,2.000000,32.000000,2.000000,-2.000000,1.000000,-4.000000
1297706.378208,10.000000,-80.000000,-6.000000,-56.000000,5.000000,3.000000,2.000000,1.000000
1297706.378538,-8.000000,127.000000,25.000000,33.000000,-1.000000,-6.000000,-20.000000,-13.000000
1297706.378562,22.000000,-37.000000,-23.000000,-37.000000,0.000000,-4.000000,-5.000000,2.000000
1297706.391175,-9.000000,-121.000000,-15.000000,29.000000,-7.000000,-2.000000,-4.000000,-9.000000
1297706.391222,33.000000,11.000000,6.000000,-15.000000,-7.000000,-5.000000,-6.000000,1.000000
1297706.420687,-31.000000,-13.000000,-3.000000,21.000000,4.000000,5.000000,10.000000,10.000000
1297706.420742,-2.000000,-4.000000,-5.000000,-20.000000,-13.000000,1.000000,3.000000,4.000000
1297706.443100,18.000000,-7.000000,-25.000000,66.000000,6.000000,2.000000,-8.000000,-8.000000
1297706.443154,26.000000,10.000000,3.000000,-11.000000,-2.000000,-3.000000,9.000000,14.000000
1297706.458300,3.000000,2.000000,0.000000,4.000000,8.000000,4.000000,4.000000,2.000000
1297706.458329,-60.000000,-36.000000,-31.000000,-37.000000,-12.000000,-5.000000,-20.000000,-26.000000
1297706.480606,15.000000,84.000000,12.000000,-29.000000,6.000000,0.000000,0.000000,8.000000
1297706.480632,16.000000,11.000000,15.000000,39.000000,3.000000,7.000000,11.000000,14.000000
1297706.488163,10.000000,-48.000000,3.000000,56.000000,5.000000,0.000000,-13.000000,-15.000000
1297706.488188,-2.000000,-11.000000,12.000000,-32.000000,-3.000000,-8.000000,-7.000000,-5.000000
1297706.496439,8.000000,1.000000,-13.000000,-20.000000,7.000000,-1.000000,7.000000,15.000000
1297706.496490,-24.000000,9.000000,12.000000,0.000000,3.000000,0.000000,-2.000000,-33.000000
1297706.497778,6.000000,79.000000,10.000000,16.000000,-7.000000,3.000000,3.000000,11.000000
1297706.497840,45.000000,14.000000,2.000000,32.000000,-1.000000,-4.000000,-6.000000,1.000000
1297706.498553,-44.000000,-39.000000,-18.000000,6.000000,1.000000,2.000000,-14.000000,-13.000000
1297706.498579,58.000000,24.000000,11.000000,9.000000,-5.000000,-2.000000,-9.000000,-10.000000
1297706.499701,-21.000000,-6.000000,-4.000000,-40.000000,-3.000000,-5.000000,-9.000000,-6.000000
1297706.499750,-70.000000,3.000000,9.000000,-1.000000,-5.000000,-1.000000,3.000000,-5.000000
1297706.510530,34.000000,-7.000000,-4.000000,-23.000000,3.000000,4.000000,13.000000,18.000000
1297706.510554,-33.000000,45.000000,14.000000,36.000000,-3.000000,-2.000000,-16.000000,-32.000000
1297706.525577,0.000000,11.000000,-14.000000,-5.000000,-8.000000,-3.000000,-5.000000,3.000000
1297706.525628,-13.000000,44.000000,-10.000000,-27.000000,0.000000,-1.000000,6.000000,4.000000
1297706.540382,11.000000,4.000000,12.000000,30.000000,-8.000000,-5.000000,3.000000,4.000000
1297706.540430,0.000000,20.000000,-6.000000,-18.000000,4.000000,3.000000,-1.000000,4.000000
1297706.547948,18.000000,-3.000000,3.000000,-24.000000,7.000000,7.000000,6.000000,10.000000
1297706.547996,-45.000000,-50.000000,4.000000,23.000000,-11.000000,1.000000,-2.000000,-12.000000
1297706.570647,31.000000,-2.000000,-1.000000,-26.000000,1.000000,-5.000000,-19.000000,-8.000000
1297706.570696,1.000000,2.000000,15.000000,80.000000,-5.000000,-5.000000,-4.000000,0.000000
1297706.577815,10.000000,2.000000,4.000000,-17.000000,10.000000,7.000000,14.000000,9.000000
1297706.577866,13.000000,13.000000,-1.000000,-22.000000,-7.000000,0.000000,6.000000,8.000000
1297706.593165,23.000000,-6.000000,4.000000,-9.000000,7.000000,-6.000000,-1.000000,-3.000000
1297706.593209,8.000000,-28.000000,10.000000,53.000000,1.000000,-7.000000,-19.000000,-16.000000
1297706.615964,-58.000000,-26.000000,-11.000000,28.000000,-5.000000,-3.000000,-12.000000,-20.000000
1297706.616372,38.000000,-18.000000,-5.000000,-16.000000,-1.000000,1.000000,8.000000,10.000000
1297706.617764,23.000000,14.000000,10.000000,-22.000000,7.000000,4.000000,11.000000,14.000000
1297706.617818,25.000000,11.000000,-8.000000,18.000000,13.000000,7.000000,5.000000,9.000000
1297706.619557,-6.000000,-4.000000,-3.000000,26.000000,-4.000000,-6.000000,-7.000000,-10.000000
1297706.619583,11.000000,7.000000,2.000000,-13.000000,-8.000000,-3.000000,-8.000000,2.000000
1297706.620524,9.000000,80.000000,-2.000000,11.000000,-3.000000,-3.000000,1.000000,0.000000
1297706.620566,39.000000,103.000000,13.000000,-6.000000,11.000000,2.000000,-3.000000,-4.000000
1297706.620783,-71.000000,-4.000000,-7.000000,-47.000000,5.000000,5.000000,4.000000,-3.000000
1297706.620816,16.000000,1.000000,-4.000000,-96.000000,-9.000000,-1.000000,5.000000,9.000000
1297706.630579,28.000000,4.000000,0.000000,-3.000000,-5.000000,-7.000000,-15.000000,-25.000000
1297706.630605,-21.000000,-3.000000,-20.000000,-5.000000,6.000000,1.000000,7.000000,5.000000
1297706.660607,25.000000,17.000000,8.000000,36.000000,-1.000000,6.000000,5.000000,7.000000
1297706.660631,-27.000000,-16.000000,-16.000000,-54.000000,-3.000000,1.000000,4.000000,-1.000000
1297706.698271,5.000000,68.000000,32.000000,48.000000,4.000000,-2.000000,-4.000000,2.000000
1297706.698331,1.000000,9.000000,-11.000000,-29.000000,-1.000000,-1.000000,3.000000,1.000000
1297706.705654,-11.000000,-23.000000,7.000000,28.000000,-1.000000,-3.000000,-8.000000,-4.000000
1297706.705695,-28.000000,6.000000,-13.000000,-80.000000,-6.000000,5.000000,10.000000,5.000000
1297706.735762,-19.000000,-13.000000,9.000000,37.000000,-2.000000,-3.000000,-3.000000,-7.000000
1297706.735816,-22.000000,0.000000,3.000000,-48.000000,-10.000000,-4.000000,-4.000000,-8.000000
1297706.743134,-20.000000,2.000000,-8.000000,-34.000000,2.000000,-7.000000,-15.000000,-7.000000
1297706.743167,21.000000,-71.000000,10.000000,86.000000,2.000000,1.000000,5.000000,8.000000
1297706.744602,-5.000000,1.000000,16.000000,31.000000,-5.000000,3.000000,-3.000000,-15.000000
1297706.744625,-22.000000,-22.000000,-30.000000,-6.000000,-12.000000,-9.000000,-20.000000,-11.000000
1297706.746409,-49.000000,-18.000000,3.000000,25.000000,-5.000000,2.000000,0.000000,-10.000000
1297706.746511,-25.000000,-57.000000,-25.000000,-62.000000,-4.000000,-16.000000,-15.000000,-12.000000
1297706.747000,-24.000000,34.000000,7.000000,7.000000,-8.000000,-6.000000,-22.000000,-19.000000
1297706.747026,-6.000000,-3.000000,0.000000,-16.000000,16.000000,5.000000,-2.000000,-1.000000
1297706.750348,15.000000,12.000000,-4.000000,-16.000000,2.000000,4.000000,18.000000,10.000000
1297706.750393,36.000000,13.000000,14.000000,22.000000,1.000000,1.000000,-3.000000,-6.000000
1297706.773128,-46.000000,-128.000000,-17.000000,35.000000,0.000000,-8.000000,-10.000000,-14.000000
1297706.773193,4.000000,127.000000,15.000000,7.000000,10.000000,4.000000,6.000000,7.000000
1297706.788382,22.000000,-8.000000,4.000000,-29.000000,-2.000000,-2.000000,-1.000000,8.000000
1297706.788408,-7.000000,5.000000,2.000000,41.000000,-1.000000,-2.000000,-10.000000,-23.000000
1297706.818535,30.000000,-45.000000,-2.000000,13.000000,4.000000,-2.000000,-6.000000,-4.000000
1297706.818596,4.000000,5.000000,0.000000,-33.000000,-18.000000,-5.000000,0.000000,6.000000
1297706.819007,21.000000,5.000000,-1.000000,-4.000000,-1.000000,5.000000,16.000000,13.000000
1297706.819046,2.000000,23.000000,20.000000,-24.000000,2.000000,-3.000000,-9.000000,-3.000000
1297706.820466,6.000000,-43.000000,-8.000000,21.000000,-9.000000,-8.000000,-3.000000,-14.000000
1297706.820503,-22.000000,-1.000000,-11.000000,-48.000000,-5.000000,2.000000,-7.000000,5.000000
1297706.820917,22.000000,62.000000,8.000000,-2.000000,7.000000,0.000000,-3.000000,1.000000
1297706.821170,25.000000,-26.000000,-11.000000,-28.000000,4.000000,4.000000,11.000000,8.000000
1297706.825437,16.000000,3.000000,-10.000000,-13.000000,2.000000,5.000000,7.000000,9.000000
1297706.825460,-3.000000,-86.000000,-7.000000,44.000000,-2.000000,2.000000,8.000000,11.000000
1297706.856297,15.000000,6.000000,6.000000,-73.000000,-2.000000,-1.000000,-6.000000,-8.000000
1297706.856507,-34.000000,46.000000,-20.000000,-35.000000,7.000000,-1.000000,-4.000000,2.000000
1297706.857061,27.000000,5.000000,8.000000,32.000000,4.000000,1.000000,3.000000,7.000000
1297706.857107,-67.000000,-30.000000,4.000000,21.000000,-10.000000,-6.000000,-9.000000,-4.000000
1297706.863949,27.000000,-6.000000,7.000000,-14.000000,-4.000000,3.000000,5.000000,4.000000
1297706.864004,-33.000000,0.000000,-11.000000,-19.000000,-4.000000,-9.000000,-15.000000,-20.000000
1297706.870400,7.000000,8.000000,0.000000,9.000000,-1.000000,4.000000,19.000000,23.000000
1297706.870450,-4.000000,8.000000,3.000000,10.000000,7.000000,3.000000,8.000000,10.000000
1297706.900583,-26.000000,-39.000000,1.000000,3.000000,2.000000,-9.000000,-20.000000,-37.000000
1297706.900667,-63.000000,0.000000,1.000000,-38.000000,-7.000000,1.000000,-1.000000,0.000000
1297706.907993,26.000000,13.000000,15.000000,30.000000,4.000000,1.000000,15.000000,15.000000
1297706.908087,-2.000000,21.000000,16.000000,38.000000,6.000000,3.000000,10.000000,-1.000000
1297706.939664,-47.000000,-128.000000,-26.000000,-30.000000,-10.000000,-8.000000,-23.000000,-17.000000
1297706.940267,-3.000000,23.000000,-11.000000,-10.000000,1.000000,-1.000000,-3.000000,-2.000000
1297706.940618,-7.000000,-13.000000,-10.000000,2.000000,-1.000000,3.000000,8.000000,8.000000
1297706.940663,-28.000000,-118.000000,-6.000000,3.000000,-9.000000,2.000000,5.000000,-3.000000
1297706.942519,-47.000000,-10.000000,-1.000000,12.000000,-1.000000,3.000000,-3.000000,-6.000000
1297706.942543,1.000000,3.000000,2.000000,16.000000,5.000000,5.000000,11.000000,15.000000
1297706.942769,39.000000,42.000000,12.000000,-17.000000,9.000000,0.000000,-7.000000,1.000000
1297706.942784,-22.000000,-31.000000,-12.000000,6.000000,-6.000000,-7.000000,-8.000000,-11.000000
1297706.945459,27.000000,13.000000,11.000000,58.000000,4.000000,3.000000,12.000000,13.000000
1297706.945485,-26.000000,2.000000,10.000000,-18.000000,-10.000000,-9.000000,-13.000000,-5.000000
1297706.961488,9.000000,-43.000000,-42.000000,-3.000000,1.000000,-1.000000,-4.000000,2.000000
1297706.961538,14.000000,15.000000,7.000000,7.000000,-1.000000,2.000000,4.000000,3.000000
1297706.968137,-15.000000,-2.000000,-1.000000,-27.000000,-2.000000,4.000000,15.000000,11.000000
1297706.968190,10.000000,-27.000000,8.000000,49.000000,8.000000,1.000000,4.000000,2.000000
1297706.984051,-1.000000,4.000000,-6.000000,-50.000000,-18.000000,-13.000000,-24.000000,-28.000000
1297706.984073,24.000000,4.000000,1.000000,-32.000000,2.000000,1.000000,-1.000000,6.000000
1297706.998147,-13.000000,-8.000000,-12.000000,3.000000,3.000000,0.000000,4.000000,5.000000
1297706.998204,-6.000000,5.000000,-10.000000,63.000000,-9.000000,-10.000000,-3.000000,-5.000000
1297707.021174,4.000000,-7.000000,1.000000,-61.000000,-11.000000,-2.000000,1.000000,-3.000000
1297707.021205,-16.000000,16.000000,21.000000,8.000000,-1.000000,-6.000000,-8.000000,-11.000000
1297707.051485,6.000000,33.000000,10.000000,-22.000000,0.000000,4.000000,7.000000,15.000000
1297707.051869,16.000000,-10.000000,-14.000000,50.000000,9.000000,-3.000000,-10.000000,-11.000000
1297707.054492,-1.000000,1.000000,-1.000000,-39.000000,-11.000000,-6.000000,-10.000000,1.000000
1297707.054547,16.000000,27.000000,-6.000000,-29.000000,-9.000000,0.000000,9.000000,7.000000
1297707.055037,34.000000,-19.000000,2.000000,-97.000000,-6.000000,-4.000000,6.000000,7.000000
1297707.055069,17.000000,11.000000,8.000000,25.000000,4.000000,-1.000000,-11.000000,-9.000000
1297707.055362,21.000000,-45.000000,-22.000000,8.000000,-2.000000,0.000000,-2.000000,5.000000
1297707.055416,-36.000000,-22.000000,13.000000,43.000000,-14.000000,0.000000,1.000000,-8.000000
1297707.055767,-11.000000,-3.000000,-5.000000,42.000000,6.000000,1.000000,5.000000,7.000000
1297707.055790,5.000000,16.000000,1.000000,-22.000000,6.000000,-1.000000,-6.000000,-16.000000
1297707.058194,41.000000,54.000000,8.000000,-36.000000,1.000000,-3.000000,1.000000,13.000000
1297707.058209,-14.000000,-23.000000,8.000000,49.000000,-9.000000,4.000000,14.000000,10.000000
1297707.072593,-59.000000,-10.000000,-6.000000,-34.000000,8.000000,4.000000,2.000000,-6.000000
1297707.072628,42.000000,76.000000,-9.000000,-47.000000,10.000000,2.000000,-10.000000,-5.000000
1297707.088592,-4.000000,-23.000000,-6.000000,-1.000000,-11.000000,-8.000000,-9.000000,-12.000000
1297707.088624,11.000000,13.000000,13.000000,13.000000,-2.000000,2.000000,11.000000,12.000000
1297707.088837,8.000000,-6.000000,6.000000,-3.000000,1.000000,0.000000,-5.000000,-8.000000
1297707.088850,-3.000000,-6.000000,-12.000000,-40.000000,3.000000,-3.000000,-5.000000,-7.000000
1297707.103846,3.000000,-17.000000,-1.000000,23.000000,4.000000,2.000000,4.000000,7.000000
1297707.103886,-5.000000,-115.000000,6.000000,32.000000,-11.000000,-8.000000,-9.000000,-21.000000
1297707.117585,22.000000,12.000000,-1.000000,29.000000,-5.000000,-3.000000,8.000000,11.000000
1297707.117691,-3.000000,-9.000000,-25.000000,-85.000000,5.000000,-3.000000,-8.000000,-10.000000
1297707.140334,7.000000,-4.000000,7.000000,69.000000,4.000000,2.000000,-1.000000,-1.000000
1297707.140364,-23.000000,-55.000000,-5.000000,-19.000000,-16.000000,-5.000000,0.000000,-1.000000
1297707.170956,13.000000,-56.000000,-25.000000,-128.000000,-13.000000,-1.000000,-6.000000,-7.000000
1297707.171007,16.000000,-128.000000,0.000000,47.000000,-1.000000,0.000000,3.000000,0.000000
1297707.172145,21.000000,-3.000000,-2.000000,-24.000000,-7.000000,-5.000000,-1.000000,-4.000000
1297707.172182,10.000000,-3.000000,8.000000,64.000000,-3.000000,-3.000000,-1.000000,2.000000
1297707.174083,9.000000,-6.000000,-9.000000,-19.000000,-6.000000,2.000000,7.000000,8.000000
1297707.174351,12.000000,3.000000,-15.000000,-56.000000,7.000000,0.000000,-10.000000,-8.000000
1297707.174908,-9.000000,9.000000,4.000000,-2.000000,-6.000000,-1.000000,-3.000000,-7.000000
1297707.174951,2.000000,11.000000,-5.000000,24.000000,7.000000,-2.000000,3.000000,4.000000
1297707.175432,30.000000,-10.000000,-4.000000,-13.000000,-7.000000,-3.000000,5.000000,3.000000
1297707.175455,-8.000000,9.000000,7.000000,-2.000000,4.000000,0.000000,1.000000,-6.000000
1297707.178765,-14.000000,-127.000000,-11.000000,1.000000,-10.000000,0.000000,-2.000000,-8.000000
1297707.178811,10.000000,-41.000000,-19.000000,-24.000000,0.000000,0.000000,-5.000000,-3.000000
1297707.208641,38.000000,69.000000,24.000000,34.000000,7.000000,-1.000000,9.000000,11.000000
1297707.209011,10.000000,4.000000,13.000000,20.000000,0.000000,0.000000,-12.000000,-10.000000
1297707.210412,3.000000,11.000000,-28.000000,18.000000,8.000000,7.000000,8.000000,4.000000
1297707.210466,-3.000000,-8.000000,-10.000000,-53.000000,-6.000000,0.000000,-1.000000,-1.000000
1297707.210868,6.000000,-6.000000,-3.000000,-47.000000,5.000000,1.000000,1.000000,-5.000000
1297707.210893,-5.000000,11.000000,12.000000,59.000000,4.000000,-5.000000,-6.000000,1.000000
1297707.260521,-2.000000,-60.000000,-21.000000,-16.000000,-6.000000,1.000000,12.000000,10.000000
1297707.260570,-12.000000,-41.000000,7.000000,39.000000,-1.000000,-1.000000,2.000000,-7.000000
1297707.268211,18.000000,19.000000,-15.000000,5.000000,-11.000000,-13.000000,-24.000000,-14.000000
1297707.268262,13.000000,27.000000,9.000000,-16.000000,-3.000000,0.000000,10.000000,6.000000
1297707.292166,19.000000,7.000000,16.000000,35.000000,1.000000,2.000000,12.000000,17.000000
1297707.292200,-10.000000,5.000000,-8.000000,37.000000,-3.000000,-1.000000,4.000000,2.000000
1297707.292466,-17.000000,-12.000000,-34.000000,-128.000000,-1.000000,-3.000000,-20.000000,-21.000000
1297707.292502,-28.000000,15.000000,21.000000,46.000000,6.000000,5.000000,3.000000,5.000000
1297707.294386,-6.000000,-15.000000,-6.000000,-36.000000,9.000000,-6.000000,-4.000000,1.000000
1297707.294896,1.000000,7.000000,5.000000,9.000000,3.000000,4.000000,8.000000,10.000000
1297707.296383,-10.000000,4.000000,17.000000,24.000000,-11.000000,0.000000,2.000000,2.000000
1297707.296437,-44.000000,-33.000000,-19.000000,-12.000000,13.000000,-4.000000,-9.000000,-7.000000
1297707.299191,27.000000,70.000000,-12.000000,-27.000000,-3.000000,6.000000,-3.000000,-5.000000
1297707.299255,-23.000000,0.000000,-3.000000,11.000000,11.000000,-5.000000,-4.000000,5.000000
1297707.327861,-24.000000,15.000000,8.000000,-7.000000,2.000000,3.000000,9.000000,6.000000
1297707.327887,7.000000,-19.000000,-26.000000,-128.000000,-14.000000,2.000000,-1.000000,-2.000000
1297707.335716,11.000000,93.000000,39.000000,87.000000,17.000000,5.000000,4.000000,3.000000
1297707.335763,11.000000,61.000000,-11.000000,-71.000000,-9.000000,-3.000000,0.000000,2.000000
1297707.343364,-25.000000,-4.000000,1.000000,45.000000,8.000000,-1.000000,-6.000000,-19.000000
1297707.343417,5.000000,-9.000000,8.000000,14.000000,4.000000,-1.000000,-5.000000,3.000000
1297707.358237,-1.000000,-23.000000,-4.000000,-32.000000,-2.000000,-4.000000,3.000000,-3.000000
1297707.358268,-75.000000,0.000000,3.000000,-14.000000,-8.000000,-2.000000,0.000000,-9.000000
1297707.365954,17.000000,-15.000000,0.000000,-22.000000,-1.000000,5.000000,9.000000,13.000000
1297707.365985,31.000000,71.000000,19.000000,71.000000,9.000000,-1.000000,-17.000000,-26.000000
1297707.380724,-13.000000,-6.000000,-3.000000,-55.000000,0.000000,1.000000,3.000000,6.000000
1297707.380752,9.000000,4.000000,-4.000000,-25.000000,-11.000000,-2.000000,7.000000,5.000000
1297707.396255,-7.000000,-8.000000,0.000000,44.000000,15.000000,0.000000,2.000000,1.000000
1297707.396285,16.000000,-8.000000,-22.000000,-73.000000,-2.000000,-1.000000,0.000000,3.000000
1297707.418376,15.000000,113.000000,14.000000,36.000000,5.000000,5.000000,11.000000,7.000000
1297707.418430,-21.000000,26.000000,13.000000,39.000000,4.000000,3.000000,-1.000000,2.000000
1297707.425533,22.000000,76.000000,9.000000,-32.000000,-5.000000,-5.000000,-12.000000,-13.000000
1297707.425587,-5.000000,-30.000000,-20.000000,-23.000000,-9.000000,-6.000000,-3.000000,-3.000000
1297707.441720,24.000000,10.000000,16.000000,82.000000,17.000000,11.000000,20.000000,27.000000
1297707.441750,-30.000000,-10.000000,2.000000,-82.000000,-9.000000,4.000000,4.000000,7.000000
1297707.448837,-11.000000,-16.000000,0.000000,21.000000,-2.000000,-9.000000,-28.000000,-46.000000
1297707.448904,-36.000000,-17.000000,1.000000,-2.000000,-6.000000,-4.000000,-5.000000,-6.000000
1297707.450533,-34.000000,12.000000,0.000000,-25.000000,-20.000000,-7.000000,-14.000000,-7.000000
1297707.451317,25.000000,12.000000,-22.000000,-78.000000,10.000000,0.000000,-9.000000,-17.000000
1297707.452912,-12.000000,40.000000,2.000000,30.000000,-8.000000,-3.000000,0.000000,7.000000
1297707.452973,-22.000000,59.000000,8.000000,-25.000000,-1.000000,1.000000,10.000000,1.000000
1297707.453704,18.000000,37.000000,-10.000000,64.000000,13.000000,4.000000,8.000000,4.000000
1297707.453732,-12.000000,8.000000,8.000000,-38.000000,-6.000000,-3.000000,-16.000000,-8.000000
1297707.492911,1.000000,35.000000,6.000000,-10.000000,-5.000000,-4.000000,5.000000,4.000000
1297707.492937,10.000000,0.000000,15.000000,41.000000,8.000000,0.000000,-1.000000,9.000000
1297707.500647,8.000000,-17.000000,8.000000,19.000000,-5.000000,-3.000000,-13.000000,-30.000000
1297707.500693,-38.000000,-14.000000,-4.000000,-3.000000,6.000000,4.000000,5.000000,3.000000
1297707.530798,-13.000000,20.000000,10.000000,-10.000000,-1.000000,-7.000000,7.000000,10.000000
1297707.531169,-3.000000,2.000000,-1.000000,-33.000000,-2.000000,1.000000,6.000000,7.000000
1297707.532545,-3.000000,3.000000,-1.000000,24.000000,-3.000000,-3.000000,-4.000000,-1.000000
1297707.532602,-16.000000,5.000000,-12.000000,-57.000000,-5.000000,-2.000000,-5.000000,-3.000000
1297707.534642,49.000000,70.000000,4.000000,-56.000000,8.000000,8.000000,12.000000,16.000000
1297707.534684,-29.000000,2.000000,16.000000,29.000000,-5.000000,-3.000000,2.000000,0.000000
1297707.534938,33.000000,74.000000,11.000000,56.000000,2.000000,-3.000000,-5.000000,-7.000000
