# participant_id: P4
# gesture: medium
# trial_number: 1
# stream_name: Myo_EMG
# stream_type: emg
# timestamp: 20260420_134455
# samples: 5725
# duration_sec: 30.614
# nominal_sample_rate: 200.0
# effective_sample_rate: 186.97
#
timestamp,emg_1,emg_2,emg_3,emg_4,emg_5,emg_6,emg_7,emg_8
1297386.784851,42.000000,44.000000,7.000000,1.000000,5.000000,9.000000,9.000000,8.000000
1297386.814909,5.000000,23.000000,-20.000000,-48.000000,5.000000,-7.000000,-16.000000,-14.000000
1297386.814929,12.000000,-6.000000,3.000000,6.000000,10.000000,5.000000,5.000000,11.000000
1297386.822124,15.000000,-23.000000,5.000000,10.000000,-7.000000,1.000000,2.000000,3.000000
1297386.822158,24.000000,17.000000,9.000000,22.000000,4.000000,1.000000,-1.000000,1.000000
1297386.837213,-23.000000,27.000000,-45.000000,-18.000000,12.000000,3.000000,2.000000,1.000000
1297386.837235,11.000000,-31.000000,-4.000000,-15.000000,-1.000000,-1.000000,-3.000000,-3.000000
1297386.859114,9.000000,72.000000,19.000000,47.000000,15.000000,2.000000,1.000000,2.000000
1297386.859131,18.000000,-8.000000,0.000000,-1.000000,12.000000,-3.000000,-6.000000,1.000000
1297386.867056,8.000000,37.000000,15.000000,-3.000000,4.000000,5.000000,14.000000,12.000000
1297386.867095,79.000000,23.000000,3.000000,22.000000,5.000000,0.000000,-6.000000,-6.000000
1297386.867697,17.000000,-7.000000,3.000000,13.000000,-4.000000,-1.000000,-1.000000,1.000000
1297386.867708,-58.000000,-128.000000,-14.000000,-23.000000,4.000000,-5.000000,-8.000000,-11.000000
1297386.869060,-13.000000,-64.000000,-10.000000,25.000000,-1.000000,-1.000000,-2.000000,1.000000
1297386.869067,47.000000,5.000000,14.000000,16.000000,-1.000000,2.000000,2.000000,-1.000000
1297386.869922,-31.000000,-11.000000,-12.000000,-5.000000,-11.000000,1.000000,-6.000000,-7.000000
1297386.869941,4.000000,-15.000000,-1.000000,20.000000,6.000000,-7.000000,-2.000000,1.000000
1297386.889087,-8.000000,-128.000000,-15.000000,21.000000,-7.000000,3.000000,0.000000,-17.000000
1297386.889105,-1.000000,-26.000000,4.000000,13.000000,-8.000000,-3.000000,-2.000000,1.000000
1297386.896969,-13.000000,-33.000000,-6.000000,-48.000000,3.000000,4.000000,5.000000,4.000000
1297386.897118,37.000000,112.000000,16.000000,27.000000,10.000000,1.000000,8.000000,10.000000
1297386.898464,-13.000000,-14.000000,-14.000000,-6.000000,-6.000000,-6.000000,-5.000000,-3.000000
1297386.898508,8.000000,-48.000000,-11.000000,19.000000,4.000000,1.000000,-4.000000,-2.000000
1297386.904255,16.000000,-32.000000,11.000000,58.000000,2.000000,2.000000,2.000000,6.000000
1297386.904274,8.000000,-32.000000,-27.000000,-35.000000,-13.000000,-6.000000,-8.000000,-6.000000
1297386.934484,-11.000000,17.000000,14.000000,-18.000000,9.000000,2.000000,9.000000,7.000000
1297386.934542,15.000000,17.000000,9.000000,16.000000,-13.000000,-4.000000,3.000000,7.000000
1297386.941703,-4.000000,-8.000000,0.000000,17.000000,-4.000000,0.000000,12.000000,7.000000
1297386.941725,-29.000000,-22.000000,-4.000000,-6.000000,-17.000000,-3.000000,-21.000000,-15.000000
1297386.971683,9.000000,0.000000,-1.000000,-53.000000,12.000000,-14.000000,-10.000000,-7.000000
1297386.971705,-21.000000,19.000000,5.000000,13.000000,5.000000,10.000000,12.000000,6.000000
1297386.979949,49.000000,84.000000,12.000000,-2.000000,5.000000,4.000000,5.000000,7.000000
1297386.979968,51.000000,-128.000000,-22.000000,-26.000000,-7.000000,-16.000000,-21.000000,-20.000000
1297386.980519,-47.000000,-29.000000,8.000000,53.000000,0.000000,3.000000,6.000000,8.000000
1297386.980604,6.000000,55.000000,-22.000000,-108.000000,-1.000000,0.000000,10.000000,2.000000
1297386.981007,60.000000,-20.000000,-8.000000,10.000000,-13.000000,-9.000000,-5.000000,-1.000000
1297386.981017,-14.000000,-4.000000,2.000000,10.000000,9.000000,2.000000,1.000000,-1.000000
1297386.982502,24.000000,-57.000000,-13.000000,9.000000,-10.000000,0.000000,-4.000000,2.000000
1297386.982522,-61.000000,-33.000000,-6.000000,32.000000,-16.000000,-7.000000,0.000000,-8.000000
1297386.986870,-12.000000,23.000000,-3.000000,-64.000000,-4.000000,-3.000000,-9.000000,-11.000000
1297386.986888,-10.000000,-114.000000,-1.000000,28.000000,6.000000,4.000000,3.000000,1.000000
1297386.994047,2.000000,-30.000000,-12.000000,-8.000000,-5.000000,-1.000000,4.000000,8.000000
1297386.994065,-19.000000,-19.000000,6.000000,17.000000,-6.000000,-2.000000,1.000000,-2.000000
1297387.016656,24.000000,109.000000,8.000000,13.000000,15.000000,4.000000,8.000000,11.000000
1297387.016673,-3.000000,3.000000,-6.000000,-37.000000,-2.000000,-4.000000,-2.000000,-11.000000
1297387.017858,4.000000,-33.000000,-7.000000,4.000000,-10.000000,-2.000000,4.000000,6.000000
1297387.017874,-31.000000,-32.000000,2.000000,8.000000,-4.000000,-7.000000,-24.000000,-23.000000
1297387.024987,39.000000,6.000000,-11.000000,11.000000,3.000000,0.000000,5.000000,12.000000
1297387.025026,10.000000,-51.000000,9.000000,38.000000,4.000000,6.000000,8.000000,9.000000
1297387.062330,-32.000000,-10.000000,-2.000000,-23.000000,-7.000000,-1.000000,-4.000000,-10.000000
1297387.062370,46.000000,85.000000,9.000000,19.000000,4.000000,6.000000,-1.000000,9.000000
1297387.069979,5.000000,100.000000,-3.000000,-128.000000,24.000000,0.000000,6.000000,7.000000
1297387.070021,20.000000,38.000000,11.000000,17.000000,2.000000,-1.000000,5.000000,-3.000000
1297387.091982,39.000000,88.000000,-2.000000,50.000000,8.000000,4.000000,4.000000,4.000000
1297387.091997,-3.000000,-104.000000,-11.000000,-14.000000,-7.000000,-2.000000,1.000000,6.000000
1297387.092845,-57.000000,-115.000000,-9.000000,-13.000000,2.000000,-1.000000,-6.000000,-7.000000
1297387.092918,5.000000,-13.000000,-1.000000,15.000000,-9.000000,-5.000000,-8.000000,0.000000
1297387.093998,4.000000,17.000000,-1.000000,15.000000,4.000000,3.000000,5.000000,7.000000
1297387.094020,17.000000,74.000000,20.000000,-27.000000,-1.000000,-4.000000,4.000000,5.000000
1297387.094760,-40.000000,-31.000000,5.000000,28.000000,3.000000,1.000000,-2.000000,-3.000000
1297387.094777,14.000000,18.000000,6.000000,16.000000,-4.000000,9.000000,12.000000,3.000000
1297387.099336,-21.000000,-5.000000,-3.000000,5.000000,-4.000000,-10.000000,-17.000000,-21.000000
1297387.099428,33.000000,96.000000,13.000000,-5.000000,15.000000,3.000000,8.000000,15.000000
1297387.106313,-15.000000,-15.000000,-7.000000,11.000000,-4.000000,1.000000,6.000000,1.000000
1297387.106322,15.000000,56.000000,24.000000,36.000000,-10.000000,-3.000000,-5.000000,0.000000
1297387.122336,-22.000000,-46.000000,-17.000000,-53.000000,-10.000000,-4.000000,-1.000000,-8.000000
1297387.122358,-2.000000,73.000000,30.000000,-3.000000,-1.000000,8.000000,3.000000,7.000000
1297387.137242,-128.000000,-107.000000,-7.000000,28.000000,-15.000000,-7.000000,-3.000000,-12.000000
1297387.137264,91.000000,6.000000,17.000000,22.000000,0.000000,-1.000000,0.000000,1.000000
1297387.138196,-128.000000,-43.000000,-19.000000,-3.000000,-7.000000,1.000000,-4.000000,-17.000000
1297387.138211,38.000000,-14.000000,6.000000,-6.000000,5.000000,-7.000000,-5.000000,-3.000000
1297387.174987,10.000000,52.000000,8.000000,1.000000,1.000000,2.000000,8.000000,13.000000
1297387.175026,-40.000000,-9.000000,-6.000000,0.000000,-16.000000,-5.000000,-11.000000,-17.000000
1297387.181949,24.000000,31.000000,0.000000,20.000000,10.000000,-1.000000,3.000000,11.000000
1297387.181971,-83.000000,2.000000,7.000000,18.000000,-12.000000,5.000000,-1.000000,-28.000000
1297387.196484,-4.000000,-128.000000,0.000000,16.000000,-21.000000,-4.000000,-3.000000,-1.000000
1297387.196503,-40.000000,-26.000000,-35.000000,-38.000000,3.000000,-3.000000,-3.000000,-4.000000
1297387.204097,22.000000,61.000000,0.000000,-55.000000,7.000000,1.000000,7.000000,9.000000
1297387.204113,16.000000,10.000000,5.000000,0.000000,7.000000,6.000000,2.000000,3.000000
1297387.212505,19.000000,22.000000,2.000000,24.000000,4.000000,4.000000,4.000000,6.000000
1297387.212524,9.000000,-6.000000,10.000000,9.000000,11.000000,5.000000,6.000000,4.000000
1297387.213089,3.000000,33.000000,-7.000000,-10.000000,-8.000000,3.000000,0.000000,3.000000
1297387.213111,-95.000000,30.000000,2.000000,31.000000,5.000000,-6.000000,-6.000000,-23.000000
1297387.214347,-39.000000,13.000000,-11.000000,-20.000000,-10.000000,-4.000000,-7.000000,1.000000
1297387.214369,8.000000,-7.000000,4.000000,13.000000,-13.000000,0.000000,3.000000,-5.000000
1297387.219982,-10.000000,-128.000000,-12.000000,-5.000000,-4.000000,4.000000,7.000000,8.000000
1297387.220022,-23.000000,-8.000000,-27.000000,-37.000000,-8.000000,-11.000000,-1.000000,-12.000000
1297387.227467,10.000000,-46.000000,-10.000000,-60.000000,-14.000000,-8.000000,-20.000000,-8.000000
1297387.227485,-9.000000,6.000000,-1.000000,-26.000000,14.000000,-1.000000,-3.000000,2.000000
1297387.234271,32.000000,-23.000000,6.000000,32.000000,-8.000000,3.000000,12.000000,6.000000
1297387.234292,-68.000000,-49.000000,-4.000000,1.000000,-6.000000,-6.000000,-3.000000,-12.000000
1297387.257389,18.000000,28.000000,13.000000,39.000000,-8.000000,-5.000000,-7.000000,0.000000
1297387.257407,64.000000,91.000000,10.000000,-20.000000,-7.000000,4.000000,5.000000,9.000000
1297387.257938,-46.000000,18.000000,-17.000000,6.000000,3.000000,0.000000,2.000000,-1.000000
1297387.257958,26.000000,2.000000,0.000000,-55.000000,13.000000,1.000000,-1.000000,-4.000000
1297387.301540,-22.000000,15.000000,7.000000,-17.000000,-3.000000,-8.000000,-9.000000,-5.000000
1297387.301558,-30.000000,-62.000000,-9.000000,23.000000,4.000000,2.000000,5.000000,7.000000
1297387.309955,6.000000,127.000000,11.000000,38.000000,9.000000,3.000000,1.000000,6.000000
1297387.309995,12.000000,39.000000,-5.000000,-68.000000,-17.000000,-7.000000,-11.000000,-8.000000
1297387.332339,34.000000,70.000000,0.000000,0.000000,19.000000,-2.000000,2.000000,8.000000
1297387.332666,5.000000,9.000000,2.000000,23.000000,-1.000000,5.000000,5.000000,3.000000
1297387.333252,-4.000000,52.000000,5.000000,-57.000000,-9.000000,-3.000000,-2.000000,-2.000000
1297387.333294,-8.000000,-5.000000,5.000000,29.000000,10.000000,5.000000,4.000000,0.000000
1297387.333960,41.000000,1.000000,12.000000,36.000000,3.000000,-11.000000,-23.000000,-17.000000
1297387.334400,25.000000,49.000000,4.000000,-6.000000,-6.000000,3.000000,13.000000,13.000000
1297387.335011,-91.000000,-71.000000,-7.000000,24.000000,3.000000,-1.000000,-3.000000,-12.000000
1297387.335028,28.000000,36.000000,-5.000000,-16.000000,6.000000,-8.000000,-8.000000,-7.000000
1297387.347048,85.000000,91.000000,22.000000,64.000000,-1.000000,11.000000,13.000000,16.000000
1297387.347143,-15.000000,-128.000000,-12.000000,-120.000000,-20.000000,-12.000000,-16.000000,-12.000000
1297387.354558,-11.000000,-10.000000,0.000000,-3.000000,8.000000,-4.000000,-6.000000,0.000000
1297387.354606,32.000000,-16.000000,-5.000000,-11.000000,4.000000,7.000000,8.000000,5.000000
1297387.377041,22.000000,25.000000,12.000000,-15.000000,-8.000000,6.000000,8.000000,7.000000
1297387.377207,15.000000,31.000000,-4.000000,-7.000000,-8.000000,-7.000000,-1.000000,2.000000
1297387.377665,-1.000000,-86.000000,-17.000000,-12.000000,8.000000,0.000000,-6.000000,-10.000000
1297387.377689,6.000000,13.000000,-6.000000,-22.000000,7.000000,1.000000,-3.000000,3.000000
1297387.378998,25.000000,38.000000,26.000000,9.000000,-4.000000,-6.000000,3.000000,8.000000
1297387.379030,5.000000,-13.000000,-7.000000,0.000000,-7.000000,7.000000,15.000000,13.000000
1297387.379685,-104.000000,10.000000,-8.000000,-47.000000,-3.000000,-6.000000,-16.000000,-37.000000
1297387.379722,-67.000000,19.000000,16.000000,62.000000,-9.000000,-8.000000,-13.000000,-13.000000
1297387.422289,13.000000,18.000000,-9.000000,-106.000000,1.000000,3.000000,16.000000,19.000000
1297387.422320,-33.000000,9.000000,6.000000,6.000000,-13.000000,1.000000,-10.000000,-1.000000
1297387.429549,-60.000000,85.000000,24.000000,26.000000,0.000000,-5.000000,-2.000000,-7.000000
1297387.429583,43.000000,12.000000,4.000000,17.000000,5.000000,4.000000,6.000000,9.000000
1297387.452800,45.000000,45.000000,-4.000000,33.000000,-7.000000,8.000000,5.000000,11.000000
1297387.452876,20.000000,-2.000000,-4.000000,-74.000000,9.000000,6.000000,7.000000,7.000000
1297387.453298,27.000000,6.000000,5.000000,40.000000,-5.000000,-3.000000,-10.000000,-14.000000
1297387.453341,-26.000000,-45.000000,-2.000000,15.000000,-4.000000,-5.000000,-1.000000,2.000000
1297387.454851,0.000000,12.000000,-1.000000,-25.000000,-11.000000,1.000000,3.000000,4.000000
1297387.454877,28.000000,-34.000000,-7.000000,20.000000,6.000000,-1.000000,-3.000000,1.000000
1297387.455176,-100.000000,44.000000,18.000000,54.000000,3.000000,-8.000000,-15.000000,-6.000000
1297387.455193,0.000000,-6.000000,-24.000000,-25.000000,4.000000,-5.000000,-3.000000,0.000000
1297387.456196,-4.000000,-15.000000,-4.000000,-26.000000,2.000000,0.000000,6.000000,2.000000
1297387.456233,-31.000000,39.000000,10.000000,-36.000000,-6.000000,0.000000,4.000000,3.000000
1297387.459638,-2.000000,14.000000,9.000000,39.000000,-4.000000,7.000000,6.000000,1.000000
1297387.459675,28.000000,-45.000000,2.000000,-4.000000,-6.000000,-6.000000,-7.000000,-9.000000
1297387.467940,-30.000000,-62.000000,-8.000000,-17.000000,3.000000,-2.000000,1.000000,2.000000
1297387.467983,35.000000,-7.000000,-6.000000,9.000000,-8.000000,-4.000000,-18.000000,-9.000000
1297387.489589,-31.000000,-45.000000,-3.000000,-11.000000,12.000000,2.000000,12.000000,9.000000
1297387.489771,-17.000000,-31.000000,-2.000000,26.000000,-6.000000,-1.000000,-12.000000,-23.000000
1297387.490883,8.000000,5.000000,-2.000000,-35.000000,-5.000000,-10.000000,-8.000000,-6.000000
1297387.490918,-31.000000,30.000000,1.000000,-3.000000,22.000000,-2.000000,3.000000,-6.000000
1297387.497262,16.000000,35.000000,13.000000,26.000000,10.000000,7.000000,7.000000,12.000000
1297387.497300,6.000000,8.000000,-8.000000,-20.000000,-5.000000,4.000000,6.000000,4.000000
1297387.534500,-13.000000,-43.000000,-2.000000,0.000000,-6.000000,0.000000,-3.000000,-4.000000
1297387.534537,15.000000,2.000000,6.000000,34.000000,7.000000,7.000000,5.000000,5.000000
1297387.557236,35.000000,-17.000000,-10.000000,-4.000000,-6.000000,-8.000000,-8.000000,-4.000000
1297387.557276,-34.000000,3.000000,12.000000,7.000000,9.000000,-6.000000,-11.000000,-10.000000
1297387.572671,10.000000,5.000000,-4.000000,-21.000000,0.000000,-1.000000,2.000000,12.000000
1297387.572687,23.000000,39.000000,5.000000,14.000000,3.000000,2.000000,1.000000,-5.000000
1297387.579564,17.000000,-5.000000,11.000000,29.000000,-5.000000,1.000000,3.000000,-3.000000
1297387.579609,-6.000000,-37.000000,-15.000000,11.000000,-3.000000,-3.000000,3.000000,0.000000
1297387.580835,11.000000,22.000000,6.000000,-21.000000,-17.000000,-6.000000,-10.000000,-9.000000
1297387.581014,15.000000,25.000000,-1.000000,-30.000000,6.000000,5.000000,6.000000,7.000000
1297387.581366,-15.000000,-43.000000,11.000000,23.000000,-2.000000,1.000000,5.000000,5.000000
1297387.581384,-13.000000,-61.000000,-5.000000,16.000000,-6.000000,-7.000000,-11.000000,-7.000000
1297387.582895,5.000000,-6.000000,3.000000,0.000000,-7.000000,4.000000,4.000000,2.000000
1297387.582932,-13.000000,-15.000000,10.000000,6.000000,-4.000000,-10.000000,-8.000000,-1.000000
1297387.610710,38.000000,-30.000000,-4.000000,-1.000000,2.000000,5.000000,1.000000,7.000000
1297387.610821,23.000000,26.000000,-2.000000,25.000000,5.000000,4.000000,0.000000,1.000000
1297387.610997,-58.000000,-33.000000,-40.000000,-37.000000,-9.000000,-5.000000,-3.000000,-9.000000
1297387.611009,-34.000000,-5.000000,-5.000000,-12.000000,-1.000000,-6.000000,-8.000000,-10.000000
1297387.611949,53.000000,127.000000,16.000000,-35.000000,13.000000,7.000000,8.000000,13.000000
1297387.611974,-29.000000,2.000000,2.000000,10.000000,1.000000,0.000000,-3.000000,-4.000000
1297387.617260,2.000000,-3.000000,3.000000,17.000000,-2.000000,-4.000000,-4.000000,3.000000
1297387.617297,2.000000,-55.000000,-6.000000,-32.000000,-15.000000,-2.000000,1.000000,-10.000000
1297387.662189,17.000000,-5.000000,-2.000000,8.000000,9.000000,1.000000,2.000000,6.000000
1297387.662225,-15.000000,16.000000,12.000000,22.000000,-8.000000,-3.000000,-1.000000,1.000000
1297387.692216,25.000000,-25.000000,-8.000000,9.000000,-3.000000,1.000000,7.000000,2.000000
1297387.692246,11.000000,6.000000,1.000000,20.000000,5.000000,-1.000000,2.000000,8.000000
1297387.707162,8.000000,23.000000,-13.000000,-72.000000,0.000000,-6.000000,-9.000000,-17.000000
1297387.707199,24.000000,-86.000000,-8.000000,-1.000000,-7.000000,-7.000000,-14.000000,-7.000000
1297387.722325,-6.000000,60.000000,1.000000,-27.000000,4.000000,7.000000,13.000000,8.000000
1297387.722345,10.000000,-7.000000,2.000000,25.000000,5.000000,7.000000,13.000000,9.000000
1297387.737989,-24.000000,1.000000,-7.000000,15.000000,-9.000000,-8.000000,-14.000000,-13.000000
1297387.738114,8.000000,-80.000000,-6.000000,-17.000000,-8.000000,-6.000000,-6.000000,3.000000
1297387.738399,7.000000,6.000000,-22.000000,23.000000,-4.000000,3.000000,7.000000,4.000000
1297387.738417,9.000000,-3.000000,-22.000000,-104.000000,-2.000000,-7.000000,-8.000000,-5.000000
1297387.739730,-26.000000,15.000000,0.000000,-45.000000,-1.000000,-6.000000,-18.000000,-15.000000
1297387.739759,11.000000,-2.000000,7.000000,32.000000,7.000000,1.000000,4.000000,8.000000
1297387.741085,29.000000,9.000000,5.000000,-7.000000,12.000000,0.000000,-1.000000,-14.000000
1297387.741119,7.000000,1.000000,-2.000000,45.000000,-11.000000,2.000000,3.000000,5.000000
1297387.774627,37.000000,104.000000,-1.000000,-35.000000,3.000000,3.000000,-4.000000,-3.000000
1297387.774656,5.000000,17.000000,4.000000,-83.000000,17.000000,-3.000000,3.000000,4.000000
1297387.782329,13.000000,-51.000000,11.000000,35.000000,-1.000000,1.000000,-3.000000,-4.000000
1297387.782367,15.000000,117.000000,3.000000,11.000000,5.000000,5.000000,5.000000,7.000000
1297387.804556,13.000000,-39.000000,1.000000,-38.000000,9.000000,5.000000,10.000000,4.000000
1297387.804577,36.000000,-16.000000,-13.000000,43.000000,8.000000,-2.000000,3.000000,8.000000
1297387.812415,-36.000000,4.000000,14.000000,-47.000000,-19.000000,-6.000000,-18.000000,-11.000000
1297387.812460,-2.000000,23.000000,-5.000000,12.000000,3.000000,2.000000,2.000000,0.000000
1297387.813585,-41.000000,-10.000000,7.000000,30.000000,-2.000000,1.000000,12.000000,6.000000
1297387.813864,25.000000,-21.000000,5.000000,-12.000000,-15.000000,3.000000,-3.000000,-3.000000
1297387.814418,41.000000,112.000000,3.000000,12.000000,9.000000,-4.000000,-10.000000,-9.000000
1297387.814684,-3.000000,-59.000000,2.000000,15.000000,-9.000000,0.000000,10.000000,5.000000
1297387.815618,48.000000,124.000000,7.000000,45.000000,19.000000,3.000000,-9.000000,-3.000000
1297387.815652,-18.000000,-5.000000,-5.000000,-48.000000,-1.000000,6.000000,10.000000,1.000000
1297387.819595,-48.000000,62.000000,5.000000,11.000000,14.000000,-2.000000,-5.000000,-3.000000
1297387.819633,16.000000,-9.000000,-3.000000,2.000000,-1.000000,-1.000000,0.000000,-1.000000
1297387.858266,-31.000000,-26.000000,-5.000000,7.000000,-7.000000,2.000000,4.000000,-3.000000
1297387.858287,8.000000,25.000000,-16.000000,-74.000000,-9.000000,-9.000000,-8.000000,-4.000000
1297387.858744,11.000000,-10.000000,12.000000,7.000000,1.000000,0.000000,-5.000000,0.000000
1297387.858773,12.000000,47.000000,3.000000,6.000000,2.000000,3.000000,7.000000,6.000000
1297387.860000,-25.000000,-128.000000,-28.000000,-10.000000,-20.000000,-5.000000,-8.000000,-13.000000
1297387.860274,25.000000,24.000000,23.000000,34.000000,0.000000,2.000000,10.000000,9.000000
1297387.860740,-18.000000,32.000000,-3.000000,21.000000,-10.000000,-4.000000,-18.000000,-8.000000
1297387.860757,-22.000000,-44.000000,-31.000000,-128.000000,4.000000,-11.000000,-1.000000,1.000000
1297387.894600,-18.000000,-3.000000,10.000000,35.000000,-7.000000,-1.000000,3.000000,-2.000000
1297387.894637,29.000000,-53.000000,9.000000,34.000000,0.000000,3.000000,9.000000,9.000000
1297387.902116,-41.000000,-80.000000,-11.000000,-5.000000,-2.000000,-9.000000,-4.000000,-13.000000
1297387.902155,5.000000,120.000000,14.000000,20.000000,13.000000,-2.000000,0.000000,5.000000
1297387.924631,-12.000000,-35.000000,-7.000000,12.000000,-8.000000,2.000000,1.000000,0.000000
1297387.924789,-16.000000,41.000000,18.000000,26.000000,-4.000000,5.000000,11.000000,6.000000
1297387.925226,4.000000,14.000000,5.000000,-47.000000,-6.000000,1.000000,7.000000,2.000000
1297387.925380,-57.000000,-32.000000,-11.000000,1.000000,-5.000000,-10.000000,-31.000000,-37.000000
1297387.926369,36.000000,12.000000,1.000000,12.000000,3.000000,-2.000000,1.000000,8.000000
1297387.926405,8.000000,40.000000,-5.000000,16.000000,4.000000,6.000000,6.000000,2.000000
1297387.927201,25.000000,4.000000,-4.000000,1.000000,4.000000,10.000000,15.000000,15.000000
1297387.927236,68.000000,127.000000,22.000000,89.000000,0.000000,0.000000,-3.000000,4.000000
1297387.939677,-37.000000,-37.000000,-45.000000,-128.000000,-3.000000,-13.000000,-14.000000,-11.000000
1297387.939704,-30.000000,11.000000,15.000000,49.000000,6.000000,4.000000,6.000000,5.000000
1297387.940462,0.000000,-3.000000,8.000000,12.000000,-3.000000,4.000000,2.000000,-4.000000
1297387.940480,17.000000,31.000000,-3.000000,14.000000,9.000000,5.000000,2.000000,2.000000
1297387.970288,-66.000000,-41.000000,-5.000000,-26.000000,-17.000000,-11.000000,-4.000000,-9.000000
1297387.970327,28.000000,48.000000,-16.000000,-15.000000,-1.000000,8.000000,2.000000,6.000000
1297387.970920,-7.000000,18.000000,0.000000,2.000000,-8.000000,-1.000000,3.000000,2.000000
1297387.970937,17.000000,8.000000,3.000000,4.000000,1.000000,-3.000000,-6.000000,-2.000000
1297387.999748,3.000000,-12.000000,-17.000000,-21.000000,-11.000000,-9.000000,-12.000000,-2.000000
1297387.999785,31.000000,67.000000,-5.000000,-6.000000,8.000000,3.000000,7.000000,8.000000
1297388.014733,8.000000,27.000000,-1.000000,-1.000000,-9.000000,-2.000000,1.000000,1.000000
1297388.014768,20.000000,-10.000000,2.000000,25.000000,5.000000,2.000000,6.000000,1.000000
1297388.044783,-37.000000,-13.000000,-3.000000,42.000000,-6.000000,-5.000000,-9.000000,-15.000000
1297388.044804,6.000000,18.000000,-20.000000,-37.000000,5.000000,-1.000000,2.000000,-3.000000
1297388.052292,0.000000,44.000000,-8.000000,-42.000000,-6.000000,-3.000000,-9.000000,-4.000000
1297388.052327,37.000000,-48.000000,5.000000,26.000000,-5.000000,0.000000,9.000000,8.000000
1297388.066940,-17.000000,2.000000,-1.000000,38.000000,-13.000000,-2.000000,-1.000000,-6.000000
1297388.066978,-8.000000,-1.000000,-6.000000,-25.000000,-4.000000,-3.000000,-10.000000,-5.000000
1297388.089927,6.000000,2.000000,1.000000,13.000000,5.000000,-3.000000,-3.000000,5.000000
1297388.089960,31.000000,-4.000000,7.000000,32.000000,-11.000000,0.000000,2.000000,1.000000
1297388.090971,32.000000,0.000000,4.000000,13.000000,-1.000000,2.000000,1.000000,-1.000000
1297388.091008,-2.000000,76.000000,6.000000,-3.000000,10.000000,-2.000000,4.000000,0.000000
1297388.091842,34.000000,-20.000000,-10.000000,-36.000000,13.000000,-4.000000,-10.000000,-9.000000
1297388.092038,-4.000000,-107.000000,-2.000000,-37.000000,-5.000000,5.000000,9.000000,8.000000
1297388.093259,38.000000,7.000000,-2.000000,-25.000000,2.000000,-3.000000,2.000000,8.000000
1297388.093298,-5.000000,-19.000000,-11.000000,18.000000,-1.000000,-1.000000,6.000000,-6.000000
1297388.097747,-17.000000,9.000000,2.000000,-8.000000,-13.000000,-5.000000,2.000000,-1.000000
1297388.097801,-47.000000,-33.000000,-16.000000,36.000000,6.000000,-8.000000,-8.000000,-14.000000
1297388.135234,23.000000,18.000000,-3.000000,-49.000000,-18.000000,0.000000,1.000000,5.000000
1297388.135263,35.000000,48.000000,2.000000,-2.000000,6.000000,5.000000,8.000000,4.000000
1297388.142799,-50.000000,-10.000000,5.000000,-8.000000,6.000000,-2.000000,-12.000000,-15.000000
1297388.142830,-15.000000,-30.000000,-5.000000,39.000000,0.000000,0.000000,0.000000,8.000000
1297388.144533,-21.000000,10.000000,8.000000,-30.000000,-3.000000,6.000000,9.000000,4.000000
1297388.144646,-19.000000,44.000000,11.000000,2.000000,-4.000000,-1.000000,-1.000000,-6.000000
1297388.145310,-24.000000,62.000000,18.000000,7.000000,1.000000,2.000000,6.000000,2.000000
1297388.145335,-32.000000,-41.000000,-1.000000,37.000000,9.000000,0.000000,6.000000,-2.000000
1297388.166373,-21.000000,22.000000,18.000000,3.000000,-9.000000,0.000000,0.000000,0.000000
1297388.166438,2.000000,112.000000,5.000000,-12.000000,17.000000,-1.000000,-8.000000,-1.000000
1297388.166687,-5.000000,20.000000,-11.000000,-26.000000,-13.000000,4.000000,0.000000,-1.000000
1297388.166730,-23.000000,50.000000,14.000000,28.000000,-1.000000,5.000000,11.000000,14.000000
1297388.173559,4.000000,-31.000000,4.000000,-12.000000,-5.000000,-3.000000,-4.000000,-11.000000
1297388.173609,2.000000,-43.000000,-23.000000,-55.000000,5.000000,-10.000000,-9.000000,-8.000000
1297388.180353,54.000000,62.000000,-13.000000,-60.000000,6.000000,4.000000,9.000000,17.000000
1297388.180411,-40.000000,-16.000000,-1.000000,44.000000,-1.000000,-6.000000,-5.000000,-14.000000
1297388.203168,-28.000000,-57.000000,0.000000,-13.000000,-2.000000,-2.000000,-7.000000,-7.000000
1297388.203197,1.000000,-2.000000,4.000000,21.000000,4.000000,7.000000,4.000000,8.000000
1297388.203512,18.000000,-4.000000,-5.000000,-17.000000,-4.000000,-4.000000,1.000000,0.000000
1297388.203560,8.000000,-30.000000,-16.000000,10.000000,-8.000000,0.000000,-1.000000,1.000000
1297388.210958,8.000000,-13.000000,-9.000000,17.000000,1.000000,1.000000,0.000000,-5.000000
1297388.211003,1.000000,-15.000000,-8.000000,-16.000000,-6.000000,-4.000000,-1.000000,0.000000
1297388.247630,-37.000000,-123.000000,0.000000,-20.000000,-10.000000,-6.000000,-8.000000,0.000000
1297388.247654,-8.000000,19.000000,-7.000000,3.000000,9.000000,3.000000,4.000000,1.000000
1297388.270346,-8.000000,3.000000,5.000000,-8.000000,2.000000,-4.000000,-8.000000,-4.000000
1297388.270373,32.000000,127.000000,-24.000000,7.000000,0.000000,3.000000,3.000000,13.000000
1297388.285665,-26.000000,-3.000000,4.000000,7.000000,1.000000,5.000000,4.000000,-4.000000
1297388.285690,11.000000,0.000000,-15.000000,-10.000000,3.000000,-3.000000,1.000000,3.000000
1297388.286805,3.000000,-11.000000,6.000000,-27.000000,0.000000,-2.000000,2.000000,-6.000000
1297388.286843,-45.000000,-34.000000,13.000000,17.000000,7.000000,0.000000,-9.000000,-12.000000
1297388.288272,-5.000000,-3.000000,6.000000,36.000000,-4.000000,-5.000000,6.000000,8.000000
1297388.288856,6.000000,20.000000,3.000000,-25.000000,-8.000000,-5.000000,-6.000000,-7.000000
1297388.289563,-10.000000,-101.000000,-1.000000,10.000000,-4.000000,-4.000000,-8.000000,-4.000000
1297388.289607,-13.000000,9.000000,-3.000000,46.000000,11.000000,7.000000,4.000000,10.000000
1297388.289802,14.000000,-14.000000,-13.000000,-41.000000,-8.000000,-1.000000,7.000000,8.000000
1297388.289833,-66.000000,-4.000000,0.000000,0.000000,-10.000000,-7.000000,-4.000000,-14.000000
1297388.292295,-6.000000,-69.000000,-10.000000,1.000000,0.000000,-7.000000,1.000000,6.000000
1297388.292380,-9.000000,54.000000,8.000000,23.000000,0.000000,2.000000,-6.000000,-3.000000
1297388.299945,27.000000,16.000000,5.000000,-1.000000,7.000000,-4.000000,-4.000000,-5.000000
1297388.299997,-12.000000,-30.000000,-19.000000,-67.000000,17.000000,-4.000000,-2.000000,-6.000000
1297388.323955,17.000000,36.000000,21.000000,15.000000,-2.000000,-2.000000,-4.000000,-5.000000
1297388.323999,17.000000,-20.000000,0.000000,16.000000,5.000000,3.000000,11.000000,8.000000
1297388.324378,11.000000,18.000000,-1.000000,-2.000000,-10.000000,-4.000000,-8.000000,-5.000000
1297388.324425,0.000000,15.000000,1.000000,30.000000,14.000000,4.000000,1.000000,0.000000
1297388.337534,13.000000,-88.000000,-8.000000,-44.000000,4.000000,-1.000000,0.000000,1.000000
1297388.337583,-19.000000,62.000000,21.000000,35.000000,4.000000,-6.000000,-14.000000,-24.000000
1297388.360343,58.000000,-4.000000,-10.000000,-29.000000,13.000000,10.000000,11.000000,18.000000
1297388.360394,-51.000000,21.000000,-9.000000,18.000000,-11.000000,-10.000000,-9.000000,-17.000000
1297388.375330,-2.000000,21.000000,1.000000,2.000000,-2.000000,1.000000,-2.000000,1.000000
1297388.375387,-3.000000,17.000000,-7.000000,13.000000,6.000000,5.000000,7.000000,5.000000
1297388.405439,47.000000,32.000000,18.000000,23.000000,-1.000000,1.000000,1.000000,2.000000
1297388.405909,-34.000000,-51.000000,-8.000000,4.000000,-8.000000,-4.000000,-1.000000,-5.000000
1297388.407114,5.000000,5.000000,-11.000000,-5.000000,3.000000,-6.000000,-2.000000,-1.000000
1297388.407451,23.000000,31.000000,5.000000,-33.000000,5.000000,-1.000000,-2.000000,0.000000
1297388.407860,-3.000000,11.000000,4.000000,-12.000000,-8.000000,5.000000,0.000000,-1.000000
1297388.407909,9.000000,-13.000000,3.000000,-10.000000,-6.000000,-2.000000,-3.000000,-4.000000
1297388.408891,-4.000000,-4.000000,2.000000,11.000000,7.000000,-2.000000,-2.000000,0.000000
1297388.408911,20.000000,11.000000,-5.000000,23.000000,-3.000000,1.000000,10.000000,7.000000
1297388.409322,14.000000,108.000000,5.000000,13.000000,-17.000000,0.000000,-5.000000,-10.000000
1297388.409362,4.000000,20.000000,13.000000,-19.000000,7.000000,5.000000,-3.000000,11.000000
1297388.412481,-2.000000,-10.000000,-21.000000,-16.000000,-6.000000,-7.000000,-10.000000,-11.000000
1297388.412530,-18.000000,4.000000,1.000000,-60.000000,4.000000,1.000000,-1.000000,5.000000
1297388.420155,27.000000,0.000000,6.000000,23.000000,-3.000000,4.000000,10.000000,10.000000
1297388.420211,20.000000,-29.000000,-19.000000,3.000000,-9.000000,-9.000000,-2.000000,-4.000000
1297388.443925,14.000000,42.000000,14.000000,-66.000000,1.000000,2.000000,-14.000000,-11.000000
1297388.444110,26.000000,68.000000,17.000000,56.000000,9.000000,-3.000000,8.000000,9.000000
1297388.444543,41.000000,26.000000,2.000000,-33.000000,7.000000,0.000000,5.000000,11.000000
1297388.444567,-39.000000,12.000000,9.000000,21.000000,2.000000,-1.000000,-4.000000,-6.000000
1297388.450827,-3.000000,3.000000,-7.000000,-13.000000,-8.000000,-2.000000,1.000000,2.000000
1297388.450853,26.000000,127.000000,19.000000,12.000000,9.000000,1.000000,4.000000,8.000000
1297388.480451,28.000000,61.000000,-3.000000,2.000000,14.000000,2.000000,3.000000,12.000000
1297388.480492,-75.000000,35.000000,6.000000,0.000000,2.000000,5.000000,7.000000,-8.000000
1297388.495345,15.000000,11.000000,-4.000000,13.000000,2.000000,-5.000000,-6.000000,0.000000
1297388.495392,-1.000000,-12.000000,0.000000,8.000000,-8.000000,1.000000,-6.000000,-5.000000
1297388.518035,21.000000,25.000000,-10.000000,0.000000,-6.000000,0.000000,3.000000,4.000000
1297388.518090,15.000000,8.000000,0.000000,2.000000,-7.000000,-1.000000,-1.000000,-1.000000
1297388.525357,8.000000,-13.000000,2.000000,-12.000000,11.000000,-1.000000,6.000000,8.000000
1297388.525386,28.000000,-11.000000,18.000000,40.000000,-10.000000,0.000000,-12.000000,-7.000000
1297388.533472,-7.000000,-45.000000,-1.000000,14.000000,-4.000000,-1.000000,-5.000000,-5.000000
1297388.533882,6.000000,1.000000,-1.000000,7.000000,1.000000,-2.000000,8.000000,12.000000
1297388.535773,3.000000,34.000000,4.000000,1.000000,-3.000000,-3.000000,-3.000000,-6.000000
1297388.535797,-47.000000,-101.000000,-13.000000,6.000000,6.000000,0.000000,1.000000,-8.000000
1297388.536520,16.000000,72.000000,5.000000,-1.000000,4.000000,-4.000000,1.000000,8.000000
1297388.536543,19.000000,-3.000000,3.000000,-26.000000,3.000000,1.000000,6.000000,10.000000
1297388.537385,7.000000,29.000000,-6.000000,-4.000000,6.000000,1.000000,3.000000,-2.000000
1297388.537424,-29.000000,-24.000000,-6.000000,1.000000,-1.000000,-3.000000,1.000000,-1.000000
1297388.562918,13.000000,-13.000000,-5.000000,27.000000,-1.000000,-4.000000,-11.000000,-7.000000
1297388.563204,27.000000,10.000000,-7.000000,-61.000000,-7.000000,2.000000,9.000000,13.000000
1297388.564019,-32.000000,40.000000,5.000000,22.000000,1.000000,4.000000,-2.000000,-8.000000
1297388.564068,18.000000,-17.000000,-19.000000,5.000000,-2.000000,-7.000000,-9.000000,-9.000000
1297388.564798,8.000000,1.000000,-13.000000,-34.000000,7.000000,3.000000,2.000000,5.000000
1297388.564843,4.000000,-56.000000,8.000000,8.000000,-22.000000,-1.000000,10.000000,-1.000000
1297388.577790,2.000000,18.000000,-7.000000,-8.000000,3.000000,0.000000,-6.000000,-4.000000
1297388.577816,29.000000,-30.000000,-9.000000,-18.000000,-8.000000,1.000000,-1.000000,5.000000
1297388.585393,-5.000000,61.000000,-4.000000,22.000000,-4.000000,-3.000000,15.000000,14.000000
1297388.585422,5.000000,75.000000,1.000000,-15.000000,8.000000,-1.000000,-13.000000,-30.000000
1297388.607924,1.000000,-5.000000,1.000000,15.000000,-1.000000,-5.000000,-17.000000,-9.000000
1297388.607978,-26.000000,12.000000,13.000000,15.000000,5.000000,0.000000,4.000000,5.000000
1297388.615391,-16.000000,-18.000000,-6.000000,-39.000000,-1.000000,6.000000,11.000000,8.000000
1297388.615425,-18.000000,-77.000000,-5.000000,30.000000,3.000000,-3.000000,-1.000000,-10.000000
1297388.652822,7.000000,0.000000,5.000000,-11.000000,-4.000000,-1.000000,-10.000000,-12.000000
1297388.652854,-14.000000,-35.000000,-12.000000,4.000000,-2.000000,-8.000000,-10.000000,-5.000000
1297388.675466,-22.000000,-32.000000,-4.000000,23.000000,1.000000,0.000000,4.000000,3.000000
1297388.675528,-20.000000,-15.000000,1.000000,29.000000,-8.000000,4.000000,7.000000,-1.000000
1297388.690592,-5.000000,29.000000,-10.000000,9.000000,1.000000,3.000000,5.000000,12.000000
1297388.690644,-123.000000,60.000000,-12.000000,-66.000000,4.000000,-4.000000,-18.000000,-37.000000
1297388.697888,6.000000,2.000000,21.000000,18.000000,-11.000000,1.000000,1.000000,4.000000
1297388.697946,-70.000000,-35.000000,-1.000000,48.000000,-2.000000,-2.000000,1.000000,-6.000000
1297388.727363,-3.000000,-13.000000,0.000000,37.000000,-3.000000,-5.000000,-10.000000,-16.000000
1297388.727449,25.000000,9.000000,-3.000000,-11.000000,1.000000,3.000000,-6.000000,-2.000000
1297388.749640,-6.000000,-3.000000,-4.000000,-1.000000,-3.000000,-8.000000,-6.000000,-3.000000
1297388.749680,34.000000,-10.000000,10.000000,41.000000,4.000000,2.000000,1.000000,1.000000
1297388.757717,19.000000,104.000000,-20.000000,-8.000000,0.000000,0.000000,3.000000,-1.000000
1297388.757948,-65.000000,30.000000,18.000000,6.000000,18.000000,4.000000,3.000000,0.000000
1297388.758375,-28.000000,30.000000,15.000000,14.000000,6.000000,5.000000,-3.000000,-3.000000
1297388.758404,33.000000,26.000000,17.000000,-1.000000,-1.000000,2.000000,1.000000,3.000000
1297388.759010,-10.000000,-3.000000,3.000000,-3.000000,-4.000000,-4.000000,-9.000000,-11.000000
1297388.759193,-4.000000,63.000000,9.000000,11.000000,8.000000,2.000000,6.000000,16.000000
1297388.759638,-4.000000,17.000000,-22.000000,-7.000000,-3.000000,-1.000000,-2.000000,-5.000000
1297388.759666,8.000000,-37.000000,-16.000000,-15.000000,-6.000000,-4.000000,2.000000,0.000000
1297388.764918,41.000000,12.000000,10.000000,-13.000000,-7.000000,-10.000000,-14.000000,-3.000000
1297388.765151,-5.000000,-43.000000,2.000000,2.000000,3.000000,1.000000,0.000000,-7.000000
1297388.772077,-5.000000,7.000000,7.000000,28.000000,-2.000000,1.000000,7.000000,7.000000
1297388.772094,-2.000000,15.000000,5.000000,-14.000000,3.000000,0.000000,2.000000,10.000000
1297388.794790,28.000000,-19.000000,-12.000000,-38.000000,-2.000000,-4.000000,-1.000000,-2.000000
1297388.794826,-98.000000,-43.000000,-9.000000,5.000000,-4.000000,-7.000000,-14.000000,-8.000000
1297388.802709,18.000000,17.000000,7.000000,19.000000,-3.000000,4.000000,10.000000,10.000000
1297388.802743,8.000000,-57.000000,-11.000000,1.000000,-11.000000,-7.000000,-4.000000,-4.000000
1297388.803350,-32.000000,-43.000000,7.000000,-18.000000,3.000000,1.000000,-13.000000,-8.000000
1297388.803367,30.000000,111.000000,0.000000,21.000000,9.000000,-4.000000,3.000000,4.000000
1297388.847351,3.000000,-69.000000,-27.000000,25.000000,-2.000000,3.000000,-1.000000,1.000000
1297388.847388,12.000000,3.000000,5.000000,-11.000000,-7.000000,-2.000000,-3.000000,3.000000
1297388.854517,-29.000000,15.000000,13.000000,24.000000,-3.000000,-3.000000,6.000000,-1.000000
1297388.854553,6.000000,-7.000000,-9.000000,7.000000,2.000000,3.000000,-13.000000,-10.000000
1297388.878525,-4.000000,-4.000000,-3.000000,-3.000000,-10.000000,-1.000000,-6.000000,-5.000000
1297388.878724,-10.000000,-18.000000,-2.000000,4.000000,-11.000000,-8.000000,-6.000000,-5.000000
1297388.878961,-17.000000,-15.000000,-13.000000,-27.000000,5.000000,2.000000,12.000000,6.000000
1297388.878978,48.000000,23.000000,12.000000,-33.000000,-14.000000,-6.000000,-18.000000,-9.000000
1297388.880315,-12.000000,-2.000000,3.000000,27.000000,4.000000,1.000000,8.000000,9.000000
1297388.880350,11.000000,-14.000000,-5.000000,1.000000,-2.000000,1.000000,5.000000,2.000000
1297388.880684,58.000000,-2.000000,-7.000000,-65.000000,-14.000000,3.000000,1.000000,4.000000
1297388.880701,-15.000000,-3.000000,8.000000,8.000000,-4.000000,-8.000000,-11.000000,-10.000000
1297388.884501,-1.000000,48.000000,10.000000,35.000000,6.000000,11.000000,10.000000,8.000000
1297388.884543,-30.000000,-30.000000,8.000000,8.000000,-10.000000,-4.000000,3.000000,0.000000
1297388.892113,-61.000000,-128.000000,-42.000000,-46.000000,5.000000,-4.000000,-6.000000,-9.000000
1297388.892146,12.000000,48.000000,-6.000000,-24.000000,-6.000000,1.000000,-1.000000,3.000000
1297388.921959,14.000000,-1.000000,0.000000,11.000000,-4.000000,3.000000,8.000000,0.000000
1297388.921991,-39.000000,-100.000000,-25.000000,-21.000000,-8.000000,-4.000000,-5.000000,-10.000000
1297388.923141,1.000000,-57.000000,11.000000,34.000000,-8.000000,-2.000000,-1.000000,-3.000000
1297388.923177,-11.000000,-23.000000,3.000000,3.000000,-13.000000,2.000000,2.000000,1.000000
1297388.924076,23.000000,-50.000000,-36.000000,-40.000000,3.000000,-5.000000,3.000000,0.000000
1297388.924110,-2.000000,82.000000,11.000000,45.000000,-10.000000,-9.000000,-21.000000,-14.000000
1297388.952112,-18.000000,14.000000,0.000000,-23.000000,-4.000000,-4.000000,4.000000,5.000000
1297388.952152,-3.000000,-128.000000,-61.000000,-73.000000,-15.000000,-7.000000,-6.000000,-13.000000
1297388.959535,-11.000000,31.000000,7.000000,24.000000,-14.000000,-6.000000,-5.000000,3.000000
1297388.959570,6.000000,-6.000000,-12.000000,23.000000,-9.000000,-5.000000,-7.000000,-4.000000
1297388.974500,3.000000,-76.000000,-11.000000,-22.000000,7.000000,-5.000000,3.000000,3.000000
1297388.974662,-14.000000,-3.000000,-11.000000,0.000000,6.000000,1.000000,5.000000,-8.000000
1297388.975519,22.000000,19.000000,6.000000,23.000000,-9.000000,5.000000,7.000000,8.000000
1297388.975551,9.000000,5.000000,11.000000,28.000000,-11.000000,-7.000000,-18.000000,-17.000000
1297388.976591,21.000000,12.000000,13.000000,-35.000000,0.000000,7.000000,7.000000,9.000000
1297388.976621,-22.000000,-118.000000,-17.000000,-36.000000,-3.000000,-3.000000,1.000000,-7.000000
1297388.997209,10.000000,-19.000000,-1.000000,9.000000,-2.000000,-3.000000,1.000000,1.000000
1297388.997243,10.000000,-5.000000,-11.000000,-6.000000,1.000000,-2.000000,-2.000000,-1.000000
1297389.012377,16.000000,-58.000000,11.000000,26.000000,2.000000,0.000000,3.000000,5.000000
1297389.012410,6.000000,23.000000,-4.000000,-20.000000,-7.000000,2.000000,3.000000,9.000000
1297389.019698,-47.000000,-34.000000,-12.000000,13.000000,-18.000000,-6.000000,-4.000000,-10.000000
1297389.019822,35.000000,1.000000,-10.000000,-7.000000,2.000000,2.000000,2.000000,1.000000
1297389.035119,-28.000000,-6.000000,5.000000,21.000000,-8.000000,1.000000,0.000000,0.000000
1297389.035138,10.000000,-23.000000,4.000000,31.000000,-11.000000,-4.000000,1.000000,2.000000
1297389.035677,-45.000000,0.000000,5.000000,-16.000000,4.000000,-1.000000,-4.000000,-10.000000
1297389.035694,-5.000000,0.000000,-2.000000,27.000000,1.000000,1.000000,0.000000,-4.000000
1297389.037129,20.000000,63.000000,-4.000000,-53.000000,2.000000,0.000000,6.000000,0.000000
1297389.037161,-10.000000,-32.000000,10.000000,-13.000000,3.000000,-3.000000,5.000000,12.000000
1297389.042035,6.000000,-20.000000,9.000000,4.000000,-11.000000,-2.000000,-4.000000,0.000000
1297389.042051,1.000000,1.000000,-8.000000,33.000000,0.000000,1.000000,-5.000000,0.000000
1297389.087117,-71.000000,-47.000000,-4.000000,-20.000000,-1.000000,7.000000,12.000000,-5.000000
1297389.087156,-9.000000,-3.000000,2.000000,7.000000,0.000000,-3.000000,-13.000000,-11.000000
1297389.117132,-13.000000,-77.000000,-12.000000,-21.000000,-6.000000,-4.000000,2.000000,3.000000
1297389.117367,4.000000,32.000000,11.000000,53.000000,2.000000,0.000000,9.000000,7.000000
1297389.125631,35.000000,-42.000000,-13.000000,-24.000000,1.000000,0.000000,2.000000,1.000000
1297389.125726,-40.000000,5.000000,-18.000000,-7.000000,-3.000000,-4.000000,-9.000000,-10.000000
1297389.126134,-20.000000,-20.000000,10.000000,-14.000000,7.000000,-4.000000,-8.000000,-9.000000
1297389.126165,10.000000,90.000000,10.000000,7.000000,-3.000000,3.000000,3.000000,11.000000
1297389.127807,2.000000,-11.000000,12.000000,20.000000,8.000000,-3.000000,6.000000,2.000000
1297389.127835,12.000000,-18.000000,-4.000000,-31.000000,-9.000000,-2.000000,2.000000,2.000000
1297389.127978,-6.000000,-35.000000,-23.000000,8.000000,-10.000000,-6.000000,-14.000000,-24.000000
1297389.128002,-7.000000,9.000000,15.000000,37.000000,-15.000000,1.000000,-3.000000,-1.000000
1297389.128317,-30.000000,-7.000000,-9.000000,11.000000,0.000000,4.000000,8.000000,5.000000
1297389.128351,30.000000,26.000000,6.000000,12.000000,-9.000000,-4.000000,-4.000000,-7.000000
1297389.131967,12.000000,-9.000000,-1.000000,-9.000000,0.000000,2.000000,1.000000,1.000000
1297389.132000,32.000000,-33.000000,-9.000000,9.000000,1.000000,-3.000000,-1.000000,-3.000000
1297389.147102,-50.000000,98.000000,5.000000,-2.000000,5.000000,5.000000,11.000000,1.000000
1297389.147138,4.000000,6.000000,12.000000,9.000000,0.000000,-3.000000,-16.000000,-5.000000
1297389.156251,-8.000000,-21.000000,3.000000,66.000000,2.000000,-4.000000,-1.000000,2.000000
1297389.156288,-31.000000,-36.000000,-6.000000,-5.000000,-3.000000,5.000000,5.000000,5.000000
1297389.162165,60.000000,112.000000,10.000000,12.000000,2.000000,-2.000000,2.000000,15.000000
1297389.162184,-34.000000,1.000000,-3.000000,2.000000,-4.000000,5.000000,9.000000,-3.000000
1297389.184670,11.000000,14.000000,3.000000,-6.000000,10.000000,1.000000,-3.000000,-5.000000
1297389.184687,11.000000,5.000000,2.000000,-9.000000,6.000000,0.000000,2.000000,5.000000
1297389.191923,-9.000000,-4.000000,-1.000000,-23.000000,-3.000000,-5.000000,5.000000,4.000000
1297389.191957,20.000000,23.000000,1.000000,42.000000,-3.000000,4.000000,-2.000000,-5.000000
1297389.200153,12.000000,12.000000,-9.000000,-17.000000,-8.000000,2.000000,1.000000,3.000000
1297389.200187,5.000000,-18.000000,12.000000,33.000000,7.000000,-4.000000,-2.000000,-8.000000
1297389.207014,17.000000,-13.000000,7.000000,-17.000000,-3.000000,-4.000000,-5.000000,4.000000
1297389.207031,8.000000,-21.000000,-1.000000,4.000000,0.000000,-3.000000,-8.000000,-9.000000
1297389.214751,-32.000000,-122.000000,-27.000000,-5.000000,-8.000000,-3.000000,3.000000,-6.000000
1297389.214884,-50.000000,-52.000000,-28.000000,-18.000000,-8.000000,-3.000000,1.000000,-4.000000
1297389.237327,15.000000,-6.000000,-17.000000,-71.000000,-17.000000,-9.000000,-6.000000,-6.000000
1297389.237346,3.000000,-21.000000,1.000000,14.000000,1.000000,-4.000000,-21.000000,-13.000000
1297389.238249,-19.000000,51.000000,18.000000,-15.000000,-3.000000,-2.000000,1.000000,4.000000
1297389.238284,-14.000000,-25.000000,-12.000000,21.000000,4.000000,-1.000000,3.000000,5.000000
1297389.244564,28.000000,61.000000,7.000000,26.000000,-1.000000,3.000000,11.000000,16.000000
1297389.244600,-11.000000,-55.000000,-22.000000,-44.000000,-2.000000,-3.000000,-4.000000,-8.000000
1297389.252161,42.000000,127.000000,9.000000,-11.000000,13.000000,-3.000000,6.000000,9.000000
1297389.252269,15.000000,-3.000000,1.000000,24.000000,-4.000000,2.000000,-7.000000,-9.000000
1297389.274629,-15.000000,2.000000,-25.000000,-30.000000,-3.000000,-1.000000,2.000000,3.000000
1297389.274656,36.000000,125.000000,26.000000,-38.000000,7.000000,2.000000,2.000000,9.000000
1297389.289475,11.000000,-37.000000,3.000000,24.000000,-6.000000,-4.000000,6.000000,0.000000
1297389.289547,-1.000000,26.000000,4.000000,12.000000,-17.000000,-4.000000,-3.000000,2.000000
1297389.297241,20.000000,120.000000,15.000000,22.000000,20.000000,4.000000,0.000000,2.000000
1297389.297276,6.000000,91.000000,-20.000000,16.000000,10.000000,-9.000000,-13.000000,-4.000000
1297389.312159,32.000000,-35.000000,-21.000000,-52.000000,-15.000000,4.000000,7.000000,4.000000
1297389.312180,-6.000000,94.000000,13.000000,15.000000,16.000000,4.000000,12.000000,10.000000
1297389.319542,14.000000,-22.000000,9.000000,36.000000,3.000000,-1.000000,2.000000,-6.000000
1297389.319575,-31.000000,-30.000000,0.000000,9.000000,-15.000000,-7.000000,-14.000000,-9.000000
1297389.357335,13.000000,-23.000000,8.000000,10.000000,-4.000000,-4.000000,4.000000,9.000000
1297389.357354,10.000000,-10.000000,-10.000000,-2.000000,-13.000000,-1.000000,-11.000000,-15.000000
1297389.364590,26.000000,-56.000000,-26.000000,-8.000000,4.000000,-1.000000,-1.000000,0.000000
1297389.364608,-1.000000,41.000000,6.000000,9.000000,3.000000,-1.000000,5.000000,1.000000
1297389.394891,5.000000,124.000000,38.000000,64.000000,6.000000,6.000000,12.000000,12.000000
1297389.394979,-11.000000,-21.000000,-27.000000,-92.000000,7.000000,-1.000000,-2.000000,-4.000000
1297389.395321,13.000000,6.000000,11.000000,8.000000,-8.000000,3.000000,4.000000,4.000000
1297389.395493,10.000000,-16.000000,3.000000,14.000000,-11.000000,-10.000000,-16.000000,-12.000000
1297389.396752,3.000000,-27.000000,-12.000000,30.000000,1.000000,-4.000000,-6.000000,-2.000000
1297389.396785,-6.000000,10.000000,9.000000,2.000000,-4.000000,0.000000,13.000000,6.000000
1297389.402192,3.000000,-21.000000,-10.000000,16.000000,-8.000000,0.000000,-4.000000,-6.000000
1297389.402211,-1.000000,-11.000000,-6.000000,-21.000000,0.000000,1.000000,2.000000,4.000000
1297389.409802,34.000000,23.000000,11.000000,14.000000,1.000000,-1.000000,0.000000,0.000000
1297389.409821,-44.000000,-56.000000,-3.000000,4.000000,-7.000000,-5.000000,-2.000000,-3.000000
1297389.417146,10.000000,-79.000000,-13.000000,16.000000,2.000000,-1.000000,2.000000,-1.000000
1297389.417182,-56.000000,-10.000000,-1.000000,-12.000000,-7.000000,2.000000,-14.000000,-20.000000
1297389.432122,14.000000,3.000000,4.000000,19.000000,-5.000000,-1.000000,2.000000,9.000000
1297389.432141,-30.000000,-20.000000,-11.000000,-4.000000,-1.000000,3.000000,-1.000000,-1.000000
1297389.447311,9.000000,12.000000,-8.000000,-16.000000,-3.000000,5.000000,7.000000,8.000000
1297389.447331,10.000000,5.000000,-9.000000,4.000000,2.000000,-1.000000,-4.000000,-7.000000
1297389.469519,-15.000000,-12.000000,6.000000,-3.000000,-4.000000,-5.000000,-9.000000,-11.000000
1297389.469564,-4.000000,-58.000000,-2.000000,16.000000,-1.000000,-3.000000,-1.000000,1.000000
1297389.477570,2.000000,-37.000000,-13.000000,-19.000000,8.000000,2.000000,4.000000,3.000000
1297389.477586,-7.000000,-33.000000,-1.000000,-41.000000,-10.000000,-5.000000,4.000000,-2.000000
1297389.478245,11.000000,0.000000,-4.000000,21.000000,0.000000,-7.000000,-1.000000,-4.000000
1297389.478273,0.000000,2.000000,1.000000,-18.000000,-4.000000,-2.000000,-8.000000,2.000000
1297389.479655,3.000000,-14.000000,-15.000000,-3.000000,-7.000000,-1.000000,-8.000000,-10.000000
1297389.479687,38.000000,-38.000000,-11.000000,-20.000000,6.000000,-4.000000,-1.000000,1.000000
1297389.480408,-55.000000,-2.000000,1.000000,-14.000000,-13.000000,-9.000000,-8.000000,-12.000000
1297389.480480,-17.000000,23.000000,9.000000,-28.000000,-2.000000,0.000000,6.000000,7.000000
1297389.481261,36.000000,20.000000,10.000000,16.000000,4.000000,2.000000,-8.000000,-7.000000
1297389.481278,6.000000,-7.000000,-16.000000,-26.000000,-2.000000,0.000000,5.000000,3.000000
1297389.484511,14.000000,0.000000,-4.000000,-47.000000,0.000000,-9.000000,-8.000000,-9.000000
1297389.484548,2.000000,4.000000,6.000000,21.000000,1.000000,-1.000000,3.000000,2.000000
1297389.514830,-19.000000,9.000000,12.000000,9.000000,-12.000000,1.000000,7.000000,-1.000000
1297389.514864,-36.000000,11.000000,-1.000000,-4.000000,1.000000,-2.000000,1.000000,-9.000000
1297389.522300,20.000000,58.000000,20.000000,17.000000,0.000000,6.000000,6.000000,10.000000
1297389.522336,-10.000000,-51.000000,-27.000000,6.000000,4.000000,0.000000,-2.000000,-5.000000
1297389.552263,-8.000000,3.000000,2.000000,32.000000,-7.000000,-2.000000,-8.000000,-5.000000
1297389.552297,5.000000,13.000000,4.000000,-32.000000,10.000000,4.000000,6.000000,7.000000
1297389.559582,17.000000,2.000000,-9.000000,-34.000000,3.000000,-2.000000,-4.000000,-25.000000
1297389.559618,-21.000000,-10.000000,-10.000000,-17.000000,2.000000,-1.000000,-6.000000,-1.000000
1297389.567653,20.000000,104.000000,13.000000,30.000000,-2.000000,4.000000,11.000000,9.000000
1297389.567713,-47.000000,-31.000000,-3.000000,37.000000,-8.000000,-3.000000,-14.000000,-21.000000
1297389.568989,26.000000,0.000000,13.000000,-16.000000,3.000000,-5.000000,-3.000000,7.000000
1297389.569029,42.000000,-52.000000,-24.000000,-11.000000,0.000000,-1.000000,5.000000,7.000000
1297389.590705,9.000000,-48.000000,6.000000,12.000000,1.000000,2.000000,-5.000000,-10.000000
1297389.590738,-22.000000,-38.000000,-16.000000,18.000000,-24.000000,-3.000000,4.000000,3.000000
1297389.591411,35.000000,79.000000,11.000000,8.000000,3.000000,0.000000,-9.000000,3.000000
1297389.591555,10.000000,123.000000,25.000000,8.000000,25.000000,5.000000,8.000000,8.000000
1297389.591974,30.000000,15.000000,0.000000,14.000000,-5.000000,1.000000,-14.000000,-17.000000
1297389.591995,-29.000000,32.000000,18.000000,13.000000,-7.000000,-3.000000,11.000000,12.000000
1297389.592543,23.000000,46.000000,-11.000000,15.000000,3.000000,2.000000,2.000000,0.000000
1297389.592578,1.000000,51.000000,-1.000000,-36.000000,3.000000,-7.000000,-11.000000,1.000000
1297389.597183,11.000000,5.000000,3.000000,-9.000000,0.000000,1.000000,3.000000,7.000000
1297389.597219,-14.000000,-109.000000,5.000000,86.000000,-5.000000,2.000000,6.000000,5.000000
1297389.604552,-1.000000,1.000000,-23.000000,-95.000000,-4.000000,-6.000000,-9.000000,-10.000000
1297389.604571,-19.000000,-58.000000,1.000000,-50.000000,-5.000000,-8.000000,-11.000000,-5.000000
1297389.612256,7.000000,-40.000000,-14.000000,16.000000,-1.000000,-8.000000,0.000000,10.000000
1297389.612295,-27.000000,34.000000,13.000000,4.000000,7.000000,5.000000,3.000000,1.000000
1297389.634537,4.000000,-34.000000,-6.000000,3.000000,2.000000,2.000000,10.000000,5.000000
1297389.634573,-50.000000,30.000000,-1.000000,8.000000,-11.000000,-4.000000,9.000000,-1.000000
1297389.664537,-8.000000,-1.000000,0.000000,25.000000,2.000000,-2.000000,-13.000000,-14.000000
1297389.664557,-37.000000,-128.000000,-19.000000,-61.000000,-4.000000,-7.000000,-17.000000,-15.000000
1297389.679791,11.000000,34.000000,-6.000000,-10.000000,-3.000000,-1.000000,2.000000,10.000000
1297389.679825,-26.000000,72.000000,21.000000,-12.000000,-2.000000,2.000000,0.000000,1.000000
1297389.701980,18.000000,-2.000000,-6.000000,11.000000,-3.000000,-5.000000,2.000000,5.000000
1297389.702015,-31.000000,-27.000000,2.000000,28.000000,7.000000,3.000000,4.000000,5.000000
1297389.709722,4.000000,-123.000000,5.000000,-11.000000,-6.000000,-6.000000,-1.000000,0.000000
1297389.709882,8.000000,-13.000000,-15.000000,-6.000000,-5.000000,-4.000000,-16.000000,-19.000000
1297389.711368,22.000000,127.000000,27.000000,27.000000,23.000000,11.000000,14.000000,18.000000
1297389.711480,-19.000000,-11.000000,-19.000000,-69.000000,11.000000,-1.000000,8.000000,4.000000
1297389.711934,30.000000,-12.000000,15.000000,31.000000,4.000000,1.000000,-4.000000,-8.000000
1297389.711953,-128.000000,35.000000,17.000000,20.000000,-5.000000,-5.000000,-21.000000,-18.000000
1297389.712207,1.000000,58.000000,9.000000,-18.000000,16.000000,0.000000,0.000000,3.000000
1297389.712240,-21.000000,-128.000000,-10.000000,-10.000000,-1.000000,7.000000,9.000000,4.000000
1297389.712929,2.000000,-8.000000,7.000000,46.000000,1.000000,1.000000,-2.000000,3.000000
1297389.712946,-14.000000,41.000000,14.000000,-9.000000,15.000000,3.000000,6.000000,4.000000
1297389.724513,4.000000,-120.000000,6.000000,22.000000,-17.000000,-7.000000,-10.000000,-5.000000
1297389.724850,-10.000000,-13.000000,-16.000000,-54.000000,-7.000000,-8.000000,-1.000000,6.000000
1297389.725265,-19.000000,19.000000,5.000000,28.000000,2.000000,-1.000000,-1.000000,-10.000000
1297389.725400,-11.000000,17.000000,9.000000,-22.000000,5.000000,-2.000000,-6.000000,-5.000000
1297389.754728,19.000000,0.000000,-14.000000,23.000000,0.000000,-2.000000,3.000000,7.000000
1297389.754763,-6.000000,13.000000,-5.000000,2.000000,-4.000000,6.000000,12.000000,11.000000
1297389.762028,26.000000,20.000000,8.000000,0.000000,5.000000,0.000000,-5.000000,-5.000000
1297389.762064,-1.000000,26.000000,0.000000,-12.000000,4.000000,-5.000000,-10.000000,-3.000000
1297389.777037,8.000000,2.000000,2.000000,19.000000,1.000000,1.000000,7.000000,4.000000
1297389.777115,15.000000,-28.000000,-29.000000,-4.000000,-4.000000,-1.000000,4.000000,2.000000
1297389.792112,-1.000000,-6.000000,-6.000000,5.000000,-3.000000,0.000000,2.000000,3.000000
1297389.792191,-51.000000,-27.000000,5.000000,11.000000,-4.000000,-2.000000,-1.000000,0.000000
1297389.807818,-16.000000,-12.000000,-3.000000,-18.000000,-6.000000,-5.000000,-3.000000,-9.000000
1297389.807999,17.000000,-16.000000,6.000000,15.000000,-2.000000,-2.000000,-5.000000,1.000000
1297389.808560,-54.000000,-16.000000,-8.000000,-32.000000,-4.000000,-1.000000,3.000000,-3.000000
1297389.808745,20.000000,-1.000000,9.000000,16.000000,0.000000,6.000000,1.000000,-4.000000
1297389.811123,-12.000000,-87.000000,-31.000000,-47.000000,-14.000000,-10.000000,-10.000000,-2.000000
1297389.811155,-29.000000,0.000000,-5.000000,7.000000,-8.000000,-4.000000,-12.000000,-35.000000
1297389.811297,12.000000,-1.000000,0.000000,23.000000,2.000000,0.000000,-6.000000,-1.000000
1297389.811322,32.000000,-23.000000,19.000000,24.000000,8.000000,8.000000,12.000000,17.000000
1297389.829695,25.000000,42.000000,-5.000000,0.000000,1.000000,-6.000000,-2.000000,2.000000
1297389.829830,-23.000000,-41.000000,3.000000,15.000000,-10.000000,-6.000000,-8.000000,-18.000000
1297389.830192,4.000000,57.000000,9.000000,-29.000000,15.000000,8.000000,8.000000,8.000000
1297389.830210,48.000000,25.000000,7.000000,23.000000,7.000000,5.000000,1.000000,8.000000
1297389.836976,-47.000000,-49.000000,11.000000,43.000000,-10.000000,4.000000,1.000000,-3.000000
1297389.837011,-14.000000,108.000000,-24.000000,-128.000000,9.000000,-8.000000,-8.000000,-4.000000
1297389.844706,-1.000000,-2.000000,-2.000000,14.000000,6.000000,-4.000000,1.000000,8.000000
1297389.844742,-3.000000,-19.000000,6.000000,29.000000,1.000000,2.000000,-12.000000,-31.000000
1297389.852211,-7.000000,-6.000000,-5.000000,4.000000,-7.000000,-7.000000,-3.000000,-2.000000
1297389.852246,16.000000,5.000000,12.000000,9.000000,3.000000,2.000000,6.000000,6.000000
1297389.874658,-48.000000,48.000000,-4.000000,-8.000000,16.000000,6.000000,3.000000,-3.000000
1297389.874677,39.000000,16.000000,18.000000,29.000000,-5.000000,3.000000,2.000000,7.000000
1297389.912299,-42.000000,-17.000000,-19.000000,-8.000000,4.000000,-5.000000,-5.000000,-7.000000
1297389.912442,-11.000000,12.000000,8.000000,29.000000,-9.000000,-10.000000,-12.000000,-19.000000
1297389.919784,-35.000000,37.000000,7.000000,-10.000000,-11.000000,-3.000000,1.000000,10.000000
1297389.919809,-53.000000,-125.000000,-17.000000,25.000000,-9.000000,-2.000000,-4.000000,-3.000000
1297389.942202,11.000000,1.000000,-6.000000,8.000000,3.000000,-5.000000,2.000000,7.000000
1297389.942222,11.000000,52.000000,18.000000,19.000000,-4.000000,4.000000,7.000000,6.000000
1297389.949541,-32.000000,-26.000000,-19.000000,-12.000000,-13.000000,-9.000000,-9.000000,-15.000000
1297389.949560,4.000000,-9.000000,-3.000000,-14.000000,13.000000,0.000000,2.000000,5.000000
1297389.965178,26.000000,-128.000000,-19.000000,17.000000,-12.000000,-3.000000,-3.000000,6.000000
1297389.965451,0.000000,17.000000,-16.000000,-54.000000,3.000000,-3.000000,3.000000,4.000000
1297389.965861,34.000000,37.000000,20.000000,-5.000000,0.000000,-4.000000,-3.000000,-3.000000
1297389.965890,-26.000000,-3.000000,10.000000,44.000000,-10.000000,-1.000000,-3.000000,-6.000000
1297389.966076,14.000000,23.000000,-14.000000,-87.000000,-7.000000,-5.000000,-12.000000,2.000000
1297389.966092,-17.000000,60.000000,15.000000,18.000000,18.000000,1.000000,3.000000,-3.000000
1297389.971737,32.000000,-2.000000,4.000000,-11.000000,-11.000000,1.000000,8.000000,7.000000
1297389.971771,-5.000000,-10.000000,8.000000,28.000000,-8.000000,3.000000,4.000000,3.000000
1297389.987269,-18.000000,18.000000,-6.000000,-9.000000,6.000000,-2.000000,1.000000,2.000000
1297389.987304,-17.000000,26.000000,-7.000000,-3.000000,-4.000000,-3.000000,3.000000,11.000000
1297389.994665,-10.000000,52.000000,24.000000,13.000000,1.000000,1.000000,0.000000,-5.000000
1297389.994701,-31.000000,23.000000,13.000000,29.000000,-2.000000,1.000000,-1.000000,-6.000000
1297390.002276,12.000000,19.000000,16.000000,26.000000,-9.000000,-2.000000,-5.000000,0.000000
1297390.002310,14.000000,-28.000000,-12.000000,-30.000000,6.000000,7.000000,6.000000,6.000000
1297390.024865,-24.000000,-37.000000,-7.000000,20.000000,3.000000,-2.000000,6.000000,-1.000000
1297390.024907,23.000000,-24.000000,-9.000000,8.000000,-6.000000,-3.000000,3.000000,6.000000
1297390.047024,-35.000000,-14.000000,-4.000000,-1.000000,-4.000000,-10.000000,-14.000000,-14.000000
1297390.047060,22.000000,-128.000000,-11.000000,-4.000000,-11.000000,-3.000000,-8.000000,-1.000000
1297390.054667,-14.000000,56.000000,33.000000,-22.000000,1.000000,3.000000,12.000000,10.000000
1297390.054687,-40.000000,7.000000,0.000000,46.000000,-3.000000,-1.000000,-4.000000,-5.000000
1297390.070071,18.000000,23.000000,9.000000,-18.000000,-2.000000,4.000000,-8.000000,-17.000000
1297390.070099,24.000000,-37.000000,-3.000000,14.000000,-7.000000,-6.000000,2.000000,4.000000
1297390.070742,8.000000,10.000000,-6.000000,19.000000,-5.000000,4.000000,5.000000,12.000000
1297390.070761,16.000000,10.000000,1.000000,-62.000000,7.000000,2.000000,2.000000,5.000000
1297390.071333,21.000000,1.000000,0.000000,1.000000,-3.000000,3.000000,12.000000,11.000000
1297390.071357,11.000000,7.000000,3.000000,-9.000000,-6.000000,-3.000000,-9.000000,-4.000000
1297390.072025,41.000000,14.000000,15.000000,1.000000,4.000000,-4.000000,-5.000000,10.000000
1297390.072200,0.000000,39.000000,-5.000000,12.000000,1.000000,-2.000000,-11.000000,-19.000000
1297390.072591,4.000000,-9.000000,-9.000000,-31.000000,-8.000000,-1.000000,2.000000,6.000000
1297390.072616,9.000000,46.000000,15.000000,6.000000,5.000000,6.000000,-2.000000,-1.000000
1297390.076812,-11.000000,-73.000000,-8.000000,1.000000,-3.000000,-1.000000,3.000000,1.000000
1297390.076852,42.000000,2.000000,-1.000000,4.000000,-2.000000,5.000000,13.000000,12.000000
1297390.084244,-47.000000,-61.000000,-15.000000,-8.000000,-6.000000,0.000000,-3.000000,-14.000000
1297390.084262,4.000000,-28.000000,-2.000000,-3.000000,-13.000000,-11.000000,-24.000000,-13.000000
1297390.107147,39.000000,-1.000000,-20.000000,-54.000000,7.000000,0.000000,0.000000,-5.000000
1297390.107181,14.000000,34.000000,-1.000000,15.000000,8.000000,-2.000000,5.000000,9.000000
1297390.114774,-15.000000,-113.000000,6.000000,25.000000,-7.000000,0.000000,3.000000,3.000000
1297390.114794,22.000000,40.000000,-5.000000,4.000000,-5.000000,4.000000,6.000000,2.000000
1297390.129568,8.000000,-63.000000,-13.000000,-65.000000,-6.000000,-3.000000,-1.000000,1.000000
1297390.129587,-24.000000,51.000000,11.000000,48.000000,6.000000,-2.000000,-6.000000,-2.000000
1297390.144690,-13.000000,61.000000,11.000000,19.000000,3.000000,3.000000,3.000000,4.000000
1297390.144724,-9.000000,-104.000000,11.000000,-3.000000,-5.000000,-1.000000,4.000000,7.000000
1297390.153017,-24.000000,5.000000,-3.000000,-44.000000,-7.000000,-1.000000,-1.000000,-6.000000
1297390.153034,8.000000,20.000000,4.000000,5.000000,-2.000000,-9.000000,-21.000000,-8.000000
1297390.153269,-28.000000,-83.000000,-4.000000,-2.000000,-6.000000,4.000000,-2.000000,0.000000
1297390.153285,-30.000000,-8.000000,-4.000000,-18.000000,-4.000000,-3.000000,5.000000,-4.000000
1297390.159560,-19.000000,4.000000,11.000000,18.000000,2.000000,4.000000,0.000000,-17.000000
1297390.159618,13.000000,-60.000000,-6.000000,25.000000,1.000000,1.000000,-7.000000,-2.000000
1297390.167057,-11.000000,5.000000,9.000000,19.000000,0.000000,-6.000000,-3.000000,-6.000000
1297390.167096,10.000000,-14.000000,-23.000000,-68.000000,4.000000,0.000000,-2.000000,3.000000
1297390.189289,13.000000,26.000000,-1.000000,33.000000,-13.000000,5.000000,10.000000,8.000000
1297390.189306,-83.000000,-27.000000,-14.000000,-27.000000,2.000000,-6.000000,-13.000000,-19.000000
1297390.189901,18.000000,54.000000,1.000000,16.000000,-8.000000,-1.000000,-1.000000,5.000000
1297390.189933,9.000000,-45.000000,-11.000000,-24.000000,-6.000000,-3.000000,8.000000,8.000000
1297390.197109,-46.000000,1.000000,-4.000000,-32.000000,-5.000000,0.000000,0.000000,-7.000000
1297390.197144,-57.000000,62.000000,5.000000,-25.000000,-8.000000,1.000000,1.000000,-5.000000
1297390.220162,11.000000,24.000000,6.000000,-14.000000,7.000000,-1.000000,-2.000000,-6.000000
1297390.220251,29.000000,16.000000,0.000000,8.000000,-8.000000,0.000000,6.000000,14.000000
1297390.221036,16.000000,48.000000,-21.000000,-6.000000,5.000000,1.000000,9.000000,4.000000
1297390.221080,-14.000000,-10.000000,8.000000,14.000000,5.000000,-10.000000,-28.000000,-10.000000
1297390.242040,4.000000,5.000000,9.000000,7.000000,0.000000,-3.000000,-1.000000,-1.000000
1297390.242060,14.000000,8.000000,-7.000000,0.000000,5.000000,12.000000,17.000000,10.000000
1297390.264744,6.000000,34.000000,21.000000,15.000000,1.000000,1.000000,-1.000000,6.000000
1297390.264839,18.000000,113.000000,-4.000000,-12.000000,5.000000,1.000000,1.000000,-3.000000
1297390.272632,53.000000,116.000000,4.000000,-14.000000,13.000000,5.000000,0.000000,8.000000
1297390.272661,-11.000000,87.000000,-2.000000,3.000000,7.000000,3.000000,10.000000,7.000000
1297390.273436,56.000000,26.000000,13.000000,48.000000,8.000000,5.000000,11.000000,17.000000
1297390.273600,-12.000000,8.000000,-3.000000,-10.000000,0.000000,-4.000000,-8.000000,-10.000000
1297390.274678,37.000000,56.000000,0.000000,-7.000000,11.000000,-9.000000,-19.000000,-7.000000
1297390.274722,13.000000,7.000000,9.000000,27.000000,2.000000,2.000000,8.000000,10.000000
1297390.279484,22.000000,56.000000,22.000000,36.000000,-6.000000,3.000000,11.000000,12.000000
1297390.279523,-3.000000,-17.000000,-19.000000,17.000000,-8.000000,-4.000000,-3.000000,-7.000000
1297390.302193,9.000000,29.000000,15.000000,-38.000000,6.000000,-8.000000,-6.000000,-2.000000
1297390.302234,-32.000000,-29.000000,-12.000000,18.000000,-5.000000,0.000000,2.000000,0.000000
1297390.309758,-32.000000,-4.000000,0.000000,12.000000,-1.000000,5.000000,5.000000,-3.000000
1297390.309778,-25.000000,-22.000000,-1.000000,20.000000,-5.000000,-5.000000,1.000000,-6.000000
1297390.347169,20.000000,26.000000,-3.000000,-42.000000,-8.000000,-2.000000,-1.000000,6.000000
1297390.347205,-64.000000,-113.000000,-26.000000,8.000000,-14.000000,-12.000000,-14.000000,-15.000000
1297390.354763,-6.000000,59.000000,19.000000,9.000000,2.000000,5.000000,8.000000,11.000000
1297390.354802,4.000000,-34.000000,-25.000000,-57.000000,6.000000,-2.000000,0.000000,0.000000
1297390.377088,-11.000000,5.000000,4.000000,26.000000,-5.000000,-2.000000,-7.000000,-10.000000
1297390.377107,-13.000000,0.000000,7.000000,35.000000,-1.000000,0.000000,-5.000000,3.000000
1297390.384374,4.000000,-1.000000,-17.000000,-61.000000,9.000000,-2.000000,9.000000,3.000000
1297390.384410,-22.000000,-35.000000,6.000000,11.000000,-3.000000,2.000000,5.000000,1.000000
1297390.385532,23.000000,11.000000,24.000000,47.000000,0.000000,2.000000,0.000000,2.000000
1297390.385559,-14.000000,21.000000,-2.000000,14.000000,-3.000000,0.000000,7.000000,0.000000
1297390.386873,-24.000000,-57.000000,13.000000,12.000000,-2.000000,6.000000,6.000000,2.000000
1297390.386904,13.000000,69.000000,-17.000000,-20.000000,-11.000000,2.000000,11.000000,7.000000
1297390.387776,-5.000000,84.000000,12.000000,-13.000000,1.000000,-9.000000,-24.000000,-11.000000
1297390.387812,4.000000,-10.000000,-9.000000,-1.000000,-12.000000,-6.000000,-4.000000,4.000000
1297390.399660,-31.000000,-18.000000,-23.000000,-45.000000,4.000000,-1.000000,-7.000000,-3.000000
1297390.399683,-18.000000,6.000000,3.000000,-28.000000,12.000000,0.000000,5.000000,0.000000
1297390.421901,32.000000,-3.000000,11.000000,14.000000,2.000000,4.000000,7.000000,2.000000
1297390.421943,15.000000,-7.000000,7.000000,44.000000,6.000000,-1.000000,-8.000000,1.000000
1297390.422735,28.000000,-30.000000,-13.000000,-40.000000,-10.000000,-1.000000,4.000000,-3.000000
1297390.422752,-44.000000,-30.000000,4.000000,-2.000000,-6.000000,-6.000000,-12.000000,-14.000000
1297390.430138,11.000000,12.000000,11.000000,11.000000,-2.000000,-2.000000,2.000000,2.000000
1297390.430157,-3.000000,-92.000000,-7.000000,41.000000,-3.000000,-4.000000,-6.000000,-2.000000
1297390.437281,3.000000,-7.000000,5.000000,-36.000000,1.000000,0.000000,3.000000,2.000000
1297390.437300,31.000000,37.000000,29.000000,1.000000,3.000000,7.000000,9.000000,9.000000
1297390.474573,-7.000000,24.000000,-1.000000,18.000000,3.000000,0.000000,-7.000000,-6.000000
1297390.474594,-15.000000,-120.000000,-3.000000,-8.000000,-15.000000,0.000000,3.000000,-4.000000
1297390.497146,33.000000,-15.000000,-2.000000,9.000000,10.000000,-3.000000,9.000000,4.000000
1297390.497181,-54.000000,-47.000000,4.000000,23.000000,-3.000000,-11.000000,-32.000000,-18.000000
1297390.512546,-96.000000,-7.000000,0.000000,-9.000000,-7.000000,5.000000,6.000000,-4.000000
1297390.512887,5.000000,-14.000000,-8.000000,12.000000,4.000000,-3.000000,-23.000000,-16.000000
1297390.513511,25.000000,-23.000000,3.000000,-12.000000,4.000000,3.000000,7.000000,18.000000
1297390.513719,20.000000,26.000000,17.000000,21.000000,-10.000000,-1.000000,8.000000,7.000000
1297390.514303,19.000000,-10.000000,-11.000000,-23.000000,9.000000,-1.000000,0.000000,1.000000
1297390.514457,-3.000000,23.000000,4.000000,23.000000,11.000000,1.000000,8.000000,5.000000
1297390.514882,0.000000,11.000000,7.000000,24.000000,-2.000000,-5.000000,-10.000000,-3.000000
1297390.514903,18.000000,-4.000000,-1.000000,18.000000,6.000000,0.000000,0.000000,4.000000
1297390.519686,4.000000,-65.000000,-17.000000,-29.000000,-8.000000,0.000000,2.000000,-1.000000
1297390.519737,4.000000,-27.000000,12.000000,10.000000,-6.000000,-1.000000,1.000000,-2.000000
1297390.527764,-7.000000,-10.000000,-1.000000,23.000000,-4.000000,4.000000,0.000000,1.000000
1297390.527781,-5.000000,-52.000000,-20.000000,-20.000000,0.000000,-1.000000,-4.000000,-3.000000
1297390.541973,-31.000000,30.000000,28.000000,0.000000,-6.000000,-4.000000,5.000000,-7.000000
1297390.541992,25.000000,-8.000000,-11.000000,32.000000,7.000000,-1.000000,-7.000000,3.000000
1297390.557155,-51.000000,21.000000,13.000000,-11.000000,1.000000,1.000000,0.000000,-1.000000
1297390.557186,11.000000,-53.000000,-10.000000,14.000000,-2.000000,0.000000,6.000000,9.000000
1297390.579847,13.000000,-2.000000,0.000000,-46.000000,2.000000,-7.000000,-8.000000,-7.000000
1297390.579870,-77.000000,-50.000000,7.000000,42.000000,-6.000000,-4.000000,-9.000000,-13.000000
1297390.594584,4.000000,-7.000000,-12.000000,-25.000000,0.000000,-5.000000,-2.000000,-5.000000
1297390.594611,15.000000,25.000000,-7.000000,4.000000,10.000000,1.000000,10.000000,2.000000
1297390.602113,53.000000,127.000000,12.000000,-16.000000,8.000000,12.000000,5.000000,18.000000
1297390.602149,12.000000,-37.000000,3.000000,29.000000,0.000000,0.000000,-3.000000,-1.000000
1297390.632083,22.000000,-47.000000,-14.000000,-4.000000,-6.000000,-10.000000,-12.000000,-5.000000
1297390.632231,-12.000000,-65.000000,-8.000000,-7.000000,7.000000,-1.000000,-2.000000,-4.000000
1297390.639479,43.000000,-3.000000,-8.000000,2.000000,-3.000000,0.000000,5.000000,12.000000
1297390.639513,29.000000,-29.000000,1.000000,-41.000000,-1.000000,4.000000,8.000000,6.000000
1297390.663270,3.000000,8.000000,9.000000,13.000000,-14.000000,-6.000000,-6.000000,-7.000000
1297390.663304,17.000000,14.000000,-36.000000,-84.000000,8.000000,-7.000000,-8.000000,-7.000000
1297390.663460,7.000000,-30.000000,-11.000000,18.000000,3.000000,0.000000,0.000000,-1.000000
1297390.663520,26.000000,-8.000000,6.000000,6.000000,0.000000,-1.000000,1.000000,3.000000
1297390.665009,10.000000,5.000000,-1.000000,18.000000,-3.000000,3.000000,9.000000,3.000000
1297390.665248,6.000000,12.000000,3.000000,-4.000000,-2.000000,2.000000,8.000000,0.000000
1297390.666434,13.000000,5.000000,-11.000000,11.000000,-5.000000,-7.000000,-7.000000,-2.000000
1297390.666453,-20.000000,65.000000,27.000000,18.000000,4.000000,2.000000,7.000000,5.000000
1297390.670268,4.000000,63.000000,8.000000,23.000000,-1.000000,6.000000,9.000000,7.000000
1297390.670287,24.000000,-34.000000,-11.000000,-34.000000,-10.000000,-14.000000,-25.000000,-21.000000
1297390.677194,-4.000000,-65.000000,-15.000000,12.000000,7.000000,-3.000000,-4.000000,-3.000000
1297390.677229,-28.000000,6.000000,-3.000000,-3.000000,-10.000000,1.000000,9.000000,3.000000
1297390.707144,-17.000000,-128.000000,-26.000000,-11.000000,-10.000000,-7.000000,-12.000000,-9.000000
1297390.707183,0.000000,-44.000000,-18.000000,-21.000000,-4.000000,-5.000000,-7.000000,-10.000000
1297390.714565,-3.000000,15.000000,-16.000000,-33.000000,3.000000,0.000000,8.000000,8.000000
1297390.714601,-44.000000,-12.000000,8.000000,-14.000000,-7.000000,-3.000000,-7.000000,-16.000000
1297390.752112,-2.000000,-17.000000,-22.000000,-10.000000,7.000000,-4.000000,-7.000000,1.000000
1297390.752145,24.000000,90.000000,-8.000000,5.000000,0.000000,5.000000,5.000000,7.000000
1297390.782178,19.000000,-55.000000,0.000000,-6.000000,-7.000000,-3.000000,2.000000,-6.000000
1297390.782341,-43.000000,-13.000000,-22.000000,-20.000000,-7.000000,-1.000000,6.000000,8.000000
1297390.783291,0.000000,-45.000000,6.000000,-16.000000,-1.000000,-3.000000,0.000000,-7.000000
1297390.783310,51.000000,103.000000,3.000000,56.000000,1.000000,-2.000000,-2.000000,7.000000
1297390.783780,-31.000000,-3.000000,0.000000,-19.000000,5.000000,-1.000000,-10.000000,-10.000000
1297390.783797,0.000000,13.000000,2.000000,-12.000000,17.000000,-1.000000,-6.000000,6.000000
1297390.785220,19.000000,-4.000000,-11.000000,-52.000000,3.000000,-5.000000,-2.000000,-1.000000
1297390.785251,11.000000,27.000000,17.000000,28.000000,-5.000000,3.000000,9.000000,9.000000
1297390.790101,35.000000,-17.000000,2.000000,2.000000,-8.000000,-13.000000,-32.000000,-27.000000
1297390.790134,-16.000000,-20.000000,-14.000000,-43.000000,7.000000,1.000000,8.000000,8.000000
1297390.797086,7.000000,32.000000,15.000000,12.000000,0.000000,4.000000,8.000000,7.000000
1297390.797122,-22.000000,3.000000,-15.000000,-27.000000,-3.000000,-3.000000,-7.000000,-1.000000
1297390.826892,16.000000,-5.000000,-2.000000,-29.000000,-9.000000,-4.000000,-4.000000,2.000000
1297390.826911,23.000000,5.000000,0.000000,-2.000000,-8.000000,-2.000000,-1.000000,-1.000000
1297390.834766,4.000000,-4.000000,2.000000,19.000000,2.000000,-5.000000,-8.000000,-1.000000
1297390.834791,-3.000000,23.000000,1.000000,14.000000,8.000000,3.000000,6.000000,1.000000
1297390.865704,20.000000,-17.000000,-8.000000,-66.000000,-10.000000,-9.000000,-15.000000,-7.000000
1297390.865734,-43.000000,-7.000000,1.000000,30.000000,1.000000,3.000000,8.000000,1.000000
1297390.866232,47.000000,-22.000000,7.000000,-25.000000,-4.000000,3.000000,4.000000,3.000000
1297390.866606,16.000000,19.000000,-5.000000,31.000000,-11.000000,5.000000,6.000000,9.000000
1297390.867285,-19.000000,-103.000000,-21.000000,-49.000000,-11.000000,-4.000000,-6.000000,-9.000000
1297390.867635,20.000000,11.000000,-17.000000,-54.000000,-17.000000,-13.000000,-11.000000,0.000000
1297390.868105,-16.000000,3.000000,9.000000,39.000000,0.000000,-1.000000,-4.000000,0.000000
1297390.868146,23.000000,18.000000,1.000000,-4.000000,18.000000,8.000000,15.000000,16.000000
1297390.902245,13.000000,33.000000,-13.000000,-43.000000,8.000000,-1.000000,-5.000000,-11.000000
1297390.902451,-2.000000,-16.000000,1.000000,28.000000,4.000000,0.000000,1.000000,2.000000
1297390.903472,33.000000,12.000000,2.000000,-20.000000,-2.000000,4.000000,11.000000,9.000000
1297390.903506,25.000000,10.000000,-3.000000,-59.000000,-2.000000,-3.000000,-4.000000,-3.000000
1297390.904145,-51.000000,-6.000000,-1.000000,0.000000,-9.000000,-10.000000,-10.000000,-12.000000
1297390.904179,22.000000,42.000000,14.000000,-7.000000,10.000000,3.000000,6.000000,4.000000
1297390.910448,17.000000,15.000000,7.000000,19.000000,2.000000,4.000000,11.000000,16.000000
1297390.910481,-11.000000,-128.000000,-30.000000,-25.000000,-18.000000,-5.000000,-2.000000,-4.000000
1297390.917492,-62.000000,-56.000000,-19.000000,-9.000000,-5.000000,-7.000000,-29.000000,-41.000000
1297390.917511,43.000000,45.000000,25.000000,7.000000,3.000000,2.000000,6.000000,9.000000
1297390.947236,-14.000000,-4.000000,1.000000,-13.000000,-2.000000,0.000000,3.000000,0.000000
1297390.947278,-6.000000,-9.000000,8.000000,22.000000,-5.000000,1.000000,-1.000000,2.000000
1297390.954784,-36.000000,6.000000,-14.000000,-9.000000,-11.000000,-4.000000,1.000000,-3.000000
1297390.954811,-65.000000,-29.000000,-4.000000,-15.000000,-5.000000,1.000000,-8.000000,-19.000000
1297390.984838,1.000000,-69.000000,-19.000000,-8.000000,-1.000000,-4.000000,-12.000000,-1.000000
1297390.984862,9.000000,17.000000,17.000000,25.000000,-10.000000,4.000000,9.000000,9.000000
1297390.992098,-14.000000,9.000000,5.000000,11.000000,-18.000000,0.000000,-5.000000,-13.000000
1297390.992155,-2.000000,12.000000,-23.000000,-63.000000,10.000000,-6.000000,3.000000,5.000000
1297390.993420,-10.000000,1.000000,6.000000,37.000000,-6.000000,4.000000,5.000000,-9.000000
1297390.993445,-8.000000,-7.000000,-11.000000,-40.000000,14.000000,-7.000000,-6.000000,-1.000000
1297390.994178,3.000000,-28.000000,7.000000,48.000000,11.000000,0.000000,1.000000,0.000000
1297390.994213,-7.000000,102.000000,22.000000,21.000000,-3.000000,9.000000,7.000000,4.000000
1297390.999614,-10.000000,32.000000,1.000000,-37.000000,-5.000000,-2.000000,4.000000,5.000000
1297390.999673,4.000000,-26.000000,-28.000000,-43.000000,1.000000,4.000000,-1.000000,-9.000000
1297391.030217,23.000000,8.000000,12.000000,-28.000000,5.000000,0.000000,0.000000,4.000000
1297391.030420,-11.000000,-12.000000,0.000000,21.000000,0.000000,1.000000,-3.000000,2.000000
1297391.030884,20.000000,72.000000,7.000000,-20.000000,11.000000,3.000000,2.000000,-1.000000
1297391.030966,11.000000,-19.000000,-2.000000,-7.000000,5.000000,1.000000,8.000000,11.000000
1297391.031580,-31.000000,-38.000000,-9.000000,9.000000,-9.000000,-1.000000,3.000000,-8.000000
1297391.031594,-16.000000,-50.000000,-15.000000,-5.000000,-12.000000,-7.000000,-7.000000,-4.000000
1297391.037372,13.000000,0.000000,-7.000000,3.000000,-1.000000,-5.000000,-3.000000,2.000000
1297391.037402,-32.000000,-17.000000,-7.000000,-11.000000,7.000000,2.000000,-10.000000,-6.000000
1297391.052341,39.000000,127.000000,20.000000,23.000000,-3.000000,6.000000,9.000000,16.000000
1297391.052372,14.000000,-20.000000,30.000000,22.000000,5.000000,3.000000,10.000000,3.000000
1297391.059817,-17.000000,-79.000000,-35.000000,-39.000000,-15.000000,-9.000000,-8.000000,-15.000000
1297391.059856,5.000000,15.000000,16.000000,16.000000,1.000000,5.000000,1.000000,2.000000
1297391.074731,52.000000,-9.000000,-1.000000,12.000000,2.000000,2.000000,5.000000,7.000000
1297391.074778,8.000000,-12.000000,3.000000,-9.000000,-1.000000,-8.000000,-17.000000,-1.000000
1297391.104613,27.000000,127.000000,29.000000,25.000000,20.000000,7.000000,7.000000,14.000000
1297391.104649,-38.000000,-106.000000,-10.000000,23.000000,-7.000000,-3.000000,-7.000000,-15.000000
1297391.113052,46.000000,127.000000,11.000000,-71.000000,10.000000,0.000000,4.000000,12.000000
1297391.113159,4.000000,18.000000,-2.000000,-2.000000,8.000000,1.000000,2.000000,6.000000
1297391.113484,20.000000,4.000000,-2.000000,17.000000,3.000000,2.000000,1.000000,3.000000
1297391.113519,-10.000000,-7.000000,4.000000,9.000000,4.000000,0.000000,6.000000,-1.000000
1297391.114684,1.000000,9.000000,10.000000,9.000000,-4.000000,-5.000000,-3.000000,-7.000000
1297391.114718,-13.000000,-13.000000,-7.000000,-4.000000,0.000000,-7.000000,-5.000000,-1.000000
1297391.134681,0.000000,-128.000000,-21.000000,-25.000000,-5.000000,2.000000,6.000000,2.000000
1297391.134699,-1.000000,-51.000000,-4.000000,3.000000,-2.000000,0.000000,-10.000000,-10.000000
1297391.136131,-10.000000,119.000000,5.000000,-18.000000,8.000000,4.000000,-3.000000,-16.000000
1297391.136160,-28.000000,-45.000000,-3.000000,-3.000000,-8.000000,-6.000000,-6.000000,-1.000000
1297391.142342,15.000000,-32.000000,15.000000,12.000000,-5.000000,-3.000000,1.000000,2.000000
1297391.142368,1.000000,-39.000000,-19.000000,13.000000,-9.000000,-2.000000,-8.000000,3.000000
1297391.150342,-30.000000,4.000000,10.000000,-46.000000,19.000000,-5.000000,3.000000,1.000000
1297391.150361,41.000000,49.000000,-10.000000,45.000000,1.000000,0.000000,3.000000,1.000000
1297391.164523,-3.000000,32.000000,7.000000,-19.000000,1.000000,0.000000,-8.000000,-1.000000
1297391.164543,2.000000,-40.000000,-1.000000,17.000000,5.000000,-1.000000,-5.000000,-4.000000
1297391.187132,8.000000,-39.000000,1.000000,5.000000,-8.000000,0.000000,6.000000,4.000000
1297391.187244,24.000000,35.000000,4.000000,33.000000,-5.000000,1.000000,4.000000,0.000000
1297391.194594,-14.000000,-5.000000,-9.000000,1.000000,3.000000,-3.000000,-2.000000,-4.000000
1297391.194615,26.000000,71.000000,-11.000000,-34.000000,2.000000,-1.000000,-2.000000,1.000000
1297391.217066,-6.000000,-8.000000,2.000000,11.000000,1.000000,3.000000,1.000000,-10.000000
1297391.217100,12.000000,3.000000,9.000000,33.000000,1.000000,-1.000000,-10.000000,-4.000000
1297391.224588,-8.000000,5.000000,5.000000,2.000000,1.000000,-5.000000,-2.000000,14.000000
1297391.224623,2.000000,-18.000000,-17.000000,-54.000000,-2.000000,-4.000000,7.000000,-5.000000
1297391.239529,-63.000000,-52.000000,-1.000000,45.000000,-1.000000,7.000000,-6.000000,-10.000000
1297391.239562,7.000000,-9.000000,-6.000000,0.000000,3.000000,0.000000,0.000000,-3.000000
1297391.254584,9.000000,15.000000,-1.000000,-17.000000,-1.000000,4.000000,5.000000,5.000000
1297391.254619,61.000000,1.000000,3.000000,22.000000,-5.000000,-2.000000,3.000000,7.000000
1297391.270129,-106.000000,-48.000000,-20.000000,-37.000000,-12.000000,1.000000,-3.000000,-10.000000
1297391.270155,-3.000000,127.000000,2.000000,-13.000000,4.000000,-1.000000,-2.000000,1.000000
1297391.270439,31.000000,10.000000,1.000000,-17.000000,-4.000000,-4.000000,-4.000000,-2.000000
1297391.270468,29.000000,56.000000,-2.000000,10.000000,9.000000,1.000000,-1.000000,1.000000
1297391.271881,16.000000,3.000000,5.000000,25.000000,-1.000000,0.000000,0.000000,5.000000
1297391.271915,-11.000000,-14.000000,10.000000,-40.000000,1.000000,2.000000,5.000000,-5.000000
1297391.272241,24.000000,21.000000,-4.000000,53.000000,5.000000,4.000000,6.000000,3.000000
1297391.272284,-11.000000,34.000000,2.000000,-53.000000,5.000000,-5.000000,-7.000000,-5.000000
1297391.276935,3.000000,-27.000000,-15.000000,-1.000000,2.000000,-5.000000,-2.000000,1.000000
1297391.276955,37.000000,-11.000000,-17.000000,-22.000000,-6.000000,1.000000,-5.000000,-4.000000
1297391.306956,-32.000000,-7.000000,-1.000000,-15.000000,3.000000,-4.000000,3.000000,2.000000
1297391.306990,26.000000,112.000000,-5.000000,14.000000,1.000000,3.000000,7.000000,0.000000
1297391.329533,-121.000000,-108.000000,-16.000000,-26.000000,-9.000000,-1.000000,-3.000000,-13.000000
1297391.329567,-1.000000,-7.000000,-4.000000,-37.000000,5.000000,1.000000,2.000000,-3.000000
1297391.337311,27.000000,58.000000,14.000000,37.000000,4.000000,1.000000,-1.000000,6.000000
1297391.337329,12.000000,-51.000000,-23.000000,-21.000000,1.000000,7.000000,9.000000,8.000000
1297391.338256,-12.000000,-41.000000,-3.000000,29.000000,-3.000000,-1.000000,-4.000000,-10.000000
1297391.338298,-14.000000,123.000000,-14.000000,-67.000000,19.000000,1.000000,-12.000000,-4.000000
1297391.339580,-2.000000,-4.000000,6.000000,9.000000,-11.000000,-7.000000,-1.000000,-4.000000
1297391.339600,3.000000,-16.000000,-16.000000,9.000000,5.000000,5.000000,10.000000,9.000000
1297391.340331,8.000000,27.000000,16.000000,15.000000,2.000000,7.000000,14.000000,13.000000
1297391.340346,-16.000000,5.000000,-5.000000,6.000000,-19.000000,-5.000000,-26.000000,-20.000000
1297391.352195,12.000000,2.000000,-16.000000,-20.000000,6.000000,-10.000000,-8.000000,1.000000
1297391.352224,-23.000000,4.000000,8.000000,26.000000,-1.000000,-1.000000,7.000000,6.000000
1297391.374663,15.000000,-56.000000,0.000000,0.000000,-3.000000,3.000000,-4.000000,-20.000000
1297391.374894,14.000000,-4.000000,-3.000000,46.000000,7.000000,6.000000,9.000000,15.000000
1297391.375963,-1.000000,-13.000000,-11.000000,-83.000000,-5.000000,-4.000000,-7.000000,-4.000000
1297391.375981,13.000000,19.000000,-8.000000,-1.000000,-1.000000,0.000000,2.000000,1.000000
1297391.382316,-33.000000,48.000000,6.000000,26.000000,-1.000000,-1.000000,5.000000,2.000000
1297391.382347,-18.000000,-1.000000,3.000000,2.000000,-1.000000,-7.000000,-12.000000,-15.000000
1297391.390173,12.000000,-25.000000,4.000000,-3.000000,-5.000000,7.000000,12.000000,14.000000
1297391.390189,-7.000000,-8.000000,-2.000000,23.000000,1.000000,-4.000000,-10.000000,0.000000
1297391.404609,7.000000,4.000000,6.000000,-41.000000,-6.000000,-4.000000,1.000000,6.000000
1297391.404649,-12.000000,6.000000,-3.000000,-15.000000,5.000000,-1.000000,-1.000000,7.000000
1297391.427286,-8.000000,-11.000000,-14.000000,-50.000000,-1.000000,-8.000000,-7.000000,0.000000
1297391.427306,16.000000,13.000000,8.000000,12.000000,-1.000000,3.000000,1.000000,2.000000
1297391.442100,1.000000,6.000000,4.000000,2.000000,-3.000000,0.000000,1.000000,-5.000000
1297391.442135,-23.000000,-128.000000,-6.000000,-6.000000,5.000000,1.000000,7.000000,7.000000
1297391.465158,25.000000,42.000000,-5.000000,17.000000,7.000000,0.000000,-14.000000,-8.000000
1297391.465194,25.000000,127.000000,26.000000,10.000000,12.000000,5.000000,3.000000,9.000000
1297391.465790,-59.000000,-76.000000,-6.000000,1.000000,5.000000,0.000000,1.000000,-4.000000
1297391.465818,35.000000,-35.000000,-3.000000,12.000000,3.000000,-1.000000,-2.000000,-1.000000
1297391.466868,48.000000,-16.000000,-10.000000,-46.000000,-8.000000,2.000000,5.000000,12.000000
1297391.466885,-25.000000,-9.000000,-15.000000,-7.000000,0.000000,2.000000,-1.000000,-2.000000
1297391.467606,24.000000,-42.000000,0.000000,24.000000,7.000000,-4.000000,-12.000000,-6.000000
1297391.467632,24.000000,39.000000,3.000000,-20.000000,3.000000,-3.000000,3.000000,4.000000
1297391.495100,-3.000000,-21.000000,-6.000000,-1.000000,-1.000000,1.000000,1.000000,-3.000000
1297391.495360,4.000000,2.000000,2.000000,2.000000,6.000000,0.000000,-1.000000,2.000000
1297391.496074,-5.000000,-35.000000,-16.000000,10.000000,5.000000,0.000000,0.000000,0.000000
1297391.496103,22.000000,22.000000,6.000000,14.000000,-2.000000,4.000000,1.000000,4.000000
1297391.496904,-44.000000,-76.000000,8.000000,-29.000000,-5.000000,2.000000,8.000000,2.000000
1297391.496920,40.000000,20.000000,-5.000000,33.000000,-16.000000,-7.000000,-19.000000,-18.000000
1297391.502090,-48.000000,-15.000000,-5.000000,49.000000,-2.000000,2.000000,0.000000,1.000000
1297391.502115,18.000000,5.000000,-5.000000,-62.000000,-3.000000,4.000000,15.000000,16.000000
1297391.510388,-28.000000,13.000000,-2.000000,17.000000,-5.000000,0.000000,1.000000,-3.000000
1297391.510430,10.000000,89.000000,-7.000000,-19.000000,11.000000,1.000000,-9.000000,-2.000000
1297391.517076,1.000000,4.000000,-1.000000,-12.000000,4.000000,-2.000000,10.000000,7.000000
1297391.517112,-3.000000,-4.000000,9.000000,18.000000,-5.000000,8.000000,12.000000,6.000000
1297391.539669,23.000000,127.000000,21.000000,-28.000000,15.000000,-2.000000,-11.000000,-6.000000
1297391.539704,5.000000,1.000000,5.000000,32.000000,5.000000,-3.000000,-8.000000,-4.000000
1297391.577055,23.000000,-37.000000,-30.000000,-34.000000,0.000000,-2.000000,0.000000,4.000000
1297391.577077,4.000000,-5.000000,-1.000000,25.000000,2.000000,3.000000,9.000000,2.000000
1297391.585016,20.000000,14.000000,12.000000,81.000000,1.000000,4.000000,9.000000,9.000000
1297391.585041,-33.000000,8.000000,-15.000000,-68.000000,-13.000000,-11.000000,-18.000000,-28.000000
1297391.585724,21.000000,8.000000,7.000000,50.000000,7.000000,-3.000000,-4.000000,7.000000
1297391.585747,-29.000000,-2.000000,8.000000,23.000000,-11.000000,4.000000,4.000000,-5.000000
1297391.587032,5.000000,79.000000,3.000000,22.000000,11.000000,5.000000,8.000000,9.000000
1297391.587067,4.000000,-36.000000,-8.000000,-39.000000,-5.000000,-14.000000,-15.000000,-9.000000
1297391.587805,19.000000,2.000000,17.000000,19.000000,7.000000,1.000000,-3.000000,4.000000
1297391.587821,28.000000,93.000000,-24.000000,-6.000000,-8.000000,5.000000,9.000000,9.000000
1297391.599709,-7.000000,-14.000000,7.000000,-19.000000,6.000000,-4.000000,-2.000000,-5.000000
1297391.599728,7.000000,-43.000000,0.000000,25.000000,-6.000000,-1.000000,4.000000,6.000000
1297391.614648,-15.000000,35.000000,6.000000,-35.000000,3.000000,-1.000000,-11.000000,-8.000000
1297391.614682,-8.000000,127.000000,18.000000,40.000000,31.000000,10.000000,11.000000,9.000000
1297391.622904,18.000000,-29.000000,-12.000000,16.000000,0.000000,-3.000000,3.000000,4.000000
1297391.622941,-15.000000,3.000000,18.000000,-6.000000,-13.000000,-2.000000,-11.000000,-5.000000
1297391.623574,18.000000,-22.000000,-11.000000,-14.000000,0.000000,-2.000000,0.000000,1.000000
1297391.623591,17.000000,-86.000000,-11.000000,8.000000,-3.000000,1.000000,-11.000000,-7.000000
1297391.630914,26.000000,99.000000,3.000000,1.000000,5.000000,2.000000,3.000000,7.000000
1297391.630932,6.000000,-40.000000,0.000000,-10.000000,2.000000,1.000000,1.000000,-3.000000
1297391.645062,-7.000000,-55.000000,9.000000,21.000000,-7.000000,0.000000,-5.000000,2.000000
1297391.645082,15.000000,1.000000,2.000000,23.000000,2.000000,-5.000000,0.000000,-14.000000
1297391.659439,4.000000,-115.000000,-14.000000,-28.000000,-8.000000,-7.000000,-8.000000,-8.000000
1297391.659457,-2.000000,-11.000000,1.000000,22.000000,-7.000000,-9.000000,-4.000000,-1.000000
1297391.667288,1.000000,-82.000000,-38.000000,-8.000000,-8.000000,-3.000000,-9.000000,-10.000000
1297391.667306,10.000000,-8.000000,2.000000,-11.000000,3.000000,-2.000000,-5.000000,1.000000
1297391.698105,7.000000,9.000000,14.000000,38.000000,-3.000000,2.000000,3.000000,6.000000
1297391.698144,0.000000,-16.000000,0.000000,-28.000000,4.000000,8.000000,8.000000,4.000000
1297391.698519,-30.000000,-16.000000,5.000000,18.000000,-1.000000,-5.000000,2.000000,0.000000
1297391.698545,-34.000000,-9.000000,5.000000,39.000000,14.000000,3.000000,-1.000000,-6.000000
1297391.699949,45.000000,10.000000,-6.000000,-64.000000,4.000000,4.000000,1.000000,8.000000
1297391.700123,-30.000000,-40.000000,-8.000000,26.000000,4.000000,-3.000000,7.000000,6.000000
1297391.700602,-57.000000,22.000000,11.000000,-52.000000,-9.000000,-3.000000,-1.000000,1.000000
1297391.700641,12.000000,-126.000000,-26.000000,-2.000000,-11.000000,-12.000000,-18.000000,-16.000000
1297391.734579,13.000000,-2.000000,1.000000,28.000000,5.000000,0.000000,4.000000,10.000000
1297391.734598,-122.000000,64.000000,19.000000,28.000000,-1.000000,11.000000,16.000000,2.000000
1297391.735091,31.000000,-22.000000,-7.000000,-5.000000,-5.000000,3.000000,-2.000000,-7.000000
1297391.735109,-6.000000,-19.000000,-22.000000,-2.000000,0.000000,-9.000000,-19.000000,-14.000000
1297391.736387,6.000000,19.000000,-1.000000,-22.000000,1.000000,4.000000,7.000000,10.000000
1297391.736421,-2.000000,2.000000,22.000000,69.000000,-3.000000,4.000000,8.000000,5.000000
1297391.742139,26.000000,30.000000,-16.000000,-67.000000,3.000000,7.000000,7.000000,3.000000
1297391.742252,-12.000000,9.000000,14.000000,24.000000,-1.000000,-2.000000,-1.000000,1.000000
1297391.750204,-6.000000,-60.000000,-14.000000,-5.000000,-16.000000,-9.000000,-10.000000,-20.000000
1297391.750245,-17.000000,76.000000,4.000000,36.000000,6.000000,8.000000,6.000000,4.000000
1297391.772046,33.000000,33.000000,10.000000,-25.000000,1.000000,-1.000000,3.000000,4.000000
1297391.772066,-50.000000,-45.000000,-8.000000,4.000000,-2.000000,-2.000000,-5.000000,-6.000000
1297391.787312,27.000000,13.000000,9.000000,38.000000,-1.000000,2.000000,6.000000,6.000000
1297391.787349,-27.000000,1.000000,-7.000000,0.000000,-8.000000,1.000000,7.000000,-2.000000
1297391.809855,-21.000000,85.000000,-2.000000,-46.000000,17.000000,-11.000000,-31.000000,-15.000000
1297391.809894,4.000000,11.000000,3.000000,15.000000,6.000000,2.000000,6.000000,8.000000
1297391.824602,33.000000,127.000000,37.000000,21.000000,6.000000,3.000000,13.000000,12.000000
1297391.824638,6.000000,-4.000000,2.000000,9.000000,-6.000000,5.000000,1.000000,1.000000
1297391.854531,-49.000000,-21.000000,-5.000000,4.000000,-7.000000,-4.000000,-4.000000,-10.000000
1297391.854744,33.000000,-1.000000,-2.000000,11.000000,-12.000000,2.000000,-5.000000,-5.000000
1297391.856123,-51.000000,-75.000000,-11.000000,-28.000000,-8.000000,-6.000000,-4.000000,-23.000000
1297391.856158,-11.000000,3.000000,-4.000000,18.000000,-12.000000,0.000000,0.000000,-6.000000
1297391.856884,15.000000,-83.000000,-14.000000,-3.000000,-14.000000,1.000000,-1.000000,4.000000
1297391.856968,-30.000000,12.000000,-1.000000,-35.000000,-4.000000,-1.000000,-2.000000,-5.000000
1297391.857730,-6.000000,-4.000000,-2.000000,17.000000,5.000000,2.000000,11.000000,7.000000
1297391.857764,23.000000,-2.000000,-10.000000,-36.000000,-5.000000,-5.000000,-2.000000,-4.000000
1297391.861967,7.000000,1.000000,16.000000,63.000000,1.000000,0.000000,-6.000000,-2.000000
1297391.861997,7.000000,13.000000,-14.000000,-13.000000,1.000000,4.000000,5.000000,4.000000
1297391.862656,-11.000000,-52.000000,-9.000000,-10.000000,0.000000,0.000000,-5.000000,-3.000000
1297391.862701,32.000000,19.000000,-10.000000,18.000000,6.000000,6.000000,6.000000,13.000000
1297391.884810,-53.000000,13.000000,15.000000,-31.000000,-7.000000,2.000000,4.000000,3.000000
1297391.884828,-19.000000,108.000000,0.000000,-9.000000,4.000000,-3.000000,-15.000000,-5.000000
1297391.892055,7.000000,44.000000,7.000000,1.000000,3.000000,4.000000,-3.000000,-3.000000
1297391.892072,28.000000,52.000000,18.000000,6.000000,6.000000,3.000000,5.000000,14.000000
1297391.906936,-16.000000,-16.000000,-12.000000,1.000000,3.000000,0.000000,10.000000,-2.000000
1297391.906977,-13.000000,37.000000,6.000000,-14.000000,-12.000000,-3.000000,-15.000000,-11.000000
1297391.914656,-26.000000,-8.000000,-10.000000,16.000000,-9.000000,-5.000000,6.000000,0.000000
1297391.914683,7.000000,58.000000,14.000000,1.000000,2.000000,-2.000000,-2.000000,5.000000
1297391.931016,-18.000000,3.000000,-15.000000,14.000000,-12.000000,-4.000000,-5.000000,-4.000000
1297391.931342,-3.000000,-10.000000,-3.000000,2.000000,3.000000,-3.000000,-3.000000,-21.000000
1297391.931701,16.000000,-3.000000,6.000000,34.000000,-6.000000,4.000000,6.000000,6.000000
1297391.931734,41.000000,34.000000,17.000000,11.000000,0.000000,-6.000000,-2.000000,8.000000
1297391.932536,31.000000,64.000000,-4.000000,-16.000000,3.000000,1.000000,0.000000,3.000000
1297391.932566,-22.000000,75.000000,-5.000000,52.000000,-5.000000,-5.000000,-10.000000,-9.000000
1297391.937241,3.000000,13.000000,16.000000,-22.000000,-1.000000,5.000000,6.000000,6.000000
1297391.937259,-2.000000,10.000000,6.000000,20.000000,7.000000,4.000000,11.000000,6.000000
1297391.959413,15.000000,5.000000,-4.000000,10.000000,-8.000000,-1.000000,2.000000,0.000000
1297391.959441,2.000000,12.000000,4.000000,5.000000,-7.000000,-7.000000,-9.000000,-7.000000
1297391.960191,-4.000000,113.000000,-9.000000,-67.000000,19.000000,3.000000,0.000000,9.000000
1297391.960225,29.000000,33.000000,22.000000,49.000000,-10.000000,8.000000,7.000000,6.000000
1297391.974318,-36.000000,11.000000,-4.000000,-36.000000,-9.000000,-4.000000,-5.000000,-5.000000
1297391.974382,51.000000,-12.000000,12.000000,38.000000,-5.000000,-3.000000,-4.000000,-2.000000
1297391.982217,-67.000000,-3.000000,2.000000,-34.000000,-3.000000,6.000000,6.000000,3.000000
1297391.982252,45.000000,-60.000000,-4.000000,20.000000,-6.000000,-5.000000,-14.000000,0.000000
1297392.012093,-43.000000,-24.000000,9.000000,19.000000,3.000000,4.000000,3.000000,-4.000000
1297392.012119,0.000000,-8.000000,-1.000000,-15.000000,1.000000,-8.000000,-12.000000,-1.000000
1297392.019506,0.000000,27.000000,-5.000000,23.000000,-1.000000,5.000000,8.000000,12.000000
1297392.019525,8.000000,41.000000,2.000000,-29.000000,-5.000000,7.000000,17.000000,11.000000
1297392.041947,-25.000000,-30.000000,1.000000,9.000000,-10.000000,-4.000000,4.000000,-9.000000
1297392.041983,0.000000,-4.000000,-15.000000,-15.000000,7.000000,0.000000,-24.000000,-18.000000
1297392.049550,11.000000,3.000000,-8.000000,-23.000000,-4.000000,4.000000,9.000000,4.000000
1297392.049773,21.000000,6.000000,2.000000,5.000000,-1.000000,2.000000,7.000000,7.000000
1297392.050980,11.000000,8.000000,-1.000000,2.000000,-4.000000,-11.000000,-2.000000,-2.000000
1297392.051220,17.000000,-6.000000,19.000000,31.000000,4.000000,3.000000,-2.000000,1.000000
1297392.051675,-20.000000,26.000000,-3.000000,-14.000000,2.000000,-2.000000,-3.000000,-8.000000
1297392.051714,13.000000,-38.000000,7.000000,33.000000,2.000000,-1.000000,2.000000,5.000000
1297392.052972,19.000000,22.000000,-5.000000,-20.000000,-16.000000,4.000000,5.000000,10.000000
1297392.053001,35.000000,-72.000000,-18.000000,3.000000,-4.000000,0.000000,0.000000,3.000000
1297392.087362,-16.000000,-11.000000,-8.000000,7.000000,4.000000,0.000000,2.000000,1.000000
1297392.087516,10.000000,127.000000,6.000000,-12.000000,19.000000,6.000000,1.000000,2.000000
1297392.088540,38.000000,-8.000000,4.000000,62.000000,-5.000000,-6.000000,-24.000000,-24.000000
1297392.088560,13.000000,-13.000000,-14.000000,-61.000000,-8.000000,-1.000000,2.000000,9.000000
1297392.089328,-22.000000,-22.000000,-2.000000,12.000000,9.000000,1.000000,9.000000,5.000000
1297392.089557,17.000000,23.000000,8.000000,11.000000,-9.000000,2.000000,6.000000,3.000000
1297392.094693,11.000000,-26.000000,0.000000,-7.000000,3.000000,-5.000000,-3.000000,-2.000000
1297392.094724,15.000000,-8.000000,-7.000000,-5.000000,-7.000000,0.000000,9.000000,16.000000
1297392.102095,-42.000000,-21.000000,-3.000000,32.000000,1.000000,-4.000000,4.000000,-7.000000
1297392.102142,29.000000,110.000000,5.000000,-52.000000,13.000000,1.000000,-22.000000,-15.000000
1297392.132100,-7.000000,-43.000000,0.000000,5.000000,9.000000,-1.000000,3.000000,8.000000
1297392.132136,11.000000,86.000000,13.000000,15.000000,-8.000000,0.000000,5.000000,11.000000
1297392.139737,16.000000,10.000000,14.000000,-1.000000,-3.000000,-2.000000,-5.000000,-9.000000
1297392.139754,-7.000000,-43.000000,-24.000000,19.000000,10.000000,4.000000,6.000000,5.000000
1297392.169839,11.000000,15.000000,9.000000,35.000000,0.000000,3.000000,3.000000,6.000000
1297392.169885,26.000000,10.000000,4.000000,-128.000000,3.000000,-4.000000,-14.000000,-4.000000
1297392.170775,-1.000000,7.000000,-16.000000,16.000000,-10.000000,-3.000000,-3.000000,-5.000000
1297392.170794,5.000000,-43.000000,-9.000000,44.000000,-12.000000,-2.000000,2.000000,3.000000
1297392.171912,-5.000000,2.000000,-12.000000,-53.000000,11.000000,3.000000,-5.000000,-4.000000
1297392.171947,-81.000000,19.000000,6.000000,31.000000,-3.000000,-5.000000,-16.000000,-15.000000
1297392.173007,-3.000000,10.000000,-1.000000,1.000000,0.000000,-3.000000,4.000000,7.000000
1297392.173094,21.000000,-36.000000,3.000000,10.000000,9.000000,12.000000,14.000000,11.000000
1297392.173833,9.000000,70.000000,-1.000000,9.000000,-8.000000,-9.000000,-15.000000,-21.000000
1297392.173849,3.000000,-21.000000,-1.000000,-13.000000,-4.000000,-6.000000,-9.000000,1.000000
1297392.185075,21.000000,-7.000000,-13.000000,-13.000000,4.000000,0.000000,1.000000,1.000000
1297392.185103,36.000000,-12.000000,0.000000,13.000000,1.000000,2.000000,2.000000,7.000000
1297392.192150,-4.000000,6.000000,-26.000000,-95.000000,-4.000000,-2.000000,8.000000,6.000000
1297392.192185,20.000000,-6.000000,0.000000,40.000000,-6.000000,6.000000,7.000000,-1.000000
1297392.207230,-7.000000,32.000000,-3.000000,-13.000000,8.000000,-1.000000,-10.000000,-11.000000
1297392.207264,-53.000000,-92.000000,-20.000000,8.000000,-7.000000,-13.000000,-19.000000,-9.000000
1297392.214814,36.000000,3.000000,-3.000000,29.000000,14.000000,10.000000,13.000000,17.000000
1297392.214852,-44.000000,-86.000000,-3.000000,-26.000000,-21.000000,-10.000000,-7.000000,-9.000000
1297392.221961,22.000000,-20.000000,-11.000000,-24.000000,-9.000000,-8.000000,-9.000000,-6.000000
1297392.221998,17.000000,14.000000,14.000000,25.000000,-6.000000,-4.000000,4.000000,8.000000
1297392.252251,4.000000,-75.000000,-21.000000,48.000000,0.000000,6.000000,7.000000,4.000000
1297392.252295,9.000000,93.000000,12.000000,-78.000000,17.000000,-2.000000,-8.000000,-6.000000
1297392.259638,0.000000,-25.000000,7.000000,47.000000,2.000000,4.000000,5.000000,6.000000
1297392.259733,-7.000000,36.000000,12.000000,11.000000,-6.000000,2.000000,2.000000,5.000000
1297392.289901,41.000000,-2.000000,-9.000000,4.000000,0.000000,-8.000000,-7.000000,-8.000000
1297392.289932,-20.000000,1.000000,3.000000,3.000000,-1.000000,2.000000,2.000000,-8.000000
1297392.290189,-9.000000,2.000000,-3.000000,-65.000000,3.000000,2.000000,-3.000000,-1.000000
1297392.290334,5.000000,-11.000000,-3.000000,24.000000,-3.000000,0.000000,-1.000000,-4.000000
1297392.291405,-59.000000,-54.000000,11.000000,-10.000000,1.000000,3.000000,3.000000,2.000000
1297392.291431,-11.000000,-9.000000,4.000000,51.000000,-12.000000,-4.000000,-6.000000,-26.000000
1297392.292091,14.000000,-30.000000,-23.000000,-87.000000,1.000000,-3.000000,-12.000000,-9.000000
1297392.292266,29.000000,95.000000,16.000000,15.000000,0.000000,3.000000,1.000000,4.000000
1297392.293541,-23.000000,-128.000000,-14.000000,-7.000000,-7.000000,-10.000000,-9.000000,-5.000000
1297392.293576,24.000000,-39.000000,-12.000000,13.000000,-6.000000,4.000000,14.000000,18.000000
1297392.319597,-11.000000,-77.000000,-11.000000,-34.000000,-6.000000,-7.000000,-9.000000,-15.000000
1297392.319671,20.000000,13.000000,16.000000,1.000000,-7.000000,2.000000,2.000000,6.000000
1297392.327589,1.000000,-40.000000,-7.000000,15.000000,-3.000000,0.000000,3.000000,6.000000
1297392.327613,-19.000000,-3.000000,-8.000000,-26.000000,-7.000000,-8.000000,1.000000,-3.000000
1297392.328350,-27.000000,-45.000000,7.000000,11.000000,-9.000000,-5.000000,-17.000000,-25.000000
1297392.328385,13.000000,-1.000000,-9.000000,-28.000000,-5.000000,0.000000,3.000000,15.000000
1297392.334553,24.000000,-36.000000,3.000000,16.000000,-11.000000,6.000000,7.000000,6.000000
1297392.334589,14.000000,85.000000,-3.000000,-29.000000,5.000000,-5.000000,-6.000000,-3.000000
1297392.342147,7.000000,12.000000,-13.000000,-37.000000,14.000000,0.000000,2.000000,3.000000
1297392.342172,22.000000,10.000000,-6.000000,44.000000,-4.000000,-2.000000,5.000000,4.000000
1297392.349728,-35.000000,1.000000,0.000000,-69.000000,-9.000000,-3.000000,0.000000,-7.000000
1297392.349883,1.000000,2.000000,-2.000000,-15.000000,8.000000,-2.000000,-6.000000,-5.000000
1297392.364874,17.000000,-23.000000,-4.000000,-1.000000,2.000000,3.000000,4.000000,7.000000
1297392.364908,23.000000,39.000000,0.000000,32.000000,5.000000,2.000000,-5.000000,6.000000
1297392.409895,42.000000,2.000000,8.000000,-30.000000,-2.000000,-4.000000,-4.000000,-5.000000
1297392.409915,-63.000000,-2.000000,-15.000000,8.000000,-9.000000,-1.000000,-1.000000,3.000000
1297392.417271,-16.000000,0.000000,-28.000000,8.000000,-10.000000,-1.000000,3.000000,-5.000000
1297392.417468,0.000000,-4.000000,-7.000000,-23.000000,-10.000000,-8.000000,-8.000000,-2.000000
1297392.418640,4.000000,11.000000,4.000000,14.000000,-14.000000,-3.000000,-6.000000,-2.000000
1297392.418677,-25.000000,-35.000000,3.000000,9.000000,11.000000,4.000000,1.000000,-8.000000
1297392.418980,46.000000,4.000000,3.000000,-30.000000,7.000000,-1.000000,-1.000000,8.000000
1297392.419015,27.000000,44.000000,11.000000,3.000000,7.000000,1.000000,2.000000,9.000000
1297392.420160,5.000000,41.000000,-8.000000,29.000000,-1.000000,1.000000,6.000000,8.000000
1297392.420195,-22.000000,4.000000,2.000000,3.000000,0.000000,5.000000,9.000000,-6.000000
1297392.439586,7.000000,6.000000,2.000000,-3.000000,4.000000,-5.000000,-20.000000,-14.000000
1297392.439622,35.000000,79.000000,12.000000,32.000000,-1.000000,2.000000,0.000000,9.000000
1297392.447589,-15.000000,-13.000000,9.000000,-34.000000,13.000000,5.000000,6.000000,2.000000
1297392.447752,24.000000,-11.000000,-19.000000,-30.000000,-5.000000,1.000000,5.000000,6.000000
1297392.448242,-35.000000,-50.000000,-10.000000,28.000000,-4.000000,-1.000000,-13.000000,-30.000000
1297392.448272,-1.000000,-128.000000,-12.000000,-5.000000,-14.000000,-10.000000,-15.000000,-9.000000
1297392.454241,-9.000000,48.000000,19.000000,38.000000,2.000000,1.000000,1.000000,1.000000
1297392.454273,24.000000,3.000000,-27.000000,-45.000000,2.000000,8.000000,11.000000,8.000000
1297392.462122,26.000000,19.000000,1.000000,-37.000000,2.000000,-7.000000,-12.000000,-8.000000
1297392.462140,-17.000000,32.000000,-4.000000,-4.000000,5.000000,-4.000000,-2.000000,2.000000
1297392.492320,18.000000,2.000000,8.000000,49.000000,-4.000000,1.000000,3.000000,0.000000
1297392.492363,4.000000,-17.000000,-21.000000,-58.000000,-8.000000,0.000000,6.000000,5.000000
1297392.499781,10.000000,-21.000000,15.000000,11.000000,-1.000000,1.000000,11.000000,9.000000
1297392.499815,-12.000000,-4.000000,11.000000,28.000000,-1.000000,-1.000000,-4.000000,0.000000
1297392.544854,35.000000,4.000000,-5.000000,-8.000000,-4.000000,-3.000000,-12.000000,-4.000000
1297392.544894,-10.000000,-3.000000,-4.000000,-1.000000,8.000000,6.000000,5.000000,10.000000
1297392.552153,-6.000000,-48.000000,-5.000000,-8.000000,8.000000,2.000000,10.000000,2.000000
1297392.552338,8.000000,-15.000000,4.000000,17.000000,-7.000000,-9.000000,-19.000000,-13.000000
1297392.567126,3.000000,97.000000,-3.000000,27.000000,-4.000000,3.000000,-6.000000,3.000000
1297392.567144,20.000000,-124.000000,-15.000000,9.000000,3.000000,-1.000000,6.000000,3.000000
1297392.567627,-49.000000,-22.000000,-1.000000,22.000000,-10.000000,0.000000,1.000000,-8.000000
1297392.567798,24.000000,-6.000000,-2.000000,-30.000000,2.000000,-4.000000,1.000000,4.000000
1297392.568778,-15.000000,-128.000000,-21.000000,-34.000000,8.000000,-6.000000,-1.000000,-6.000000
1297392.568796,10.000000,-12.000000,-11.000000,-4.000000,11.000000,-3.000000,-2.000000,-9.000000
1297392.569254,25.000000,-4.000000,-7.000000,5.000000,-6.000000,4.000000,4.000000,9.000000
1297392.569288,2.000000,11.000000,1.000000,-9.000000,-10.000000,-8.000000,-7.000000,-1.000000
1297392.574480,6.000000,0.000000,-5.000000,-28.000000,-3.000000,1.000000,-1.000000,3.000000
1297392.574524,14.000000,-23.000000,0.000000,22.000000,-1.000000,-1.000000,-3.000000,-7.000000
1297392.582181,-26.000000,0.000000,-5.000000,-29.000000,15.000000,2.000000,-5.000000,-15.000000
1297392.582214,33.000000,-3.000000,-2.000000,-20.000000,1.000000,-1.000000,4.000000,6.000000
1297392.604601,4.000000,-2.000000,-5.000000,15.000000,3.000000,6.000000,4.000000,8.000000
1297392.604638,20.000000,-48.000000,8.000000,15.000000,-8.000000,-7.000000,-15.000000,-16.000000
1297392.612426,13.000000,48.000000,4.000000,1.000000,6.000000,4.000000,2.000000,-1.000000
1297392.612456,36.000000,-13.000000,-4.000000,41.000000,3.000000,0.000000,0.000000,-1.000000
1297392.642191,10.000000,-35.000000,-11.000000,-27.000000,4.000000,0.000000,4.000000,6.000000
1297392.642227,-28.000000,-16.000000,3.000000,12.000000,-9.000000,-1.000000,5.000000,4.000000
1297392.649803,-9.000000,-1.000000,18.000000,10.000000,3.000000,2.000000,-6.000000,-7.000000
1297392.649844,25.000000,-11.000000,-32.000000,-25.000000,-3.000000,-8.000000,-5.000000,-3.000000
1297392.651389,-2.000000,-18.000000,-8.000000,-5.000000,3.000000,-3.000000,8.000000,6.000000
1297392.651420,27.000000,21.000000,9.000000,2.000000,-10.000000,6.000000,-2.000000,3.000000
1297392.651709,12.000000,2.000000,4.000000,-14.000000,-7.000000,-4.000000,-15.000000,-9.000000
1297392.651868,-15.000000,0.000000,-2.000000,-61.000000,8.000000,1.000000,5.000000,6.000000
1297392.652831,33.000000,-65.000000,-17.000000,6.000000,5.000000,3.000000,7.000000,7.000000
1297392.652864,-9.000000,34.000000,3.000000,26.000000,3.000000,3.000000,2.000000,0.000000
1297392.687446,20.000000,21.000000,3.000000,-71.000000,-6.000000,-7.000000,-5.000000,1.000000
1297392.687475,52.000000,64.000000,9.000000,17.000000,5.000000,6.000000,5.000000,5.000000
1297392.688344,-15.000000,-16.000000,-14.000000,-2.000000,-9.000000,-1.000000,4.000000,1.000000
1297392.688561,-33.000000,4.000000,0.000000,-5.000000,-4.000000,0.000000,-5.000000,-4.000000
1297392.688883,9.000000,43.000000,1.000000,-35.000000,-7.000000,-5.000000,-9.000000,-4.000000
1297392.688917,-35.000000,-37.000000,1.000000,16.000000,7.000000,4.000000,8.000000,5.000000
1297392.695246,36.000000,-14.000000,3.000000,37.000000,-6.000000,1.000000,12.000000,12.000000
1297392.695264,-15.000000,-23.000000,-11.000000,-31.000000,-4.000000,-9.000000,-27.000000,-19.000000
1297392.717215,40.000000,-15.000000,8.000000,25.000000,7.000000,8.000000,4.000000,7.000000
1297392.717233,-103.000000,-38.000000,-7.000000,-28.000000,-5.000000,-3.000000,5.000000,-6.000000
1297392.739702,44.000000,11.000000,4.000000,18.000000,-6.000000,-1.000000,10.000000,7.000000
1297392.739734,8.000000,-27.000000,3.000000,25.000000,5.000000,-3.000000,-1.000000,5.000000
1297392.747386,-54.000000,34.000000,5.000000,-16.000000,-9.000000,0.000000,0.000000,-5.000000
1297392.747419,-36.000000,40.000000,-4.000000,-15.000000,-17.000000,-11.000000,-25.000000,-25.000000
1297392.763001,-20.000000,25.000000,21.000000,25.000000,4.000000,6.000000,4.000000,10.000000
1297392.763166,12.000000,-4.000000,-8.000000,10.000000,3.000000,5.000000,11.000000,2.000000
1297392.763764,10.000000,-19.000000,-2.000000,9.000000,-11.000000,-7.000000,-9.000000,-13.000000
1297392.763783,-34.000000,3.000000,0.000000,30.000000,-13.000000,-1.000000,-11.000000,-2.000000
1297392.764537,7.000000,-46.000000,-18.000000,-100.000000,-2.000000,-8.000000,-3.000000,-2.000000
1297392.764559,-35.000000,104.000000,24.000000,25.000000,-9.000000,-2.000000,6.000000,0.000000
1297392.765102,-6.000000,32.000000,17.000000,9.000000,5.000000,4.000000,0.000000,3.000000
1297392.765119,3.000000,-102.000000,-37.000000,-21.000000,-8.000000,-2.000000,-5.000000,0.000000
1297392.777030,7.000000,16.000000,7.000000,3.000000,8.000000,0.000000,2.000000,0.000000
1297392.777066,-34.000000,0.000000,13.000000,24.000000,1.000000,-4.000000,-3.000000,1.000000
1297392.799813,31.000000,7.000000,16.000000,58.000000,-13.000000,2.000000,-6.000000,-4.000000
1297392.799854,-12.000000,7.000000,3.000000,-61.000000,2.000000,-4.000000,-2.000000,-8.000000
1297392.807752,-16.000000,68.000000,8.000000,-1.000000,5.000000,-6.000000,-13.000000,-5.000000
1297392.807772,38.000000,35.000000,14.000000,16.000000,0.000000,-2.000000,5.000000,9.000000
1297392.808455,-12.000000,-62.000000,-30.000000,14.000000,-9.000000,5.000000,5.000000,2.000000
1297392.808509,-21.000000,-40.000000,-7.000000,3.000000,-10.000000,-5.000000,-8.000000,-8.000000
1297392.814681,-24.000000,14.000000,9.000000,-3.000000,7.000000,-3.000000,-5.000000,-12.000000
1297392.814699,23.000000,-30.000000,6.000000,57.000000,2.000000,-2.000000,3.000000,10.000000
1297392.829456,64.000000,101.000000,5.000000,-25.000000,9.000000,8.000000,4.000000,8.000000
1297392.829474,-67.000000,-7.000000,-18.000000,-18.000000,-5.000000,-2.000000,-8.000000,-11.000000
1297392.851934,-5.000000,24.000000,22.000000,7.000000,0.000000,0.000000,-6.000000,-4.000000
1297392.851952,12.000000,17.000000,8.000000,6.000000,0.000000,1.000000,10.000000,11.000000
1297392.859448,31.000000,-85.000000,-7.000000,46.000000,1.000000,4.000000,0.000000,-6.000000
1297392.859483,2.000000,100.000000,4.000000,0.000000,6.000000,-1.000000,-5.000000,-15.000000
1297392.882915,-7.000000,-13.000000,8.000000,-15.000000,-2.000000,-3.000000,1.000000,6.000000
1297392.882958,20.000000,1.000000,5.000000,8.000000,4.000000,7.000000,9.000000,9.000000
1297392.883767,7.000000,11.000000,4.000000,31.000000,-6.000000,-2.000000,6.000000,4.000000
1297392.883782,-8.000000,18.000000,5.000000,18.000000,12.000000,4.000000,2.000000,-2.000000
1297392.884814,18.000000,23.000000,8.000000,6.000000,-10.000000,-2.000000,-1.000000,3.000000
1297392.884994,29.000000,6.000000,-4.000000,-45.000000,-11.000000,-4.000000,-1.000000,-2.000000
1297392.885282,-24.000000,15.000000,-8.000000,-1.000000,6.000000,3.000000,2.000000,-4.000000
1297392.885297,6.000000,-18.000000,12.000000,6.000000,1.000000,7.000000,3.000000,4.000000
1297392.889508,-9.000000,-54.000000,-1.000000,17.000000,-2.000000,2.000000,-6.000000,-10.000000
1297392.889543,-48.000000,10.000000,6.000000,24.000000,7.000000,-2.000000,0.000000,1.000000
1297392.919717,28.000000,10.000000,-1.000000,17.000000,-2.000000,3.000000,11.000000,11.000000
1297392.919737,-35.000000,17.000000,5.000000,4.000000,-10.000000,0.000000,2.000000,6.000000
1297392.934361,1.000000,-30.000000,-16.000000,-18.000000,-10.000000,0.000000,6.000000,0.000000
1297392.934380,-2.000000,-37.000000,-8.000000,-44.000000,-2.000000,-13.000000,-21.000000,-9.000000
1297392.964615,-9.000000,-27.000000,-9.000000,-16.000000,9.000000,-3.000000,-2.000000,5.000000
1297392.964651,9.000000,29.000000,26.000000,23.000000,-13.000000,5.000000,18.000000,7.000000
1297392.994573,-24.000000,-12.000000,5.000000,34.000000,-13.000000,-8.000000,-18.000000,-18.000000
1297392.994722,-9.000000,36.000000,3.000000,-18.000000,10.000000,1.000000,-9.000000,-7.000000
1297392.995118,17.000000,0.000000,2.000000,44.000000,13.000000,4.000000,9.000000,10.000000
1297392.995134,-15.000000,-13.000000,-3.000000,-23.000000,-10.000000,-3.000000,-5.000000,-9.000000
1297393.002763,-1.000000,-5.000000,22.000000,17.000000,-2.000000,-5.000000,-4.000000,-4.000000
1297393.003000,28.000000,3.000000,-20.000000,-12.000000,1.000000,-2.000000,4.000000,8.000000
1297393.003490,0.000000,-27.000000,-7.000000,11.000000,-2.000000,-3.000000,6.000000,4.000000
1297393.003507,40.000000,127.000000,14.000000,18.000000,19.000000,8.000000,-5.000000,-9.000000
1297393.004206,25.000000,36.000000,10.000000,-12.000000,-2.000000,2.000000,8.000000,8.000000
1297393.004283,-36.000000,22.000000,-4.000000,-33.000000,5.000000,1.000000,6.000000,1.000000
1297393.006095,9.000000,-52.000000,-6.000000,-10.000000,-9.000000,-6.000000,1.000000,9.000000
1297393.006117,28.000000,-22.000000,-6.000000,-9.000000,-7.000000,-6.000000,-5.000000,-3.000000
1297393.017328,25.000000,-30.000000,0.000000,8.000000,-6.000000,-8.000000,-7.000000,-5.000000
1297393.017411,5.000000,-12.000000,-12.000000,-12.000000,0.000000,1.000000,-2.000000,-2.000000
1297393.024526,42.000000,2.000000,7.000000,0.000000,5.000000,8.000000,12.000000,17.000000
1297393.024560,-85.000000,9.000000,-12.000000,-37.000000,5.000000,2.000000,3.000000,-8.000000
1297393.039536,-1.000000,-52.000000,-8.000000,-10.000000,2.000000,-4.000000,-11.000000,-7.000000
1297393.039572,26.000000,63.000000,-6.000000,21.000000,10.000000,4.000000,6.000000,10.000000
1297393.047015,17.000000,61.000000,-6.000000,-25.000000,-14.000000,0.000000,11.000000,11.000000
1297393.047051,-22.000000,-9.000000,11.000000,24.000000,-9.000000,-1.000000,-4.000000,-7.000000
1297393.055275,26.000000,-1.000000,0.000000,40.000000,-1.000000,-4.000000,-13.000000,-12.000000
1297393.055309,26.000000,98.000000,18.000000,-30.000000,8.000000,3.000000,11.000000,12.000000
1297393.069748,9.000000,60.000000,6.000000,36.000000,14.000000,8.000000,10.000000,3.000000
1297393.069775,-13.000000,2.000000,18.000000,42.000000,9.000000,4.000000,-2.000000,-3.000000
1297393.091966,-76.000000,-33.000000,-15.000000,-5.000000,-2.000000,-10.000000,-15.000000,-21.000000
1297393.092000,33.000000,27.000000,18.000000,21.000000,0.000000,1.000000,2.000000,12.000000
1297393.092662,-1.000000,28.000000,5.000000,12.000000,-5.000000,3.000000,9.000000,4.000000
1297393.092865,-16.000000,6.000000,-11.000000,-5.000000,-3.000000,-3.000000,-1.000000,-2.000000
1297393.094076,-18.000000,-3.000000,-11.000000,-24.000000,7.000000,2.000000,6.000000,1.000000
1297393.094109,-1.000000,8.000000,12.000000,38.000000,-6.000000,-6.000000,-4.000000,-8.000000
1297393.122377,5.000000,-19.000000,-15.000000,-62.000000,-10.000000,-9.000000,-9.000000,-11.000000
1297393.122410,-10.000000,-104.000000,-2.000000,9.000000,2.000000,3.000000,6.000000,5.000000
1297393.137367,-14.000000,7.000000,8.000000,-1.000000,-5.000000,5.000000,10.000000,4.000000
1297393.137395,5.000000,-3.000000,-13.000000,-18.000000,-10.000000,-5.000000,-6.000000,-4.000000
1297393.160063,-11.000000,-2.000000,11.000000,-21.000000,8.000000,-7.000000,-12.000000,-8.000000
1297393.160089,-18.000000,9.000000,14.000000,40.000000,-5.000000,5.000000,5.000000,2.000000
1297393.174938,5.000000,-12.000000,-20.000000,-28.000000,-10.000000,-7.000000,5.000000,6.000000
1297393.174996,7.000000,-37.000000,1.000000,16.000000,-4.000000,1.000000,2.000000,-17.000000
1297393.197270,-8.000000,12.000000,15.000000,-11.000000,-3.000000,-2.000000,-9.000000,-6.000000
1297393.197289,-40.000000,-22.000000,8.000000,-14.000000,12.000000,2.000000,4.000000,7.000000
1297393.212285,-39.000000,-114.000000,-18.000000,23.000000,-11.000000,-7.000000,-9.000000,-14.000000
1297393.212304,23.000000,26.000000,6.000000,-45.000000,-1.000000,-1.000000,0.000000,4.000000
1297393.234515,7.000000,-113.000000,-9.000000,-16.000000,-5.000000,-1.000000,8.000000,16.000000
1297393.234533,-34.000000,20.000000,20.000000,9.000000,1.000000,-5.000000,-10.000000,-12.000000
1297393.242141,-9.000000,51.000000,2.000000,-9.000000,-11.000000,-2.000000,-7.000000,-6.000000
1297393.242325,29.000000,-5.000000,2.000000,0.000000,6.000000,3.000000,12.000000,20.000000
1297393.242835,28.000000,79.000000,3.000000,39.000000,20.000000,6.000000,1.000000,4.000000
1297393.243030,-4.000000,-25.000000,-7.000000,-30.000000,-2.000000,-9.000000,-19.000000,-6.000000
1297393.243534,-25.000000,-8.000000,-2.000000,31.000000,-6.000000,1.000000,2.000000,-1.000000
1297393.243573,31.000000,1.000000,5.000000,3.000000,-11.000000,-3.000000,3.000000,4.000000
1297393.244678,0.000000,79.000000,4.000000,-9.000000,6.000000,2.000000,-4.000000,2.000000
1297393.244719,9.000000,0.000000,6.000000,7.000000,-7.000000,1.000000,4.000000,-1.000000
1297393.245043,11.000000,14.000000,-3.000000,39.000000,1.000000,-1.000000,-2.000000,3.000000
1297393.245074,-2.000000,-28.000000,-12.000000,-83.000000,-1.000000,-5.000000,-4.000000,-4.000000
1297393.279459,-17.000000,-65.000000,-14.000000,10.000000,8.000000,-1.000000,1.000000,-7.000000
1297393.279634,-8.000000,18.000000,11.000000,-32.000000,-10.000000,0.000000,6.000000,5.000000
1297393.280619,13.000000,15.000000,9.000000,52.000000,-3.000000,-1.000000,-11.000000,-5.000000
1297393.280751,-10.000000,-5.000000,-10.000000,-38.000000,5.000000,0.000000,2.000000,6.000000
1297393.281738,21.000000,72.000000,5.000000,53.000000,6.000000,10.000000,6.000000,7.000000
1297393.281773,-44.000000,-35.000000,-18.000000,-5.000000,-13.000000,-18.000000,-27.000000,-30.000000
1297393.287613,-48.000000,-3.000000,19.000000,24.000000,6.000000,2.000000,0.000000,0.000000
1297393.287646,25.000000,-108.000000,-1.000000,34.000000,-4.000000,3.000000,4.000000,7.000000
1297393.294671,16.000000,127.000000,23.000000,15.000000,7.000000,11.000000,11.000000,8.000000
1297393.294755,17.000000,14.000000,4.000000,-26.000000,1.000000,-1.000000,0.000000,4.000000
1297393.324760,-36.000000,11.000000,20.000000,10.000000,0.000000,-4.000000,-5.000000,-23.000000
1297393.324790,-26.000000,-41.000000,-14.000000,-6.000000,-7.000000,-3.000000,-7.000000,-3.000000
1297393.332411,-12.000000,-9.000000,8.000000,40.000000,7.000000,10.000000,12.000000,9.000000
1297393.332618,14.000000,25.000000,1.000000,-64.000000,0.000000,-2.000000,2.000000,-3.000000
1297393.334024,-29.000000,12.000000,13.000000,4.000000,1.000000,-11.000000,-17.000000,-15.000000
1297393.334053,39.000000,95.000000,-21.000000,-11.000000,8.000000,9.000000,17.000000,18.000000
1297393.334658,-18.000000,14.000000,6.000000,16.000000,-2.000000,5.000000,13.000000,5.000000
1297393.334675,9.000000,9.000000,-10.000000,23.000000,2.000000,-4.000000,-16.000000,-17.000000
1297393.354509,-32.000000,2.000000,8.000000,-2.000000,1.000000,-3.000000,-4.000000,2.000000
1297393.354527,34.000000,-28.000000,-15.000000,-56.000000,5.000000,5.000000,7.000000,4.000000
1297393.361974,-4.000000,127.000000,2.000000,39.000000,11.000000,2.000000,1.000000,1.000000
1297393.362004,-51.000000,-40.000000,5.000000,-8.000000,-3.000000,-4.000000,-6.000000,-9.000000
1297393.369692,44.000000,92.000000,-18.000000,-5.000000,8.000000,-3.000000,-10.000000,1.000000
1297393.369730,-48.000000,-42.000000,4.000000,14.000000,0.000000,10.000000,9.000000,5.000000
1297393.377147,36.000000,58.000000,14.000000,4.000000,1.000000,3.000000,7.000000,9.000000
1297393.377184,-46.000000,9.000000,4.000000,1.000000,-2.000000,4.000000,0.000000,-3.000000
1297393.399496,38.000000,5.000000,16.000000,26.000000,-11.000000,-3.000000,2.000000,0.000000
1297393.399514,-8.000000,38.000000,4.000000,-6.000000,15.000000,2.000000,-3.000000,-2.000000
1297393.400194,-13.000000,43.000000,30.000000,18.000000,-3.000000,6.000000,3.000000,8.000000
1297393.400230,12.000000,-66.000000,-9.000000,-8.000000,-9.000000,-1.000000,-6.000000,1.000000
1297393.407570,11.000000,-7.000000,-15.000000,-56.000000,-1.000000,-6.000000,-7.000000,-6.000000
1297393.407605,21.000000,29.000000,3.000000,-90.000000,3.000000,-7.000000,-9.000000,-1.000000
1297393.414549,20.000000,-22.000000,-3.000000,25.000000,-4.000000,-2.000000,-4.000000,10.000000
1297393.414584,-72.000000,48.000000,18.000000,-7.000000,11.000000,7.000000,17.000000,4.000000
1297393.451978,-47.000000,-57.000000,-15.000000,6.000000,0.000000,-5.000000,-3.000000,-3.000000
1297393.451995,26.000000,-8.000000,-11.000000,11.000000,-8.000000,-7.000000,-14.000000,-5.000000
1297393.459686,18.000000,127.000000,19.000000,-25.000000,15.000000,7.000000,12.000000,15.000000
1297393.459722,-20.000000,-53.000000,-29.000000,-39.000000,1.000000,-2.000000,-2.000000,-8.000000
1297393.482019,-54.000000,12.000000,5.000000,31.000000,-6.000000,-5.000000,-11.000000,-13.000000
1297393.482186,6.000000,21.000000,-14.000000,-24.000000,-13.000000,-12.000000,-12.000000,-6.000000
1297393.482642,25.000000,37.000000,3.000000,5.000000,16.000000,5.000000,7.000000,7.000000
1297393.482673,-17.000000,10.000000,9.000000,-12.000000,0.000000,-1.000000,7.000000,12.000000
1297393.483853,27.000000,-28.000000,-4.000000,23.000000,2.000000,3.000000,5.000000,5.000000
1297393.483876,-12.000000,1.000000,2.000000,-17.000000,3.000000,2.000000,-6.000000,-20.000000
1297393.484541,11.000000,82.000000,7.000000,14.000000,-5.000000,-2.000000,-14.000000,-2.000000
1297393.484572,-5.000000,118.000000,1.000000,-1.000000,7.000000,7.000000,13.000000,18.000000
1297393.504542,42.000000,-7.000000,16.000000,50.000000,6.000000,-5.000000,-13.000000,2.000000
1297393.504703,-15.000000,-95.000000,-20.000000,25.000000,-5.000000,-3.000000,1.000000,1.000000
1297393.519673,13.000000,25.000000,6.000000,3.000000,-4.000000,0.000000,2.000000,0.000000
1297393.519714,35.000000,-20.000000,-2.000000,-17.000000,3.000000,2.000000,1.000000,1.000000
1297393.520465,2.000000,-113.000000,-52.000000,-2.000000,1.000000,-7.000000,-7.000000,-7.000000
1297393.520482,-13.000000,-3.000000,-4.000000,21.000000,-6.000000,1.000000,5.000000,-4.000000
1297393.527871,-3.000000,3.000000,15.000000,26.000000,5.000000,-1.000000,-4.000000,-3.000000
1297393.527906,-4.000000,18.000000,-21.000000,-48.000000,13.000000,4.000000,12.000000,10.000000
1297393.557222,0.000000,-128.000000,12.000000,26.000000,-6.000000,-13.000000,-31.000000,-26.000000
1297393.557242,25.000000,-49.000000,-29.000000,16.000000,-6.000000,3.000000,-1.000000,6.000000
