# participant_id: P2
# gesture: medium
# trial_number: 2
# stream_name: Myo_EMG
# stream_type: emg
# timestamp: 20260420_131603
# samples: 5296
# duration_sec: 30.262
# nominal_sample_rate: 200.0
# effective_sample_rate: 174.97
#
timestamp,emg_1,emg_2,emg_3,emg_4,emg_5,emg_6,emg_7,emg_8
1295655.016745,12.000000,-6.000000,-8.000000,-22.000000,-3.000000,7.000000,127.000000,50.000000
1295655.016757,-43.000000,5.000000,-60.000000,-9.000000,-6.000000,-21.000000,-35.000000,-33.000000
1295655.024126,-5.000000,-3.000000,22.000000,56.000000,33.000000,13.000000,-89.000000,-25.000000
1295655.024138,-16.000000,-5.000000,74.000000,47.000000,10.000000,4.000000,62.000000,-28.000000
1295655.054166,38.000000,5.000000,-15.000000,-28.000000,-1.000000,15.000000,35.000000,52.000000
1295655.054176,-20.000000,10.000000,-29.000000,-17.000000,-10.000000,0.000000,-15.000000,-4.000000
1295655.061645,12.000000,2.000000,6.000000,1.000000,20.000000,-5.000000,-127.000000,-29.000000
1295655.061655,37.000000,-2.000000,13.000000,-75.000000,-21.000000,-22.000000,118.000000,6.000000
1295655.084245,8.000000,0.000000,1.000000,-15.000000,18.000000,15.000000,-44.000000,15.000000
1295655.084260,-10.000000,-3.000000,-38.000000,-65.000000,-30.000000,-7.000000,4.000000,-14.000000
1295655.091839,-1.000000,-10.000000,-5.000000,-18.000000,9.000000,13.000000,19.000000,7.000000
1295655.091850,21.000000,7.000000,-10.000000,-13.000000,27.000000,24.000000,4.000000,-3.000000
1295655.099597,-7.000000,1.000000,-51.000000,-59.000000,-83.000000,-38.000000,-82.000000,-23.000000
1295655.099609,-74.000000,-6.000000,-103.000000,-120.000000,-27.000000,-8.000000,53.000000,-2.000000
1295655.100120,53.000000,1.000000,127.000000,127.000000,81.000000,35.000000,-7.000000,7.000000
1295655.100137,13.000000,1.000000,-4.000000,9.000000,17.000000,10.000000,48.000000,32.000000
1295655.101309,4.000000,2.000000,-14.000000,-3.000000,3.000000,2.000000,-1.000000,-1.000000
1295655.101318,19.000000,1.000000,-5.000000,-5.000000,1.000000,14.000000,-27.000000,-5.000000
1295655.106537,11.000000,-5.000000,-3.000000,-15.000000,11.000000,9.000000,-26.000000,-3.000000
1295655.106546,-15.000000,0.000000,-36.000000,-28.000000,-13.000000,-5.000000,-45.000000,-17.000000
1295655.121867,25.000000,5.000000,50.000000,-50.000000,-7.000000,6.000000,18.000000,2.000000
1295655.121882,31.000000,-8.000000,-8.000000,-11.000000,21.000000,26.000000,84.000000,36.000000
1295655.144233,-35.000000,7.000000,-21.000000,-15.000000,-12.000000,-19.000000,-27.000000,-2.000000
1295655.144252,-34.000000,3.000000,-30.000000,-36.000000,-11.000000,-13.000000,-40.000000,-33.000000
1295655.151443,4.000000,-2.000000,-3.000000,21.000000,-7.000000,-10.000000,-47.000000,-15.000000
1295655.151453,30.000000,4.000000,3.000000,6.000000,21.000000,28.000000,20.000000,32.000000
1295655.181610,2.000000,6.000000,-1.000000,49.000000,37.000000,26.000000,72.000000,14.000000
1295655.181620,7.000000,5.000000,26.000000,21.000000,-17.000000,-6.000000,-99.000000,-51.000000
1295655.211916,8.000000,4.000000,-30.000000,-26.000000,-3.000000,-7.000000,83.000000,46.000000
1295655.211932,17.000000,1.000000,6.000000,-13.000000,-5.000000,-5.000000,-20.000000,6.000000
1295655.226855,4.000000,-2.000000,-22.000000,-4.000000,16.000000,2.000000,-96.000000,-33.000000
1295655.226892,-18.000000,-11.000000,55.000000,70.000000,-71.000000,-67.000000,-107.000000,-57.000000
1295655.233976,58.000000,1.000000,-5.000000,3.000000,23.000000,26.000000,119.000000,71.000000
1295655.233986,-16.000000,-1.000000,-18.000000,-20.000000,-15.000000,-10.000000,-43.000000,-20.000000
1295655.257027,-13.000000,-7.000000,32.000000,127.000000,36.000000,-2.000000,-22.000000,-36.000000
1295655.257048,48.000000,-3.000000,26.000000,-20.000000,-16.000000,8.000000,2.000000,15.000000
1295655.264084,-57.000000,6.000000,-5.000000,13.000000,3.000000,-15.000000,11.000000,-1.000000
1295655.264120,-6.000000,-2.000000,-1.000000,-20.000000,-4.000000,-17.000000,-23.000000,-15.000000
1295655.286716,9.000000,5.000000,-27.000000,11.000000,-1.000000,5.000000,-128.000000,-31.000000
1295655.286745,-90.000000,0.000000,33.000000,49.000000,13.000000,31.000000,33.000000,22.000000
1295655.294183,58.000000,-1.000000,-31.000000,-35.000000,-38.000000,-62.000000,-11.000000,-30.000000
1295655.294194,54.000000,-4.000000,42.000000,68.000000,17.000000,-9.000000,127.000000,94.000000
1295655.323995,12.000000,2.000000,-25.000000,-12.000000,19.000000,35.000000,-70.000000,-17.000000
1295655.324014,-23.000000,-6.000000,1.000000,-14.000000,-36.000000,-14.000000,61.000000,6.000000
1295655.332188,-21.000000,-3.000000,-28.000000,-4.000000,-90.000000,-56.000000,-59.000000,-14.000000
1295655.332200,23.000000,-8.000000,-5.000000,9.000000,5.000000,6.000000,81.000000,36.000000
1295655.333952,6.000000,-7.000000,6.000000,18.000000,17.000000,6.000000,4.000000,40.000000
1295655.333962,34.000000,2.000000,-1.000000,-13.000000,9.000000,6.000000,50.000000,-4.000000
1295655.334758,-4.000000,1.000000,-15.000000,-6.000000,0.000000,15.000000,-38.000000,-1.000000
1295655.334768,4.000000,-5.000000,11.000000,10.000000,21.000000,26.000000,81.000000,13.000000
1295655.339165,1.000000,-1.000000,1.000000,-20.000000,2.000000,17.000000,124.000000,22.000000
1295655.339180,-12.000000,4.000000,-34.000000,-36.000000,-24.000000,-11.000000,-1.000000,-5.000000
1295655.346687,29.000000,-5.000000,-18.000000,-115.000000,-38.000000,-5.000000,-78.000000,-39.000000
1295655.346699,-14.000000,0.000000,18.000000,77.000000,28.000000,6.000000,60.000000,26.000000
1295655.361554,22.000000,-7.000000,-23.000000,-46.000000,-18.000000,-6.000000,7.000000,18.000000
1295655.361565,-18.000000,-9.000000,-32.000000,-34.000000,-10.000000,-6.000000,-55.000000,-29.000000
1295655.399383,4.000000,-12.000000,-40.000000,-14.000000,-31.000000,-18.000000,27.000000,6.000000
1295655.399395,11.000000,-2.000000,58.000000,40.000000,6.000000,4.000000,22.000000,13.000000
1295655.414189,2.000000,5.000000,-14.000000,-8.000000,-1.000000,-3.000000,-23.000000,-9.000000
1295655.414200,14.000000,-3.000000,-14.000000,0.000000,-4.000000,-12.000000,-67.000000,-29.000000
1295655.451628,-21.000000,-5.000000,3.000000,-34.000000,-25.000000,-5.000000,78.000000,19.000000
1295655.451653,12.000000,-2.000000,-14.000000,17.000000,12.000000,-8.000000,-17.000000,4.000000
1295655.459074,-38.000000,-14.000000,18.000000,-23.000000,-12.000000,1.000000,-80.000000,-30.000000
1295655.459138,25.000000,-6.000000,-2.000000,39.000000,15.000000,-8.000000,126.000000,40.000000
1295655.460014,-1.000000,-2.000000,-51.000000,-49.000000,-5.000000,-11.000000,-46.000000,1.000000
1295655.460040,4.000000,8.000000,-8.000000,-49.000000,-5.000000,0.000000,20.000000,-3.000000
1295655.460634,-14.000000,0.000000,-10.000000,13.000000,-19.000000,-12.000000,-52.000000,-23.000000
1295655.460660,47.000000,-1.000000,16.000000,-2.000000,18.000000,43.000000,114.000000,55.000000
1295655.461330,35.000000,6.000000,-15.000000,-34.000000,-22.000000,-4.000000,0.000000,5.000000
1295655.461340,-31.000000,7.000000,-13.000000,-22.000000,4.000000,-5.000000,-98.000000,-32.000000
1295655.462196,10.000000,-3.000000,1.000000,27.000000,-13.000000,-4.000000,-29.000000,6.000000
1295655.462213,25.000000,-8.000000,30.000000,-2.000000,11.000000,16.000000,107.000000,35.000000
1295655.473844,17.000000,-7.000000,-19.000000,-22.000000,-2.000000,9.000000,2.000000,18.000000
1295655.473855,-29.000000,-1.000000,-10.000000,-23.000000,-5.000000,-6.000000,-74.000000,-38.000000
1295655.489146,-2.000000,-4.000000,-38.000000,-39.000000,-43.000000,-36.000000,-29.000000,-19.000000
1295655.489156,4.000000,-3.000000,14.000000,25.000000,27.000000,19.000000,69.000000,30.000000
1295655.504052,-11.000000,-7.000000,-63.000000,-24.000000,-15.000000,-28.000000,-61.000000,-29.000000
1295655.504062,0.000000,4.000000,74.000000,14.000000,-7.000000,6.000000,-15.000000,-1.000000
1295655.519208,-33.000000,9.000000,6.000000,5.000000,10.000000,8.000000,69.000000,6.000000
1295655.519217,-9.000000,-5.000000,-46.000000,-80.000000,-37.000000,-20.000000,-107.000000,-35.000000
1295655.534142,28.000000,0.000000,57.000000,68.000000,38.000000,14.000000,82.000000,23.000000
1295655.534152,-17.000000,-1.000000,-4.000000,-4.000000,15.000000,13.000000,24.000000,13.000000
1295655.541783,-25.000000,-10.000000,-24.000000,17.000000,-21.000000,-32.000000,-128.000000,-39.000000
1295655.541793,-14.000000,-6.000000,-19.000000,-28.000000,-14.000000,-13.000000,111.000000,9.000000
1295655.571333,-8.000000,-14.000000,26.000000,57.000000,24.000000,-4.000000,-77.000000,-23.000000
1295655.571344,-11.000000,-19.000000,-22.000000,-3.000000,0.000000,-9.000000,0.000000,-20.000000
1295655.571812,8.000000,-20.000000,8.000000,-27.000000,-7.000000,9.000000,75.000000,42.000000
1295655.571839,-23.000000,-10.000000,-18.000000,-39.000000,-8.000000,-2.000000,-48.000000,-9.000000
1295655.573168,16.000000,8.000000,23.000000,-54.000000,-11.000000,5.000000,43.000000,6.000000
1295655.573193,-4.000000,4.000000,-32.000000,-30.000000,-20.000000,-14.000000,-59.000000,-23.000000
1295655.573926,10.000000,-5.000000,-13.000000,-21.000000,-12.000000,-24.000000,-114.000000,-23.000000
1295655.573955,-14.000000,18.000000,20.000000,39.000000,5.000000,6.000000,70.000000,7.000000
1295655.578827,-20.000000,11.000000,-28.000000,-21.000000,-10.000000,-7.000000,-49.000000,-22.000000
1295655.578853,-1.000000,-2.000000,-31.000000,0.000000,0.000000,-1.000000,26.000000,9.000000
1295655.587282,28.000000,22.000000,58.000000,7.000000,5.000000,11.000000,0.000000,12.000000
1295655.587298,-6.000000,1.000000,-3.000000,27.000000,13.000000,-6.000000,-22.000000,-13.000000
1295655.594615,-26.000000,-11.000000,-39.000000,-72.000000,-31.000000,2.000000,-5.000000,-15.000000
1295655.594625,9.000000,-3.000000,32.000000,34.000000,-1.000000,-13.000000,-85.000000,-19.000000
1295655.616403,-1.000000,-17.000000,12.000000,-11.000000,-7.000000,18.000000,-31.000000,-24.000000
1295655.616412,19.000000,20.000000,63.000000,72.000000,41.000000,55.000000,120.000000,31.000000
1295655.624300,11.000000,-29.000000,-31.000000,-18.000000,-23.000000,-27.000000,63.000000,51.000000
1295655.624315,-9.000000,17.000000,-16.000000,26.000000,-15.000000,-29.000000,-128.000000,-48.000000
1295655.646506,-16.000000,-16.000000,22.000000,57.000000,-26.000000,-35.000000,94.000000,1.000000
1295655.646517,26.000000,29.000000,-20.000000,-67.000000,3.000000,15.000000,-27.000000,-2.000000
1295655.654048,-8.000000,7.000000,60.000000,-7.000000,15.000000,-13.000000,-54.000000,-14.000000
1295655.654066,-8.000000,5.000000,37.000000,61.000000,32.000000,2.000000,-2.000000,-6.000000
1295655.691695,-13.000000,-5.000000,-33.000000,-31.000000,-8.000000,-15.000000,-30.000000,-19.000000
1295655.691726,-8.000000,-19.000000,-63.000000,-31.000000,-32.000000,-14.000000,-90.000000,-21.000000
1295655.692059,13.000000,8.000000,59.000000,-82.000000,-3.000000,35.000000,119.000000,41.000000
1295655.692068,-27.000000,-18.000000,0.000000,-104.000000,-46.000000,-39.000000,-37.000000,-14.000000
1295655.693227,14.000000,-8.000000,-44.000000,-55.000000,12.000000,-9.000000,-34.000000,-7.000000
1295655.693252,-14.000000,3.000000,-23.000000,-39.000000,-7.000000,-4.000000,1.000000,-8.000000
1295655.693973,-1.000000,4.000000,18.000000,64.000000,-7.000000,-17.000000,-25.000000,0.000000
1295655.693995,-6.000000,8.000000,-14.000000,43.000000,16.000000,13.000000,26.000000,4.000000
1295655.695404,-2.000000,4.000000,26.000000,36.000000,-2.000000,0.000000,-1.000000,9.000000
1295655.695413,3.000000,19.000000,5.000000,-2.000000,0.000000,8.000000,-9.000000,-8.000000
1295655.698956,7.000000,33.000000,11.000000,18.000000,12.000000,25.000000,33.000000,10.000000
1295655.698968,-27.000000,-11.000000,-4.000000,10.000000,-9.000000,-24.000000,-23.000000,-2.000000
1295655.706356,-4.000000,-1.000000,6.000000,6.000000,2.000000,-3.000000,-30.000000,-10.000000
1295655.706366,4.000000,-1.000000,3.000000,16.000000,24.000000,20.000000,27.000000,9.000000
1295655.713902,17.000000,1.000000,-39.000000,-67.000000,-51.000000,-29.000000,-108.000000,-18.000000
1295655.713911,13.000000,-4.000000,68.000000,127.000000,78.000000,28.000000,114.000000,40.000000
1295655.736415,-16.000000,-22.000000,-24.000000,-31.000000,-8.000000,-15.000000,-37.000000,-21.000000
1295655.736425,4.000000,20.000000,7.000000,5.000000,-12.000000,-22.000000,-128.000000,-27.000000
1295655.759263,0.000000,-16.000000,5.000000,-32.000000,-1.000000,15.000000,124.000000,23.000000
1295655.759291,-13.000000,23.000000,-19.000000,-1.000000,6.000000,4.000000,13.000000,13.000000
1295655.774357,6.000000,5.000000,32.000000,38.000000,5.000000,0.000000,21.000000,6.000000
1295655.774369,4.000000,-9.000000,-13.000000,-15.000000,3.000000,7.000000,-24.000000,-4.000000
1295655.781560,-12.000000,15.000000,-31.000000,-22.000000,3.000000,12.000000,-43.000000,-23.000000
1295655.781572,-31.000000,-20.000000,-1.000000,6.000000,-18.000000,-33.000000,5.000000,6.000000
1295655.804071,17.000000,-10.000000,-23.000000,-44.000000,-8.000000,-6.000000,33.000000,20.000000
1295655.804100,4.000000,-18.000000,22.000000,47.000000,22.000000,5.000000,-15.000000,-8.000000
1295655.811774,1.000000,8.000000,-44.000000,-36.000000,17.000000,6.000000,-14.000000,-10.000000
1295655.811784,0.000000,0.000000,20.000000,53.000000,-81.000000,-35.000000,-47.000000,-20.000000
1295655.841540,8.000000,-21.000000,1.000000,4.000000,1.000000,8.000000,106.000000,36.000000
1295655.841564,3.000000,0.000000,-8.000000,-21.000000,4.000000,4.000000,17.000000,22.000000
1295655.848961,-6.000000,18.000000,-3.000000,24.000000,14.000000,-1.000000,-36.000000,-24.000000
1295655.848981,13.000000,-11.000000,-62.000000,-73.000000,-45.000000,-19.000000,-57.000000,-16.000000
1295655.879257,42.000000,26.000000,86.000000,127.000000,46.000000,7.000000,37.000000,20.000000
1295655.879279,-47.000000,-37.000000,-28.000000,-10.000000,0.000000,-6.000000,-34.000000,-18.000000
1295655.886934,-11.000000,-52.000000,-12.000000,-28.000000,-13.000000,8.000000,19.000000,0.000000
1295655.886948,17.000000,8.000000,-11.000000,-28.000000,1.000000,-13.000000,-22.000000,-11.000000
1295655.893991,14.000000,21.000000,-60.000000,25.000000,-7.000000,-26.000000,-40.000000,-18.000000
1295655.894014,6.000000,3.000000,60.000000,59.000000,24.000000,31.000000,47.000000,18.000000
1295655.901585,34.000000,-4.000000,69.000000,26.000000,16.000000,21.000000,72.000000,42.000000
1295655.901622,14.000000,-9.000000,18.000000,15.000000,-4.000000,-7.000000,-65.000000,-9.000000
1295655.916510,-28.000000,-9.000000,-47.000000,-71.000000,-39.000000,-10.000000,-42.000000,-17.000000
1295655.916521,-26.000000,23.000000,-20.000000,-26.000000,11.000000,8.000000,33.000000,1.000000
1295655.917132,-18.000000,-29.000000,-48.000000,-40.000000,2.000000,-3.000000,-36.000000,-13.000000
1295655.917158,-2.000000,14.000000,-29.000000,-9.000000,-24.000000,-17.000000,-21.000000,-10.000000
1295655.918203,5.000000,4.000000,2.000000,42.000000,23.000000,15.000000,127.000000,27.000000
1295655.918212,10.000000,13.000000,53.000000,60.000000,22.000000,17.000000,-128.000000,-25.000000
1295655.919707,-21.000000,-14.000000,1.000000,7.000000,23.000000,39.000000,127.000000,39.000000
1295655.919716,14.000000,4.000000,-35.000000,-13.000000,-29.000000,-37.000000,-128.000000,-18.000000
1295655.920525,-9.000000,14.000000,-14.000000,1.000000,4.000000,-24.000000,64.000000,26.000000
1295655.920572,7.000000,-30.000000,3.000000,-39.000000,-19.000000,-24.000000,-109.000000,-62.000000
1295655.924805,-15.000000,41.000000,2.000000,34.000000,15.000000,-9.000000,-128.000000,-34.000000
1295655.924816,37.000000,24.000000,-20.000000,-47.000000,25.000000,37.000000,127.000000,112.000000
1295655.938870,-3.000000,-3.000000,28.000000,95.000000,36.000000,19.000000,-84.000000,-14.000000
1295655.938880,-14.000000,-1.000000,-15.000000,-17.000000,-11.000000,-2.000000,110.000000,2.000000
1295655.954355,9.000000,25.000000,46.000000,3.000000,-1.000000,-20.000000,-77.000000,-16.000000
1295655.954383,-25.000000,-28.000000,-13.000000,5.000000,21.000000,30.000000,61.000000,-7.000000
1295655.969197,25.000000,66.000000,20.000000,-73.000000,-38.000000,-73.000000,-76.000000,8.000000
1295655.969226,-29.000000,-18.000000,-32.000000,-18.000000,-6.000000,0.000000,-128.000000,-85.000000
1295655.991504,6.000000,15.000000,-66.000000,-33.000000,25.000000,17.000000,127.000000,57.000000
1295655.991525,-2.000000,0.000000,52.000000,46.000000,5.000000,16.000000,37.000000,46.000000
1295656.028964,26.000000,3.000000,-16.000000,-61.000000,-3.000000,5.000000,28.000000,31.000000
1295656.028974,4.000000,28.000000,32.000000,13.000000,23.000000,6.000000,-54.000000,-24.000000
1295656.044325,-4.000000,-7.000000,-11.000000,-6.000000,0.000000,-1.000000,-74.000000,-37.000000
1295656.044334,-3.000000,78.000000,13.000000,-23.000000,-19.000000,-19.000000,-64.000000,-24.000000
1295656.044995,2.000000,-12.000000,-24.000000,-7.000000,-6.000000,38.000000,30.000000,6.000000
1295656.045002,-2.000000,-15.000000,-22.000000,-8.000000,-24.000000,-43.000000,127.000000,42.000000
1295656.046671,4.000000,-4.000000,63.000000,-12.000000,14.000000,3.000000,-106.000000,0.000000
1295656.046683,13.000000,0.000000,-11.000000,1.000000,9.000000,3.000000,-32.000000,17.000000
1295656.047330,-21.000000,-17.000000,-1.000000,0.000000,-6.000000,7.000000,89.000000,10.000000
1295656.047341,9.000000,25.000000,1.000000,-6.000000,-8.000000,-8.000000,-41.000000,-7.000000
1295656.066917,0.000000,-40.000000,-35.000000,-20.000000,-6.000000,-11.000000,38.000000,1.000000
1295656.066947,-1.000000,13.000000,63.000000,65.000000,16.000000,9.000000,25.000000,6.000000
1295656.081563,25.000000,-7.000000,-17.000000,-19.000000,-13.000000,-1.000000,-7.000000,-3.000000
1295656.081573,3.000000,2.000000,-14.000000,-26.000000,-13.000000,-26.000000,-101.000000,-31.000000
1295656.096639,-13.000000,30.000000,5.000000,8.000000,7.000000,7.000000,74.000000,15.000000
1295656.096667,2.000000,-8.000000,3.000000,-1.000000,-14.000000,-2.000000,31.000000,10.000000
1295656.126550,-7.000000,25.000000,58.000000,25.000000,4.000000,5.000000,-30.000000,7.000000
1295656.126562,0.000000,0.000000,-51.000000,2.000000,1.000000,-7.000000,-53.000000,-24.000000
1295656.134042,21.000000,8.000000,40.000000,29.000000,4.000000,11.000000,31.000000,17.000000
1295656.134051,-12.000000,-15.000000,-10.000000,19.000000,4.000000,4.000000,-52.000000,-7.000000
1295656.164137,-28.000000,-33.000000,-34.000000,8.000000,0.000000,-6.000000,45.000000,0.000000
1295656.164147,7.000000,53.000000,54.000000,-78.000000,-8.000000,-3.000000,-13.000000,-23.000000
1295656.171436,29.000000,29.000000,9.000000,34.000000,8.000000,9.000000,53.000000,31.000000
1295656.171452,-10.000000,-15.000000,-25.000000,-83.000000,-25.000000,-4.000000,11.000000,1.000000
1295656.179454,-24.000000,-39.000000,-38.000000,-10.000000,-20.000000,-15.000000,-23.000000,-10.000000
1295656.179465,1.000000,-10.000000,20.000000,36.000000,28.000000,18.000000,4.000000,11.000000
1295656.180765,-26.000000,-12.000000,-11.000000,-82.000000,-40.000000,-1.000000,8.000000,-15.000000
1295656.180775,25.000000,-4.000000,7.000000,22.000000,21.000000,-8.000000,18.000000,14.000000
1295656.181413,-17.000000,6.000000,-1.000000,-9.000000,-4.000000,-2.000000,7.000000,-2.000000
1295656.181423,-2.000000,8.000000,28.000000,10.000000,1.000000,0.000000,-77.000000,4.000000
1295656.182266,-44.000000,-14.000000,-27.000000,-12.000000,-9.000000,-39.000000,-128.000000,-57.000000
1295656.182276,33.000000,10.000000,74.000000,9.000000,-8.000000,9.000000,91.000000,24.000000
1295656.194237,8.000000,-6.000000,24.000000,104.000000,53.000000,39.000000,127.000000,30.000000
1295656.194251,12.000000,17.000000,-6.000000,-23.000000,10.000000,13.000000,11.000000,30.000000
1295656.201782,-61.000000,-3.000000,-7.000000,-7.000000,-28.000000,-26.000000,-27.000000,-39.000000
1295656.201800,11.000000,1.000000,1.000000,-27.000000,1.000000,-21.000000,-98.000000,-35.000000
1295656.216485,28.000000,21.000000,17.000000,21.000000,-2.000000,15.000000,127.000000,75.000000
1295656.216495,-25.000000,-51.000000,-29.000000,-4.000000,-3.000000,20.000000,35.000000,-5.000000
1295656.247076,23.000000,20.000000,10.000000,17.000000,12.000000,-12.000000,-107.000000,-43.000000
1295656.247087,-11.000000,-23.000000,-15.000000,0.000000,9.000000,17.000000,57.000000,25.000000
1295656.247632,-4.000000,-5.000000,-13.000000,-3.000000,1.000000,-1.000000,-32.000000,-13.000000
1295656.247650,-10.000000,8.000000,5.000000,19.000000,18.000000,6.000000,-20.000000,-11.000000
1295656.248258,6.000000,-32.000000,-37.000000,-35.000000,-67.000000,-42.000000,-26.000000,-14.000000
1295656.248267,1.000000,3.000000,-1.000000,7.000000,1.000000,1.000000,-84.000000,-25.000000
1295656.249683,-4.000000,0.000000,4.000000,37.000000,25.000000,8.000000,62.000000,15.000000
1295656.249705,13.000000,10.000000,36.000000,27.000000,3.000000,14.000000,58.000000,21.000000
1295656.284123,18.000000,4.000000,-1.000000,-6.000000,8.000000,14.000000,71.000000,39.000000
1295656.284134,-26.000000,-61.000000,-45.000000,-37.000000,-6.000000,4.000000,-19.000000,-15.000000
1295656.285098,5.000000,51.000000,57.000000,66.000000,2.000000,-5.000000,-115.000000,-32.000000
1295656.285106,6.000000,-30.000000,-3.000000,6.000000,4.000000,9.000000,66.000000,29.000000
1295656.285610,-11.000000,-16.000000,-16.000000,-12.000000,-11.000000,-35.000000,46.000000,-3.000000
1295656.285618,12.000000,28.000000,-27.000000,-46.000000,-4.000000,-2.000000,-50.000000,-7.000000
1295656.291889,14.000000,-8.000000,14.000000,34.000000,-9.000000,-13.000000,-19.000000,-27.000000
1295656.291899,12.000000,22.000000,21.000000,5.000000,7.000000,-9.000000,0.000000,5.000000
1295656.306579,-25.000000,12.000000,-25.000000,-19.000000,-15.000000,-6.000000,-128.000000,-32.000000
1295656.306592,44.000000,20.000000,41.000000,3.000000,7.000000,33.000000,127.000000,113.000000
1295656.321461,1.000000,13.000000,30.000000,31.000000,18.000000,-10.000000,-80.000000,-18.000000
1295656.321484,-15.000000,-3.000000,-36.000000,-22.000000,-10.000000,-8.000000,-55.000000,-26.000000
1295656.329217,-17.000000,18.000000,-8.000000,-32.000000,-22.000000,1.000000,-46.000000,-26.000000
1295656.329227,37.000000,3.000000,11.000000,39.000000,9.000000,-16.000000,39.000000,3.000000
1295656.343989,-21.000000,-4.000000,-16.000000,-19.000000,1.000000,-6.000000,-18.000000,-1.000000
1295656.344012,11.000000,24.000000,-1.000000,6.000000,-7.000000,5.000000,-35.000000,0.000000
1295656.359096,13.000000,-2.000000,12.000000,-32.000000,-7.000000,-3.000000,-43.000000,-12.000000
1295656.359106,-8.000000,-17.000000,-3.000000,42.000000,16.000000,0.000000,100.000000,24.000000
1295656.374180,-12.000000,-34.000000,-7.000000,15.000000,-4.000000,-11.000000,-36.000000,-11.000000
1295656.374190,4.000000,28.000000,3.000000,-13.000000,-9.000000,-12.000000,-41.000000,-13.000000
1295656.404177,-15.000000,16.000000,-31.000000,-27.000000,-6.000000,-1.000000,-7.000000,-1.000000
1295656.404224,-9.000000,-3.000000,-6.000000,20.000000,-13.000000,-15.000000,-6.000000,-9.000000
1295656.404984,9.000000,11.000000,8.000000,-8.000000,0.000000,-2.000000,-24.000000,-24.000000
1295656.404993,-15.000000,-12.000000,-15.000000,-29.000000,-14.000000,-7.000000,-81.000000,-13.000000
1295656.405595,49.000000,32.000000,42.000000,11.000000,27.000000,32.000000,127.000000,64.000000
1295656.405604,-12.000000,1.000000,-7.000000,-20.000000,-10.000000,-9.000000,-39.000000,-11.000000
1295656.407062,2.000000,2.000000,-15.000000,-13.000000,-13.000000,-9.000000,-37.000000,-15.000000
1295656.407071,-37.000000,-63.000000,-23.000000,-22.000000,-21.000000,-6.000000,-95.000000,-25.000000
1295656.407901,-8.000000,5.000000,25.000000,34.000000,23.000000,11.000000,105.000000,8.000000
1295656.407910,-41.000000,-40.000000,-27.000000,-18.000000,-18.000000,-12.000000,-62.000000,-4.000000
1295656.411479,19.000000,24.000000,9.000000,-16.000000,-4.000000,4.000000,21.000000,9.000000
1295656.411489,9.000000,17.000000,18.000000,30.000000,5.000000,1.000000,-3.000000,-5.000000
1295656.418845,0.000000,8.000000,8.000000,-55.000000,-5.000000,7.000000,-59.000000,-18.000000
1295656.418854,-2.000000,1.000000,6.000000,40.000000,30.000000,10.000000,40.000000,9.000000
1295656.441501,-3.000000,7.000000,-8.000000,1.000000,-8.000000,9.000000,13.000000,3.000000
1295656.441512,18.000000,0.000000,16.000000,14.000000,12.000000,-5.000000,-76.000000,-1.000000
1295656.449006,-1.000000,-30.000000,-26.000000,-17.000000,-3.000000,4.000000,31.000000,-2.000000
1295656.449016,23.000000,43.000000,55.000000,78.000000,18.000000,-8.000000,60.000000,20.000000
1295656.471858,-2.000000,-14.000000,-40.000000,-10.000000,-9.000000,-5.000000,-26.000000,-7.000000
1295656.471871,16.000000,-28.000000,5.000000,0.000000,7.000000,-6.000000,-23.000000,-9.000000
1295656.479179,-22.000000,14.000000,-47.000000,-51.000000,-27.000000,-7.000000,-32.000000,-23.000000
1295656.479192,-31.000000,14.000000,26.000000,40.000000,19.000000,27.000000,79.000000,54.000000
1295656.494154,18.000000,17.000000,-21.000000,-11.000000,-5.000000,-7.000000,47.000000,-23.000000
1295656.494184,-12.000000,-2.000000,-29.000000,-57.000000,-16.000000,-2.000000,-56.000000,0.000000
1295656.501621,1.000000,1.000000,4.000000,19.000000,-8.000000,-30.000000,48.000000,13.000000
1295656.501634,6.000000,2.000000,-9.000000,-5.000000,3.000000,-4.000000,-45.000000,-22.000000
1295656.531520,0.000000,-18.000000,-39.000000,-17.000000,-11.000000,-20.000000,-33.000000,-13.000000
1295656.531536,-14.000000,0.000000,20.000000,20.000000,-9.000000,-10.000000,-15.000000,0.000000
1295656.561903,9.000000,-7.000000,5.000000,10.000000,9.000000,18.000000,87.000000,7.000000
1295656.561932,-17.000000,-42.000000,-17.000000,-10.000000,-8.000000,2.000000,-20.000000,7.000000
1295656.599015,27.000000,45.000000,32.000000,49.000000,25.000000,12.000000,32.000000,5.000000
1295656.599031,-19.000000,-23.000000,-23.000000,-25.000000,0.000000,0.000000,-18.000000,-5.000000
1295656.599422,-7.000000,-13.000000,-9.000000,-1.000000,15.000000,0.000000,-37.000000,-10.000000
1295656.599430,-26.000000,-10.000000,-12.000000,-3.000000,-15.000000,-9.000000,-57.000000,-33.000000
1295656.600564,-31.000000,-47.000000,-43.000000,-42.000000,-7.000000,-17.000000,-73.000000,-46.000000
1295656.600573,-18.000000,-8.000000,0.000000,24.000000,27.000000,-22.000000,11.000000,-11.000000
1295656.601233,11.000000,17.000000,-11.000000,-44.000000,-7.000000,20.000000,-5.000000,22.000000
1295656.601242,-36.000000,-19.000000,-7.000000,3.000000,9.000000,5.000000,48.000000,-29.000000
1295656.601809,-4.000000,24.000000,-33.000000,-42.000000,24.000000,29.000000,-1.000000,0.000000
1295656.601817,-4.000000,-41.000000,19.000000,9.000000,-74.000000,-45.000000,-13.000000,-3.000000
1295656.606332,27.000000,0.000000,-12.000000,-10.000000,-6.000000,-6.000000,7.000000,18.000000
1295656.606360,-11.000000,-6.000000,8.000000,8.000000,5.000000,-1.000000,32.000000,18.000000
1295656.636444,19.000000,13.000000,-4.000000,0.000000,29.000000,10.000000,-79.000000,-17.000000
1295656.636455,-19.000000,-10.000000,-51.000000,-57.000000,-77.000000,-37.000000,69.000000,3.000000
1295656.637525,42.000000,47.000000,70.000000,122.000000,53.000000,60.000000,-4.000000,17.000000
1295656.637535,-21.000000,-13.000000,-10.000000,6.000000,-2.000000,-5.000000,-25.000000,-29.000000
1295656.638357,14.000000,-13.000000,11.000000,19.000000,15.000000,13.000000,16.000000,23.000000
1295656.638365,-45.000000,-15.000000,-19.000000,-38.000000,-25.000000,-11.000000,-11.000000,-19.000000
1295656.651909,42.000000,9.000000,-4.000000,9.000000,18.000000,12.000000,58.000000,33.000000
1295656.651938,-6.000000,-13.000000,-10.000000,61.000000,5.000000,-5.000000,-22.000000,-17.000000
1295656.659161,31.000000,23.000000,-4.000000,-68.000000,-13.000000,-3.000000,-15.000000,-8.000000
1295656.659189,7.000000,-4.000000,-1.000000,14.000000,-7.000000,-7.000000,-25.000000,0.000000
1295656.689018,-1.000000,9.000000,29.000000,18.000000,22.000000,14.000000,-23.000000,-8.000000
1295656.689037,-16.000000,-23.000000,-58.000000,-58.000000,-64.000000,-28.000000,24.000000,-20.000000
1295656.696717,-16.000000,35.000000,54.000000,56.000000,25.000000,5.000000,19.000000,15.000000
1295656.696745,34.000000,-1.000000,-3.000000,-8.000000,4.000000,4.000000,-71.000000,-11.000000
1295656.726421,6.000000,-21.000000,-28.000000,-25.000000,6.000000,13.000000,-59.000000,7.000000
1295656.726431,17.000000,-1.000000,17.000000,19.000000,19.000000,34.000000,127.000000,60.000000
1295656.734041,-6.000000,-21.000000,-18.000000,-20.000000,-3.000000,0.000000,-62.000000,-13.000000
1295656.734058,-29.000000,-44.000000,-20.000000,-5.000000,-8.000000,-8.000000,-39.000000,-27.000000
1295656.749319,11.000000,24.000000,11.000000,-12.000000,2.000000,-9.000000,-44.000000,-17.000000
1295656.749348,2.000000,2.000000,-29.000000,-5.000000,-14.000000,-6.000000,-6.000000,2.000000
1295656.756896,-3.000000,16.000000,106.000000,87.000000,19.000000,15.000000,77.000000,21.000000
1295656.756927,14.000000,6.000000,-15.000000,-10.000000,5.000000,-5.000000,-17.000000,-5.000000
1295656.771412,-8.000000,-18.000000,-29.000000,-21.000000,-8.000000,13.000000,119.000000,30.000000
1295656.771425,35.000000,4.000000,-13.000000,-3.000000,5.000000,4.000000,54.000000,38.000000
1295656.772634,16.000000,15.000000,3.000000,-12.000000,-8.000000,-15.000000,-66.000000,-21.000000
1295656.772653,-41.000000,-18.000000,5.000000,-3.000000,15.000000,6.000000,15.000000,-9.000000
1295656.773099,10.000000,-1.000000,-21.000000,-16.000000,-34.000000,-13.000000,-68.000000,-9.000000
1295656.773108,3.000000,6.000000,5.000000,10.000000,3.000000,-7.000000,28.000000,-1.000000
1295656.774739,3.000000,11.000000,-27.000000,-73.000000,-15.000000,3.000000,-72.000000,-27.000000
1295656.774748,-19.000000,-14.000000,-5.000000,-3.000000,-18.000000,-11.000000,80.000000,26.000000
1295656.801768,32.000000,27.000000,11.000000,38.000000,8.000000,-26.000000,3.000000,12.000000
1295656.801779,-1.000000,-7.000000,-26.000000,-18.000000,-18.000000,-14.000000,-38.000000,-17.000000
1295656.839095,-1.000000,-1.000000,-25.000000,-67.000000,11.000000,8.000000,-20.000000,-9.000000
1295656.839125,-18.000000,32.000000,62.000000,48.000000,8.000000,18.000000,10.000000,0.000000
1295656.846781,1.000000,-13.000000,2.000000,18.000000,9.000000,12.000000,6.000000,-1.000000
1295656.846792,-28.000000,-39.000000,-35.000000,-61.000000,-27.000000,-17.000000,-24.000000,-16.000000
1295656.876668,-11.000000,-1.000000,-31.000000,-59.000000,-17.000000,-20.000000,-23.000000,-13.000000
1295656.876686,6.000000,16.000000,20.000000,4.000000,-15.000000,-15.000000,28.000000,0.000000
1295656.877040,-13.000000,-35.000000,2.000000,-11.000000,-20.000000,-10.000000,6.000000,-3.000000
1295656.877068,3.000000,18.000000,-14.000000,-49.000000,-18.000000,-5.000000,-14.000000,-4.000000
1295656.878104,2.000000,12.000000,-50.000000,42.000000,0.000000,1.000000,-7.000000,-2.000000
1295656.878113,18.000000,0.000000,54.000000,-11.000000,3.000000,-2.000000,9.000000,6.000000
1295656.878741,-8.000000,0.000000,29.000000,-11.000000,15.000000,21.000000,-58.000000,-24.000000
1295656.878749,12.000000,-8.000000,-95.000000,-45.000000,7.000000,4.000000,127.000000,35.000000
1295656.880392,0.000000,5.000000,5.000000,19.000000,-11.000000,-22.000000,-35.000000,-9.000000
1295656.880400,-18.000000,-43.000000,-37.000000,-12.000000,6.000000,9.000000,14.000000,-3.000000
1295656.899169,-6.000000,16.000000,-1.000000,-33.000000,-20.000000,-12.000000,-40.000000,-12.000000
1295656.899262,-1.000000,-1.000000,-3.000000,7.000000,-10.000000,-25.000000,-27.000000,-26.000000
1295656.899923,12.000000,20.000000,6.000000,28.000000,6.000000,5.000000,-16.000000,0.000000
1295656.899931,10.000000,-14.000000,40.000000,30.000000,12.000000,5.000000,91.000000,41.000000
1295656.929121,-14.000000,-10.000000,-34.000000,-60.000000,-6.000000,13.000000,-46.000000,-6.000000
1295656.929156,-28.000000,-32.000000,-15.000000,-37.000000,-5.000000,-4.000000,52.000000,-21.000000
1295656.951659,38.000000,5.000000,-16.000000,-6.000000,-32.000000,-34.000000,-86.000000,-10.000000
1295656.951689,-4.000000,9.000000,18.000000,-9.000000,4.000000,12.000000,79.000000,6.000000
1295656.966508,0.000000,-32.000000,-8.000000,21.000000,-6.000000,8.000000,-10.000000,12.000000
1295656.966529,8.000000,12.000000,4.000000,-14.000000,-1.000000,6.000000,-3.000000,8.000000
1295656.974029,12.000000,-7.000000,-11.000000,-1.000000,4.000000,-10.000000,-4.000000,-5.000000
1295656.974042,-1.000000,3.000000,-15.000000,-32.000000,-5.000000,-4.000000,-9.000000,1.000000
1295657.003841,4.000000,-14.000000,-2.000000,30.000000,6.000000,9.000000,0.000000,-2.000000
1295657.003850,-2.000000,-27.000000,15.000000,36.000000,4.000000,-1.000000,-8.000000,3.000000
1295657.011506,1.000000,9.000000,-20.000000,-31.000000,-1.000000,-2.000000,25.000000,10.000000
1295657.011525,-13.000000,-7.000000,40.000000,60.000000,12.000000,10.000000,-5.000000,-9.000000
1295657.011871,14.000000,0.000000,-5.000000,-45.000000,2.000000,-5.000000,-17.000000,1.000000
1295657.011880,18.000000,54.000000,-1.000000,-16.000000,-37.000000,-14.000000,-37.000000,3.000000
1295657.012427,-8.000000,18.000000,6.000000,-5.000000,7.000000,14.000000,63.000000,3.000000
1295657.012436,-18.000000,2.000000,-17.000000,-2.000000,-26.000000,-21.000000,3.000000,0.000000
1295657.013788,34.000000,-11.000000,-7.000000,-38.000000,-5.000000,19.000000,4.000000,7.000000
1295657.013796,-31.000000,43.000000,-6.000000,-48.000000,-30.000000,-25.000000,-37.000000,-26.000000
1295657.014642,6.000000,-7.000000,12.000000,-11.000000,-4.000000,5.000000,-25.000000,-16.000000
1295657.014674,12.000000,6.000000,-12.000000,46.000000,2.000000,-13.000000,-17.000000,1.000000
1295657.034321,-28.000000,-28.000000,53.000000,56.000000,30.000000,15.000000,-21.000000,-4.000000
1295657.034349,9.000000,43.000000,-7.000000,-4.000000,-18.000000,-17.000000,-7.000000,-13.000000
1295657.042350,-6.000000,1.000000,13.000000,1.000000,15.000000,15.000000,9.000000,14.000000
1295657.042387,34.000000,25.000000,-12.000000,-7.000000,-16.000000,-3.000000,49.000000,21.000000
1295657.064049,-6.000000,-4.000000,3.000000,3.000000,8.000000,0.000000,-12.000000,-7.000000
1295657.064087,-3.000000,-14.000000,-22.000000,-33.000000,-27.000000,-8.000000,-27.000000,-15.000000
1295657.079204,13.000000,30.000000,-2.000000,34.000000,14.000000,9.000000,-56.000000,-11.000000
1295657.079214,-6.000000,-16.000000,28.000000,14.000000,-2.000000,-2.000000,42.000000,1.000000
1295657.101450,4.000000,15.000000,-14.000000,-29.000000,4.000000,-4.000000,35.000000,9.000000
1295657.101470,-4.000000,13.000000,-3.000000,-24.000000,-18.000000,-13.000000,-28.000000,-16.000000
1295657.116644,47.000000,12.000000,30.000000,23.000000,9.000000,20.000000,8.000000,35.000000
1295657.116668,-5.000000,-11.000000,-43.000000,-33.000000,2.000000,6.000000,47.000000,7.000000
1295657.131617,-10.000000,21.000000,37.000000,126.000000,29.000000,-5.000000,-35.000000,-14.000000
1295657.131630,-2.000000,-24.000000,-5.000000,-11.000000,1.000000,4.000000,7.000000,2.000000
1295657.139071,4.000000,-1.000000,-1.000000,0.000000,9.000000,3.000000,7.000000,0.000000
1295657.139082,-10.000000,0.000000,-28.000000,-17.000000,-8.000000,-5.000000,-34.000000,-17.000000
1295657.154476,55.000000,18.000000,31.000000,-26.000000,7.000000,15.000000,24.000000,16.000000
1295657.154518,-14.000000,-34.000000,9.000000,26.000000,30.000000,11.000000,-33.000000,5.000000
1295657.155655,7.000000,-4.000000,-17.000000,-12.000000,-2.000000,-11.000000,-45.000000,-27.000000
1295657.155664,-19.000000,-20.000000,-48.000000,-35.000000,-21.000000,-14.000000,-39.000000,-32.000000
1295657.157311,7.000000,-16.000000,-4.000000,6.000000,-11.000000,-20.000000,-10.000000,-7.000000
1295657.157321,-14.000000,-4.000000,-21.000000,-36.000000,-8.000000,-9.000000,9.000000,-1.000000
1295657.162067,6.000000,26.000000,-13.000000,-5.000000,-3.000000,-1.000000,-26.000000,-24.000000
1295657.162077,-24.000000,-71.000000,0.000000,-1.000000,-12.000000,-29.000000,-41.000000,-15.000000
1295657.169225,8.000000,34.000000,14.000000,23.000000,20.000000,23.000000,36.000000,40.000000
1295657.169235,2.000000,1.000000,-9.000000,-13.000000,1.000000,-2.000000,46.000000,6.000000
1295657.191472,-41.000000,-88.000000,-24.000000,-69.000000,-35.000000,-28.000000,-59.000000,-43.000000
1295657.191482,2.000000,-11.000000,-10.000000,-6.000000,28.000000,14.000000,-2.000000,7.000000
1295657.192031,1.000000,-17.000000,-22.000000,-9.000000,-7.000000,-5.000000,27.000000,31.000000
1295657.192040,45.000000,77.000000,64.000000,59.000000,29.000000,23.000000,8.000000,11.000000
1295657.199624,2.000000,-12.000000,-1.000000,-36.000000,-21.000000,-2.000000,41.000000,14.000000
1295657.199643,-21.000000,-33.000000,-19.000000,-17.000000,-7.000000,-7.000000,-18.000000,-22.000000
1295657.215064,-14.000000,34.000000,-30.000000,-24.000000,-15.000000,-20.000000,-41.000000,-24.000000
1295657.215093,10.000000,-14.000000,35.000000,-60.000000,-30.000000,-21.000000,-25.000000,-11.000000
1295657.236484,-35.000000,-21.000000,0.000000,17.000000,28.000000,12.000000,-13.000000,-6.000000
1295657.236494,10.000000,15.000000,-12.000000,7.000000,-1.000000,-5.000000,12.000000,29.000000
1295657.237146,28.000000,52.000000,-13.000000,-38.000000,-6.000000,6.000000,-4.000000,-37.000000
1295657.237158,-29.000000,-44.000000,21.000000,54.000000,4.000000,-7.000000,-36.000000,-18.000000
1295657.244595,-29.000000,-90.000000,-24.000000,-30.000000,-11.000000,-5.000000,26.000000,4.000000
1295657.244605,-4.000000,26.000000,8.000000,8.000000,10.000000,-5.000000,-18.000000,7.000000
1295657.251492,-11.000000,-27.000000,-43.000000,-4.000000,-2.000000,18.000000,5.000000,-13.000000
1295657.251510,9.000000,69.000000,54.000000,-21.000000,-30.000000,-57.000000,-37.000000,-8.000000
1295657.281587,-11.000000,-2.000000,-5.000000,23.000000,-10.000000,8.000000,72.000000,4.000000
1295657.281602,34.000000,-1.000000,-13.000000,-8.000000,5.000000,27.000000,17.000000,32.000000
1295657.289260,-21.000000,-34.000000,-32.000000,-9.000000,-15.000000,-24.000000,-51.000000,-26.000000
1295657.289274,0.000000,31.000000,37.000000,1.000000,-4.000000,8.000000,-5.000000,-11.000000
1295657.311678,11.000000,25.000000,36.000000,90.000000,35.000000,16.000000,23.000000,18.000000
1295657.311707,-9.000000,-7.000000,-4.000000,3.000000,-3.000000,-3.000000,-12.000000,-10.000000
1295657.319346,14.000000,1.000000,-7.000000,11.000000,2.000000,-1.000000,-25.000000,4.000000
1295657.319379,13.000000,58.000000,18.000000,-45.000000,-23.000000,-5.000000,19.000000,-5.000000
1295657.341684,-25.000000,-53.000000,-7.000000,-2.000000,18.000000,11.000000,3.000000,-2.000000
1295657.341694,-26.000000,-12.000000,3.000000,3.000000,-13.000000,-18.000000,-74.000000,-35.000000
1295657.356461,12.000000,-2.000000,-29.000000,-33.000000,-8.000000,12.000000,41.000000,25.000000
1295657.356484,2.000000,5.000000,18.000000,-31.000000,10.000000,17.000000,72.000000,37.000000
1295657.379133,-18.000000,-8.000000,-18.000000,-18.000000,-14.000000,-10.000000,-44.000000,-24.000000
1295657.379144,-3.000000,-8.000000,-9.000000,-12.000000,-5.000000,0.000000,4.000000,8.000000
1295657.394141,-12.000000,10.000000,-7.000000,-5.000000,-8.000000,-5.000000,-48.000000,-26.000000
1295657.394187,5.000000,6.000000,-14.000000,7.000000,-16.000000,-31.000000,-6.000000,-13.000000
1295657.395162,1.000000,-8.000000,-1.000000,28.000000,10.000000,12.000000,47.000000,29.000000
1295657.395180,13.000000,36.000000,12.000000,-3.000000,-1.000000,4.000000,-21.000000,-10.000000
1295657.396529,5.000000,-37.000000,-3.000000,13.000000,11.000000,8.000000,46.000000,13.000000
1295657.396566,-8.000000,10.000000,-15.000000,-23.000000,-12.000000,-16.000000,-23.000000,-12.000000
1295657.397913,38.000000,-3.000000,19.000000,18.000000,4.000000,19.000000,126.000000,41.000000
1295657.397924,-17.000000,-15.000000,-28.000000,-8.000000,0.000000,8.000000,-28.000000,-14.000000
1295657.402182,16.000000,8.000000,-49.000000,-35.000000,-11.000000,-9.000000,3.000000,-14.000000
1295657.402191,1.000000,1.000000,37.000000,40.000000,22.000000,7.000000,18.000000,24.000000
1295657.417128,-10.000000,20.000000,-17.000000,-8.000000,-8.000000,-16.000000,-24.000000,-9.000000
1295657.417145,7.000000,25.000000,-14.000000,-7.000000,0.000000,-5.000000,-35.000000,-5.000000
1295657.431861,-33.000000,-12.000000,14.000000,33.000000,3.000000,7.000000,15.000000,-12.000000
1295657.431871,-2.000000,17.000000,-4.000000,16.000000,7.000000,10.000000,-24.000000,11.000000
1295657.432653,22.000000,25.000000,20.000000,12.000000,9.000000,7.000000,50.000000,22.000000
1295657.432662,-11.000000,-24.000000,-26.000000,-32.000000,-26.000000,-12.000000,-24.000000,-18.000000
1295657.439646,-14.000000,-5.000000,22.000000,-14.000000,-10.000000,-11.000000,-24.000000,-21.000000
1295657.439666,1.000000,10.000000,-12.000000,-21.000000,-5.000000,-6.000000,-43.000000,1.000000
1295657.469020,-2.000000,-31.000000,-24.000000,-88.000000,-36.000000,-1.000000,73.000000,5.000000
1295657.469030,-9.000000,-19.000000,-1.000000,12.000000,8.000000,-2.000000,-9.000000,2.000000
1295657.483949,-9.000000,15.000000,4.000000,22.000000,20.000000,-5.000000,-44.000000,-24.000000
1295657.483964,2.000000,-19.000000,-60.000000,-71.000000,-63.000000,-33.000000,-36.000000,-16.000000
1295657.506766,7.000000,8.000000,65.000000,118.000000,61.000000,44.000000,120.000000,48.000000
1295657.506779,-12.000000,-14.000000,-10.000000,-16.000000,1.000000,-3.000000,-14.000000,-9.000000
1295657.521552,27.000000,6.000000,0.000000,-6.000000,-7.000000,-1.000000,-13.000000,-7.000000
1295657.521564,-34.000000,8.000000,-9.000000,-9.000000,-8.000000,-6.000000,-25.000000,-9.000000
1295657.551749,12.000000,10.000000,-46.000000,-4.000000,-5.000000,-7.000000,2.000000,-6.000000
1295657.551779,41.000000,46.000000,101.000000,44.000000,12.000000,1.000000,-40.000000,1.000000
1295657.559430,6.000000,10.000000,11.000000,17.000000,13.000000,11.000000,54.000000,33.000000
1295657.559452,-9.000000,-24.000000,-29.000000,-10.000000,1.000000,-12.000000,-34.000000,-10.000000
1295657.559990,-25.000000,-1.000000,-14.000000,-70.000000,-38.000000,-10.000000,-79.000000,-43.000000
1295657.560012,34.000000,60.000000,13.000000,19.000000,10.000000,17.000000,93.000000,42.000000
1295657.561434,-6.000000,-6.000000,-13.000000,-5.000000,-12.000000,-13.000000,-26.000000,-22.000000
1295657.561451,-42.000000,-32.000000,-18.000000,6.000000,1.000000,-3.000000,-113.000000,-11.000000
1295657.581331,6.000000,9.000000,-25.000000,-25.000000,4.000000,10.000000,-26.000000,-17.000000
1295657.581344,4.000000,-6.000000,-14.000000,10.000000,-22.000000,-6.000000,23.000000,14.000000
1295657.582630,1.000000,-2.000000,25.000000,13.000000,-11.000000,6.000000,46.000000,19.000000
1295657.582638,-6.000000,-16.000000,-13.000000,-7.000000,9.000000,0.000000,-27.000000,-13.000000
1295657.589394,13.000000,-1.000000,-27.000000,13.000000,-11.000000,-7.000000,-5.000000,-5.000000
1295657.589426,0.000000,62.000000,69.000000,61.000000,33.000000,20.000000,9.000000,4.000000
1295657.619003,-22.000000,-25.000000,-13.000000,2.000000,-17.000000,-16.000000,-20.000000,-9.000000
1295657.619013,32.000000,7.000000,-9.000000,-6.000000,10.000000,17.000000,13.000000,-18.000000
1295657.634328,-39.000000,8.000000,9.000000,-55.000000,-43.000000,-45.000000,-67.000000,-8.000000
1295657.634357,37.000000,0.000000,8.000000,38.000000,24.000000,11.000000,75.000000,25.000000
1295657.656899,1.000000,-8.000000,14.000000,-2.000000,59.000000,38.000000,-10.000000,-5.000000
1295657.656939,-42.000000,-43.000000,-94.000000,8.000000,-128.000000,-114.000000,-16.000000,-63.000000
1295657.671569,21.000000,54.000000,75.000000,-18.000000,16.000000,24.000000,-37.000000,31.000000
1295657.671579,34.000000,-14.000000,24.000000,30.000000,16.000000,31.000000,121.000000,48.000000
1295657.694153,-34.000000,-106.000000,-32.000000,-17.000000,-11.000000,-11.000000,-41.000000,-15.000000
1295657.694182,-23.000000,2.000000,-32.000000,-34.000000,-1.000000,-11.000000,-58.000000,-40.000000
1295657.694591,12.000000,23.000000,30.000000,50.000000,9.000000,1.000000,12.000000,8.000000
1295657.694600,13.000000,-32.000000,7.000000,-12.000000,9.000000,12.000000,0.000000,3.000000
1295657.716786,-30.000000,9.000000,-13.000000,9.000000,-12.000000,-23.000000,-35.000000,-16.000000
1295657.716804,-7.000000,-10.000000,8.000000,36.000000,21.000000,11.000000,21.000000,8.000000
1295657.723993,-14.000000,-2.000000,-9.000000,-2.000000,-5.000000,-6.000000,-27.000000,-20.000000
1295657.724004,17.000000,16.000000,-2.000000,-58.000000,-27.000000,-12.000000,1.000000,6.000000
1295657.731831,-30.000000,-84.000000,-45.000000,-23.000000,-9.000000,-5.000000,-15.000000,-18.000000
1295657.731859,22.000000,40.000000,29.000000,57.000000,24.000000,8.000000,-9.000000,-3.000000
1295657.754109,15.000000,-7.000000,-11.000000,-16.000000,-1.000000,11.000000,34.000000,13.000000
1295657.754179,-39.000000,-42.000000,-64.000000,-29.000000,6.000000,-10.000000,-62.000000,-12.000000
1295657.761368,27.000000,40.000000,91.000000,26.000000,18.000000,10.000000,13.000000,-1.000000
1295657.761380,5.000000,2.000000,2.000000,5.000000,-14.000000,-7.000000,44.000000,26.000000
1295657.798986,-31.000000,-11.000000,-21.000000,-4.000000,2.000000,3.000000,-19.000000,-14.000000
1295657.799015,38.000000,30.000000,32.000000,6.000000,-3.000000,-18.000000,-21.000000,-6.000000
1295657.829295,-27.000000,-31.000000,24.000000,13.000000,-10.000000,-7.000000,-11.000000,-11.000000
1295657.829307,3.000000,11.000000,-3.000000,-20.000000,0.000000,0.000000,8.000000,14.000000
1295657.844219,-12.000000,-53.000000,-46.000000,-3.000000,-11.000000,-12.000000,13.000000,-11.000000
1295657.844236,0.000000,39.000000,-3.000000,-26.000000,-6.000000,1.000000,-2.000000,-7.000000
1295657.858855,9.000000,33.000000,-11.000000,-10.000000,-5.000000,-9.000000,-27.000000,-17.000000
1295657.858865,-36.000000,-76.000000,47.000000,-7.000000,4.000000,4.000000,-3.000000,-4.000000
1295657.874191,2.000000,-1.000000,-1.000000,-5.000000,10.000000,12.000000,16.000000,11.000000
1295657.874221,18.000000,16.000000,11.000000,8.000000,7.000000,8.000000,17.000000,8.000000
1295657.874986,9.000000,15.000000,-5.000000,31.000000,15.000000,18.000000,52.000000,27.000000
1295657.874994,-47.000000,-4.000000,5.000000,23.000000,-3.000000,-23.000000,-27.000000,-34.000000
1295657.877002,-14.000000,-21.000000,-2.000000,-29.000000,-13.000000,-11.000000,-42.000000,-7.000000
1295657.877013,-1.000000,-1.000000,-11.000000,1.000000,13.000000,8.000000,12.000000,2.000000
1295657.882157,-1.000000,2.000000,11.000000,24.000000,1.000000,-14.000000,-30.000000,-14.000000
1295657.882167,-1.000000,24.000000,20.000000,19.000000,-6.000000,-5.000000,-23.000000,-10.000000
1295657.896678,1.000000,-10.000000,3.000000,21.000000,14.000000,11.000000,46.000000,10.000000
1295657.896710,-2.000000,-3.000000,6.000000,11.000000,7.000000,8.000000,29.000000,23.000000
1295657.911547,-12.000000,-35.000000,-42.000000,-38.000000,-8.000000,-16.000000,-28.000000,-28.000000
1295657.911562,-31.000000,-36.000000,0.000000,-50.000000,-12.000000,-18.000000,-95.000000,-10.000000
1295657.912156,18.000000,19.000000,28.000000,60.000000,24.000000,19.000000,108.000000,25.000000
1295657.912165,-34.000000,-36.000000,-20.000000,-23.000000,-22.000000,-17.000000,-29.000000,-15.000000
1295657.948994,0.000000,-14.000000,-27.000000,-11.000000,-1.000000,-14.000000,-99.000000,-40.000000
1295657.949007,29.000000,-6.000000,45.000000,-7.000000,-12.000000,2.000000,115.000000,51.000000
1295657.949460,-8.000000,-24.000000,-8.000000,12.000000,9.000000,2.000000,12.000000,0.000000
1295657.949481,-23.000000,-36.000000,-16.000000,-14.000000,-8.000000,-14.000000,-65.000000,-24.000000
1295657.950816,17.000000,18.000000,-14.000000,-28.000000,-6.000000,-1.000000,18.000000,14.000000
1295657.950825,0.000000,1.000000,14.000000,41.000000,14.000000,7.000000,0.000000,-3.000000
1295657.956561,-1.000000,20.000000,35.000000,12.000000,3.000000,11.000000,1.000000,1.000000
1295657.956580,-4.000000,-40.000000,-38.000000,-1.000000,-12.000000,-10.000000,-76.000000,-22.000000
1295657.994197,17.000000,53.000000,27.000000,76.000000,30.000000,9.000000,74.000000,19.000000
1295657.994210,-25.000000,-52.000000,-37.000000,-16.000000,-1.000000,9.000000,34.000000,9.000000
1295658.001381,4.000000,-41.000000,29.000000,-5.000000,10.000000,9.000000,-2.000000,7.000000
1295658.001391,14.000000,34.000000,0.000000,-1.000000,3.000000,5.000000,-10.000000,-11.000000
1295658.024513,5.000000,-17.000000,3.000000,-11.000000,-15.000000,-7.000000,-11.000000,10.000000
1295658.024601,8.000000,23.000000,-9.000000,-37.000000,-2.000000,12.000000,13.000000,-9.000000
1295658.031383,-11.000000,-5.000000,24.000000,12.000000,-12.000000,-8.000000,-51.000000,-17.000000
1295658.031392,5.000000,-2.000000,-10.000000,19.000000,15.000000,14.000000,98.000000,32.000000
1295658.061910,-7.000000,-34.000000,0.000000,31.000000,6.000000,5.000000,9.000000,4.000000
1295658.061938,-3.000000,10.000000,-9.000000,-8.000000,-4.000000,-9.000000,-35.000000,-14.000000
1295658.069140,-1.000000,39.000000,-18.000000,-8.000000,-2.000000,-3.000000,-6.000000,-7.000000
1295658.069169,23.000000,29.000000,31.000000,26.000000,8.000000,1.000000,-15.000000,-8.000000
1295658.070137,29.000000,0.000000,13.000000,36.000000,6.000000,3.000000,1.000000,11.000000
1295658.070165,-1.000000,20.000000,7.000000,1.000000,-6.000000,-10.000000,-46.000000,-19.000000
1295658.071390,-4.000000,-11.000000,-20.000000,7.000000,3.000000,2.000000,23.000000,9.000000
1295658.071399,17.000000,3.000000,9.000000,-8.000000,-10.000000,-1.000000,6.000000,2.000000
1295658.072531,-20.000000,-1.000000,-6.000000,6.000000,8.000000,-6.000000,-6.000000,-10.000000
1295658.072543,10.000000,26.000000,-13.000000,3.000000,11.000000,4.000000,-26.000000,6.000000
1295658.076537,-58.000000,-25.000000,-27.000000,-23.000000,-25.000000,-13.000000,23.000000,-1.000000
1295658.076550,3.000000,-12.000000,4.000000,-3.000000,12.000000,9.000000,2.000000,14.000000
1295658.106596,28.000000,34.000000,14.000000,35.000000,15.000000,1.000000,-42.000000,-15.000000
1295658.106609,-41.000000,-33.000000,2.000000,-11.000000,-13.000000,-2.000000,19.000000,5.000000
1295658.114174,36.000000,54.000000,5.000000,0.000000,5.000000,1.000000,9.000000,1.000000
1295658.114186,-24.000000,-2.000000,-4.000000,8.000000,-2.000000,-1.000000,-23.000000,-19.000000
1295658.136477,10.000000,-3.000000,-11.000000,-37.000000,-10.000000,-6.000000,-36.000000,-7.000000
1295658.136488,-4.000000,-6.000000,29.000000,67.000000,26.000000,15.000000,58.000000,23.000000
1295658.143831,-22.000000,7.000000,-8.000000,-16.000000,-2.000000,3.000000,18.000000,-10.000000
1295658.143861,-10.000000,-23.000000,-26.000000,-36.000000,-14.000000,-6.000000,-19.000000,-16.000000
1295658.144865,-10.000000,-7.000000,6.000000,11.000000,-15.000000,-24.000000,-11.000000,-6.000000
1295658.144892,2.000000,-40.000000,-17.000000,3.000000,4.000000,9.000000,9.000000,-1.000000
1295658.145517,-6.000000,25.000000,13.000000,-17.000000,-9.000000,-3.000000,-11.000000,-12.000000
1295658.145525,7.000000,-17.000000,18.000000,16.000000,7.000000,10.000000,22.000000,-1.000000
1295658.147060,-21.000000,-4.000000,-30.000000,-20.000000,-31.000000,-12.000000,-32.000000,-16.000000
1295658.147087,-15.000000,0.000000,35.000000,-83.000000,4.000000,16.000000,53.000000,18.000000
1295658.151341,-16.000000,-49.000000,-56.000000,-52.000000,-32.000000,-23.000000,-39.000000,-13.000000
1295658.151351,24.000000,15.000000,35.000000,12.000000,1.000000,-19.000000,5.000000,13.000000
1295658.188939,-10.000000,16.000000,8.000000,23.000000,17.000000,11.000000,20.000000,-3.000000
1295658.188949,-3.000000,4.000000,-21.000000,-32.000000,-19.000000,-13.000000,-25.000000,-16.000000
1295658.196760,-32.000000,-1.000000,-5.000000,-5.000000,7.000000,7.000000,-82.000000,-17.000000
1295658.196774,5.000000,41.000000,-5.000000,8.000000,2.000000,10.000000,94.000000,24.000000
1295658.197678,2.000000,19.000000,28.000000,20.000000,4.000000,-10.000000,-16.000000,-9.000000
1295658.197688,6.000000,-14.000000,1.000000,-3.000000,6.000000,1.000000,-35.000000,-12.000000
1295658.198399,-10.000000,-38.000000,-20.000000,-9.000000,-27.000000,-15.000000,-2.000000,-1.000000
1295658.198409,10.000000,20.000000,25.000000,4.000000,3.000000,0.000000,-24.000000,4.000000
1295658.234008,-22.000000,-22.000000,3.000000,-12.000000,3.000000,2.000000,5.000000,-6.000000
1295658.234028,-8.000000,-17.000000,-20.000000,22.000000,13.000000,8.000000,59.000000,9.000000
1295658.249328,27.000000,33.000000,-15.000000,-33.000000,14.000000,5.000000,-10.000000,11.000000
1295658.249357,39.000000,10.000000,16.000000,-4.000000,-32.000000,-25.000000,-28.000000,-1.000000
1295658.263953,-48.000000,-46.000000,-19.000000,-3.000000,-8.000000,-9.000000,5.000000,-11.000000
1295658.263962,2.000000,-1.000000,-15.000000,-42.000000,-23.000000,-4.000000,-15.000000,-12.000000
1295658.271584,-9.000000,-46.000000,-14.000000,18.000000,18.000000,7.000000,-16.000000,-5.000000
1295658.271601,15.000000,50.000000,11.000000,-21.000000,-22.000000,1.000000,58.000000,32.000000
1295658.286295,-13.000000,-54.000000,-13.000000,4.000000,2.000000,-8.000000,-4.000000,-13.000000
1295658.286305,-5.000000,8.000000,-7.000000,-1.000000,-6.000000,1.000000,-74.000000,-13.000000
1295658.286907,-5.000000,-63.000000,-10.000000,16.000000,8.000000,2.000000,87.000000,33.000000
1295658.286915,-36.000000,-24.000000,1.000000,-32.000000,-14.000000,-7.000000,-47.000000,-28.000000
1295658.301957,-29.000000,-20.000000,-14.000000,-33.000000,-24.000000,-18.000000,-29.000000,-14.000000
1295658.301966,2.000000,2.000000,-15.000000,-11.000000,-7.000000,-3.000000,-1.000000,-10.000000
1295658.303437,0.000000,15.000000,-8.000000,-1.000000,4.000000,3.000000,-58.000000,-11.000000
1295658.303465,4.000000,4.000000,13.000000,36.000000,14.000000,14.000000,18.000000,0.000000
1295658.304014,20.000000,25.000000,32.000000,36.000000,25.000000,15.000000,72.000000,37.000000
1295658.304025,1.000000,-13.000000,-46.000000,-38.000000,-10.000000,-11.000000,-9.000000,-1.000000
1295658.305807,6.000000,-49.000000,-5.000000,30.000000,-10.000000,-25.000000,-75.000000,-8.000000
1295658.305818,-15.000000,-3.000000,5.000000,32.000000,23.000000,10.000000,69.000000,6.000000
1295658.316638,9.000000,33.000000,13.000000,-10.000000,1.000000,7.000000,-27.000000,-4.000000
1295658.316662,0.000000,19.000000,-10.000000,-15.000000,2.000000,6.000000,7.000000,-5.000000
1295658.339191,9.000000,-21.000000,-5.000000,-8.000000,-4.000000,-7.000000,-5.000000,7.000000
1295658.339200,8.000000,-4.000000,-7.000000,7.000000,3.000000,-6.000000,-15.000000,-5.000000
1295658.346592,-12.000000,13.000000,-14.000000,2.000000,9.000000,8.000000,-7.000000,-9.000000
1295658.346602,-29.000000,-100.000000,-15.000000,-26.000000,-23.000000,-2.000000,20.000000,6.000000
1295658.361614,28.000000,-30.000000,2.000000,12.000000,2.000000,0.000000,7.000000,11.000000
1295658.361633,9.000000,4.000000,-2.000000,-3.000000,3.000000,0.000000,-15.000000,-6.000000
1295658.384407,0.000000,-11.000000,4.000000,0.000000,4.000000,-6.000000,-22.000000,-11.000000
1295658.384435,-14.000000,5.000000,-90.000000,-110.000000,-41.000000,-23.000000,-58.000000,-29.000000
1295658.392212,16.000000,30.000000,103.000000,127.000000,9.000000,-9.000000,44.000000,20.000000
1295658.392240,28.000000,16.000000,14.000000,47.000000,29.000000,17.000000,33.000000,34.000000
1295658.392762,-26.000000,-54.000000,-31.000000,-49.000000,-13.000000,-4.000000,41.000000,-4.000000
1295658.392789,-21.000000,-10.000000,-9.000000,-11.000000,-7.000000,-8.000000,-42.000000,-15.000000
1295658.393958,37.000000,28.000000,11.000000,3.000000,-3.000000,0.000000,-5.000000,-6.000000
1295658.393985,-4.000000,-22.000000,-15.000000,11.000000,6.000000,8.000000,-29.000000,0.000000
1295658.394821,-2.000000,13.000000,12.000000,-14.000000,-4.000000,-7.000000,24.000000,12.000000
1295658.394847,-5.000000,2.000000,-1.000000,0.000000,-7.000000,-2.000000,7.000000,1.000000
1295658.406799,8.000000,-1.000000,1.000000,-1.000000,4.000000,2.000000,-3.000000,-8.000000
1295658.406818,-6.000000,-47.000000,-26.000000,-27.000000,-2.000000,-5.000000,-31.000000,-12.000000
1295658.414057,11.000000,-1.000000,18.000000,36.000000,-7.000000,-9.000000,5.000000,4.000000
1295658.414074,20.000000,-6.000000,2.000000,2.000000,-1.000000,-4.000000,32.000000,18.000000
1295658.428957,6.000000,7.000000,20.000000,79.000000,31.000000,11.000000,-7.000000,4.000000
1295658.428966,-3.000000,0.000000,-8.000000,-1.000000,5.000000,5.000000,-40.000000,-20.000000
1295658.436773,13.000000,19.000000,-30.000000,-30.000000,-21.000000,-7.000000,58.000000,16.000000
1295658.436784,-17.000000,-56.000000,53.000000,22.000000,14.000000,14.000000,8.000000,7.000000
1295658.489069,-11.000000,-19.000000,-16.000000,-13.000000,-10.000000,-16.000000,-62.000000,-21.000000
1295658.489081,26.000000,27.000000,-16.000000,-39.000000,-14.000000,-1.000000,-17.000000,-7.000000
1295658.489487,13.000000,-6.000000,15.000000,1.000000,-5.000000,7.000000,78.000000,17.000000
1295658.489498,19.000000,27.000000,1.000000,5.000000,-11.000000,-6.000000,-49.000000,-7.000000
1295658.490991,-5.000000,-8.000000,-20.000000,-17.000000,4.000000,3.000000,-14.000000,-8.000000
1295658.491003,-23.000000,-25.000000,-33.000000,-15.000000,-20.000000,-20.000000,-19.000000,-26.000000
1295658.491500,-21.000000,-2.000000,21.000000,0.000000,-10.000000,-10.000000,-60.000000,-7.000000
1295658.491508,34.000000,32.000000,18.000000,28.000000,15.000000,12.000000,100.000000,45.000000
1295658.504635,-9.000000,40.000000,33.000000,-10.000000,0.000000,-2.000000,9.000000,-7.000000
1295658.504713,11.000000,43.000000,9.000000,6.000000,13.000000,24.000000,-57.000000,-3.000000
1295658.505950,17.000000,-18.000000,-14.000000,-37.000000,-32.000000,-19.000000,117.000000,27.000000
1295658.505959,3.000000,-18.000000,14.000000,53.000000,46.000000,15.000000,-35.000000,-2.000000
1295658.511401,5.000000,6.000000,-55.000000,-75.000000,-94.000000,-47.000000,-29.000000,-11.000000
1295658.511410,2.000000,4.000000,56.000000,92.000000,54.000000,16.000000,-47.000000,0.000000
1295658.527118,-32.000000,-13.000000,-25.000000,-17.000000,-9.000000,0.000000,73.000000,7.000000
1295658.527165,-1.000000,-1.000000,-11.000000,-27.000000,-12.000000,-6.000000,-31.000000,-13.000000
1295658.541766,17.000000,-1.000000,1.000000,33.000000,16.000000,8.000000,-48.000000,-21.000000
1295658.541779,9.000000,31.000000,40.000000,34.000000,-4.000000,2.000000,59.000000,41.000000
1295658.543057,29.000000,31.000000,-4.000000,-15.000000,-8.000000,0.000000,66.000000,19.000000
1295658.543067,-15.000000,-18.000000,-6.000000,-1.000000,0.000000,-5.000000,-37.000000,-24.000000
1295658.557397,-22.000000,-36.000000,-19.000000,-7.000000,-12.000000,-7.000000,-66.000000,-32.000000
1295658.557446,59.000000,13.000000,6.000000,-14.000000,-14.000000,0.000000,125.000000,36.000000
1295658.564681,5.000000,-4.000000,0.000000,-23.000000,-6.000000,-4.000000,-25.000000,-1.000000
1295658.564690,3.000000,-7.000000,0.000000,24.000000,2.000000,-4.000000,-15.000000,-16.000000
1295658.571582,-23.000000,-10.000000,-52.000000,-107.000000,-17.000000,-3.000000,-101.000000,-37.000000
1295658.571591,21.000000,41.000000,9.000000,16.000000,1.000000,6.000000,95.000000,47.000000
1295658.586863,-13.000000,-12.000000,-19.000000,-23.000000,-4.000000,3.000000,26.000000,8.000000
1295658.586872,-4.000000,-23.000000,-8.000000,-18.000000,-4.000000,-8.000000,-38.000000,-21.000000
1295658.593952,1.000000,48.000000,-2.000000,10.000000,-4.000000,-1.000000,12.000000,-15.000000
1295658.593962,-3.000000,-20.000000,-34.000000,-21.000000,-2.000000,-1.000000,19.000000,6.000000
1295658.632087,-44.000000,-42.000000,15.000000,28.000000,16.000000,6.000000,-42.000000,-10.000000
1295658.632100,0.000000,6.000000,-2.000000,2.000000,-3.000000,-3.000000,24.000000,0.000000
1295658.661349,-7.000000,25.000000,3.000000,12.000000,11.000000,5.000000,0.000000,-1.000000
1295658.661362,-23.000000,-33.000000,1.000000,-7.000000,1.000000,8.000000,-36.000000,-12.000000
1295658.662483,23.000000,5.000000,8.000000,18.000000,12.000000,12.000000,50.000000,35.000000
1295658.662491,16.000000,3.000000,-3.000000,-10.000000,-10.000000,-3.000000,22.000000,6.000000
1295658.663240,-10.000000,-31.000000,-22.000000,-10.000000,7.000000,6.000000,-31.000000,-10.000000
1295658.663247,-2.000000,2.000000,62.000000,38.000000,-18.000000,-7.000000,-16.000000,-16.000000
1295658.664471,-8.000000,9.000000,5.000000,-6.000000,7.000000,5.000000,-17.000000,-7.000000
1295658.664478,13.000000,10.000000,-5.000000,-20.000000,-2.000000,10.000000,28.000000,15.000000
1295658.665349,-19.000000,-24.000000,-20.000000,-12.000000,-20.000000,-20.000000,-67.000000,-26.000000
1295658.665356,-15.000000,-23.000000,14.000000,-42.000000,-20.000000,-7.000000,14.000000,-17.000000
1295658.692165,-12.000000,-1.000000,-35.000000,-8.000000,-9.000000,-19.000000,-81.000000,-34.000000
1295658.692181,7.000000,31.000000,26.000000,-64.000000,-31.000000,0.000000,25.000000,-4.000000
1295658.706585,6.000000,-40.000000,9.000000,35.000000,13.000000,18.000000,40.000000,31.000000
1295658.706595,17.000000,10.000000,-16.000000,-24.000000,-4.000000,-3.000000,-14.000000,-6.000000
1295658.713838,-6.000000,3.000000,-19.000000,-8.000000,-5.000000,-8.000000,-20.000000,-9.000000
1295658.713855,-7.000000,1.000000,-5.000000,15.000000,6.000000,2.000000,-13.000000,-15.000000
1295658.751423,-6.000000,-18.000000,5.000000,0.000000,-1.000000,-3.000000,-2.000000,0.000000
1295658.751446,8.000000,-1.000000,-2.000000,-15.000000,-1.000000,-2.000000,24.000000,4.000000
1295658.751948,9.000000,26.000000,4.000000,-13.000000,-9.000000,-4.000000,-111.000000,-17.000000
1295658.751994,9.000000,2.000000,1.000000,7.000000,-2.000000,-5.000000,127.000000,19.000000
1295658.753052,17.000000,-14.000000,-20.000000,3.000000,20.000000,9.000000,-5.000000,18.000000
1295658.753060,-30.000000,-10.000000,-4.000000,-45.000000,-44.000000,-21.000000,3.000000,5.000000
1295658.753751,39.000000,16.000000,34.000000,3.000000,7.000000,-1.000000,-20.000000,-6.000000
1295658.753760,-23.000000,-25.000000,-6.000000,-12.000000,16.000000,20.000000,45.000000,15.000000
1295658.781478,-12.000000,-22.000000,-5.000000,-9.000000,4.000000,-6.000000,27.000000,-7.000000
1295658.781490,-12.000000,-33.000000,-14.000000,-35.000000,-8.000000,-6.000000,-63.000000,-13.000000
1295658.781975,2.000000,30.000000,-20.000000,-19.000000,7.000000,19.000000,82.000000,19.000000
1295658.781985,14.000000,17.000000,33.000000,41.000000,13.000000,7.000000,-28.000000,1.000000
1295658.783594,-11.000000,-38.000000,-25.000000,-8.000000,-5.000000,2.000000,-4.000000,-4.000000
1295658.783604,-20.000000,-29.000000,-2.000000,-36.000000,-16.000000,-13.000000,-34.000000,-21.000000
1295658.819298,3.000000,26.000000,8.000000,11.000000,12.000000,13.000000,32.000000,15.000000
1295658.819326,1.000000,-17.000000,-7.000000,-5.000000,3.000000,-1.000000,-11.000000,7.000000
1295658.856460,-9.000000,-34.000000,-35.000000,-13.000000,-16.000000,-13.000000,1.000000,-12.000000
1295658.856490,-40.000000,18.000000,5.000000,9.000000,9.000000,22.000000,42.000000,23.000000
1295658.864329,13.000000,33.000000,16.000000,2.000000,14.000000,7.000000,-22.000000,-10.000000
1295658.864358,-2.000000,8.000000,25.000000,23.000000,-30.000000,-17.000000,-25.000000,-8.000000
1295658.879277,18.000000,15.000000,5.000000,7.000000,5.000000,-4.000000,-22.000000,6.000000
1295658.879322,-38.000000,18.000000,-19.000000,-3.000000,5.000000,1.000000,-4.000000,-6.000000
1295658.893781,37.000000,8.000000,-3.000000,1.000000,-8.000000,-7.000000,-11.000000,11.000000
1295658.893791,-5.000000,-4.000000,1.000000,13.000000,5.000000,2.000000,32.000000,8.000000
1295658.895214,-18.000000,7.000000,-5.000000,-18.000000,-1.000000,-6.000000,20.000000,-29.000000
1295658.895226,31.000000,11.000000,-10.000000,-8.000000,6.000000,6.000000,-118.000000,22.000000
1295658.895697,27.000000,52.000000,73.000000,127.000000,24.000000,-1.000000,-32.000000,-16.000000
1295658.895710,2.000000,15.000000,-5.000000,6.000000,7.000000,15.000000,12.000000,13.000000
1295658.896883,19.000000,0.000000,-32.000000,-3.000000,5.000000,-16.000000,127.000000,85.000000
1295658.896892,-3.000000,-24.000000,13.000000,-42.000000,-37.000000,-31.000000,-52.000000,-41.000000
1295658.897901,-2.000000,6.000000,8.000000,34.000000,17.000000,11.000000,-53.000000,-25.000000
1295658.897944,-22.000000,15.000000,-4.000000,-8.000000,-8.000000,10.000000,81.000000,3.000000
1295658.909086,-2.000000,-2.000000,-24.000000,-41.000000,-23.000000,-5.000000,-21.000000,-14.000000
1295658.909097,-5.000000,31.000000,35.000000,4.000000,19.000000,1.000000,-36.000000,-5.000000
1295658.939152,-20.000000,-61.000000,-13.000000,-7.000000,-5.000000,-1.000000,-128.000000,-43.000000
1295658.939165,23.000000,-3.000000,-1.000000,1.000000,-1.000000,14.000000,127.000000,18.000000
1295658.954375,-25.000000,-22.000000,-6.000000,-14.000000,4.000000,-1.000000,61.000000,54.000000
1295658.954405,17.000000,22.000000,10.000000,6.000000,-9.000000,-10.000000,-38.000000,-11.000000
1295658.970019,-26.000000,-11.000000,11.000000,38.000000,11.000000,9.000000,-32.000000,-14.000000
1295658.970045,2.000000,23.000000,-13.000000,-14.000000,-5.000000,-7.000000,-22.000000,-15.000000
1295658.983934,-16.000000,-15.000000,1.000000,-15.000000,-10.000000,-4.000000,-7.000000,-13.000000
1295658.983944,35.000000,33.000000,13.000000,16.000000,18.000000,8.000000,-34.000000,17.000000
1295658.991571,-10.000000,1.000000,-21.000000,-26.000000,-9.000000,1.000000,-23.000000,-13.000000
1295658.991628,-94.000000,0.000000,36.000000,36.000000,-1.000000,1.000000,46.000000,8.000000
1295659.029101,-35.000000,-16.000000,1.000000,-24.000000,-5.000000,-1.000000,28.000000,-11.000000
1295659.029147,52.000000,32.000000,0.000000,14.000000,3.000000,-2.000000,-57.000000,-17.000000
1295659.043940,-16.000000,-20.000000,-11.000000,5.000000,-8.000000,-7.000000,-37.000000,-14.000000
1295659.043950,14.000000,33.000000,32.000000,15.000000,0.000000,6.000000,108.000000,46.000000
1295659.059108,0.000000,12.000000,-16.000000,-12.000000,-1.000000,1.000000,-32.000000,-2.000000
1295659.059118,14.000000,-72.000000,-34.000000,-55.000000,0.000000,7.000000,-11.000000,-13.000000
1295659.066590,19.000000,73.000000,26.000000,43.000000,4.000000,-8.000000,2.000000,8.000000
1295659.066608,26.000000,-5.000000,21.000000,79.000000,26.000000,4.000000,-18.000000,-1.000000
1295659.096705,-44.000000,-28.000000,-17.000000,-14.000000,-17.000000,-6.000000,-35.000000,-18.000000
1295659.096735,-17.000000,3.000000,15.000000,9.000000,6.000000,-1.000000,-2.000000,-11.000000
1295659.104222,49.000000,14.000000,-14.000000,-12.000000,-20.000000,-4.000000,-88.000000,-10.000000
1295659.104232,-30.000000,-49.000000,-10.000000,-3.000000,6.000000,15.000000,127.000000,29.000000
1295659.111898,8.000000,21.000000,12.000000,-11.000000,-7.000000,-13.000000,-44.000000,15.000000
1295659.111915,-16.000000,-21.000000,-14.000000,-32.000000,-5.000000,4.000000,-32.000000,-25.000000
1295659.118745,24.000000,-14.000000,-2.000000,-19.000000,-18.000000,-7.000000,-6.000000,13.000000
1295659.118755,10.000000,27.000000,2.000000,-5.000000,-1.000000,3.000000,3.000000,2.000000
1295659.119450,13.000000,7.000000,0.000000,-23.000000,-5.000000,2.000000,21.000000,12.000000
1295659.119466,3.000000,11.000000,24.000000,8.000000,2.000000,-11.000000,-14.000000,-12.000000
1295659.133769,11.000000,26.000000,22.000000,-19.000000,-10.000000,-4.000000,19.000000,9.000000
1295659.133779,-16.000000,-6.000000,-7.000000,-10.000000,-3.000000,-3.000000,95.000000,32.000000
1295659.134236,-2.000000,25.000000,-7.000000,-69.000000,-10.000000,-3.000000,-32.000000,-8.000000
1295659.134245,10.000000,38.000000,18.000000,42.000000,10.000000,3.000000,-48.000000,-19.000000
1295659.135504,-47.000000,-106.000000,-26.000000,-31.000000,-15.000000,-6.000000,-13.000000,-3.000000
1295659.135512,-4.000000,-1.000000,2.000000,12.000000,16.000000,-2.000000,30.000000,4.000000
1295659.136391,10.000000,27.000000,10.000000,-29.000000,-17.000000,-8.000000,-53.000000,-8.000000
1295659.136399,-1.000000,3.000000,11.000000,34.000000,27.000000,21.000000,44.000000,21.000000
1295659.149588,-9.000000,2.000000,-16.000000,-25.000000,-37.000000,-19.000000,-46.000000,-19.000000
1295659.149618,13.000000,-18.000000,-8.000000,-4.000000,-2.000000,0.000000,43.000000,-5.000000
1295659.157113,-65.000000,3.000000,-14.000000,-5.000000,5.000000,-1.000000,-43.000000,0.000000
1295659.157294,26.000000,37.000000,47.000000,60.000000,28.000000,15.000000,33.000000,3.000000
1295659.179200,3.000000,-30.000000,-33.000000,-44.000000,-7.000000,11.000000,46.000000,19.000000
1295659.179210,11.000000,15.000000,12.000000,48.000000,14.000000,9.000000,-2.000000,6.000000
1295659.186485,23.000000,5.000000,-24.000000,-57.000000,-18.000000,-5.000000,-17.000000,-11.000000
1295659.186508,-40.000000,-8.000000,2.000000,-7.000000,-6.000000,-8.000000,-58.000000,-14.000000
1295659.223909,20.000000,16.000000,13.000000,27.000000,6.000000,6.000000,79.000000,27.000000
1295659.223920,48.000000,-58.000000,-39.000000,-31.000000,4.000000,5.000000,-10.000000,-5.000000
1295659.231820,-41.000000,32.000000,37.000000,45.000000,13.000000,-3.000000,-13.000000,-9.000000
1295659.231832,-10.000000,28.000000,-3.000000,1.000000,12.000000,14.000000,2.000000,-7.000000
1295659.247049,-35.000000,-30.000000,-11.000000,-12.000000,-10.000000,-1.000000,23.000000,-2.000000
1295659.247064,21.000000,19.000000,-8.000000,-5.000000,-1.000000,-7.000000,-16.000000,3.000000
1295659.247595,0.000000,-1.000000,-9.000000,-26.000000,-4.000000,3.000000,25.000000,2.000000
1295659.247606,-10.000000,-25.000000,34.000000,79.000000,8.000000,-5.000000,-39.000000,-12.000000
1295659.249005,1.000000,-34.000000,-13.000000,-18.000000,-5.000000,10.000000,4.000000,-4.000000
1295659.249016,16.000000,43.000000,14.000000,13.000000,14.000000,7.000000,94.000000,32.000000
1295659.250517,7.000000,-23.000000,2.000000,-4.000000,-5.000000,-2.000000,-33.000000,-12.000000
1295659.250545,15.000000,18.000000,-10.000000,-20.000000,0.000000,-6.000000,-26.000000,-5.000000
1295659.254021,34.000000,-19.000000,-10.000000,-72.000000,-17.000000,-9.000000,0.000000,-8.000000
1295659.254038,-2.000000,15.000000,32.000000,51.000000,14.000000,12.000000,-6.000000,-2.000000
1295659.268945,-5.000000,4.000000,-16.000000,-10.000000,-13.000000,-15.000000,-8.000000,-6.000000
1295659.268963,23.000000,28.000000,-19.000000,-10.000000,-3.000000,-1.000000,6.000000,-2.000000
1295659.299130,-11.000000,-14.000000,18.000000,34.000000,-1.000000,-3.000000,19.000000,0.000000
1295659.299140,28.000000,-11.000000,-21.000000,40.000000,7.000000,6.000000,-36.000000,13.000000
1295659.321701,16.000000,34.000000,29.000000,33.000000,13.000000,8.000000,62.000000,-3.000000
1295659.321719,-28.000000,-41.000000,-8.000000,-15.000000,-6.000000,-6.000000,-53.000000,-6.000000
1295659.336659,13.000000,12.000000,-18.000000,-5.000000,3.000000,1.000000,1.000000,-34.000000
1295659.336671,-33.000000,38.000000,23.000000,-19.000000,-22.000000,-22.000000,-86.000000,5.000000
1295659.337642,26.000000,-32.000000,20.000000,-24.000000,8.000000,32.000000,127.000000,74.000000
1295659.337652,5.000000,6.000000,-15.000000,-9.000000,0.000000,-13.000000,-96.000000,-33.000000
1295659.338547,-33.000000,6.000000,-21.000000,-22.000000,-19.000000,-5.000000,6.000000,-25.000000
1295659.338558,11.000000,-6.000000,17.000000,14.000000,12.000000,13.000000,99.000000,28.000000
1295659.339525,0.000000,-7.000000,-10.000000,-9.000000,-3.000000,-1.000000,-14.000000,4.000000
1295659.339534,8.000000,12.000000,-23.000000,-27.000000,-15.000000,-8.000000,-17.000000,-8.000000
1295659.340388,1.000000,-23.000000,32.000000,93.000000,27.000000,9.000000,-14.000000,-3.000000
1295659.340415,5.000000,-14.000000,-13.000000,-49.000000,-17.000000,-10.000000,-16.000000,-13.000000
1295659.344395,-1.000000,26.000000,10.000000,14.000000,6.000000,3.000000,-50.000000,-7.000000
1295659.344425,-16.000000,-6.000000,-12.000000,15.000000,14.000000,15.000000,2.000000,-1.000000
1295659.374294,2.000000,-17.000000,8.000000,-78.000000,-42.000000,-29.000000,10.000000,-19.000000
1295659.374327,40.000000,23.000000,25.000000,47.000000,25.000000,3.000000,49.000000,60.000000
1295659.375217,-4.000000,-27.000000,-12.000000,-9.000000,2.000000,-2.000000,-3.000000,-3.000000
1295659.375249,-13.000000,-9.000000,-7.000000,-10.000000,-5.000000,-12.000000,-17.000000,-24.000000
1295659.376381,9.000000,7.000000,-12.000000,-13.000000,4.000000,7.000000,-104.000000,-27.000000
1295659.376425,18.000000,15.000000,10.000000,27.000000,-15.000000,-3.000000,127.000000,36.000000
1295659.389178,5.000000,10.000000,-2.000000,-39.000000,1.000000,0.000000,-53.000000,-4.000000
1295659.389198,13.000000,7.000000,9.000000,5.000000,7.000000,7.000000,54.000000,21.000000
1295659.396513,6.000000,8.000000,-33.000000,17.000000,-1.000000,0.000000,-34.000000,-16.000000
1295659.396525,9.000000,11.000000,30.000000,51.000000,14.000000,-6.000000,-53.000000,-18.000000
1295659.419133,-18.000000,25.000000,-1.000000,-14.000000,-2.000000,13.000000,35.000000,7.000000
1295659.419143,11.000000,-9.000000,-7.000000,-6.000000,8.000000,9.000000,13.000000,10.000000
1295659.426475,-22.000000,18.000000,11.000000,-18.000000,-16.000000,-18.000000,-42.000000,-12.000000
1295659.426503,-5.000000,-20.000000,-21.000000,-20.000000,-3.000000,-2.000000,-17.000000,-7.000000
1295659.456539,16.000000,1.000000,-19.000000,-14.000000,1.000000,-1.000000,-19.000000,3.000000
1295659.456550,-7.000000,9.000000,-6.000000,-33.000000,4.000000,16.000000,-35.000000,-21.000000
1295659.463995,35.000000,4.000000,0.000000,15.000000,-23.000000,-11.000000,113.000000,51.000000
1295659.464006,-33.000000,10.000000,5.000000,-8.000000,4.000000,0.000000,-8.000000,19.000000
1295659.494169,-16.000000,-2.000000,-1.000000,-1.000000,2.000000,-4.000000,-42.000000,-27.000000
1295659.494186,34.000000,16.000000,8.000000,49.000000,19.000000,5.000000,-31.000000,-13.000000
1295659.494499,-15.000000,-8.000000,-17.000000,-17.000000,-2.000000,6.000000,33.000000,12.000000
1295659.494537,18.000000,5.000000,1.000000,12.000000,-6.000000,-12.000000,-1.000000,-7.000000
1295659.495612,13.000000,59.000000,6.000000,-39.000000,-4.000000,6.000000,-27.000000,-5.000000
1295659.495622,2.000000,-97.000000,-22.000000,-11.000000,1.000000,6.000000,39.000000,9.000000
1295659.496545,11.000000,18.000000,-10.000000,-27.000000,-19.000000,-14.000000,-16.000000,6.000000
1295659.496555,3.000000,-12.000000,-37.000000,-1.000000,5.000000,4.000000,-16.000000,-6.000000
1295659.498032,12.000000,25.000000,47.000000,55.000000,14.000000,8.000000,11.000000,1.000000
1295659.498045,1.000000,0.000000,-4.000000,-22.000000,1.000000,2.000000,32.000000,20.000000
1295659.509073,-1.000000,-2.000000,5.000000,-14.000000,7.000000,8.000000,80.000000,37.000000
1295659.509102,19.000000,29.000000,9.000000,3.000000,5.000000,6.000000,-11.000000,3.000000
1295659.524090,-9.000000,3.000000,-1.000000,1.000000,4.000000,4.000000,2.000000,-2.000000
1295659.524119,-16.000000,-27.000000,-16.000000,-21.000000,-13.000000,-16.000000,-33.000000,-17.000000
1295659.539368,-12.000000,16.000000,15.000000,-3.000000,1.000000,4.000000,-10.000000,-12.000000
1295659.539388,28.000000,-21.000000,15.000000,11.000000,-5.000000,-12.000000,-6.000000,1.000000
1295659.546818,-77.000000,-64.000000,-2.000000,-16.000000,-4.000000,-1.000000,-2.000000,0.000000
1295659.546829,41.000000,20.000000,5.000000,6.000000,5.000000,16.000000,-71.000000,-8.000000
1295659.577080,-3.000000,13.000000,-24.000000,-10.000000,-12.000000,-11.000000,119.000000,15.000000
1295659.577120,9.000000,-39.000000,17.000000,40.000000,8.000000,-8.000000,-53.000000,-2.000000
1295659.583986,-31.000000,-29.000000,-4.000000,18.000000,8.000000,-10.000000,2.000000,-11.000000
1295659.584008,22.000000,3.000000,-9.000000,-8.000000,11.000000,7.000000,-62.000000,-6.000000
1295659.585221,-24.000000,-1.000000,-13.000000,15.000000,-5.000000,8.000000,93.000000,26.000000
1295659.585238,0.000000,-16.000000,13.000000,42.000000,11.000000,-5.000000,-21.000000,-4.000000
1295659.585762,-14.000000,-6.000000,-1.000000,-21.000000,-13.000000,-8.000000,-30.000000,-16.000000
1295659.585769,1.000000,7.000000,-10.000000,-17.000000,0.000000,1.000000,-6.000000,-5.000000
1295659.587450,0.000000,-4.000000,8.000000,-1.000000,5.000000,-1.000000,-13.000000,-9.000000
1295659.587468,-4.000000,-6.000000,-13.000000,-15.000000,-13.000000,-15.000000,-43.000000,-10.000000
1295659.599093,8.000000,33.000000,9.000000,-2.000000,-1.000000,1.000000,47.000000,12.000000
1295659.599103,-8.000000,-16.000000,-2.000000,-7.000000,-5.000000,-3.000000,3.000000,2.000000
1295659.614654,45.000000,6.000000,-9.000000,-16.000000,-7.000000,0.000000,-13.000000,2.000000
1295659.614664,-17.000000,3.000000,-10.000000,5.000000,-2.000000,-8.000000,-14.000000,-11.000000
1295659.615405,10.000000,-16.000000,-16.000000,-18.000000,-6.000000,0.000000,-7.000000,4.000000
1295659.615413,-26.000000,12.000000,21.000000,32.000000,-2.000000,-8.000000,-1.000000,0.000000
1295659.636553,24.000000,8.000000,52.000000,-9.000000,-1.000000,6.000000,10.000000,10.000000
1295659.636598,-3.000000,0.000000,-23.000000,11.000000,5.000000,-4.000000,10.000000,10.000000
1295659.651525,56.000000,-21.000000,-35.000000,-52.000000,-43.000000,-21.000000,-46.000000,-13.000000
1295659.651554,-49.000000,13.000000,24.000000,11.000000,-9.000000,-9.000000,11.000000,-13.000000
1295659.666583,16.000000,12.000000,-8.000000,-10.000000,-2.000000,3.000000,-36.000000,5.000000
1295659.666593,5.000000,-9.000000,-4.000000,-8.000000,-2.000000,2.000000,49.000000,6.000000
1295659.689249,-7.000000,-11.000000,30.000000,39.000000,16.000000,2.000000,24.000000,10.000000
1295659.689271,35.000000,63.000000,-6.000000,-14.000000,-1.000000,1.000000,6.000000,2.000000
1295659.704212,-73.000000,2.000000,-17.000000,-31.000000,-20.000000,-5.000000,-84.000000,-47.000000
1295659.704223,25.000000,-7.000000,-9.000000,28.000000,21.000000,8.000000,22.000000,3.000000
1295659.734088,58.000000,66.000000,28.000000,15.000000,1.000000,4.000000,26.000000,32.000000
1295659.734099,-19.000000,-58.000000,-12.000000,-3.000000,9.000000,13.000000,-7.000000,3.000000
1295659.741981,-5.000000,-22.000000,-11.000000,-18.000000,-7.000000,-14.000000,-16.000000,-15.000000
1295659.742061,-71.000000,-7.000000,-73.000000,-44.000000,-11.000000,1.000000,27.000000,17.000000
1295659.742466,27.000000,26.000000,107.000000,89.000000,23.000000,18.000000,-11.000000,-3.000000
1295659.742474,-22.000000,-23.000000,-33.000000,-16.000000,-4.000000,-5.000000,-30.000000,-16.000000
1295659.743089,-4.000000,-5.000000,-14.000000,-14.000000,2.000000,1.000000,60.000000,1.000000
1295659.743097,6.000000,9.000000,-29.000000,-29.000000,-10.000000,0.000000,-19.000000,-2.000000
1295659.743832,33.000000,20.000000,45.000000,46.000000,24.000000,18.000000,24.000000,20.000000
1295659.743841,0.000000,-21.000000,-6.000000,-11.000000,-3.000000,-1.000000,11.000000,9.000000
1295659.748875,34.000000,41.000000,-6.000000,-2.000000,-8.000000,0.000000,-21.000000,6.000000
1295659.748902,-16.000000,-27.000000,-14.000000,-17.000000,-6.000000,-5.000000,116.000000,29.000000
1295659.771738,25.000000,0.000000,6.000000,6.000000,12.000000,7.000000,-27.000000,0.000000
1295659.771749,-5.000000,-9.000000,-16.000000,-20.000000,-35.000000,-14.000000,-57.000000,-28.000000
1295659.786420,14.000000,29.000000,2.000000,-8.000000,-2.000000,1.000000,27.000000,18.000000
1295659.786431,1.000000,-12.000000,1.000000,2.000000,0.000000,-9.000000,-3.000000,-3.000000
1295659.801908,-1.000000,-16.000000,-30.000000,-40.000000,-11.000000,-3.000000,-94.000000,-13.000000
1295659.801937,-20.000000,20.000000,30.000000,64.000000,25.000000,15.000000,92.000000,15.000000
1295659.816386,9.000000,9.000000,-3.000000,-9.000000,0.000000,-14.000000,-44.000000,-6.000000
1295659.816395,-8.000000,0.000000,-8.000000,-3.000000,2.000000,8.000000,-23.000000,-18.000000
1295659.824111,25.000000,32.000000,-20.000000,-37.000000,-21.000000,4.000000,57.000000,28.000000
1295659.824124,-17.000000,-6.000000,5.000000,13.000000,-1.000000,-28.000000,-28.000000,-5.000000
1295659.846883,-14.000000,-14.000000,-21.000000,-51.000000,-13.000000,-6.000000,-24.000000,-8.000000
1295659.846912,-11.000000,-2.000000,12.000000,24.000000,-2.000000,3.000000,-94.000000,-29.000000
1295659.854624,-5.000000,48.000000,-8.000000,-2.000000,13.000000,-4.000000,75.000000,15.000000
1295659.854657,40.000000,-8.000000,-13.000000,-7.000000,-6.000000,2.000000,20.000000,18.000000
1295659.855578,-11.000000,0.000000,2.000000,-6.000000,3.000000,-3.000000,-45.000000,-27.000000
1295659.855587,-11.000000,-18.000000,-5.000000,26.000000,9.000000,-4.000000,30.000000,-10.000000
1295659.855875,4.000000,-17.000000,13.000000,18.000000,19.000000,6.000000,-12.000000,12.000000
1295659.855883,41.000000,20.000000,0.000000,3.000000,3.000000,2.000000,34.000000,-4.000000
1295659.857288,-8.000000,41.000000,-4.000000,5.000000,5.000000,6.000000,-26.000000,-2.000000
1295659.857296,0.000000,4.000000,26.000000,14.000000,10.000000,5.000000,29.000000,1.000000
1295659.868983,27.000000,18.000000,33.000000,15.000000,21.000000,4.000000,2.000000,18.000000
1295659.868994,-25.000000,-53.000000,14.000000,10.000000,18.000000,7.000000,10.000000,0.000000
1295659.884075,-10.000000,1.000000,-2.000000,-5.000000,3.000000,-2.000000,-78.000000,-19.000000
1295659.884086,19.000000,18.000000,-10.000000,-14.000000,-20.000000,4.000000,51.000000,9.000000
1295659.914179,12.000000,6.000000,3.000000,-8.000000,-1.000000,10.000000,11.000000,7.000000
1295659.914196,-6.000000,-19.000000,-10.000000,-4.000000,-4.000000,-3.000000,-17.000000,-8.000000
1295659.928979,15.000000,25.000000,-5.000000,-23.000000,-9.000000,-8.000000,-21.000000,-14.000000
1295659.928991,-21.000000,-20.000000,4.000000,3.000000,-2.000000,1.000000,-15.000000,-6.000000
1295659.930031,36.000000,18.000000,-3.000000,-9.000000,-16.000000,4.000000,26.000000,19.000000
1295659.930058,-10.000000,-34.000000,6.000000,23.000000,20.000000,4.000000,42.000000,3.000000
1295659.930697,-11.000000,-5.000000,-31.000000,-5.000000,-4.000000,-24.000000,-43.000000,-12.000000
1295659.930723,11.000000,-3.000000,47.000000,35.000000,13.000000,13.000000,-18.000000,6.000000
1295659.932089,0.000000,10.000000,-3.000000,-2.000000,3.000000,18.000000,45.000000,13.000000
1295659.932116,-3.000000,-5.000000,-9.000000,-8.000000,-4.000000,-7.000000,40.000000,10.000000
1295659.936127,-93.000000,-29.000000,19.000000,39.000000,13.000000,3.000000,-13.000000,-16.000000
1295659.936135,22.000000,3.000000,-1.000000,28.000000,-1.000000,-12.000000,-30.000000,-21.000000
1295659.966574,27.000000,7.000000,8.000000,1.000000,11.000000,17.000000,13.000000,10.000000
1295659.966585,-23.000000,-16.000000,0.000000,-4.000000,-23.000000,-9.000000,2.000000,-7.000000
1295659.966954,18.000000,-11.000000,-37.000000,-17.000000,0.000000,-6.000000,-25.000000,2.000000
1295659.966972,-18.000000,-6.000000,33.000000,-1.000000,-11.000000,4.000000,6.000000,-2.000000
1295659.968284,-13.000000,17.000000,8.000000,31.000000,20.000000,2.000000,23.000000,-11.000000
1295659.968292,-6.000000,-3.000000,-10.000000,-38.000000,-13.000000,-13.000000,-24.000000,7.000000
1295659.982164,46.000000,25.000000,16.000000,27.000000,7.000000,7.000000,29.000000,18.000000
1295659.982178,-46.000000,-38.000000,-10.000000,-27.000000,-8.000000,-5.000000,17.000000,-7.000000
1295660.004399,-4.000000,-9.000000,-3.000000,-2.000000,6.000000,-5.000000,-20.000000,7.000000
1295660.004417,-6.000000,-1.000000,3.000000,-36.000000,-11.000000,-6.000000,-14.000000,-11.000000
1295660.011591,-29.000000,-10.000000,-2.000000,-8.000000,-13.000000,-7.000000,-39.000000,-19.000000
1295660.011601,17.000000,21.000000,-13.000000,-17.000000,-3.000000,9.000000,6.000000,-1.000000
1295660.026460,6.000000,-16.000000,-2.000000,4.000000,5.000000,2.000000,40.000000,19.000000
1295660.026484,15.000000,41.000000,18.000000,21.000000,12.000000,4.000000,-13.000000,0.000000
1295660.048985,-28.000000,-29.000000,-9.000000,-28.000000,-15.000000,-11.000000,-72.000000,-22.000000
1295660.048996,-8.000000,-20.000000,-8.000000,-2.000000,10.000000,9.000000,76.000000,30.000000
1295660.079286,23.000000,10.000000,6.000000,25.000000,11.000000,4.000000,12.000000,6.000000
1295660.079317,-16.000000,45.000000,-6.000000,0.000000,0.000000,-3.000000,-31.000000,-15.000000
1295660.079843,-2.000000,3.000000,5.000000,-10.000000,1.000000,-8.000000,-13.000000,-4.000000
1295660.079870,5.000000,-6.000000,-19.000000,-16.000000,-10.000000,-6.000000,-2.000000,-5.000000
1295660.080858,-8.000000,19.000000,13.000000,29.000000,10.000000,5.000000,-27.000000,-2.000000
1295660.080866,18.000000,-4.000000,4.000000,-2.000000,-11.000000,-1.000000,40.000000,10.000000
1295660.081672,-41.000000,1.000000,-1.000000,-14.000000,-10.000000,-14.000000,-47.000000,-16.000000
1295660.081679,-5.000000,-16.000000,-3.000000,3.000000,-5.000000,-8.000000,52.000000,-2.000000
1295660.086656,27.000000,53.000000,3.000000,12.000000,20.000000,8.000000,-79.000000,-6.000000
1295660.086668,-8.000000,-27.000000,-3.000000,0.000000,-14.000000,1.000000,61.000000,0.000000
1295660.094226,-38.000000,-26.000000,-12.000000,-37.000000,-15.000000,-2.000000,0.000000,12.000000
1295660.094236,6.000000,37.000000,-23.000000,39.000000,18.000000,2.000000,-14.000000,-28.000000
1295660.094649,2.000000,57.000000,40.000000,31.000000,7.000000,6.000000,-79.000000,-12.000000
1295660.094675,-25.000000,-31.000000,-6.000000,-10.000000,-7.000000,2.000000,127.000000,46.000000
1295660.102217,35.000000,15.000000,-31.000000,-9.000000,-1.000000,-3.000000,-21.000000,-2.000000
1295660.102249,-31.000000,-67.000000,-7.000000,17.000000,7.000000,-1.000000,-60.000000,-27.000000
1295660.131905,32.000000,75.000000,34.000000,68.000000,20.000000,7.000000,-2.000000,-4.000000
1295660.131922,-79.000000,-17.000000,-13.000000,-12.000000,-11.000000,-31.000000,-11.000000,-17.000000
1295660.169338,24.000000,-13.000000,0.000000,-21.000000,-11.000000,-1.000000,-1.000000,14.000000
1295660.169366,-21.000000,-34.000000,-20.000000,0.000000,16.000000,11.000000,9.000000,-14.000000
1295660.176899,-31.000000,-13.000000,-3.000000,-37.000000,-28.000000,-19.000000,-77.000000,-30.000000
1295660.176909,57.000000,22.000000,-7.000000,-3.000000,10.000000,18.000000,108.000000,37.000000
1295660.206531,11.000000,-6.000000,-13.000000,-15.000000,-7.000000,-12.000000,-19.000000,1.000000
1295660.206563,-8.000000,-1.000000,-11.000000,-13.000000,-9.000000,-2.000000,-49.000000,-7.000000
1295660.206937,-1.000000,4.000000,6.000000,19.000000,17.000000,5.000000,37.000000,-3.000000
1295660.206955,-20.000000,-6.000000,-6.000000,-24.000000,-10.000000,0.000000,-24.000000,-21.000000
1295660.208085,64.000000,35.000000,1.000000,-17.000000,-5.000000,4.000000,36.000000,22.000000
1295660.208093,1.000000,20.000000,6.000000,14.000000,0.000000,-2.000000,2.000000,0.000000
1295660.208696,34.000000,-22.000000,4.000000,53.000000,23.000000,8.000000,51.000000,25.000000
1295660.208703,12.000000,37.000000,-4.000000,-15.000000,0.000000,-6.000000,-11.000000,2.000000
1295660.210232,-15.000000,18.000000,-4.000000,-9.000000,-1.000000,5.000000,-20.000000,15.000000
1295660.210240,40.000000,24.000000,18.000000,27.000000,20.000000,10.000000,32.000000,7.000000
1295660.222163,-54.000000,-24.000000,-23.000000,-8.000000,-25.000000,-26.000000,-68.000000,-30.000000
1295660.222172,73.000000,54.000000,-29.000000,-36.000000,-14.000000,-3.000000,26.000000,14.000000
1295660.236649,-4.000000,6.000000,84.000000,69.000000,11.000000,2.000000,3.000000,5.000000
1295660.236660,9.000000,6.000000,-17.000000,-15.000000,3.000000,-3.000000,-38.000000,-12.000000
1295660.251347,-11.000000,-17.000000,-18.000000,-17.000000,0.000000,4.000000,20.000000,-12.000000
1295660.251357,5.000000,46.000000,-2.000000,-69.000000,-32.000000,-14.000000,-49.000000,-9.000000
1295660.258949,-3.000000,1.000000,25.000000,55.000000,18.000000,13.000000,40.000000,11.000000
1295660.258959,21.000000,6.000000,-9.000000,-33.000000,-8.000000,6.000000,36.000000,21.000000
1295660.288995,-27.000000,15.000000,-14.000000,-10.000000,5.000000,2.000000,-33.000000,-14.000000
1295660.289005,-8.000000,-12.000000,-17.000000,8.000000,-7.000000,-6.000000,-68.000000,-12.000000
1295660.296564,9.000000,-23.000000,1.000000,-1.000000,6.000000,1.000000,55.000000,16.000000
1295660.296578,12.000000,21.000000,4.000000,-1.000000,5.000000,8.000000,22.000000,10.000000
1295660.334121,-18.000000,3.000000,0.000000,12.000000,-4.000000,-19.000000,-75.000000,-14.000000
1295660.334131,35.000000,18.000000,14.000000,-20.000000,8.000000,8.000000,55.000000,14.000000
1295660.341382,1.000000,-39.000000,-6.000000,-7.000000,-14.000000,-14.000000,10.000000,4.000000
1295660.341391,6.000000,51.000000,16.000000,37.000000,17.000000,0.000000,-26.000000,-20.000000
1295660.357284,-14.000000,-3.000000,-44.000000,-44.000000,-13.000000,3.000000,-28.000000,-10.000000
1295660.357306,7.000000,34.000000,37.000000,37.000000,9.000000,6.000000,25.000000,10.000000
1295660.357834,-11.000000,-14.000000,-22.000000,-11.000000,2.000000,-8.000000,-9.000000,0.000000
1295660.357842,-10.000000,9.000000,2.000000,-1.000000,-3.000000,-11.000000,-35.000000,-4.000000
1295660.359775,-6.000000,-22.000000,-26.000000,11.000000,-20.000000,-23.000000,-67.000000,-19.000000
1295660.359784,-14.000000,-9.000000,18.000000,-5.000000,-2.000000,0.000000,46.000000,11.000000
1295660.372527,-16.000000,-12.000000,0.000000,-47.000000,-19.000000,-8.000000,-28.000000,-19.000000
1295660.372576,68.000000,7.000000,9.000000,19.000000,18.000000,9.000000,-6.000000,12.000000
1295660.379658,-18.000000,12.000000,3.000000,-1.000000,3.000000,-11.000000,5.000000,2.000000
1295660.379668,17.000000,6.000000,-15.000000,-12.000000,-11.000000,-8.000000,-1.000000,4.000000
1295660.401782,12.000000,12.000000,0.000000,-5.000000,0.000000,2.000000,-55.000000,-16.000000
1295660.401811,-20.000000,12.000000,-46.000000,-32.000000,-23.000000,1.000000,14.000000,-7.000000
1295660.409882,-17.000000,18.000000,72.000000,37.000000,21.000000,-4.000000,58.000000,16.000000
1295660.409932,9.000000,-20.000000,5.000000,18.000000,13.000000,-4.000000,-35.000000,-2.000000
1295660.410465,25.000000,-5.000000,-22.000000,-15.000000,-9.000000,-1.000000,52.000000,16.000000
1295660.410472,7.000000,1.000000,2.000000,-21.000000,-17.000000,-5.000000,-71.000000,-13.000000
1295660.417493,-39.000000,-15.000000,-2.000000,26.000000,2.000000,0.000000,36.000000,-8.000000
1295660.417504,44.000000,49.000000,-28.000000,-21.000000,8.000000,9.000000,-65.000000,6.000000
1295660.446566,-12.000000,-12.000000,47.000000,47.000000,23.000000,12.000000,104.000000,21.000000
1295660.446577,8.000000,64.000000,-4.000000,-3.000000,-2.000000,-11.000000,-42.000000,-15.000000
1295660.447557,-11.000000,-15.000000,-13.000000,-38.000000,-10.000000,2.000000,-18.000000,-7.000000
1295660.447565,12.000000,7.000000,-7.000000,1.000000,-11.000000,-3.000000,-12.000000,2.000000
1295660.448396,-5.000000,19.000000,43.000000,55.000000,21.000000,2.000000,9.000000,4.000000
1295660.448404,-35.000000,-39.000000,-5.000000,-3.000000,7.000000,0.000000,31.000000,2.000000
1295660.491455,20.000000,45.000000,-8.000000,-12.000000,-1.000000,-11.000000,-109.000000,-17.000000
1295660.491464,-7.000000,26.000000,-5.000000,4.000000,-17.000000,2.000000,96.000000,3.000000
1295660.499222,19.000000,-8.000000,-7.000000,-36.000000,-7.000000,6.000000,-8.000000,10.000000
1295660.499233,-18.000000,0.000000,-4.000000,-3.000000,2.000000,-18.000000,19.000000,10.000000
1295660.521897,4.000000,31.000000,4.000000,-17.000000,-3.000000,4.000000,-22.000000,1.000000
1295660.521906,40.000000,-1.000000,-6.000000,8.000000,-5.000000,-3.000000,-55.000000,-13.000000
1295660.522468,11.000000,-16.000000,-2.000000,-31.000000,-6.000000,1.000000,59.000000,0.000000
1295660.522477,7.000000,21.000000,7.000000,-15.000000,0.000000,0.000000,0.000000,8.000000
1295660.523875,-16.000000,-10.000000,-20.000000,-25.000000,2.000000,3.000000,-36.000000,-13.000000
1295660.523901,6.000000,-5.000000,16.000000,22.000000,-31.000000,-11.000000,8.000000,-12.000000
1295660.524513,11.000000,-3.000000,4.000000,15.000000,17.000000,3.000000,0.000000,2.000000
1295660.524521,16.000000,36.000000,-13.000000,-24.000000,-6.000000,-9.000000,-10.000000,-1.000000
1295660.528767,-10.000000,5.000000,-7.000000,1.000000,-3.000000,-7.000000,-93.000000,-43.000000
1295660.528776,33.000000,44.000000,4.000000,-22.000000,-1.000000,-3.000000,49.000000,21.000000
1295660.559229,-43.000000,-36.000000,1.000000,3.000000,-1.000000,11.000000,44.000000,25.000000
1295660.559259,-39.000000,-98.000000,-13.000000,1.000000,-7.000000,-8.000000,-25.000000,-20.000000
1295660.566287,18.000000,55.000000,12.000000,1.000000,-4.000000,-4.000000,-1.000000,4.000000
1295660.566296,41.000000,-22.000000,-12.000000,-6.000000,-3.000000,-4.000000,4.000000,0.000000
1295660.567857,3.000000,-3.000000,-13.000000,7.000000,1.000000,-1.000000,5.000000,-5.000000
1295660.567871,-14.000000,35.000000,-11.000000,-24.000000,-1.000000,-12.000000,-56.000000,-20.000000
1295660.573909,25.000000,-30.000000,89.000000,96.000000,17.000000,31.000000,67.000000,22.000000
1295660.573952,36.000000,25.000000,-10.000000,-17.000000,7.000000,3.000000,22.000000,18.000000
1295660.604406,5.000000,6.000000,-26.000000,-17.000000,-9.000000,-6.000000,-37.000000,-5.000000
1295660.604439,6.000000,-28.000000,5.000000,-16.000000,-14.000000,0.000000,18.000000,-2.000000
1295660.611515,-14.000000,5.000000,11.000000,26.000000,20.000000,7.000000,-26.000000,-13.000000
1295660.611532,-13.000000,-32.000000,-13.000000,10.000000,-10.000000,-3.000000,-18.000000,-14.000000
1295660.634313,-5.000000,-31.000000,-11.000000,-2.000000,-3.000000,11.000000,59.000000,25.000000
1295660.634342,-2.000000,-42.000000,-2.000000,-17.000000,-3.000000,-1.000000,-11.000000,-5.000000
1295660.641850,-11.000000,6.000000,-22.000000,-20.000000,-3.000000,-3.000000,-24.000000,-17.000000
1295660.641879,9.000000,16.000000,-1.000000,25.000000,4.000000,-4.000000,21.000000,12.000000
1295660.649427,2.000000,2.000000,12.000000,22.000000,3.000000,5.000000,24.000000,10.000000
1295660.649435,-32.000000,-93.000000,7.000000,15.000000,3.000000,-3.000000,-20.000000,-14.000000
1295660.650267,-15.000000,11.000000,-5.000000,-16.000000,-3.000000,-5.000000,-17.000000,-16.000000
1295660.650301,7.000000,-12.000000,-12.000000,-12.000000,-1.000000,2.000000,-19.000000,-2.000000
1295660.651588,2.000000,-11.000000,-14.000000,3.000000,6.000000,-5.000000,28.000000,4.000000
1295660.651604,3.000000,-4.000000,6.000000,-73.000000,-12.000000,15.000000,-12.000000,6.000000
1295660.652286,2.000000,27.000000,34.000000,-21.000000,-20.000000,-3.000000,66.000000,5.000000
1295660.652294,2.000000,-21.000000,-4.000000,-36.000000,9.000000,-12.000000,-21.000000,0.000000
1295660.657035,-32.000000,-12.000000,-8.000000,-25.000000,-26.000000,-13.000000,14.000000,9.000000
1295660.657044,-3.000000,23.000000,-32.000000,-20.000000,-11.000000,-15.000000,-46.000000,-26.000000
1295660.686654,4.000000,2.000000,54.000000,53.000000,25.000000,23.000000,48.000000,12.000000
1295660.686669,-12.000000,-36.000000,10.000000,28.000000,13.000000,23.000000,26.000000,10.000000
1295660.724322,-40.000000,22.000000,-6.000000,-6.000000,-6.000000,-10.000000,-16.000000,-10.000000
1295660.724350,0.000000,-2.000000,-1.000000,4.000000,3.000000,-10.000000,-16.000000,-5.000000
1295660.731887,-10.000000,-29.000000,-16.000000,1.000000,-5.000000,-1.000000,8.000000,-2.000000
1295660.731915,20.000000,30.000000,10.000000,-3.000000,5.000000,11.000000,13.000000,14.000000
1295660.769248,0.000000,-2.000000,-26.000000,-7.000000,0.000000,-7.000000,-59.000000,-21.000000
1295660.769260,-5.000000,-6.000000,42.000000,86.000000,15.000000,2.000000,7.000000,2.000000
1295660.769680,27.000000,14.000000,10.000000,-8.000000,7.000000,10.000000,33.000000,25.000000
1295660.769692,8.000000,0.000000,0.000000,2.000000,-5.000000,-7.000000,26.000000,8.000000
1295660.770885,-10.000000,-19.000000,-9.000000,-33.000000,-11.000000,-1.000000,-24.000000,-6.000000
1295660.770898,-19.000000,-7.000000,-13.000000,-21.000000,-7.000000,-6.000000,-52.000000,-23.000000
1295660.772364,-12.000000,5.000000,27.000000,3.000000,-3.000000,4.000000,1.000000,6.000000
1295660.772374,11.000000,-2.000000,-21.000000,-9.000000,-9.000000,-9.000000,25.000000,14.000000
1295660.784119,10.000000,23.000000,10.000000,4.000000,-1.000000,-7.000000,56.000000,-1.000000
1295660.784132,-8.000000,4.000000,5.000000,2.000000,8.000000,8.000000,-94.000000,-6.000000
1295660.791462,-7.000000,14.000000,-7.000000,-10.000000,-8.000000,7.000000,122.000000,26.000000
1295660.791472,-3.000000,-18.000000,12.000000,30.000000,9.000000,5.000000,-56.000000,-22.000000
1295660.806367,3.000000,1.000000,-19.000000,-16.000000,-17.000000,-21.000000,-1.000000,4.000000
1295660.806378,-22.000000,-17.000000,5.000000,-11.000000,-5.000000,-18.000000,9.000000,9.000000
1295660.813894,6.000000,21.000000,-6.000000,14.000000,7.000000,3.000000,-19.000000,-13.000000
1295660.813904,10.000000,20.000000,32.000000,21.000000,14.000000,0.000000,-44.000000,-4.000000
1295660.837095,-47.000000,-44.000000,-21.000000,-40.000000,-24.000000,-7.000000,48.000000,1.000000
1295660.837115,-2.000000,0.000000,-8.000000,22.000000,15.000000,5.000000,-15.000000,-2.000000
1295660.844100,-13.000000,5.000000,-10.000000,-3.000000,-2.000000,-4.000000,-31.000000,-26.000000
1295660.844111,2.000000,-34.000000,3.000000,52.000000,16.000000,9.000000,-90.000000,-5.000000
1295660.882018,-21.000000,8.000000,11.000000,-7.000000,-13.000000,9.000000,127.000000,21.000000
1295660.882065,-6.000000,-10.000000,15.000000,52.000000,27.000000,14.000000,23.000000,13.000000
1295660.889140,-15.000000,-3.000000,-25.000000,-36.000000,-16.000000,-17.000000,-47.000000,-22.000000
1295660.889156,25.000000,3.000000,0.000000,15.000000,5.000000,-1.000000,-8.000000,2.000000
1295660.896969,14.000000,56.000000,2.000000,-1.000000,1.000000,-1.000000,2.000000,11.000000
1295660.896984,-5.000000,-8.000000,-8.000000,-7.000000,7.000000,0.000000,-23.000000,-12.000000
1295660.897515,5.000000,0.000000,-16.000000,-5.000000,-18.000000,-13.000000,10.000000,-6.000000
1295660.897524,10.000000,10.000000,25.000000,18.000000,-2.000000,-3.000000,-6.000000,10.000000
1295660.898815,-1.000000,26.000000,-5.000000,3.000000,2.000000,5.000000,9.000000,5.000000
1295660.898846,12.000000,8.000000,11.000000,32.000000,9.000000,11.000000,-11.000000,-10.000000
1295660.911883,-2.000000,-11.000000,-7.000000,-5.000000,1.000000,-6.000000,-23.000000,-13.000000
1295660.911911,-10.000000,-25.000000,-24.000000,-54.000000,-18.000000,4.000000,-95.000000,-33.000000
1295660.919357,-30.000000,-4.000000,32.000000,116.000000,42.000000,13.000000,87.000000,19.000000
1295660.919388,37.000000,15.000000,-3.000000,-20.000000,-1.000000,2.000000,1.000000,21.000000
1295660.933861,-19.000000,-41.000000,-18.000000,-15.000000,5.000000,-2.000000,-19.000000,-14.000000
1295660.933872,-17.000000,-19.000000,-17.000000,1.000000,-19.000000,-11.000000,-16.000000,-13.000000
1295660.941630,5.000000,27.000000,10.000000,-12.000000,-5.000000,-6.000000,-34.000000,-9.000000
1295660.941640,6.000000,31.000000,8.000000,-7.000000,-12.000000,1.000000,23.000000,2.000000
1295660.971808,-22.000000,-75.000000,-12.000000,4.000000,12.000000,9.000000,-5.000000,12.000000
1295660.971837,0.000000,15.000000,10.000000,10.000000,-9.000000,-12.000000,-55.000000,-31.000000
1295660.986658,-22.000000,-8.000000,-6.000000,10.000000,-12.000000,6.000000,67.000000,11.000000
1295660.986668,11.000000,-6.000000,21.000000,-3.000000,5.000000,11.000000,55.000000,41.000000
1295661.009059,17.000000,15.000000,-9.000000,-12.000000,-5.000000,-4.000000,-31.000000,-15.000000
1295661.009069,-17.000000,-27.000000,-24.000000,-23.000000,-6.000000,-6.000000,-35.000000,-20.000000
1295661.016662,16.000000,48.000000,36.000000,56.000000,14.000000,11.000000,-7.000000,-4.000000
1295661.016672,-5.000000,6.000000,-8.000000,-19.000000,-8.000000,-8.000000,-26.000000,-4.000000
1295661.041339,3.000000,-1.000000,1.000000,8.000000,3.000000,4.000000,63.000000,18.000000
1295661.041357,-1.000000,4.000000,-4.000000,-3.000000,6.000000,-1.000000,-11.000000,1.000000
1295661.041467,-13.000000,-10.000000,11.000000,8.000000,-1.000000,-13.000000,-34.000000,-12.000000
1295661.041483,10.000000,8.000000,1.000000,6.000000,1.000000,5.000000,2.000000,2.000000
1295661.061607,8.000000,-22.000000,-23.000000,-6.000000,-1.000000,-2.000000,8.000000,16.000000
1295661.061619,1.000000,3.000000,0.000000,3.000000,2.000000,6.000000,2.000000,1.000000
1295661.076867,-6.000000,3.000000,-26.000000,-29.000000,-8.000000,-8.000000,-9.000000,-7.000000
1295661.076879,-5.000000,-4.000000,33.000000,40.000000,4.000000,0.000000,-13.000000,-10.000000
1295661.091891,3.000000,21.000000,-21.000000,-8.000000,19.000000,-2.000000,-114.000000,-26.000000
1295661.091917,9.000000,44.000000,35.000000,70.000000,19.000000,13.000000,116.000000,37.000000
1295661.121315,30.000000,-24.000000,-9.000000,-5.000000,-1.000000,-8.000000,12.000000,14.000000
1295661.121332,5.000000,4.000000,-68.000000,-73.000000,-22.000000,-17.000000,-43.000000,-16.000000
1295661.121874,9.000000,10.000000,76.000000,127.000000,44.000000,29.000000,-13.000000,-8.000000
1295661.121883,-20.000000,19.000000,2.000000,3.000000,9.000000,3.000000,-18.000000,-8.000000
1295661.123267,1.000000,-18.000000,2.000000,-6.000000,0.000000,-5.000000,-3.000000,3.000000
1295661.123276,-14.000000,57.000000,-8.000000,-14.000000,-9.000000,-7.000000,-31.000000,-25.000000
1295661.124652,17.000000,-21.000000,-22.000000,-8.000000,-1.000000,2.000000,7.000000,3.000000
1295661.124661,-16.000000,-4.000000,-10.000000,-3.000000,-1.000000,3.000000,-16.000000,-18.000000
1295661.128761,21.000000,3.000000,-4.000000,-5.000000,9.000000,0.000000,-17.000000,24.000000
1295661.128769,-13.000000,-1.000000,-21.000000,-25.000000,-9.000000,-10.000000,-29.000000,-19.000000
1295661.166474,-22.000000,9.000000,-14.000000,-1.000000,-3.000000,10.000000,-31.000000,-26.000000
1295661.166498,13.000000,24.000000,11.000000,35.000000,12.000000,1.000000,6.000000,6.000000
1295661.174055,1.000000,-6.000000,-1.000000,-15.000000,-13.000000,-8.000000,21.000000,13.000000
1295661.174067,-6.000000,8.000000,-1.000000,-10.000000,-2.000000,-2.000000,-13.000000,-6.000000
1295661.189161,10.000000,3.000000,-32.000000,-5.000000,-3.000000,-7.000000,-28.000000,-13.000000
1295661.189174,15.000000,50.000000,54.000000,67.000000,17.000000,13.000000,47.000000,15.000000
1295661.196542,39.000000,2.000000,6.000000,5.000000,-1.000000,0.000000,-32.000000,5.000000
1295661.196551,-46.000000,-7.000000,-38.000000,-20.000000,-8.000000,-10.000000,49.000000,0.000000
1295661.211435,11.000000,17.000000,5.000000,-25.000000,4.000000,2.000000,27.000000,10.000000
1295661.211455,-8.000000,-19.000000,-6.000000,-13.000000,-6.000000,0.000000,-27.000000,-12.000000
1295661.226723,-14.000000,17.000000,12.000000,45.000000,8.000000,-2.000000,-23.000000,-17.000000
1295661.226735,-6.000000,24.000000,-9.000000,-12.000000,5.000000,10.000000,-9.000000,0.000000
1295661.241401,12.000000,-3.000000,-16.000000,3.000000,-13.000000,5.000000,58.000000,17.000000
1295661.241412,19.000000,17.000000,22.000000,-23.000000,5.000000,8.000000,30.000000,21.000000
1295661.241960,-18.000000,-52.000000,-13.000000,-6.000000,-2.000000,-9.000000,-45.000000,-14.000000
1295661.241981,-3.000000,21.000000,-22.000000,-12.000000,-6.000000,-1.000000,-31.000000,-16.000000
1295661.243140,-5.000000,-23.000000,38.000000,60.000000,17.000000,-3.000000,10.000000,12.000000
1295661.243148,-27.000000,20.000000,5.000000,1.000000,-4.000000,0.000000,-18.000000,-7.000000
1295661.243723,17.000000,44.000000,0.000000,-5.000000,7.000000,11.000000,52.000000,20.000000
1295661.243731,-4.000000,-14.000000,-10.000000,-12.000000,-5.000000,-7.000000,-9.000000,0.000000
1295661.245408,19.000000,2.000000,8.000000,1.000000,10.000000,7.000000,-6.000000,-5.000000
1295661.245422,-10.000000,4.000000,-24.000000,-6.000000,-22.000000,-18.000000,-59.000000,-19.000000
1295661.248853,30.000000,16.000000,32.000000,18.000000,-9.000000,0.000000,33.000000,1.000000
1295661.248871,-11.000000,-24.000000,-6.000000,8.000000,14.000000,14.000000,39.000000,20.000000
1295661.286950,44.000000,70.000000,-2.000000,-12.000000,-5.000000,-12.000000,-18.000000,-4.000000
1295661.286974,-12.000000,-23.000000,-17.000000,-27.000000,-11.000000,-5.000000,-15.000000,-10.000000
1295661.301449,4.000000,15.000000,16.000000,39.000000,14.000000,6.000000,-7.000000,1.000000
1295661.301460,-14.000000,-24.000000,-12.000000,-8.000000,4.000000,4.000000,-16.000000,-19.000000
1295661.324294,-23.000000,-38.000000,16.000000,12.000000,-4.000000,3.000000,-27.000000,-11.000000
1295661.324352,22.000000,12.000000,-15.000000,-31.000000,-1.000000,15.000000,100.000000,44.000000
1295661.332001,-5.000000,-15.000000,-3.000000,19.000000,9.000000,3.000000,3.000000,2.000000
1295661.332061,2.000000,26.000000,18.000000,-7.000000,5.000000,0.000000,-21.000000,-11.000000
1295661.354489,-10.000000,10.000000,-9.000000,6.000000,-5.000000,-5.000000,-20.000000,-15.000000
1295661.354510,-6.000000,-4.000000,-1.000000,-12.000000,1.000000,-3.000000,-27.000000,-18.000000
1295661.355138,4.000000,-5.000000,-8.000000,-4.000000,-7.000000,-7.000000,-52.000000,-1.000000
1295661.355160,41.000000,26.000000,6.000000,20.000000,2.000000,10.000000,110.000000,27.000000
1295661.356370,-1.000000,-14.000000,-17.000000,19.000000,18.000000,2.000000,-28.000000,6.000000
1295661.356379,14.000000,22.000000,51.000000,43.000000,-14.000000,1.000000,45.000000,9.000000
1295661.357844,4.000000,-19.000000,-20.000000,-6.000000,0.000000,-1.000000,9.000000,-1.000000
1295661.357854,-45.000000,-57.000000,-7.000000,-1.000000,-7.000000,-2.000000,-25.000000,-11.000000
1295661.362074,1.000000,-26.000000,21.000000,19.000000,3.000000,2.000000,9.000000,-6.000000
1295661.362082,-34.000000,45.000000,6.000000,-1.000000,-1.000000,4.000000,1.000000,-3.000000
1295661.369346,3.000000,-18.000000,-21.000000,-20.000000,-12.000000,-12.000000,-8.000000,0.000000
1295661.369358,9.000000,1.000000,19.000000,29.000000,6.000000,-7.000000,40.000000,5.000000
1295661.406875,1.000000,-6.000000,2.000000,-3.000000,-2.000000,6.000000,34.000000,6.000000
1295661.406904,3.000000,-28.000000,-12.000000,-17.000000,-6.000000,3.000000,9.000000,-6.000000
1295661.436480,-8.000000,19.000000,-9.000000,2.000000,-1.000000,-3.000000,-59.000000,-20.000000
1295661.436491,29.000000,28.000000,26.000000,38.000000,4.000000,7.000000,50.000000,26.000000
1295661.451421,8.000000,-11.000000,-3.000000,15.000000,6.000000,2.000000,-47.000000,-6.000000
1295661.451445,-6.000000,1.000000,-1.000000,-8.000000,2.000000,-16.000000,44.000000,-7.000000
1295661.466584,-2.000000,6.000000,1.000000,19.000000,3.000000,-1.000000,-19.000000,-6.000000
1295661.466594,-3.000000,16.000000,-7.000000,-29.000000,-2.000000,10.000000,1.000000,-7.000000
1295661.481639,0.000000,-32.000000,0.000000,-2.000000,-6.000000,-1.000000,-1.000000,10.000000
1295661.481659,9.000000,-4.000000,-6.000000,-8.000000,-19.000000,-7.000000,30.000000,6.000000
1295661.482014,6.000000,-5.000000,5.000000,22.000000,11.000000,10.000000,-10.000000,-9.000000
1295661.482031,-7.000000,-6.000000,-8.000000,-1.000000,-10.000000,-10.000000,-13.000000,-4.000000
1295661.482538,10.000000,3.000000,-20.000000,-16.000000,-11.000000,-14.000000,16.000000,5.000000
1295661.482560,6.000000,-8.000000,-1.000000,10.000000,7.000000,16.000000,65.000000,23.000000
1295661.483706,6.000000,15.000000,20.000000,-13.000000,-1.000000,0.000000,-1.000000,3.000000
1295661.483714,13.000000,17.000000,9.000000,49.000000,4.000000,1.000000,-43.000000,-1.000000
1295661.488908,11.000000,12.000000,29.000000,7.000000,11.000000,2.000000,5.000000,8.000000
1295661.488917,-18.000000,-9.000000,-10.000000,11.000000,4.000000,9.000000,17.000000,-10.000000
1295661.526663,19.000000,33.000000,-15.000000,-14.000000,-14.000000,-8.000000,-62.000000,-14.000000
1295661.526674,-39.000000,-50.000000,0.000000,13.000000,-6.000000,-14.000000,12.000000,-12.000000
1295661.556813,-11.000000,39.000000,42.000000,17.000000,1.000000,7.000000,13.000000,11.000000
1295661.556823,-1.000000,6.000000,-10.000000,-20.000000,6.000000,17.000000,83.000000,37.000000
1295661.593968,-40.000000,-63.000000,-6.000000,4.000000,2.000000,-1.000000,-30.000000,-13.000000
1295661.593997,41.000000,44.000000,-14.000000,-18.000000,-7.000000,-9.000000,-23.000000,-11.000000
1295661.601385,-7.000000,-16.000000,-4.000000,20.000000,-1.000000,-11.000000,-10.000000,-5.000000
1295661.601412,6.000000,-4.000000,1.000000,-30.000000,-11.000000,-5.000000,-32.000000,-5.000000
1295661.603102,-22.000000,-14.000000,-6.000000,9.000000,0.000000,-8.000000,20.000000,4.000000
1295661.603133,7.000000,35.000000,0.000000,4.000000,6.000000,-4.000000,7.000000,5.000000
1295661.603579,-2.000000,-15.000000,-5.000000,-21.000000,-10.000000,-1.000000,-11.000000,-10.000000
1295661.603606,0.000000,17.000000,-19.000000,-3.000000,3.000000,9.000000,-53.000000,-9.000000
1295661.604057,1.000000,-18.000000,3.000000,19.000000,3.000000,-11.000000,-77.000000,-13.000000
1295661.604084,10.000000,-32.000000,2.000000,23.000000,0.000000,11.000000,43.000000,9.000000
1295661.608999,8.000000,54.000000,66.000000,88.000000,43.000000,13.000000,23.000000,2.000000
1295661.609010,4.000000,-26.000000,-15.000000,-13.000000,-10.000000,-8.000000,-5.000000,3.000000
1295661.639201,7.000000,39.000000,6.000000,-16.000000,-7.000000,-1.000000,-9.000000,-3.000000
1295661.639217,-9.000000,-23.000000,-16.000000,-13.000000,1.000000,10.000000,10.000000,-7.000000
1295661.646456,1.000000,0.000000,12.000000,11.000000,7.000000,-10.000000,-69.000000,-6.000000
1295661.646467,-3.000000,0.000000,-4.000000,3.000000,-7.000000,-8.000000,25.000000,8.000000
1295661.676558,18.000000,-5.000000,-3.000000,3.000000,2.000000,8.000000,20.000000,8.000000
1295661.676569,-16.000000,14.000000,-6.000000,-3.000000,-7.000000,-1.000000,46.000000,-9.000000
1295661.684009,-33.000000,-66.000000,-10.000000,-3.000000,5.000000,-8.000000,-42.000000,-15.000000
1295661.684018,-12.000000,26.000000,2.000000,-16.000000,-9.000000,-10.000000,-32.000000,-9.000000
1295661.714349,20.000000,22.000000,39.000000,25.000000,11.000000,20.000000,28.000000,0.000000
1295661.714359,-22.000000,-18.000000,-10.000000,-16.000000,-1.000000,-10.000000,-32.000000,-3.000000
1295661.715057,10.000000,-21.000000,-19.000000,4.000000,-3.000000,4.000000,63.000000,18.000000
1295661.715077,15.000000,36.000000,24.000000,-21.000000,1.000000,7.000000,-5.000000,-3.000000
1295661.716546,-26.000000,5.000000,9.000000,68.000000,11.000000,-6.000000,-6.000000,2.000000
1295661.716565,6.000000,-24.000000,-6.000000,-6.000000,7.000000,-3.000000,-16.000000,1.000000
1295661.717127,13.000000,29.000000,-20.000000,-12.000000,-4.000000,-7.000000,-10.000000,-3.000000
1295661.717145,-13.000000,-1.000000,24.000000,5.000000,-6.000000,-14.000000,19.000000,-12.000000
1295661.722483,2.000000,11.000000,-14.000000,-10.000000,-5.000000,-5.000000,50.000000,1.000000
1295661.722513,28.000000,27.000000,10.000000,-2.000000,9.000000,14.000000,25.000000,25.000000
1295661.744349,-3.000000,-6.000000,1.000000,3.000000,-4.000000,-3.000000,-22.000000,-7.000000
1295661.744385,-7.000000,-24.000000,-20.000000,-21.000000,-3.000000,-8.000000,-21.000000,-21.000000
1295661.751491,-11.000000,30.000000,25.000000,23.000000,2.000000,-3.000000,-80.000000,-15.000000
1295661.751509,24.000000,8.000000,-9.000000,7.000000,10.000000,9.000000,106.000000,44.000000
1295661.759127,1.000000,29.000000,-1.000000,-54.000000,-10.000000,-3.000000,-18.000000,-5.000000
1295661.759137,3.000000,-48.000000,9.000000,7.000000,-5.000000,2.000000,-12.000000,-9.000000
1295661.803929,-37.000000,17.000000,3.000000,27.000000,12.000000,3.000000,-11.000000,-16.000000
1295661.803938,-10.000000,20.000000,2.000000,9.000000,4.000000,-4.000000,-10.000000,-12.000000
1295661.834155,-8.000000,-111.000000,-22.000000,-16.000000,-1.000000,3.000000,15.000000,6.000000
1295661.834166,-30.000000,5.000000,3.000000,-17.000000,-15.000000,2.000000,-5.000000,-5.000000
1295661.835208,0.000000,-9.000000,-16.000000,-13.000000,-15.000000,-15.000000,-26.000000,-6.000000
1295661.835217,4.000000,-26.000000,14.000000,20.000000,8.000000,5.000000,22.000000,3.000000
1295661.835854,-12.000000,-10.000000,-2.000000,-4.000000,7.000000,9.000000,39.000000,6.000000
1295661.835864,-6.000000,0.000000,-10.000000,-5.000000,-6.000000,-9.000000,-34.000000,-8.000000
1295661.836938,8.000000,13.000000,2.000000,-1.000000,2.000000,-1.000000,90.000000,15.000000
1295661.836945,30.000000,-11.000000,28.000000,37.000000,21.000000,-5.000000,-16.000000,12.000000
1295661.842162,-37.000000,-53.000000,-12.000000,-17.000000,-6.000000,-8.000000,4.000000,-7.000000
1295661.842170,-1.000000,-1.000000,-2.000000,-40.000000,-3.000000,1.000000,-12.000000,-9.000000
1295661.871779,34.000000,20.000000,-1.000000,-4.000000,2.000000,3.000000,-108.000000,-17.000000
1295661.871801,-3.000000,-19.000000,-12.000000,-13.000000,-13.000000,0.000000,127.000000,35.000000
1295661.886739,25.000000,24.000000,10.000000,-16.000000,6.000000,8.000000,4.000000,22.000000
1295661.886778,-1.000000,17.000000,1.000000,1.000000,2.000000,-1.000000,-48.000000,-21.000000
1295661.894574,-2.000000,-1.000000,9.000000,2.000000,-6.000000,-5.000000,-9.000000,-14.000000
1295661.894613,-33.000000,-13.000000,-7.000000,-27.000000,-9.000000,-2.000000,-6.000000,1.000000
1295661.946356,9.000000,7.000000,-4.000000,0.000000,-2.000000,0.000000,-1.000000,-1.000000
1295661.946366,-2.000000,16.000000,2.000000,-4.000000,0.000000,1.000000,-8.000000,-1.000000
1295661.953982,16.000000,-32.000000,-16.000000,-28.000000,-17.000000,-18.000000,-7.000000,2.000000
1295661.953992,-12.000000,2.000000,-10.000000,8.000000,0.000000,-1.000000,9.000000,0.000000
1295661.954954,-3.000000,-16.000000,2.000000,16.000000,11.000000,0.000000,1.000000,-11.000000
1295661.954968,11.000000,25.000000,12.000000,-7.000000,-3.000000,-3.000000,-32.000000,-13.000000
1295661.955693,16.000000,49.000000,-9.000000,10.000000,5.000000,3.000000,67.000000,29.000000
1295661.955708,3.000000,5.000000,33.000000,26.000000,8.000000,0.000000,23.000000,14.000000
1295661.957869,-31.000000,-21.000000,-10.000000,-19.000000,-2.000000,1.000000,-2.000000,3.000000
1295661.957878,9.000000,5.000000,-11.000000,-8.000000,-1.000000,-1.000000,-6.000000,-3.000000
1295661.983991,-10.000000,-31.000000,-10.000000,-14.000000,-5.000000,0.000000,-40.000000,-12.000000
1295661.984020,-13.000000,3.000000,14.000000,32.000000,3.000000,0.000000,-8.000000,-9.000000
1295661.991589,0.000000,-7.000000,3.000000,-7.000000,-7.000000,-12.000000,18.000000,13.000000
1295661.991607,-9.000000,-1.000000,9.000000,6.000000,13.000000,4.000000,-3.000000,8.000000
1295662.006364,5.000000,6.000000,-8.000000,33.000000,5.000000,-2.000000,-23.000000,-12.000000
1295662.006373,-17.000000,-33.000000,-14.000000,-32.000000,-7.000000,4.000000,-70.000000,-19.000000
1295662.029147,30.000000,31.000000,36.000000,1.000000,-10.000000,0.000000,127.000000,37.000000
1295662.029176,8.000000,-13.000000,-8.000000,6.000000,4.000000,-7.000000,-20.000000,6.000000
1295662.043953,-28.000000,-16.000000,-7.000000,9.000000,5.000000,-1.000000,-33.000000,-21.000000
1295662.043976,-9.000000,-27.000000,-25.000000,-29.000000,0.000000,-7.000000,-36.000000,-24.000000
1295662.074699,-9.000000,21.000000,17.000000,13.000000,-17.000000,-11.000000,-24.000000,-13.000000
1295662.074710,38.000000,-3.000000,9.000000,22.000000,10.000000,11.000000,32.000000,28.000000
1295662.075218,-7.000000,-12.000000,-11.000000,-10.000000,-2.000000,-2.000000,-5.000000,-4.000000
1295662.075245,9.000000,42.000000,-4.000000,-5.000000,-2.000000,-1.000000,-9.000000,-7.000000
1295662.075809,9.000000,-12.000000,0.000000,6.000000,5.000000,-5.000000,-48.000000,-21.000000
1295662.075818,-25.000000,-3.000000,-27.000000,-42.000000,-24.000000,-22.000000,11.000000,-1.000000
1295662.076458,44.000000,19.000000,19.000000,27.000000,21.000000,15.000000,59.000000,36.000000
1295662.076486,-35.000000,14.000000,-12.000000,7.000000,4.000000,0.000000,-30.000000,-13.000000
1295662.077002,-2.000000,-21.000000,8.000000,8.000000,-4.000000,-5.000000,-32.000000,-15.000000
1295662.077010,-1.000000,-18.000000,-25.000000,-2.000000,-5.000000,-1.000000,-33.000000,-5.000000
1295662.082303,-7.000000,14.000000,-41.000000,-70.000000,-51.000000,-27.000000,56.000000,6.000000
1295662.082312,-10.000000,-44.000000,11.000000,53.000000,25.000000,7.000000,10.000000,18.000000
1295662.096769,2.000000,12.000000,4.000000,-6.000000,3.000000,0.000000,-19.000000,-6.000000
1295662.096780,-7.000000,-20.000000,-19.000000,-11.000000,-12.000000,-11.000000,-21.000000,-13.000000
1295662.119335,-3.000000,-9.000000,-9.000000,-20.000000,-7.000000,-7.000000,-25.000000,-14.000000
1295662.119354,-7.000000,11.000000,3.000000,18.000000,2.000000,-2.000000,34.000000,10.000000
1295662.126778,-6.000000,-18.000000,3.000000,12.000000,8.000000,7.000000,46.000000,9.000000
1295662.126788,22.000000,43.000000,6.000000,-17.000000,-10.000000,-8.000000,-47.000000,1.000000
1295662.156778,3.000000,13.000000,-10.000000,-13.000000,-1.000000,-2.000000,21.000000,-13.000000
1295662.156789,-4.000000,6.000000,6.000000,18.000000,9.000000,1.000000,-2.000000,2.000000
1295662.164217,14.000000,16.000000,-5.000000,-4.000000,-5.000000,-6.000000,16.000000,3.000000
1295662.164228,-8.000000,-34.000000,-50.000000,-53.000000,-9.000000,-7.000000,-39.000000,-8.000000
1295662.187006,3.000000,40.000000,80.000000,83.000000,21.000000,15.000000,49.000000,7.000000
1295662.187020,-16.000000,-38.000000,-22.000000,-19.000000,-11.000000,-5.000000,4.000000,0.000000
1295662.187578,-15.000000,-43.000000,-21.000000,-13.000000,0.000000,-2.000000,1.000000,1.000000
1295662.187595,-11.000000,-19.000000,-17.000000,-30.000000,-19.000000,-18.000000,-37.000000,-25.000000
1295662.189173,-2.000000,31.000000,12.000000,11.000000,9.000000,11.000000,-52.000000,-12.000000
1295662.189222,3.000000,4.000000,-3.000000,-6.000000,-5.000000,0.000000,89.000000,23.000000
1295662.193930,3.000000,-13.000000,4.000000,-5.000000,-2.000000,-18.000000,-28.000000,-5.000000
1295662.193945,8.000000,5.000000,-12.000000,6.000000,-1.000000,-4.000000,-32.000000,-11.000000
1295662.209216,34.000000,23.000000,1.000000,14.000000,9.000000,3.000000,-15.000000,10.000000
1295662.209227,-16.000000,-30.000000,-32.000000,-31.000000,-9.000000,-12.000000,-62.000000,-22.000000
1295662.269491,-29.000000,-45.000000,31.000000,16.000000,18.000000,6.000000,-3.000000,-16.000000
1295662.269505,13.000000,28.000000,19.000000,-29.000000,-28.000000,-18.000000,-44.000000,-4.000000
1295662.269908,-12.000000,9.000000,0.000000,16.000000,-5.000000,-3.000000,58.000000,23.000000
1295662.269916,3.000000,-25.000000,-14.000000,-10.000000,0.000000,-9.000000,-17.000000,-4.000000
1295662.270907,8.000000,-10.000000,-9.000000,-14.000000,-12.000000,-13.000000,-30.000000,-19.000000
1295662.270916,-30.000000,-4.000000,16.000000,21.000000,7.000000,6.000000,7.000000,4.000000
1295662.271305,-1.000000,0.000000,-28.000000,-12.000000,-3.000000,4.000000,28.000000,2.000000
1295662.271313,-20.000000,-35.000000,-7.000000,-19.000000,-5.000000,-9.000000,-83.000000,-15.000000
1295662.273032,-11.000000,1.000000,29.000000,23.000000,-6.000000,-8.000000,-128.000000,-30.000000
1295662.273044,47.000000,58.000000,11.000000,-21.000000,-9.000000,-7.000000,127.000000,44.000000
1295662.276190,15.000000,33.000000,59.000000,78.000000,16.000000,2.000000,43.000000,19.000000
1295662.276225,-30.000000,4.000000,-15.000000,-12.000000,-3.000000,4.000000,-8.000000,-5.000000
1295662.284392,-9.000000,-1.000000,-8.000000,-11.000000,-4.000000,-2.000000,-19.000000,-16.000000
1295662.284413,-10.000000,-13.000000,-12.000000,3.000000,2.000000,-3.000000,-16.000000,-8.000000
1295662.298969,4.000000,8.000000,8.000000,-33.000000,-11.000000,3.000000,22.000000,7.000000
1295662.298998,-10.000000,-2.000000,16.000000,67.000000,29.000000,12.000000,-13.000000,1.000000
1295662.306769,4.000000,-24.000000,-14.000000,-8.000000,-6.000000,-10.000000,4.000000,1.000000
1295662.306780,-7.000000,-18.000000,-31.000000,-45.000000,-21.000000,-4.000000,-20.000000,-12.000000
1295662.314201,12.000000,25.000000,9.000000,32.000000,9.000000,11.000000,55.000000,19.000000
1295662.314212,-9.000000,-19.000000,-20.000000,-28.000000,0.000000,5.000000,14.000000,6.000000
1295662.322123,14.000000,-30.000000,29.000000,71.000000,8.000000,-7.000000,-22.000000,-4.000000
1295662.322141,2.000000,45.000000,4.000000,-16.000000,-25.000000,-13.000000,10.000000,4.000000
1295662.336415,-7.000000,-33.000000,-17.000000,-24.000000,5.000000,0.000000,10.000000,-1.000000
