# participant_id: P5
# gesture: baseline
# trial_number: 2
# stream_name: Myo_EMG
# stream_type: emg
# timestamp: 20260420_140251
# samples: 5622
# duration_sec: 30.413
# nominal_sample_rate: 200.0
# effective_sample_rate: 184.83
#
timestamp,emg_1,emg_2,emg_3,emg_4,emg_5,emg_6,emg_7,emg_8
1298463.404482,0.000000,-1.000000,-4.000000,-3.000000,3.000000,1.000000,-2.000000,0.000000
1298463.404536,2.000000,4.000000,-4.000000,0.000000,-2.000000,-3.000000,-1.000000,0.000000
1298463.426740,-1.000000,-4.000000,1.000000,0.000000,-2.000000,-1.000000,-1.000000,-2.000000
1298463.426771,0.000000,-3.000000,2.000000,-1.000000,-3.000000,1.000000,2.000000,-3.000000
1298463.441616,2.000000,0.000000,-1.000000,0.000000,0.000000,-1.000000,1.000000,2.000000
1298463.442001,-1.000000,-3.000000,2.000000,1.000000,-1.000000,-3.000000,-3.000000,0.000000
1298463.443981,-5.000000,-4.000000,0.000000,-4.000000,1.000000,0.000000,-1.000000,-1.000000
1298463.444260,-2.000000,-1.000000,-3.000000,0.000000,2.000000,1.000000,1.000000,2.000000
1298463.444475,1.000000,0.000000,-1.000000,-4.000000,-2.000000,1.000000,-2.000000,-2.000000
1298463.444523,-1.000000,1.000000,-1.000000,0.000000,-3.000000,-4.000000,0.000000,0.000000
1298463.446066,-4.000000,-5.000000,-2.000000,-1.000000,-2.000000,-2.000000,0.000000,0.000000
1298463.446090,-4.000000,-1.000000,6.000000,4.000000,0.000000,-1.000000,-3.000000,0.000000
1298463.446595,-5.000000,-1.000000,-7.000000,-4.000000,-4.000000,-2.000000,0.000000,1.000000
1298463.446615,0.000000,7.000000,-2.000000,-2.000000,-2.000000,-3.000000,1.000000,1.000000
1298463.449070,1.000000,0.000000,-3.000000,-1.000000,-1.000000,-1.000000,-2.000000,0.000000
1298463.449121,-4.000000,-5.000000,0.000000,-2.000000,-1.000000,-5.000000,-4.000000,-3.000000
1298463.456649,-4.000000,1.000000,-3.000000,-3.000000,-2.000000,-2.000000,-3.000000,-2.000000
1298463.456700,3.000000,2.000000,-4.000000,1.000000,-1.000000,0.000000,-1.000000,-2.000000
1298463.465353,-1.000000,-4.000000,-4.000000,-2.000000,-1.000000,-1.000000,-4.000000,-2.000000
1298463.465384,-4.000000,-1.000000,4.000000,3.000000,-1.000000,-1.000000,-3.000000,2.000000
1298463.479407,-1.000000,3.000000,4.000000,-2.000000,0.000000,0.000000,1.000000,0.000000
1298463.479439,-3.000000,6.000000,3.000000,1.000000,-1.000000,-3.000000,-3.000000,1.000000
1298463.494224,0.000000,2.000000,-3.000000,-3.000000,-5.000000,-3.000000,0.000000,-1.000000
1298463.494272,-2.000000,-1.000000,1.000000,-2.000000,-1.000000,1.000000,-3.000000,-2.000000
1298463.501558,2.000000,2.000000,-3.000000,-1.000000,0.000000,1.000000,1.000000,2.000000
1298463.501610,-2.000000,-6.000000,-1.000000,2.000000,-1.000000,-2.000000,0.000000,1.000000
1298463.531841,-3.000000,-5.000000,-1.000000,-3.000000,0.000000,0.000000,-3.000000,2.000000
1298463.531934,1.000000,7.000000,2.000000,0.000000,2.000000,-2.000000,1.000000,2.000000
1298463.539161,2.000000,2.000000,6.000000,6.000000,-4.000000,-2.000000,-5.000000,-1.000000
1298463.539187,1.000000,2.000000,-3.000000,-1.000000,-1.000000,3.000000,3.000000,0.000000
1298463.555395,4.000000,-1.000000,2.000000,-4.000000,0.000000,-1.000000,1.000000,1.000000
1298463.555435,-2.000000,1.000000,3.000000,3.000000,-1.000000,1.000000,-1.000000,-1.000000
1298463.556387,-3.000000,-5.000000,-1.000000,2.000000,-1.000000,-4.000000,-2.000000,-3.000000
1298463.556415,3.000000,7.000000,-3.000000,0.000000,1.000000,-1.000000,0.000000,0.000000
1298463.557149,1.000000,-2.000000,3.000000,3.000000,-1.000000,-1.000000,-1.000000,-2.000000
1298463.557206,0.000000,-2.000000,-2.000000,-4.000000,0.000000,1.000000,-4.000000,-1.000000
1298463.558295,-2.000000,-2.000000,0.000000,1.000000,-1.000000,-1.000000,0.000000,-3.000000
1298463.558344,1.000000,-2.000000,1.000000,-3.000000,1.000000,-1.000000,-2.000000,-1.000000
1298463.569047,-1.000000,2.000000,-1.000000,-4.000000,-1.000000,-2.000000,-2.000000,0.000000
1298463.569101,0.000000,-2.000000,-6.000000,-3.000000,-2.000000,-4.000000,-2.000000,-1.000000
1298463.591684,0.000000,2.000000,-4.000000,0.000000,3.000000,4.000000,-1.000000,0.000000
1298463.591731,-2.000000,-4.000000,-4.000000,0.000000,-2.000000,3.000000,-2.000000,-5.000000
1298463.606674,-2.000000,-3.000000,0.000000,-6.000000,-3.000000,-1.000000,-1.000000,-2.000000
1298463.606721,-5.000000,-7.000000,-5.000000,-3.000000,-2.000000,-3.000000,0.000000,-4.000000
1298463.614410,1.000000,4.000000,2.000000,-1.000000,1.000000,0.000000,2.000000,0.000000
1298463.614436,0.000000,-2.000000,0.000000,2.000000,-3.000000,-2.000000,-3.000000,-2.000000
1298463.636645,1.000000,2.000000,-2.000000,-1.000000,2.000000,-2.000000,0.000000,-1.000000
1298463.636695,-1.000000,4.000000,-2.000000,-1.000000,-1.000000,-2.000000,-1.000000,1.000000
1298463.644308,-2.000000,-3.000000,2.000000,1.000000,0.000000,-4.000000,-1.000000,-2.000000
1298463.644335,1.000000,-2.000000,2.000000,-4.000000,-4.000000,-3.000000,-2.000000,-1.000000
1298463.675872,0.000000,-4.000000,-1.000000,0.000000,0.000000,3.000000,-4.000000,0.000000
1298463.675935,1.000000,-1.000000,0.000000,0.000000,0.000000,1.000000,0.000000,1.000000
1298463.676808,-4.000000,-9.000000,-1.000000,1.000000,-2.000000,-4.000000,-3.000000,-1.000000
1298463.676836,-2.000000,2.000000,1.000000,-2.000000,-3.000000,-1.000000,-1.000000,-2.000000
1298463.678518,-1.000000,-5.000000,-7.000000,-2.000000,-3.000000,-3.000000,-1.000000,0.000000
1298463.678566,-1.000000,-2.000000,2.000000,0.000000,0.000000,0.000000,-2.000000,1.000000
1298463.678826,-7.000000,-12.000000,-3.000000,0.000000,1.000000,0.000000,1.000000,-2.000000
1298463.678874,0.000000,3.000000,0.000000,4.000000,0.000000,2.000000,-2.000000,-5.000000
1298463.689090,0.000000,-1.000000,0.000000,1.000000,4.000000,1.000000,-1.000000,-1.000000
1298463.689135,-4.000000,1.000000,2.000000,2.000000,1.000000,-1.000000,-2.000000,1.000000
1298463.719827,1.000000,2.000000,-5.000000,-2.000000,-2.000000,-3.000000,-3.000000,-2.000000
1298463.719875,1.000000,-2.000000,-2.000000,0.000000,1.000000,1.000000,0.000000,-5.000000
1298463.749466,0.000000,-4.000000,-1.000000,0.000000,-1.000000,-4.000000,-1.000000,0.000000
1298463.749492,2.000000,2.000000,-1.000000,0.000000,-5.000000,-2.000000,1.000000,0.000000
1298463.756636,4.000000,2.000000,-5.000000,1.000000,2.000000,2.000000,1.000000,-1.000000
1298463.756685,-2.000000,-1.000000,0.000000,-3.000000,-1.000000,-3.000000,1.000000,0.000000
1298463.771439,-2.000000,-3.000000,5.000000,1.000000,2.000000,2.000000,-3.000000,0.000000
1298463.771465,3.000000,9.000000,-3.000000,1.000000,-1.000000,0.000000,-3.000000,-1.000000
1298463.779096,-2.000000,-3.000000,0.000000,2.000000,-2.000000,0.000000,0.000000,0.000000
1298463.779146,-1.000000,-4.000000,0.000000,-1.000000,-1.000000,1.000000,-2.000000,-3.000000
1298463.795092,4.000000,2.000000,2.000000,-3.000000,-3.000000,2.000000,0.000000,0.000000
1298463.795129,-2.000000,0.000000,2.000000,2.000000,0.000000,0.000000,1.000000,-1.000000
1298463.796652,-6.000000,-9.000000,-4.000000,-2.000000,0.000000,-6.000000,2.000000,-2.000000
1298463.796917,-4.000000,-8.000000,-5.000000,-3.000000,-1.000000,-4.000000,-3.000000,-5.000000
1298463.797768,-3.000000,-4.000000,-3.000000,-3.000000,-3.000000,1.000000,-2.000000,-4.000000
1298463.797815,-1.000000,-2.000000,2.000000,0.000000,2.000000,1.000000,5.000000,-1.000000
1298463.798900,-5.000000,-3.000000,4.000000,-1.000000,4.000000,0.000000,-1.000000,-4.000000
1298463.798946,-4.000000,-5.000000,1.000000,-4.000000,0.000000,-1.000000,-1.000000,-3.000000
1298463.802005,4.000000,5.000000,-2.000000,-2.000000,-1.000000,-2.000000,-4.000000,2.000000
1298463.802051,1.000000,2.000000,2.000000,-2.000000,-2.000000,-2.000000,2.000000,1.000000
1298463.809280,1.000000,-1.000000,-6.000000,-3.000000,1.000000,-4.000000,0.000000,-4.000000
1298463.809307,-1.000000,-2.000000,-3.000000,-3.000000,-3.000000,-1.000000,-3.000000,-1.000000
1298463.816886,-1.000000,-3.000000,4.000000,-3.000000,0.000000,-3.000000,-1.000000,2.000000
1298463.817074,1.000000,-1.000000,1.000000,-1.000000,-3.000000,-4.000000,1.000000,-2.000000
1298463.839064,-5.000000,-10.000000,-2.000000,-1.000000,-3.000000,-1.000000,0.000000,0.000000
1298463.839089,3.000000,3.000000,-1.000000,1.000000,0.000000,0.000000,4.000000,-1.000000
1298463.846703,-1.000000,0.000000,-1.000000,2.000000,-1.000000,0.000000,-4.000000,0.000000
1298463.846731,-5.000000,0.000000,6.000000,3.000000,2.000000,0.000000,0.000000,0.000000
1298463.876960,-2.000000,0.000000,-3.000000,-4.000000,-1.000000,-2.000000,0.000000,-1.000000
1298463.877027,-2.000000,-1.000000,0.000000,-5.000000,-1.000000,-3.000000,0.000000,-3.000000
1298463.884303,-3.000000,-6.000000,0.000000,1.000000,-3.000000,-5.000000,-1.000000,-3.000000
1298463.884332,-2.000000,-4.000000,-1.000000,0.000000,-1.000000,0.000000,1.000000,-1.000000
1298463.914386,2.000000,-1.000000,-3.000000,-3.000000,0.000000,0.000000,-5.000000,-2.000000
1298463.914429,0.000000,-2.000000,-1.000000,-5.000000,-1.000000,-3.000000,-3.000000,-1.000000
1298463.915841,0.000000,1.000000,1.000000,2.000000,1.000000,-2.000000,0.000000,-3.000000
1298463.915869,-3.000000,-3.000000,-5.000000,-4.000000,-1.000000,-1.000000,-1.000000,-3.000000
1298463.917518,-3.000000,-1.000000,2.000000,2.000000,3.000000,-1.000000,0.000000,0.000000
1298463.917844,3.000000,3.000000,-3.000000,0.000000,-2.000000,-3.000000,-1.000000,1.000000
1298463.918105,1.000000,1.000000,0.000000,4.000000,0.000000,-2.000000,-2.000000,-1.000000
1298463.918154,-2.000000,-1.000000,-3.000000,1.000000,1.000000,2.000000,-1.000000,1.000000
1298463.918775,2.000000,5.000000,-12.000000,-7.000000,-3.000000,0.000000,-1.000000,-2.000000
1298463.918819,-3.000000,-1.000000,-1.000000,2.000000,0.000000,-2.000000,1.000000,-1.000000
1298463.921685,-2.000000,-1.000000,1.000000,3.000000,0.000000,-2.000000,-1.000000,0.000000
1298463.921731,1.000000,7.000000,-1.000000,-1.000000,-1.000000,-2.000000,-1.000000,2.000000
1298463.929093,5.000000,5.000000,-6.000000,-3.000000,1.000000,2.000000,-1.000000,-1.000000
1298463.929144,-2.000000,-2.000000,1.000000,3.000000,-3.000000,0.000000,-2.000000,0.000000
1298463.951541,-1.000000,0.000000,2.000000,-3.000000,-2.000000,-1.000000,-2.000000,-4.000000
1298463.951589,-4.000000,-4.000000,3.000000,0.000000,0.000000,-2.000000,-2.000000,-1.000000
1298463.966813,0.000000,-6.000000,-1.000000,-1.000000,1.000000,1.000000,-4.000000,-2.000000
1298463.966837,-1.000000,-1.000000,2.000000,-3.000000,-2.000000,-1.000000,0.000000,1.000000
1298463.996698,-1.000000,-10.000000,0.000000,-1.000000,-4.000000,-1.000000,-5.000000,-2.000000
1298463.996748,3.000000,0.000000,-2.000000,0.000000,-2.000000,1.000000,0.000000,-1.000000
1298464.019428,-4.000000,-3.000000,0.000000,-1.000000,-1.000000,-3.000000,-1.000000,-1.000000
1298464.019477,-2.000000,-4.000000,-2.000000,0.000000,-1.000000,1.000000,-1.000000,-1.000000
1298464.034128,0.000000,-2.000000,-5.000000,1.000000,0.000000,-1.000000,-4.000000,0.000000
1298464.034179,0.000000,2.000000,3.000000,-1.000000,-2.000000,-4.000000,2.000000,-3.000000
1298464.042669,-2.000000,-3.000000,1.000000,1.000000,0.000000,-1.000000,1.000000,2.000000
1298464.043173,1.000000,4.000000,0.000000,-3.000000,-2.000000,-2.000000,-1.000000,1.000000
1298464.044368,1.000000,0.000000,0.000000,1.000000,-1.000000,-1.000000,-1.000000,-1.000000
1298464.044417,-1.000000,-4.000000,1.000000,-1.000000,-2.000000,-1.000000,0.000000,2.000000
1298464.044690,3.000000,-2.000000,0.000000,1.000000,-3.000000,-1.000000,-5.000000,-2.000000
1298464.044733,2.000000,-3.000000,6.000000,0.000000,-3.000000,2.000000,2.000000,0.000000
1298464.045494,-2.000000,-4.000000,3.000000,-3.000000,-1.000000,-2.000000,-1.000000,-1.000000
1298464.045543,0.000000,-8.000000,-11.000000,-3.000000,-4.000000,-1.000000,-5.000000,0.000000
1298464.046131,1.000000,5.000000,0.000000,-1.000000,1.000000,-3.000000,2.000000,-1.000000
1298464.046185,2.000000,3.000000,-1.000000,-2.000000,-2.000000,-1.000000,1.000000,-1.000000
1298464.049250,-3.000000,-3.000000,-3.000000,-4.000000,0.000000,-4.000000,-1.000000,-5.000000
1298464.049286,-1.000000,-1.000000,-7.000000,-3.000000,-4.000000,-1.000000,-2.000000,-2.000000
1298464.072059,-2.000000,2.000000,-1.000000,0.000000,1.000000,2.000000,-3.000000,1.000000
1298464.072106,-1.000000,4.000000,1.000000,-2.000000,-1.000000,-2.000000,0.000000,1.000000
1298464.086781,0.000000,-3.000000,-3.000000,0.000000,-4.000000,-2.000000,-2.000000,-1.000000
1298464.086849,-1.000000,-1.000000,-1.000000,0.000000,-5.000000,0.000000,-1.000000,-5.000000
1298464.094617,-3.000000,-1.000000,0.000000,0.000000,-1.000000,0.000000,0.000000,0.000000
1298464.094676,-1.000000,-2.000000,-8.000000,-9.000000,-3.000000,-4.000000,1.000000,-4.000000
1298464.116825,-2.000000,-4.000000,0.000000,-2.000000,-1.000000,-1.000000,2.000000,-1.000000
1298464.116856,-3.000000,-1.000000,-1.000000,2.000000,1.000000,-1.000000,-2.000000,1.000000
1298464.125390,-3.000000,0.000000,0.000000,1.000000,1.000000,-3.000000,0.000000,-1.000000
1298464.125445,0.000000,1.000000,-3.000000,-2.000000,-3.000000,-6.000000,-2.000000,-1.000000
1298464.163108,0.000000,-2.000000,2.000000,1.000000,-4.000000,-4.000000,-4.000000,-2.000000
1298464.163159,-1.000000,-1.000000,-4.000000,1.000000,2.000000,1.000000,0.000000,0.000000
1298464.163437,-3.000000,-3.000000,-10.000000,-2.000000,0.000000,1.000000,-4.000000,-4.000000
1298464.163494,1.000000,1.000000,2.000000,-2.000000,1.000000,-3.000000,1.000000,-1.000000
1298464.165888,0.000000,-2.000000,-2.000000,-3.000000,0.000000,1.000000,-2.000000,-1.000000
1298464.165949,0.000000,2.000000,0.000000,0.000000,-2.000000,-2.000000,-4.000000,-3.000000
1298464.166201,-4.000000,-6.000000,6.000000,-1.000000,1.000000,-2.000000,-2.000000,-3.000000
1298464.166248,3.000000,3.000000,-10.000000,-3.000000,-1.000000,-5.000000,-1.000000,1.000000
1298464.169528,4.000000,0.000000,0.000000,-1.000000,-1.000000,1.000000,1.000000,1.000000
1298464.169558,2.000000,2.000000,4.000000,1.000000,1.000000,-3.000000,-4.000000,1.000000
1298464.184680,-3.000000,-1.000000,3.000000,3.000000,1.000000,-1.000000,0.000000,-2.000000
1298464.184737,-4.000000,-2.000000,6.000000,3.000000,0.000000,-2.000000,-1.000000,-2.000000
1298464.199207,3.000000,0.000000,-3.000000,-3.000000,0.000000,-1.000000,-1.000000,2.000000
1298464.199255,-2.000000,-2.000000,3.000000,2.000000,0.000000,-2.000000,-3.000000,2.000000
1298464.207089,-3.000000,1.000000,4.000000,0.000000,2.000000,3.000000,1.000000,3.000000
1298464.207129,-1.000000,-1.000000,-15.000000,-7.000000,-3.000000,-4.000000,-3.000000,1.000000
1298464.236882,0.000000,-2.000000,2.000000,-2.000000,-3.000000,0.000000,-5.000000,0.000000
1298464.236924,-3.000000,-2.000000,0.000000,2.000000,3.000000,2.000000,2.000000,3.000000
1298464.238343,1.000000,0.000000,-9.000000,-4.000000,-2.000000,-2.000000,1.000000,-1.000000
1298464.238480,2.000000,1.000000,0.000000,-4.000000,-1.000000,2.000000,0.000000,0.000000
1298464.239375,-2.000000,-4.000000,-2.000000,2.000000,-1.000000,-4.000000,1.000000,0.000000
1298464.239423,0.000000,-2.000000,-7.000000,-2.000000,-1.000000,-2.000000,-1.000000,-3.000000
1298464.239894,0.000000,-1.000000,-1.000000,-1.000000,-1.000000,0.000000,-1.000000,-1.000000
1298464.239933,-1.000000,-6.000000,-9.000000,-4.000000,-4.000000,-1.000000,-1.000000,-5.000000
1298464.266929,1.000000,-1.000000,1.000000,0.000000,3.000000,-2.000000,1.000000,-1.000000
1298464.266963,-1.000000,-5.000000,-1.000000,-2.000000,-1.000000,0.000000,-5.000000,0.000000
1298464.274643,1.000000,4.000000,-11.000000,-2.000000,-6.000000,-1.000000,-2.000000,-2.000000
1298464.274677,-2.000000,-7.000000,2.000000,4.000000,-1.000000,-1.000000,-4.000000,-4.000000
1298464.276074,3.000000,2.000000,0.000000,0.000000,0.000000,3.000000,-1.000000,1.000000
1298464.276101,-2.000000,-3.000000,-7.000000,-3.000000,0.000000,0.000000,-3.000000,-4.000000
1298464.282353,0.000000,-2.000000,-3.000000,-2.000000,0.000000,0.000000,-3.000000,-2.000000
1298464.282413,-2.000000,-1.000000,-1.000000,-3.000000,0.000000,-2.000000,0.000000,-3.000000
1298464.289409,-1.000000,1.000000,-4.000000,-1.000000,-1.000000,-3.000000,-4.000000,0.000000
1298464.289438,1.000000,2.000000,10.000000,5.000000,2.000000,-4.000000,-2.000000,-1.000000
1298464.297136,-2.000000,-2.000000,-4.000000,-1.000000,-2.000000,0.000000,-3.000000,-1.000000
1298464.297215,0.000000,-4.000000,3.000000,1.000000,1.000000,-1.000000,3.000000,-3.000000
1298464.319223,0.000000,2.000000,-2.000000,-3.000000,-2.000000,-4.000000,2.000000,-2.000000
1298464.319253,3.000000,2.000000,2.000000,1.000000,1.000000,-1.000000,1.000000,-1.000000
1298464.326986,-3.000000,-4.000000,1.000000,-1.000000,-1.000000,2.000000,-1.000000,-3.000000
1298464.327013,0.000000,-4.000000,-2.000000,-3.000000,0.000000,-2.000000,-1.000000,1.000000
1298464.350038,2.000000,-4.000000,-2.000000,-2.000000,-2.000000,2.000000,1.000000,3.000000
1298464.350426,-7.000000,-15.000000,-6.000000,-6.000000,-6.000000,-3.000000,1.000000,-2.000000
1298464.351208,0.000000,-3.000000,-2.000000,-2.000000,3.000000,-4.000000,-1.000000,-1.000000
1298464.351328,-3.000000,-1.000000,4.000000,-3.000000,1.000000,1.000000,0.000000,0.000000
1298464.351893,1.000000,3.000000,-2.000000,-2.000000,1.000000,0.000000,-2.000000,3.000000
1298464.351933,1.000000,-1.000000,-3.000000,-2.000000,-3.000000,-2.000000,-5.000000,0.000000
1298464.357080,2.000000,2.000000,-4.000000,1.000000,-1.000000,-2.000000,-1.000000,0.000000
1298464.357105,0.000000,-8.000000,-11.000000,0.000000,-3.000000,-4.000000,1.000000,-3.000000
1298464.372097,-4.000000,-5.000000,-1.000000,0.000000,0.000000,-2.000000,-3.000000,0.000000
1298464.372125,-1.000000,-6.000000,-4.000000,-1.000000,0.000000,-2.000000,1.000000,0.000000
1298464.386903,3.000000,3.000000,3.000000,0.000000,1.000000,-1.000000,-1.000000,1.000000
1298464.387191,-1.000000,-4.000000,-6.000000,-5.000000,-1.000000,1.000000,1.000000,-1.000000
1298464.389319,-1.000000,0.000000,0.000000,1.000000,-1.000000,-2.000000,-2.000000,-2.000000
1298464.389366,1.000000,1.000000,0.000000,-1.000000,-1.000000,-3.000000,-5.000000,1.000000
1298464.431906,-2.000000,-2.000000,7.000000,2.000000,-2.000000,-1.000000,3.000000,-1.000000
1298464.431936,-4.000000,-2.000000,-3.000000,-3.000000,2.000000,-1.000000,-1.000000,-2.000000
1298464.461703,-1.000000,1.000000,3.000000,1.000000,0.000000,-2.000000,-1.000000,-1.000000
1298464.461730,1.000000,3.000000,-2.000000,-1.000000,-5.000000,-1.000000,1.000000,0.000000
1298464.469034,-2.000000,-4.000000,3.000000,-2.000000,-1.000000,1.000000,-1.000000,-1.000000
1298464.469084,1.000000,0.000000,-8.000000,0.000000,-1.000000,-1.000000,3.000000,1.000000
1298464.484156,-5.000000,-6.000000,4.000000,2.000000,0.000000,-1.000000,3.000000,-1.000000
1298464.484207,-2.000000,-3.000000,-9.000000,-3.000000,0.000000,-1.000000,0.000000,-2.000000
1298464.507070,-3.000000,2.000000,1.000000,-4.000000,-1.000000,-1.000000,-3.000000,-2.000000
1298464.507105,-3.000000,-2.000000,-3.000000,-4.000000,-5.000000,0.000000,-2.000000,1.000000
1298464.514597,-4.000000,-3.000000,-1.000000,1.000000,2.000000,1.000000,0.000000,-5.000000
1298464.514625,1.000000,-6.000000,-2.000000,0.000000,0.000000,-3.000000,-3.000000,2.000000
1298464.536907,0.000000,3.000000,1.000000,0.000000,0.000000,-3.000000,0.000000,1.000000
1298464.536963,-1.000000,-1.000000,0.000000,-1.000000,0.000000,-3.000000,-1.000000,1.000000
1298464.559343,-1.000000,-3.000000,-9.000000,-3.000000,-3.000000,0.000000,2.000000,2.000000
1298464.559399,-1.000000,-2.000000,3.000000,-1.000000,1.000000,1.000000,1.000000,-2.000000
1298464.589198,-1.000000,3.000000,1.000000,0.000000,-4.000000,-2.000000,-5.000000,-1.000000
1298464.589249,1.000000,0.000000,0.000000,0.000000,0.000000,-3.000000,1.000000,-2.000000
1298464.596692,-1.000000,-3.000000,-12.000000,-3.000000,-1.000000,-3.000000,0.000000,-1.000000
1298464.596728,-1.000000,1.000000,-2.000000,-3.000000,0.000000,-3.000000,0.000000,-1.000000
1298464.597939,-3.000000,4.000000,-2.000000,0.000000,0.000000,-3.000000,-2.000000,-3.000000
1298464.597959,-1.000000,-2.000000,0.000000,-2.000000,-2.000000,2.000000,-4.000000,-1.000000
1298464.598081,-1.000000,-3.000000,1.000000,0.000000,-2.000000,-1.000000,0.000000,1.000000
1298464.598092,1.000000,-2.000000,3.000000,6.000000,0.000000,0.000000,1.000000,1.000000
1298464.599265,2.000000,-3.000000,-4.000000,-2.000000,0.000000,-4.000000,-2.000000,1.000000
1298464.599560,3.000000,2.000000,-1.000000,-2.000000,-2.000000,0.000000,2.000000,-3.000000
1298464.600228,5.000000,-1.000000,1.000000,-1.000000,1.000000,0.000000,-3.000000,-1.000000
1298464.600273,1.000000,0.000000,-3.000000,1.000000,0.000000,1.000000,-3.000000,-1.000000
1298464.611507,0.000000,-2.000000,-10.000000,-5.000000,-3.000000,-3.000000,-5.000000,0.000000
1298464.611561,1.000000,1.000000,2.000000,-3.000000,1.000000,0.000000,1.000000,-2.000000
1298464.626635,-3.000000,-4.000000,-2.000000,-2.000000,-2.000000,-3.000000,-2.000000,0.000000
1298464.626851,-5.000000,-7.000000,8.000000,3.000000,1.000000,-2.000000,-2.000000,-3.000000
1298464.634291,3.000000,0.000000,3.000000,-1.000000,2.000000,0.000000,-4.000000,1.000000
1298464.634317,-2.000000,2.000000,0.000000,0.000000,0.000000,-2.000000,2.000000,1.000000
1298464.642446,-1.000000,-4.000000,0.000000,0.000000,-1.000000,-2.000000,-1.000000,0.000000
1298464.642507,2.000000,1.000000,-9.000000,-3.000000,-1.000000,4.000000,1.000000,0.000000
1298464.649372,0.000000,1.000000,6.000000,-1.000000,1.000000,-2.000000,-1.000000,1.000000
1298464.649487,-1.000000,-2.000000,3.000000,0.000000,0.000000,1.000000,-4.000000,-3.000000
1298464.664077,2.000000,0.000000,2.000000,3.000000,0.000000,0.000000,0.000000,0.000000
1298464.664102,1.000000,1.000000,3.000000,2.000000,2.000000,5.000000,5.000000,1.000000
1298464.679091,-4.000000,0.000000,-3.000000,-4.000000,-1.000000,-4.000000,2.000000,-1.000000
1298464.679119,-4.000000,-6.000000,3.000000,-2.000000,-1.000000,-2.000000,-5.000000,-1.000000
1298464.686482,0.000000,1.000000,0.000000,-2.000000,-4.000000,-2.000000,-2.000000,-1.000000
1298464.686507,2.000000,2.000000,1.000000,-1.000000,0.000000,1.000000,2.000000,-1.000000
1298464.709627,-3.000000,-6.000000,-2.000000,0.000000,-3.000000,-3.000000,-1.000000,-5.000000
1298464.709656,-1.000000,0.000000,-1.000000,3.000000,2.000000,1.000000,-2.000000,1.000000
1298464.716896,-1.000000,0.000000,1.000000,-1.000000,-2.000000,-2.000000,-2.000000,-3.000000
1298464.717003,-2.000000,-4.000000,-11.000000,-7.000000,-8.000000,-6.000000,-4.000000,-3.000000
1298464.746840,2.000000,-1.000000,-3.000000,-3.000000,-3.000000,0.000000,-5.000000,-1.000000
1298464.747136,-1.000000,-5.000000,-1.000000,-1.000000,4.000000,2.000000,-2.000000,1.000000
1298464.748327,-1.000000,-2.000000,1.000000,2.000000,2.000000,-3.000000,-1.000000,-1.000000
1298464.748409,-2.000000,0.000000,0.000000,0.000000,2.000000,-1.000000,-4.000000,-1.000000
1298464.750097,1.000000,-2.000000,-2.000000,0.000000,-1.000000,0.000000,1.000000,-1.000000
1298464.750126,-3.000000,-5.000000,-5.000000,-2.000000,-2.000000,1.000000,1.000000,-2.000000
1298464.750797,2.000000,1.000000,4.000000,-1.000000,0.000000,0.000000,2.000000,2.000000
1298464.750822,-3.000000,-2.000000,-1.000000,-2.000000,-1.000000,-3.000000,-1.000000,-4.000000
1298464.754041,-3.000000,1.000000,-4.000000,0.000000,-1.000000,-1.000000,-1.000000,1.000000
1298464.754091,-1.000000,-3.000000,2.000000,0.000000,2.000000,1.000000,-1.000000,-2.000000
1298464.762117,0.000000,-1.000000,-3.000000,0.000000,0.000000,0.000000,0.000000,3.000000
1298464.762223,-10.000000,-14.000000,2.000000,-3.000000,-2.000000,-4.000000,-4.000000,-5.000000
1298464.784417,-3.000000,-4.000000,-1.000000,0.000000,1.000000,-1.000000,0.000000,-1.000000
1298464.784484,-5.000000,-3.000000,1.000000,5.000000,0.000000,-1.000000,-1.000000,-1.000000
1298464.791669,0.000000,1.000000,0.000000,-2.000000,-3.000000,0.000000,0.000000,-2.000000
1298464.791717,3.000000,1.000000,-3.000000,-3.000000,0.000000,-1.000000,-4.000000,-1.000000
1298464.806741,1.000000,-1.000000,1.000000,-2.000000,-3.000000,-2.000000,1.000000,0.000000
1298464.806788,0.000000,1.000000,0.000000,-2.000000,2.000000,-1.000000,-2.000000,0.000000
1298464.814055,0.000000,-1.000000,-3.000000,-1.000000,1.000000,-2.000000,2.000000,-3.000000
1298464.814107,1.000000,4.000000,-1.000000,-2.000000,-1.000000,-3.000000,-3.000000,-1.000000
1298464.836563,0.000000,1.000000,0.000000,2.000000,1.000000,-1.000000,-2.000000,0.000000
1298464.836591,-2.000000,-6.000000,-5.000000,-1.000000,-3.000000,0.000000,0.000000,1.000000
1298464.852035,0.000000,5.000000,-1.000000,2.000000,1.000000,0.000000,1.000000,1.000000
1298464.852082,-5.000000,-4.000000,2.000000,-1.000000,-3.000000,-4.000000,0.000000,0.000000
1298464.854153,2.000000,3.000000,0.000000,-1.000000,-2.000000,-2.000000,-2.000000,-3.000000
1298464.854197,-1.000000,-1.000000,-1.000000,-2.000000,-3.000000,1.000000,1.000000,-4.000000
1298464.854420,-2.000000,2.000000,5.000000,1.000000,-3.000000,0.000000,0.000000,-1.000000
1298464.854461,0.000000,-1.000000,-4.000000,-2.000000,1.000000,1.000000,-2.000000,0.000000
1298464.855531,4.000000,8.000000,-4.000000,-2.000000,-2.000000,2.000000,1.000000,0.000000
1298464.855576,3.000000,0.000000,4.000000,-2.000000,0.000000,-2.000000,1.000000,-1.000000
1298464.859010,1.000000,-3.000000,3.000000,3.000000,-3.000000,-3.000000,2.000000,-1.000000
1298464.859061,2.000000,5.000000,3.000000,-3.000000,-2.000000,1.000000,-1.000000,-2.000000
1298464.874022,1.000000,-4.000000,-2.000000,0.000000,-1.000000,-2.000000,-1.000000,-4.000000
1298464.874074,-1.000000,-2.000000,-1.000000,4.000000,1.000000,3.000000,2.000000,0.000000
1298464.881754,1.000000,4.000000,3.000000,1.000000,1.000000,-3.000000,0.000000,-1.000000
1298464.881827,-7.000000,-11.000000,-4.000000,-5.000000,-1.000000,-4.000000,-1.000000,-2.000000
1298464.904492,1.000000,1.000000,-1.000000,-3.000000,1.000000,-3.000000,0.000000,1.000000
1298464.904546,2.000000,-4.000000,1.000000,0.000000,-2.000000,1.000000,-3.000000,0.000000
1298464.911850,-2.000000,-1.000000,-3.000000,1.000000,0.000000,0.000000,-1.000000,0.000000
1298464.911900,2.000000,1.000000,-3.000000,-1.000000,-1.000000,-1.000000,-2.000000,-2.000000
1298464.926732,0.000000,1.000000,2.000000,2.000000,0.000000,-1.000000,-2.000000,-1.000000
1298464.926757,1.000000,-2.000000,1.000000,2.000000,-2.000000,3.000000,0.000000,-6.000000
1298464.941820,2.000000,3.000000,0.000000,-1.000000,0.000000,1.000000,-2.000000,3.000000
1298464.941845,2.000000,2.000000,0.000000,-1.000000,-1.000000,-4.000000,0.000000,1.000000
1298464.950593,-1.000000,-4.000000,3.000000,1.000000,-2.000000,-1.000000,4.000000,-2.000000
1298464.950645,-3.000000,-6.000000,3.000000,2.000000,3.000000,2.000000,-1.000000,-2.000000
1298464.951389,-1.000000,3.000000,3.000000,1.000000,-1.000000,-2.000000,0.000000,0.000000
1298464.951753,0.000000,-3.000000,-3.000000,1.000000,0.000000,1.000000,-4.000000,1.000000
1298464.952804,-1.000000,-2.000000,2.000000,1.000000,-1.000000,-1.000000,-1.000000,-1.000000
1298464.952856,-2.000000,-1.000000,-1.000000,1.000000,-3.000000,-1.000000,-2.000000,-1.000000
1298464.979137,-3.000000,1.000000,7.000000,4.000000,2.000000,2.000000,8.000000,1.000000
1298464.979567,-2.000000,-8.000000,-4.000000,0.000000,-3.000000,-1.000000,-13.000000,-8.000000
1298464.986645,-2.000000,-4.000000,-4.000000,-1.000000,-2.000000,-2.000000,-7.000000,-8.000000
1298464.986953,0.000000,-3.000000,0.000000,-2.000000,-1.000000,-4.000000,-7.000000,-3.000000
1298464.987529,1.000000,1.000000,0.000000,2.000000,2.000000,4.000000,14.000000,2.000000
1298464.987749,-1.000000,-4.000000,-18.000000,-4.000000,-4.000000,-1.000000,1.000000,5.000000
1298464.993996,-2.000000,-1.000000,-3.000000,-4.000000,2.000000,2.000000,3.000000,-3.000000
1298464.994058,-4.000000,-3.000000,0.000000,0.000000,-4.000000,-4.000000,1.000000,-5.000000
1298465.001620,0.000000,3.000000,2.000000,-1.000000,-1.000000,4.000000,9.000000,4.000000
1298465.001658,-2.000000,-2.000000,1.000000,-1.000000,-2.000000,-7.000000,-7.000000,3.000000
1298465.016642,1.000000,0.000000,-3.000000,-3.000000,1.000000,3.000000,-1.000000,0.000000
1298465.016700,-1.000000,-5.000000,3.000000,1.000000,-1.000000,-1.000000,4.000000,-2.000000
1298465.024235,-5.000000,-3.000000,1.000000,-4.000000,-3.000000,-3.000000,-1.000000,-3.000000
1298465.024288,-4.000000,2.000000,2.000000,0.000000,0.000000,2.000000,-1.000000,0.000000
1298465.039145,7.000000,4.000000,12.000000,3.000000,1.000000,-1.000000,-3.000000,0.000000
1298465.039200,-19.000000,-7.000000,7.000000,1.000000,-2.000000,-7.000000,-4.000000,-7.000000
1298465.061860,1.000000,0.000000,-3.000000,-3.000000,-3.000000,-1.000000,1.000000,-2.000000
1298465.061896,-6.000000,-3.000000,4.000000,0.000000,0.000000,-1.000000,-2.000000,-2.000000
1298465.063451,-4.000000,-3.000000,-2.000000,-1.000000,0.000000,-3.000000,0.000000,0.000000
1298465.063820,-3.000000,-11.000000,-5.000000,-4.000000,-2.000000,-4.000000,-5.000000,-2.000000
1298465.064446,1.000000,-6.000000,-5.000000,-1.000000,-2.000000,-1.000000,-1.000000,-6.000000
1298465.064495,2.000000,-3.000000,1.000000,0.000000,-1.000000,-2.000000,0.000000,-3.000000
1298465.069139,2.000000,3.000000,2.000000,-2.000000,-3.000000,0.000000,4.000000,3.000000
1298465.069162,2.000000,-3.000000,-1.000000,-2.000000,-1.000000,-5.000000,-11.000000,-3.000000
1298465.106861,1.000000,1.000000,-3.000000,0.000000,-1.000000,-2.000000,5.000000,0.000000
1298465.106900,0.000000,1.000000,2.000000,-1.000000,-5.000000,-3.000000,1.000000,-4.000000
1298465.129233,-3.000000,-2.000000,-16.000000,-4.000000,-1.000000,0.000000,-4.000000,0.000000
1298465.129285,1.000000,0.000000,-1.000000,1.000000,2.000000,1.000000,0.000000,2.000000
1298465.144507,1.000000,-2.000000,0.000000,1.000000,-3.000000,0.000000,4.000000,-1.000000
1298465.144536,-6.000000,1.000000,2.000000,1.000000,-1.000000,-2.000000,4.000000,-3.000000
1298465.159444,0.000000,-4.000000,-1.000000,1.000000,-3.000000,-3.000000,-7.000000,-4.000000
1298465.159498,-5.000000,-6.000000,-8.000000,-6.000000,-3.000000,-1.000000,-3.000000,0.000000
1298465.166806,3.000000,-5.000000,-5.000000,-3.000000,0.000000,-1.000000,0.000000,3.000000
1298465.166878,1.000000,6.000000,-1.000000,-1.000000,0.000000,-2.000000,-1.000000,1.000000
1298465.189155,0.000000,-1.000000,4.000000,2.000000,-1.000000,2.000000,0.000000,-2.000000
1298465.189181,-4.000000,-3.000000,1.000000,-2.000000,2.000000,-1.000000,3.000000,-2.000000
1298465.197216,-2.000000,0.000000,-3.000000,-2.000000,0.000000,0.000000,-7.000000,-3.000000
1298465.197261,0.000000,0.000000,-2.000000,1.000000,-2.000000,3.000000,3.000000,0.000000
1298465.197767,-4.000000,-8.000000,-2.000000,1.000000,0.000000,0.000000,3.000000,-3.000000
1298465.197806,2.000000,-4.000000,-8.000000,-4.000000,-2.000000,-1.000000,1.000000,-1.000000
1298465.198862,-3.000000,-1.000000,2.000000,-1.000000,-3.000000,1.000000,0.000000,0.000000
1298465.199193,-1.000000,1.000000,-1.000000,0.000000,-2.000000,-3.000000,-1.000000,-1.000000
1298465.200038,4.000000,7.000000,0.000000,0.000000,-2.000000,0.000000,2.000000,0.000000
1298465.200062,0.000000,0.000000,3.000000,-1.000000,-1.000000,-2.000000,-4.000000,-1.000000
1298465.204232,-1.000000,-9.000000,-11.000000,-6.000000,-2.000000,-1.000000,-12.000000,-3.000000
1298465.204281,-1.000000,-1.000000,-1.000000,2.000000,-1.000000,-7.000000,-2.000000,-1.000000
1298465.219131,2.000000,3.000000,4.000000,0.000000,-3.000000,-3.000000,-1.000000,1.000000
1298465.219353,-5.000000,-5.000000,3.000000,0.000000,-2.000000,3.000000,-1.000000,-3.000000
1298465.219864,1.000000,-4.000000,-3.000000,0.000000,-4.000000,-1.000000,-1.000000,1.000000
1298465.219911,0.000000,-2.000000,-6.000000,0.000000,-1.000000,-2.000000,1.000000,-1.000000
1298465.234206,-2.000000,-1.000000,-3.000000,-2.000000,-2.000000,-1.000000,-1.000000,0.000000
1298465.234261,2.000000,7.000000,1.000000,0.000000,-1.000000,2.000000,-2.000000,1.000000
1298465.241876,-2.000000,1.000000,-1.000000,-1.000000,-1.000000,1.000000,3.000000,-2.000000
1298465.241923,0.000000,-2.000000,0.000000,-1.000000,0.000000,-3.000000,-8.000000,-7.000000
1298465.264194,2.000000,-1.000000,-5.000000,-2.000000,0.000000,1.000000,2.000000,0.000000
1298465.264221,0.000000,4.000000,7.000000,0.000000,2.000000,1.000000,8.000000,3.000000
1298465.271584,2.000000,-1.000000,-2.000000,1.000000,-2.000000,-1.000000,-6.000000,-3.000000
1298465.271628,0.000000,-4.000000,3.000000,0.000000,1.000000,-1.000000,1.000000,-3.000000
1298465.301861,-2.000000,0.000000,-4.000000,-6.000000,-3.000000,-2.000000,1.000000,0.000000
1298465.301887,2.000000,-2.000000,-1.000000,-2.000000,0.000000,1.000000,0.000000,1.000000
1298465.309462,0.000000,0.000000,-3.000000,1.000000,-1.000000,2.000000,2.000000,0.000000
1298465.309487,1.000000,2.000000,0.000000,1.000000,-4.000000,-6.000000,-4.000000,-3.000000
1298465.340019,3.000000,5.000000,-5.000000,-4.000000,-1.000000,0.000000,2.000000,0.000000
1298465.340067,-1.000000,2.000000,-1.000000,3.000000,1.000000,0.000000,2.000000,1.000000
1298465.340820,-1.000000,0.000000,-3.000000,-4.000000,-8.000000,-5.000000,-1.000000,2.000000
1298465.341346,7.000000,-5.000000,-2.000000,-4.000000,0.000000,-4.000000,-2.000000,-2.000000
1298465.343057,-8.000000,0.000000,-3.000000,0.000000,0.000000,-3.000000,-2.000000,-2.000000
1298465.343237,-5.000000,-6.000000,0.000000,2.000000,2.000000,3.000000,-1.000000,-2.000000
1298465.343830,2.000000,-6.000000,-5.000000,-3.000000,0.000000,-2.000000,0.000000,-2.000000
1298465.343872,0.000000,-3.000000,2.000000,0.000000,0.000000,-3.000000,0.000000,-3.000000
1298465.344273,2.000000,5.000000,1.000000,2.000000,-3.000000,0.000000,-1.000000,2.000000
1298465.344309,-3.000000,-2.000000,-2.000000,-3.000000,-2.000000,-2.000000,-1.000000,-1.000000
1298465.354372,-4.000000,-10.000000,-10.000000,-6.000000,-3.000000,-4.000000,0.000000,-5.000000
1298465.354428,-1.000000,1.000000,-3.000000,-4.000000,-6.000000,-4.000000,1.000000,1.000000
1298465.369426,4.000000,4.000000,1.000000,1.000000,1.000000,1.000000,0.000000,2.000000
1298465.369473,0.000000,1.000000,2.000000,1.000000,0.000000,0.000000,7.000000,-7.000000
1298465.391839,-2.000000,-2.000000,3.000000,1.000000,-2.000000,-2.000000,-2.000000,-1.000000
1298465.391869,-2.000000,-5.000000,-1.000000,-3.000000,-2.000000,-3.000000,-3.000000,-4.000000
1298465.398908,-1.000000,0.000000,0.000000,-2.000000,-1.000000,-1.000000,-4.000000,-1.000000
1298465.398957,-2.000000,-2.000000,2.000000,2.000000,-2.000000,0.000000,-1.000000,1.000000
1298465.421974,-2.000000,2.000000,2.000000,-2.000000,2.000000,0.000000,-5.000000,2.000000
1298465.422024,-4.000000,-3.000000,-6.000000,-3.000000,0.000000,3.000000,-3.000000,-1.000000
1298465.423757,0.000000,5.000000,6.000000,1.000000,4.000000,2.000000,0.000000,1.000000
1298465.424191,-1.000000,1.000000,-1.000000,-1.000000,-5.000000,-6.000000,-2.000000,-4.000000
1298465.424787,-3.000000,-2.000000,3.000000,0.000000,-5.000000,3.000000,-3.000000,-3.000000
1298465.425034,-1.000000,-5.000000,-4.000000,0.000000,-1.000000,0.000000,-4.000000,0.000000
1298465.425466,-1.000000,0.000000,4.000000,0.000000,-1.000000,-3.000000,-2.000000,0.000000
1298465.425517,1.000000,2.000000,-7.000000,0.000000,0.000000,-1.000000,-1.000000,0.000000
1298465.429171,0.000000,-2.000000,-1.000000,-3.000000,0.000000,-3.000000,2.000000,0.000000
1298465.429222,-1.000000,-3.000000,-1.000000,-2.000000,0.000000,0.000000,-2.000000,-2.000000
1298465.459950,-3.000000,-5.000000,-1.000000,-2.000000,1.000000,-2.000000,3.000000,0.000000
1298465.460001,-2.000000,-1.000000,-4.000000,1.000000,0.000000,1.000000,0.000000,1.000000
1298465.461562,1.000000,3.000000,10.000000,1.000000,-4.000000,2.000000,-3.000000,-1.000000
1298465.461608,3.000000,6.000000,-3.000000,-3.000000,-1.000000,-1.000000,3.000000,2.000000
1298465.462034,3.000000,2.000000,4.000000,2.000000,1.000000,-1.000000,-1.000000,2.000000
1298465.462188,-5.000000,-5.000000,2.000000,-2.000000,0.000000,-2.000000,-2.000000,-3.000000
1298465.474230,-5.000000,-4.000000,0.000000,0.000000,-2.000000,-1.000000,-1.000000,-3.000000
1298465.474301,-1.000000,8.000000,6.000000,0.000000,0.000000,3.000000,2.000000,0.000000
1298465.481805,1.000000,-1.000000,-4.000000,2.000000,0.000000,0.000000,-4.000000,-3.000000
1298465.481855,2.000000,1.000000,1.000000,-1.000000,-1.000000,0.000000,0.000000,-1.000000
1298465.504600,0.000000,-1.000000,-3.000000,-1.000000,0.000000,-1.000000,2.000000,-1.000000
1298465.504654,-1.000000,-1.000000,1.000000,-2.000000,0.000000,-2.000000,-1.000000,0.000000
1298465.512306,4.000000,7.000000,2.000000,-3.000000,-3.000000,-3.000000,-1.000000,1.000000
1298465.512460,-1.000000,-3.000000,1.000000,1.000000,2.000000,1.000000,-2.000000,0.000000
1298465.542031,0.000000,3.000000,2.000000,1.000000,1.000000,2.000000,-3.000000,-7.000000
1298465.542143,1.000000,2.000000,-5.000000,-4.000000,-1.000000,-2.000000,1.000000,1.000000
1298465.543960,-3.000000,-4.000000,0.000000,-2.000000,-2.000000,-1.000000,1.000000,1.000000
1298465.544581,-4.000000,-1.000000,0.000000,-3.000000,1.000000,-2.000000,-1.000000,-2.000000
1298465.546000,-1.000000,-8.000000,-3.000000,-1.000000,-1.000000,0.000000,-4.000000,-4.000000
1298465.546028,-3.000000,-6.000000,-5.000000,-4.000000,0.000000,-1.000000,0.000000,-3.000000
1298465.546192,-1.000000,1.000000,2.000000,-5.000000,-2.000000,-4.000000,1.000000,4.000000
1298465.546208,-5.000000,-2.000000,2.000000,2.000000,-2.000000,1.000000,-2.000000,1.000000
1298465.549312,1.000000,-5.000000,-6.000000,-3.000000,-2.000000,-3.000000,4.000000,-3.000000
1298465.549349,-3.000000,-2.000000,-5.000000,4.000000,2.000000,1.000000,-3.000000,-2.000000
1298465.579569,-3.000000,-6.000000,3.000000,-1.000000,0.000000,-3.000000,1.000000,0.000000
1298465.579600,-5.000000,-12.000000,-16.000000,-5.000000,0.000000,-5.000000,-6.000000,-3.000000
1298465.580816,-2.000000,-2.000000,-2.000000,-2.000000,1.000000,-2.000000,1.000000,2.000000
1298465.580866,0.000000,-3.000000,5.000000,1.000000,1.000000,0.000000,1.000000,0.000000
1298465.586664,2.000000,5.000000,2.000000,2.000000,1.000000,2.000000,1.000000,0.000000
1298465.587048,-3.000000,0.000000,3.000000,2.000000,-1.000000,-1.000000,0.000000,0.000000
1298465.594099,-4.000000,0.000000,-4.000000,-2.000000,2.000000,-1.000000,-2.000000,-1.000000
1298465.594129,-2.000000,2.000000,3.000000,0.000000,-1.000000,-1.000000,3.000000,1.000000
1298465.616900,1.000000,-1.000000,-2.000000,-1.000000,-2.000000,-3.000000,-3.000000,-1.000000
1298465.616955,-3.000000,0.000000,-7.000000,0.000000,-1.000000,-3.000000,-1.000000,-4.000000
1298465.631691,-2.000000,0.000000,2.000000,0.000000,1.000000,-1.000000,0.000000,-3.000000
1298465.631740,2.000000,0.000000,2.000000,-3.000000,2.000000,-2.000000,1.000000,-3.000000
1298465.669852,-3.000000,-6.000000,-7.000000,-3.000000,-4.000000,0.000000,-1.000000,0.000000
1298465.669898,2.000000,4.000000,-6.000000,-3.000000,0.000000,-1.000000,1.000000,0.000000
1298465.670921,-1.000000,2.000000,4.000000,1.000000,-2.000000,1.000000,-2.000000,1.000000
1298465.670962,-2.000000,-2.000000,-4.000000,-2.000000,-2.000000,-2.000000,-2.000000,-1.000000
1298465.672306,7.000000,10.000000,-13.000000,-9.000000,-4.000000,-2.000000,2.000000,1.000000
1298465.672343,-1.000000,-1.000000,5.000000,4.000000,1.000000,-1.000000,1.000000,0.000000
1298465.673144,1.000000,0.000000,4.000000,3.000000,-2.000000,0.000000,0.000000,0.000000
1298465.673193,-5.000000,-2.000000,-4.000000,1.000000,-1.000000,-3.000000,-2.000000,-4.000000
1298465.684255,6.000000,-3.000000,7.000000,1.000000,0.000000,-2.000000,0.000000,-4.000000
1298465.684306,-12.000000,-5.000000,0.000000,2.000000,0.000000,1.000000,-2.000000,-3.000000
1298465.685800,-4.000000,-4.000000,0.000000,0.000000,-2.000000,1.000000,0.000000,-2.000000
1298465.685819,0.000000,-4.000000,-14.000000,-6.000000,-5.000000,-3.000000,-3.000000,1.000000
1298465.699220,3.000000,3.000000,-2.000000,-2.000000,-2.000000,-1.000000,2.000000,3.000000
1298465.699272,0.000000,0.000000,0.000000,-3.000000,-1.000000,-1.000000,1.000000,-1.000000
1298465.707568,2.000000,2.000000,2.000000,-2.000000,-1.000000,-3.000000,-5.000000,1.000000
1298465.707621,1.000000,3.000000,-4.000000,-3.000000,-4.000000,-5.000000,-3.000000,-3.000000
1298465.714227,-10.000000,-2.000000,2.000000,0.000000,0.000000,-1.000000,-1.000000,-4.000000
1298465.714285,1.000000,-1.000000,-4.000000,-4.000000,0.000000,1.000000,-1.000000,2.000000
1298465.744225,0.000000,1.000000,8.000000,2.000000,0.000000,1.000000,1.000000,0.000000
1298465.744275,2.000000,2.000000,-1.000000,-1.000000,1.000000,0.000000,-1.000000,1.000000
1298465.751636,7.000000,1.000000,0.000000,-3.000000,-3.000000,1.000000,-3.000000,-1.000000
1298465.751685,2.000000,-1.000000,-7.000000,-5.000000,-2.000000,0.000000,3.000000,1.000000
1298465.774472,-7.000000,2.000000,1.000000,1.000000,2.000000,2.000000,0.000000,0.000000
1298465.774500,11.000000,0.000000,-6.000000,-6.000000,-2.000000,-3.000000,0.000000,-3.000000
1298465.781751,-22.000000,-8.000000,-4.000000,-1.000000,-5.000000,-1.000000,-3.000000,-2.000000
1298465.781790,-1.000000,2.000000,-1.000000,0.000000,2.000000,2.000000,0.000000,0.000000
1298465.796592,-3.000000,-4.000000,-2.000000,0.000000,2.000000,2.000000,1.000000,1.000000
1298465.796643,-3.000000,-1.000000,-4.000000,-2.000000,-5.000000,-1.000000,-2.000000,0.000000
1298465.819090,2.000000,2.000000,2.000000,-4.000000,2.000000,1.000000,-4.000000,-1.000000
1298465.819131,4.000000,-4.000000,-5.000000,-4.000000,-3.000000,-3.000000,-2.000000,0.000000
1298465.820758,-2.000000,-9.000000,0.000000,2.000000,-1.000000,1.000000,-6.000000,-2.000000
1298465.820793,0.000000,-1.000000,-1.000000,-1.000000,-4.000000,1.000000,-1.000000,-4.000000
1298465.822323,0.000000,-1.000000,4.000000,-1.000000,-3.000000,-2.000000,1.000000,1.000000
1298465.822664,-2.000000,-5.000000,1.000000,-2.000000,-2.000000,0.000000,-1.000000,-2.000000
1298465.823172,-1.000000,-1.000000,-2.000000,-1.000000,-1.000000,-4.000000,-2.000000,0.000000
1298465.823227,3.000000,6.000000,-1.000000,-3.000000,-3.000000,0.000000,-2.000000,1.000000
1298465.823808,-1.000000,-1.000000,3.000000,-1.000000,0.000000,1.000000,0.000000,1.000000
1298465.823860,-2.000000,-7.000000,0.000000,0.000000,0.000000,1.000000,-1.000000,-4.000000
1298465.827317,-1.000000,-3.000000,1.000000,-1.000000,1.000000,-1.000000,-5.000000,-2.000000
1298465.827366,2.000000,0.000000,-2.000000,-5.000000,-2.000000,-3.000000,-2.000000,-1.000000
1298465.856744,1.000000,6.000000,10.000000,2.000000,1.000000,2.000000,3.000000,-2.000000
1298465.856796,0.000000,-4.000000,0.000000,3.000000,-1.000000,-1.000000,2.000000,2.000000
1298465.871628,-1.000000,-2.000000,-1.000000,0.000000,1.000000,-1.000000,-3.000000,-1.000000
1298465.871674,-4.000000,-2.000000,0.000000,1.000000,0.000000,2.000000,-1.000000,4.000000
1298465.886328,-1.000000,0.000000,-8.000000,-3.000000,-1.000000,-7.000000,-2.000000,0.000000
1298465.886376,0.000000,0.000000,-6.000000,0.000000,0.000000,-1.000000,-1.000000,-1.000000
1298465.895167,1.000000,2.000000,3.000000,2.000000,-4.000000,2.000000,0.000000,0.000000
1298465.895207,-2.000000,-2.000000,1.000000,1.000000,-1.000000,-1.000000,-1.000000,-2.000000
1298465.896823,0.000000,3.000000,-4.000000,-4.000000,-3.000000,-2.000000,-1.000000,-2.000000
1298465.897032,-3.000000,-5.000000,-5.000000,-3.000000,-1.000000,-2.000000,1.000000,-3.000000
1298465.897598,-2.000000,-2.000000,-2.000000,-2.000000,-3.000000,0.000000,0.000000,-1.000000
1298465.897643,-1.000000,-6.000000,-5.000000,-4.000000,0.000000,-2.000000,-3.000000,-3.000000
1298465.898055,1.000000,3.000000,-1.000000,1.000000,1.000000,-1.000000,-4.000000,-1.000000
1298465.898100,-1.000000,-6.000000,-9.000000,1.000000,-1.000000,1.000000,-2.000000,-2.000000
1298465.902665,-3.000000,1.000000,-2.000000,-4.000000,-2.000000,-3.000000,-4.000000,-1.000000
1298465.902690,1.000000,-1.000000,-2.000000,-5.000000,-1.000000,-4.000000,-1.000000,-3.000000
1298465.939863,-2.000000,-1.000000,-1.000000,0.000000,-3.000000,1.000000,-1.000000,-3.000000
1298465.940198,-2.000000,-2.000000,-3.000000,-1.000000,0.000000,-1.000000,-1.000000,1.000000
1298465.941408,-2.000000,-1.000000,0.000000,-1.000000,-2.000000,-1.000000,-2.000000,-5.000000
1298465.941431,2.000000,3.000000,6.000000,2.000000,0.000000,-2.000000,-2.000000,-2.000000
1298465.941923,-2.000000,-1.000000,-4.000000,-2.000000,-3.000000,0.000000,0.000000,0.000000
1298465.941950,-4.000000,-3.000000,-5.000000,-3.000000,0.000000,3.000000,-1.000000,-1.000000
1298465.947522,5.000000,6.000000,6.000000,3.000000,2.000000,-1.000000,0.000000,2.000000
1298465.947576,3.000000,0.000000,-1.000000,4.000000,2.000000,1.000000,1.000000,1.000000
1298465.954141,-2.000000,-5.000000,-1.000000,0.000000,-3.000000,-1.000000,-3.000000,-1.000000
1298465.954171,0.000000,0.000000,3.000000,-1.000000,1.000000,-2.000000,-1.000000,-1.000000
1298465.976927,-2.000000,1.000000,6.000000,0.000000,0.000000,1.000000,-1.000000,-1.000000
1298465.976958,3.000000,0.000000,-1.000000,1.000000,-2.000000,1.000000,4.000000,-1.000000
1298465.984244,-2.000000,-1.000000,8.000000,0.000000,0.000000,-4.000000,2.000000,-5.000000
1298465.984295,-2.000000,1.000000,2.000000,-2.000000,-2.000000,2.000000,1.000000,-4.000000
1298466.014470,1.000000,-2.000000,0.000000,-3.000000,0.000000,-2.000000,-2.000000,-1.000000
1298466.014978,-1.000000,1.000000,-5.000000,2.000000,-6.000000,-4.000000,-3.000000,-6.000000
1298466.016120,-1.000000,0.000000,-1.000000,-1.000000,-1.000000,-2.000000,-1.000000,0.000000
1298466.016168,0.000000,-4.000000,0.000000,-1.000000,2.000000,-1.000000,0.000000,-1.000000
1298466.017773,-3.000000,1.000000,-1.000000,-1.000000,0.000000,-1.000000,0.000000,0.000000
1298466.017822,3.000000,0.000000,-6.000000,0.000000,-2.000000,-2.000000,-5.000000,-1.000000
1298466.018032,1.000000,0.000000,-2.000000,0.000000,0.000000,-1.000000,-3.000000,-2.000000
1298466.018066,-1.000000,-3.000000,1.000000,0.000000,-3.000000,0.000000,1.000000,0.000000
1298466.022306,-1.000000,0.000000,2.000000,-3.000000,-1.000000,-1.000000,-1.000000,-2.000000
1298466.022354,2.000000,-3.000000,0.000000,0.000000,1.000000,2.000000,-2.000000,-4.000000
1298466.036980,-5.000000,-3.000000,7.000000,2.000000,-1.000000,-1.000000,-1.000000,-2.000000
1298466.037006,1.000000,2.000000,-3.000000,-1.000000,-3.000000,2.000000,-4.000000,-2.000000
1298466.052749,-1.000000,0.000000,-1.000000,0.000000,1.000000,0.000000,0.000000,5.000000
1298466.052776,0.000000,5.000000,9.000000,2.000000,3.000000,-1.000000,-5.000000,1.000000
1298466.053539,-1.000000,-8.000000,-4.000000,-7.000000,-3.000000,-1.000000,-2.000000,-2.000000
1298466.053586,-3.000000,-7.000000,1.000000,-1.000000,-3.000000,-5.000000,-2.000000,-2.000000
1298466.067863,0.000000,-3.000000,3.000000,-3.000000,2.000000,-3.000000,1.000000,-4.000000
1298466.067898,-2.000000,0.000000,2.000000,2.000000,1.000000,2.000000,-1.000000,-1.000000
1298466.089262,0.000000,0.000000,-5.000000,0.000000,-1.000000,1.000000,0.000000,0.000000
1298466.089312,0.000000,-1.000000,0.000000,0.000000,-1.000000,-3.000000,2.000000,-2.000000
1298466.103840,-3.000000,-3.000000,-2.000000,0.000000,3.000000,0.000000,-1.000000,0.000000
1298466.103875,0.000000,5.000000,-4.000000,-3.000000,0.000000,-3.000000,0.000000,-4.000000
1298466.126591,-2.000000,3.000000,3.000000,-2.000000,0.000000,0.000000,2.000000,-2.000000
1298466.126644,0.000000,-2.000000,1.000000,-1.000000,-1.000000,0.000000,-1.000000,-1.000000
1298466.135782,-1.000000,-1.000000,-1.000000,-1.000000,0.000000,1.000000,-4.000000,0.000000
1298466.136264,-4.000000,0.000000,-3.000000,-5.000000,1.000000,-2.000000,-1.000000,-1.000000
1298466.136525,-2.000000,-3.000000,2.000000,-3.000000,1.000000,2.000000,-2.000000,1.000000
1298466.137085,-1.000000,-2.000000,-5.000000,-4.000000,-1.000000,-2.000000,0.000000,-3.000000
1298466.138823,-2.000000,-3.000000,-1.000000,2.000000,0.000000,-1.000000,2.000000,-1.000000
1298466.138864,2.000000,6.000000,4.000000,4.000000,0.000000,2.000000,0.000000,-3.000000
1298466.139568,-1.000000,-2.000000,0.000000,1.000000,0.000000,-1.000000,1.000000,-1.000000
1298466.139620,-3.000000,8.000000,4.000000,1.000000,-2.000000,-1.000000,-4.000000,-1.000000
1298466.143159,-1.000000,0.000000,5.000000,-1.000000,1.000000,-1.000000,-1.000000,0.000000
1298466.143199,-4.000000,-6.000000,-5.000000,-3.000000,-4.000000,2.000000,-5.000000,-1.000000
1298466.172478,-3.000000,-3.000000,2.000000,0.000000,3.000000,3.000000,0.000000,0.000000
1298466.172796,0.000000,0.000000,7.000000,0.000000,-3.000000,-1.000000,-1.000000,0.000000
1298466.173949,-3.000000,-1.000000,0.000000,2.000000,2.000000,0.000000,-5.000000,1.000000
1298466.173974,-2.000000,-2.000000,3.000000,-1.000000,-1.000000,-4.000000,0.000000,1.000000
1298466.174170,-1.000000,-4.000000,2.000000,0.000000,-1.000000,-4.000000,-2.000000,-1.000000
1298466.174183,1.000000,-3.000000,1.000000,0.000000,-1.000000,-1.000000,-3.000000,-2.000000
1298466.187607,-4.000000,-8.000000,-10.000000,-4.000000,-2.000000,-2.000000,-5.000000,-3.000000
1298466.187647,-2.000000,-1.000000,3.000000,-3.000000,-1.000000,-3.000000,-1.000000,0.000000
1298466.216821,-3.000000,-4.000000,4.000000,0.000000,-1.000000,-3.000000,-2.000000,-2.000000
1298466.216848,0.000000,2.000000,-4.000000,0.000000,-3.000000,0.000000,1.000000,1.000000
1298466.239745,-2.000000,-2.000000,-11.000000,-2.000000,-2.000000,0.000000,-3.000000,-2.000000
1298466.239793,-1.000000,2.000000,1.000000,1.000000,-4.000000,1.000000,-1.000000,-1.000000
1298466.240555,-1.000000,2.000000,3.000000,-1.000000,-1.000000,-1.000000,0.000000,1.000000
1298466.240594,-6.000000,-10.000000,0.000000,1.000000,0.000000,-2.000000,-1.000000,-3.000000
1298466.242142,1.000000,5.000000,6.000000,1.000000,-1.000000,-2.000000,-1.000000,-3.000000
1298466.242183,5.000000,3.000000,-1.000000,-2.000000,-1.000000,-3.000000,-1.000000,-3.000000
1298466.242356,2.000000,3.000000,-3.000000,0.000000,0.000000,-1.000000,0.000000,1.000000
1298466.242371,-3.000000,-5.000000,-4.000000,-3.000000,-3.000000,-1.000000,2.000000,-2.000000
1298466.255482,2.000000,3.000000,-1.000000,-3.000000,1.000000,-1.000000,-1.000000,2.000000
1298466.255531,-3.000000,-4.000000,0.000000,-2.000000,-3.000000,-2.000000,-3.000000,0.000000
1298466.256065,-5.000000,-7.000000,-2.000000,-4.000000,-1.000000,-1.000000,-1.000000,-4.000000
1298466.256112,-1.000000,0.000000,-1.000000,1.000000,0.000000,-2.000000,0.000000,3.000000
1298466.262640,-3.000000,0.000000,6.000000,2.000000,1.000000,-2.000000,-2.000000,-1.000000
1298466.262693,-4.000000,-7.000000,-9.000000,-5.000000,-4.000000,-4.000000,2.000000,-1.000000
1298466.292085,1.000000,0.000000,-3.000000,0.000000,-5.000000,0.000000,1.000000,1.000000
1298466.292469,-1.000000,3.000000,0.000000,-1.000000,0.000000,-3.000000,0.000000,-1.000000
1298466.293525,-2.000000,-4.000000,1.000000,1.000000,3.000000,-1.000000,-3.000000,-1.000000
1298466.293572,-4.000000,-7.000000,-5.000000,0.000000,-1.000000,-3.000000,-3.000000,-3.000000
1298466.293930,0.000000,-4.000000,-1.000000,0.000000,0.000000,2.000000,-2.000000,-2.000000
1298466.293977,3.000000,4.000000,-5.000000,-6.000000,-3.000000,1.000000,-3.000000,-1.000000
1298466.336856,0.000000,3.000000,-1.000000,-1.000000,-1.000000,1.000000,-1.000000,0.000000
1298466.336957,-4.000000,-2.000000,7.000000,-3.000000,2.000000,0.000000,1.000000,-1.000000
1298466.366957,0.000000,2.000000,1.000000,0.000000,1.000000,3.000000,-3.000000,-1.000000
1298466.366988,-3.000000,-6.000000,-5.000000,-3.000000,-3.000000,1.000000,0.000000,-2.000000
1298466.376221,0.000000,4.000000,6.000000,1.000000,0.000000,1.000000,0.000000,1.000000
1298466.376517,-1.000000,-5.000000,-2.000000,0.000000,-1.000000,2.000000,0.000000,-3.000000
1298466.377092,-5.000000,-4.000000,-1.000000,0.000000,-1.000000,-1.000000,-3.000000,0.000000
1298466.377112,0.000000,0.000000,1.000000,0.000000,-3.000000,-1.000000,-2.000000,-1.000000
1298466.377740,-2.000000,2.000000,4.000000,2.000000,-2.000000,-6.000000,-1.000000,-1.000000
1298466.377869,2.000000,-3.000000,2.000000,-1.000000,2.000000,0.000000,0.000000,4.000000
1298466.381667,-6.000000,-5.000000,1.000000,1.000000,1.000000,0.000000,-1.000000,-1.000000
1298466.381719,0.000000,-7.000000,-3.000000,0.000000,-1.000000,3.000000,-1.000000,-5.000000
1298466.411723,3.000000,-1.000000,-5.000000,-4.000000,0.000000,0.000000,2.000000,2.000000
1298466.411771,2.000000,-4.000000,-7.000000,-3.000000,-2.000000,-1.000000,-2.000000,-1.000000
1298466.419548,1.000000,-3.000000,-4.000000,-5.000000,-3.000000,-3.000000,1.000000,-1.000000
1298466.419848,1.000000,0.000000,0.000000,1.000000,4.000000,1.000000,2.000000,2.000000
1298466.420934,1.000000,4.000000,-5.000000,-4.000000,-1.000000,-3.000000,4.000000,-2.000000
1298466.420982,-1.000000,-3.000000,-2.000000,-1.000000,-3.000000,-5.000000,-2.000000,-3.000000
1298466.421347,1.000000,-3.000000,-1.000000,-2.000000,-3.000000,-1.000000,1.000000,0.000000
1298466.421400,0.000000,1.000000,2.000000,2.000000,-1.000000,0.000000,1.000000,0.000000
1298466.456868,1.000000,4.000000,0.000000,-2.000000,-3.000000,2.000000,1.000000,1.000000
1298466.456907,1.000000,0.000000,1.000000,2.000000,-2.000000,-2.000000,0.000000,-3.000000
1298466.464509,-2.000000,0.000000,0.000000,-2.000000,2.000000,-1.000000,0.000000,-1.000000
1298466.464569,-1.000000,-6.000000,2.000000,1.000000,0.000000,-4.000000,-4.000000,-3.000000
1298466.495940,2.000000,-3.000000,-6.000000,-2.000000,-2.000000,-4.000000,-1.000000,1.000000
1298466.495988,0.000000,-1.000000,-4.000000,0.000000,-1.000000,0.000000,-1.000000,-3.000000
1298466.496220,-3.000000,-2.000000,0.000000,1.000000,-2.000000,-2.000000,0.000000,0.000000
1298466.496269,0.000000,-2.000000,-1.000000,-1.000000,-1.000000,-3.000000,-1.000000,-3.000000
1298466.497761,3.000000,-3.000000,-11.000000,-3.000000,0.000000,-1.000000,1.000000,1.000000
1298466.497960,-5.000000,-8.000000,-2.000000,-5.000000,-5.000000,-5.000000,-3.000000,-1.000000
1298466.498319,-1.000000,0.000000,-6.000000,-3.000000,1.000000,-1.000000,1.000000,-1.000000
1298466.498340,-1.000000,0.000000,-1.000000,1.000000,-1.000000,-1.000000,-2.000000,0.000000
1298466.502580,2.000000,6.000000,5.000000,0.000000,1.000000,-3.000000,-3.000000,-1.000000
1298466.502631,-4.000000,-9.000000,-1.000000,-3.000000,0.000000,-3.000000,-4.000000,-3.000000
1298466.517092,6.000000,8.000000,-17.000000,-3.000000,-3.000000,0.000000,1.000000,1.000000
1298466.517143,0.000000,1.000000,0.000000,1.000000,0.000000,1.000000,0.000000,-1.000000
1298466.539012,0.000000,3.000000,0.000000,1.000000,-1.000000,-1.000000,0.000000,-1.000000
1298466.539061,-4.000000,-9.000000,-2.000000,-3.000000,-1.000000,1.000000,-2.000000,-3.000000
1298466.546731,-4.000000,-7.000000,-7.000000,0.000000,2.000000,-3.000000,1.000000,-2.000000
1298466.546757,-6.000000,-3.000000,1.000000,2.000000,3.000000,-3.000000,-2.000000,-1.000000
1298466.569506,1.000000,4.000000,0.000000,2.000000,-3.000000,-2.000000,-1.000000,-1.000000
1298466.569552,-3.000000,1.000000,0.000000,-1.000000,-3.000000,-1.000000,2.000000,3.000000
1298466.576772,-1.000000,1.000000,1.000000,-2.000000,-1.000000,1.000000,-3.000000,1.000000
1298466.576798,-2.000000,-3.000000,1.000000,3.000000,-1.000000,0.000000,-2.000000,-3.000000
1298466.591862,-1.000000,0.000000,2.000000,1.000000,-1.000000,-1.000000,-2.000000,0.000000
1298466.591919,-3.000000,2.000000,0.000000,4.000000,3.000000,0.000000,1.000000,-1.000000
1298466.606891,0.000000,0.000000,-2.000000,-2.000000,-3.000000,-1.000000,-3.000000,-2.000000
1298466.606940,-1.000000,2.000000,-3.000000,-3.000000,-1.000000,1.000000,-3.000000,1.000000
1298466.616116,0.000000,3.000000,-2.000000,-4.000000,-2.000000,-3.000000,2.000000,1.000000
1298466.616160,-4.000000,-1.000000,-1.000000,-1.000000,-3.000000,1.000000,-1.000000,-1.000000
1298466.617011,-3.000000,-4.000000,-1.000000,0.000000,-2.000000,-2.000000,1.000000,-5.000000
1298466.617302,-3.000000,-1.000000,1.000000,-3.000000,-4.000000,-1.000000,1.000000,-2.000000
1298466.617806,3.000000,6.000000,-6.000000,-2.000000,-5.000000,-2.000000,0.000000,2.000000
1298466.617827,0.000000,4.000000,-1.000000,2.000000,-1.000000,-1.000000,-2.000000,-3.000000
1298466.618072,-6.000000,-14.000000,-9.000000,1.000000,-3.000000,-2.000000,-3.000000,-4.000000
1298466.618095,2.000000,-6.000000,-10.000000,-5.000000,-1.000000,-4.000000,0.000000,-3.000000
1298466.652534,0.000000,1.000000,2.000000,2.000000,5.000000,1.000000,0.000000,0.000000
1298466.652723,-6.000000,-11.000000,0.000000,-2.000000,0.000000,0.000000,-1.000000,-2.000000
1298466.653322,-3.000000,-1.000000,-3.000000,-4.000000,-4.000000,-3.000000,-2.000000,0.000000
1298466.653384,-1.000000,2.000000,6.000000,-1.000000,0.000000,1.000000,0.000000,-4.000000
1298466.654743,3.000000,3.000000,-3.000000,-3.000000,-1.000000,-1.000000,-1.000000,-3.000000
1298466.654769,-1.000000,0.000000,-2.000000,-3.000000,-1.000000,0.000000,-2.000000,0.000000
1298466.659420,3.000000,1.000000,-3.000000,0.000000,0.000000,0.000000,-4.000000,0.000000
1298466.659451,0.000000,2.000000,1.000000,1.000000,1.000000,-1.000000,-1.000000,1.000000
1298466.674479,-5.000000,-12.000000,-4.000000,-1.000000,-4.000000,-5.000000,-5.000000,-4.000000
1298466.674529,4.000000,3.000000,-6.000000,-5.000000,-5.000000,-3.000000,-4.000000,-1.000000
1298466.689424,-2.000000,2.000000,3.000000,-1.000000,-5.000000,-1.000000,-2.000000,-1.000000
1298466.689469,-2.000000,-3.000000,-5.000000,0.000000,0.000000,1.000000,-1.000000,-1.000000
1298466.704369,-1.000000,-2.000000,0.000000,0.000000,0.000000,-3.000000,-1.000000,1.000000
1298466.704421,2.000000,3.000000,1.000000,-2.000000,-1.000000,-2.000000,-1.000000,2.000000
1298466.727196,3.000000,6.000000,-9.000000,-5.000000,-4.000000,-2.000000,2.000000,-2.000000
1298466.727522,3.000000,5.000000,-4.000000,-4.000000,-1.000000,-2.000000,-6.000000,0.000000
1298466.728951,1.000000,2.000000,-1.000000,-2.000000,-1.000000,-3.000000,1.000000,-1.000000
1298466.728997,-2.000000,1.000000,4.000000,1.000000,-1.000000,2.000000,-2.000000,0.000000
1298466.729217,-3.000000,-4.000000,0.000000,-1.000000,-2.000000,1.000000,-3.000000,-3.000000
1298466.729256,-4.000000,-6.000000,0.000000,-1.000000,0.000000,-1.000000,-2.000000,2.000000
1298466.730630,-3.000000,2.000000,4.000000,7.000000,-1.000000,-1.000000,-1.000000,-2.000000
1298466.730652,9.000000,8.000000,-8.000000,-3.000000,-4.000000,0.000000,1.000000,5.000000
1298466.734029,-1.000000,-4.000000,-3.000000,-1.000000,-4.000000,-4.000000,0.000000,-5.000000
1298466.734080,0.000000,1.000000,-2.000000,-2.000000,1.000000,-1.000000,-2.000000,-2.000000
1298466.772114,1.000000,4.000000,8.000000,1.000000,1.000000,0.000000,0.000000,0.000000
1298466.772277,-4.000000,-6.000000,7.000000,-3.000000,-2.000000,-3.000000,-1.000000,0.000000
1298466.779443,2.000000,2.000000,-1.000000,0.000000,2.000000,0.000000,-1.000000,-3.000000
1298466.779489,1.000000,-1.000000,-2.000000,1.000000,-1.000000,-3.000000,-1.000000,-3.000000
1298466.809519,-2.000000,-6.000000,0.000000,-5.000000,-1.000000,-2.000000,2.000000,-4.000000
1298466.809547,-5.000000,-8.000000,-7.000000,-5.000000,-1.000000,1.000000,0.000000,-3.000000
1298466.817026,-1.000000,2.000000,-2.000000,5.000000,1.000000,-4.000000,-3.000000,3.000000
1298466.817095,2.000000,-1.000000,-1.000000,3.000000,-1.000000,2.000000,-2.000000,0.000000
1298466.831823,-4.000000,-10.000000,-10.000000,-7.000000,-5.000000,3.000000,-3.000000,-1.000000
1298466.831864,-1.000000,-2.000000,1.000000,1.000000,-1.000000,2.000000,-2.000000,-3.000000
1298466.846936,-1.000000,2.000000,2.000000,2.000000,-2.000000,0.000000,0.000000,-1.000000
1298466.846975,-2.000000,1.000000,-1.000000,1.000000,-3.000000,-3.000000,0.000000,0.000000
1298466.849070,-2.000000,-3.000000,1.000000,0.000000,-2.000000,0.000000,-1.000000,0.000000
1298466.849135,1.000000,1.000000,1.000000,1.000000,-1.000000,0.000000,-1.000000,-2.000000
1298466.850627,-5.000000,-4.000000,-1.000000,-2.000000,1.000000,-3.000000,0.000000,-1.000000
1298466.850663,-4.000000,0.000000,-1.000000,-2.000000,1.000000,0.000000,1.000000,-1.000000
1298466.851561,3.000000,-3.000000,-10.000000,-7.000000,-3.000000,-1.000000,-2.000000,-2.000000
1298466.851616,-1.000000,-1.000000,-1.000000,-1.000000,0.000000,-3.000000,2.000000,-1.000000
1298466.854097,-1.000000,-3.000000,0.000000,0.000000,-3.000000,-1.000000,-4.000000,-1.000000
1298466.854138,0.000000,2.000000,0.000000,-1.000000,1.000000,2.000000,-1.000000,0.000000
1298466.884706,0.000000,1.000000,3.000000,0.000000,-3.000000,-2.000000,0.000000,-4.000000
1298466.884844,1.000000,0.000000,-2.000000,-4.000000,-5.000000,-2.000000,2.000000,-2.000000
1298466.885133,0.000000,5.000000,4.000000,5.000000,-3.000000,-3.000000,0.000000,-3.000000
1298466.885155,-3.000000,-4.000000,2.000000,-2.000000,-1.000000,1.000000,2.000000,-1.000000
1298466.886752,1.000000,3.000000,1.000000,0.000000,-4.000000,-1.000000,-1.000000,-2.000000
1298466.886803,-6.000000,0.000000,1.000000,2.000000,2.000000,-1.000000,-4.000000,-5.000000
1298466.921757,4.000000,2.000000,-2.000000,-2.000000,0.000000,-2.000000,3.000000,0.000000
1298466.921786,0.000000,3.000000,0.000000,-1.000000,2.000000,2.000000,-3.000000,-1.000000
1298466.936506,-2.000000,-3.000000,1.000000,-2.000000,0.000000,-2.000000,0.000000,1.000000
1298466.936555,-2.000000,1.000000,2.000000,0.000000,0.000000,-1.000000,1.000000,-4.000000
1298466.959097,1.000000,0.000000,2.000000,0.000000,-1.000000,-1.000000,-5.000000,-3.000000
1298466.959124,0.000000,-2.000000,-4.000000,1.000000,1.000000,-1.000000,-2.000000,-1.000000
1298466.974419,0.000000,-2.000000,0.000000,-3.000000,-1.000000,0.000000,-1.000000,1.000000
1298466.974448,1.000000,0.000000,-1.000000,-1.000000,1.000000,1.000000,2.000000,-1.000000
1298466.981628,-2.000000,-2.000000,1.000000,-3.000000,0.000000,-2.000000,-2.000000,0.000000
1298466.981682,-3.000000,-11.000000,-4.000000,0.000000,-2.000000,-3.000000,0.000000,0.000000
1298467.005374,-2.000000,-3.000000,-4.000000,1.000000,-1.000000,0.000000,-3.000000,-3.000000
1298467.005424,-1.000000,-2.000000,-1.000000,-3.000000,-2.000000,-4.000000,-1.000000,1.000000
1298467.006491,0.000000,-5.000000,-1.000000,1.000000,-5.000000,0.000000,0.000000,-3.000000
1298467.006528,-2.000000,1.000000,-3.000000,-1.000000,-1.000000,1.000000,-2.000000,0.000000
1298467.006744,-1.000000,-1.000000,0.000000,0.000000,-2.000000,0.000000,-2.000000,-3.000000
1298467.006794,1.000000,3.000000,6.000000,2.000000,-3.000000,1.000000,-1.000000,0.000000
1298467.008252,1.000000,-4.000000,3.000000,2.000000,-1.000000,1.000000,-3.000000,1.000000
1298467.008370,-1.000000,1.000000,-4.000000,-1.000000,0.000000,-1.000000,-2.000000,-3.000000
1298467.008626,0.000000,-3.000000,4.000000,-1.000000,-1.000000,0.000000,3.000000,0.000000
1298467.008672,-1.000000,-7.000000,-2.000000,-1.000000,-2.000000,1.000000,-2.000000,1.000000
1298467.019260,-1.000000,3.000000,-2.000000,0.000000,1.000000,-2.000000,-1.000000,-1.000000
1298467.019302,2.000000,1.000000,-4.000000,-2.000000,-2.000000,0.000000,-3.000000,0.000000
1298467.057355,-2.000000,-1.000000,1.000000,0.000000,0.000000,-2.000000,1.000000,-3.000000
1298467.057414,0.000000,1.000000,-4.000000,-4.000000,-5.000000,-1.000000,-1.000000,-3.000000
1298467.071945,0.000000,-3.000000,-3.000000,-1.000000,-1.000000,1.000000,-1.000000,-3.000000
1298467.071970,-3.000000,-7.000000,2.000000,0.000000,-1.000000,-2.000000,-2.000000,-2.000000
1298467.094178,1.000000,2.000000,-3.000000,-1.000000,1.000000,-1.000000,0.000000,-1.000000
1298467.094230,-3.000000,-1.000000,5.000000,-1.000000,-1.000000,0.000000,-2.000000,-5.000000
1298467.101662,0.000000,-1.000000,-1.000000,0.000000,2.000000,-2.000000,1.000000,0.000000
1298467.101712,0.000000,-1.000000,2.000000,-2.000000,1.000000,1.000000,-2.000000,-3.000000
1298467.125143,3.000000,2.000000,-2.000000,0.000000,-1.000000,1.000000,-3.000000,-1.000000
1298467.125180,0.000000,0.000000,-1.000000,1.000000,0.000000,-2.000000,-3.000000,-1.000000
1298467.125956,0.000000,2.000000,-4.000000,-5.000000,-3.000000,-2.000000,-3.000000,0.000000
1298467.125981,4.000000,1.000000,-1.000000,0.000000,0.000000,2.000000,0.000000,1.000000
1298467.128500,-2.000000,2.000000,4.000000,1.000000,1.000000,-1.000000,-5.000000,-3.000000
1298467.128569,1.000000,-2.000000,-9.000000,0.000000,-3.000000,-1.000000,-2.000000,-3.000000
1298467.130241,0.000000,0.000000,3.000000,0.000000,-1.000000,2.000000,-1.000000,-4.000000
1298467.130404,-4.000000,-2.000000,-4.000000,-2.000000,0.000000,-2.000000,-1.000000,0.000000
1298467.146837,-1.000000,-4.000000,-3.000000,-2.000000,-2.000000,-1.000000,-1.000000,4.000000
1298467.146861,1.000000,1.000000,-1.000000,-1.000000,-1.000000,-5.000000,-3.000000,-1.000000
1298467.169145,0.000000,-7.000000,-3.000000,0.000000,0.000000,-2.000000,-3.000000,0.000000
1298467.169195,-5.000000,-3.000000,-5.000000,-3.000000,0.000000,-2.000000,0.000000,0.000000
1298467.176959,-3.000000,1.000000,0.000000,-1.000000,0.000000,-1.000000,-3.000000,-2.000000
1298467.176986,2.000000,3.000000,-2.000000,-2.000000,0.000000,1.000000,-1.000000,2.000000
1298467.206913,0.000000,-5.000000,-7.000000,-4.000000,-1.000000,-3.000000,-1.000000,-2.000000
1298467.206966,-1.000000,-5.000000,0.000000,-4.000000,-2.000000,2.000000,-4.000000,0.000000
1298467.208493,1.000000,4.000000,4.000000,2.000000,-2.000000,-3.000000,1.000000,-2.000000
1298467.208727,0.000000,2.000000,-1.000000,-1.000000,-1.000000,1.000000,-1.000000,2.000000
1298467.209467,-5.000000,-7.000000,-1.000000,-3.000000,1.000000,-1.000000,-1.000000,1.000000
1298467.209489,-5.000000,-10.000000,3.000000,2.000000,0.000000,2.000000,-1.000000,-1.000000
1298467.209948,0.000000,-2.000000,-2.000000,2.000000,-2.000000,0.000000,-1.000000,-2.000000
1298467.210003,-1.000000,-2.000000,1.000000,2.000000,0.000000,-4.000000,-3.000000,0.000000
1298467.213921,1.000000,-1.000000,0.000000,1.000000,-4.000000,-1.000000,-3.000000,-1.000000
1298467.213973,-3.000000,-4.000000,-3.000000,-3.000000,-3.000000,-5.000000,-3.000000,-3.000000
1298467.245768,4.000000,4.000000,0.000000,-4.000000,4.000000,-1.000000,-2.000000,1.000000
1298467.246178,2.000000,-2.000000,-7.000000,-2.000000,0.000000,-4.000000,1.000000,-2.000000
1298467.246887,-7.000000,-4.000000,0.000000,-1.000000,0.000000,1.000000,-4.000000,-1.000000
1298467.246911,-1.000000,0.000000,3.000000,0.000000,2.000000,0.000000,3.000000,-4.000000
1298467.247491,-1.000000,0.000000,-6.000000,-1.000000,-2.000000,1.000000,-1.000000,2.000000
1298467.247621,-1.000000,3.000000,-5.000000,-3.000000,-5.000000,0.000000,-3.000000,-1.000000
1298467.281915,1.000000,3.000000,0.000000,-1.000000,-1.000000,2.000000,1.000000,3.000000
1298467.281947,-1.000000,-4.000000,-2.000000,-1.000000,0.000000,1.000000,-1.000000,0.000000
1298467.296669,-3.000000,-2.000000,1.000000,1.000000,1.000000,0.000000,0.000000,-1.000000
1298467.296721,4.000000,-3.000000,-15.000000,-5.000000,-3.000000,-4.000000,-1.000000,-2.000000
1298467.311859,0.000000,0.000000,2.000000,1.000000,0.000000,3.000000,2.000000,-4.000000
1298467.311886,1.000000,-1.000000,2.000000,0.000000,-2.000000,1.000000,-3.000000,-1.000000
1298467.327348,-1.000000,3.000000,-1.000000,-3.000000,-2.000000,-2.000000,-2.000000,-3.000000
1298467.327578,-1.000000,-1.000000,-1.000000,-1.000000,0.000000,1.000000,1.000000,-1.000000
1298467.328168,-2.000000,1.000000,-3.000000,-1.000000,-3.000000,-3.000000,-2.000000,0.000000
1298467.328202,0.000000,-3.000000,-8.000000,-3.000000,-1.000000,3.000000,-1.000000,-1.000000
1298467.330040,-1.000000,0.000000,-2.000000,0.000000,-2.000000,1.000000,-2.000000,-1.000000
1298467.330494,-1.000000,-4.000000,-2.000000,1.000000,-2.000000,1.000000,-2.000000,-2.000000
1298467.330883,-3.000000,-2.000000,3.000000,-1.000000,3.000000,2.000000,-3.000000,0.000000
1298467.330928,0.000000,1.000000,-5.000000,-2.000000,-2.000000,-3.000000,1.000000,0.000000
1298467.334057,-4.000000,-5.000000,-1.000000,-2.000000,-1.000000,1.000000,-2.000000,-2.000000
1298467.334102,-4.000000,-3.000000,0.000000,-1.000000,-1.000000,-2.000000,-3.000000,-3.000000
1298467.350135,-4.000000,-1.000000,0.000000,4.000000,-1.000000,-1.000000,2.000000,-1.000000
1298467.350177,-2.000000,1.000000,1.000000,0.000000,-1.000000,-1.000000,2.000000,1.000000
1298467.364574,-2.000000,-5.000000,-6.000000,-1.000000,-1.000000,-2.000000,-4.000000,-4.000000
1298467.364622,3.000000,1.000000,-2.000000,-3.000000,-5.000000,1.000000,0.000000,0.000000
1298467.371542,-4.000000,-5.000000,0.000000,-2.000000,0.000000,-1.000000,-1.000000,1.000000
1298467.371592,3.000000,-1.000000,2.000000,1.000000,1.000000,0.000000,1.000000,2.000000
1298467.386814,-1.000000,-3.000000,0.000000,-1.000000,1.000000,-5.000000,-1.000000,-1.000000
1298467.386844,-3.000000,-5.000000,1.000000,0.000000,-1.000000,-2.000000,-1.000000,-2.000000
1298467.409185,1.000000,3.000000,-4.000000,-4.000000,-3.000000,1.000000,-1.000000,1.000000
1298467.409211,2.000000,-2.000000,2.000000,-4.000000,-2.000000,-1.000000,1.000000,-1.000000
1298467.416650,-3.000000,-3.000000,4.000000,3.000000,-2.000000,-4.000000,3.000000,-2.000000
1298467.416699,1.000000,1.000000,3.000000,1.000000,0.000000,-3.000000,-1.000000,3.000000
1298467.440983,0.000000,7.000000,7.000000,4.000000,3.000000,2.000000,-3.000000,-1.000000
1298467.441348,2.000000,-1.000000,-1.000000,-3.000000,-6.000000,-1.000000,2.000000,-1.000000
1298467.441586,-1.000000,-2.000000,0.000000,0.000000,1.000000,2.000000,-1.000000,-1.000000
1298467.441609,-2.000000,-5.000000,0.000000,-4.000000,-1.000000,-3.000000,-1.000000,-3.000000
1298467.442527,0.000000,0.000000,-2.000000,2.000000,-1.000000,-1.000000,1.000000,1.000000
1298467.442578,-3.000000,-2.000000,2.000000,0.000000,2.000000,-2.000000,-3.000000,1.000000
1298467.442962,-1.000000,-4.000000,2.000000,2.000000,0.000000,-1.000000,-1.000000,0.000000
1298467.443010,-2.000000,3.000000,3.000000,1.000000,3.000000,-2.000000,0.000000,0.000000
1298467.447292,-6.000000,-2.000000,4.000000,-2.000000,-1.000000,2.000000,0.000000,-1.000000
1298467.447356,1.000000,-3.000000,-4.000000,-1.000000,2.000000,-1.000000,-2.000000,1.000000
1298467.453999,1.000000,3.000000,-1.000000,1.000000,-5.000000,-1.000000,0.000000,-3.000000
1298467.454046,-1.000000,0.000000,-1.000000,-2.000000,0.000000,1.000000,-4.000000,-1.000000
1298467.485296,-2.000000,1.000000,0.000000,2.000000,-2.000000,-4.000000,-2.000000,2.000000
1298467.485348,-1.000000,-1.000000,-5.000000,-5.000000,1.000000,-4.000000,0.000000,-2.000000
1298467.485740,2.000000,-1.000000,5.000000,1.000000,0.000000,-1.000000,1.000000,0.000000
1298467.485790,-1.000000,-1.000000,-2.000000,0.000000,-3.000000,-1.000000,-2.000000,0.000000
1298467.491725,1.000000,0.000000,-3.000000,-1.000000,-2.000000,-4.000000,-4.000000,-1.000000
1298467.491777,-1.000000,0.000000,1.000000,-4.000000,-2.000000,-4.000000,2.000000,-2.000000
1298467.514336,2.000000,-1.000000,-7.000000,0.000000,-2.000000,-1.000000,-1.000000,2.000000
1298467.514364,0.000000,4.000000,0.000000,1.000000,-3.000000,0.000000,0.000000,0.000000
1298467.551465,1.000000,1.000000,2.000000,-1.000000,0.000000,-2.000000,0.000000,-4.000000
1298467.551524,3.000000,3.000000,7.000000,1.000000,0.000000,0.000000,0.000000,-1.000000
1298467.559530,0.000000,3.000000,-4.000000,-1.000000,-2.000000,-1.000000,0.000000,-1.000000
1298467.559584,-1.000000,-1.000000,1.000000,1.000000,0.000000,-2.000000,0.000000,-1.000000
1298467.561704,-2.000000,-7.000000,-2.000000,1.000000,-1.000000,-3.000000,-3.000000,0.000000
1298467.561982,-3.000000,1.000000,1.000000,-1.000000,-2.000000,-1.000000,1.000000,-1.000000
1298467.562225,-1.000000,-3.000000,-3.000000,-1.000000,-1.000000,-1.000000,-4.000000,-3.000000
1298467.562273,-4.000000,-3.000000,3.000000,-1.000000,-2.000000,-1.000000,-1.000000,1.000000
1298467.563347,2.000000,3.000000,-3.000000,-1.000000,1.000000,0.000000,0.000000,-1.000000
1298467.563449,2.000000,-3.000000,1.000000,0.000000,2.000000,-3.000000,4.000000,-1.000000
1298467.563839,2.000000,-4.000000,-1.000000,-1.000000,-4.000000,0.000000,-3.000000,-2.000000
1298467.563884,-4.000000,2.000000,1.000000,2.000000,-3.000000,-1.000000,0.000000,-2.000000
1298467.566847,-2.000000,0.000000,-1.000000,-1.000000,0.000000,0.000000,-1.000000,-4.000000
1298467.566899,-5.000000,-3.000000,-4.000000,-3.000000,-1.000000,-1.000000,5.000000,-3.000000
1298467.604116,0.000000,-5.000000,-1.000000,-1.000000,3.000000,0.000000,1.000000,1.000000
1298467.604147,1.000000,-3.000000,0.000000,0.000000,-1.000000,0.000000,1.000000,-3.000000
1298467.605533,0.000000,1.000000,0.000000,-3.000000,-3.000000,-3.000000,-3.000000,1.000000
1298467.606002,1.000000,3.000000,11.000000,1.000000,-3.000000,0.000000,0.000000,-2.000000
1298467.606525,-1.000000,-5.000000,-1.000000,-2.000000,2.000000,-1.000000,1.000000,-2.000000
1298467.606546,1.000000,4.000000,2.000000,0.000000,0.000000,-1.000000,2.000000,1.000000
1298467.626745,-1.000000,5.000000,1.000000,0.000000,-5.000000,-2.000000,-7.000000,0.000000
1298467.626796,-3.000000,0.000000,3.000000,0.000000,0.000000,0.000000,-2.000000,-1.000000
1298467.634333,-3.000000,-3.000000,-2.000000,-4.000000,-4.000000,-2.000000,-2.000000,-2.000000
1298467.634379,0.000000,-2.000000,-1.000000,-4.000000,0.000000,1.000000,1.000000,-1.000000
1298467.656729,0.000000,-1.000000,-1.000000,-3.000000,-1.000000,0.000000,2.000000,-1.000000
1298467.656778,-4.000000,0.000000,3.000000,0.000000,2.000000,-2.000000,5.000000,1.000000
1298467.664095,0.000000,-3.000000,-1.000000,0.000000,-2.000000,-2.000000,-3.000000,-3.000000
1298467.664118,-2.000000,-1.000000,0.000000,-1.000000,-2.000000,0.000000,2.000000,-3.000000
1298467.686565,1.000000,2.000000,3.000000,2.000000,-2.000000,1.000000,-1.000000,0.000000
1298467.686615,-6.000000,-12.000000,-12.000000,-3.000000,1.000000,-3.000000,1.000000,-3.000000
1298467.694228,3.000000,3.000000,-4.000000,-2.000000,0.000000,0.000000,1.000000,-1.000000
1298467.694276,-1.000000,0.000000,-3.000000,1.000000,1.000000,1.000000,0.000000,-3.000000
1298467.717152,-3.000000,-6.000000,-3.000000,1.000000,1.000000,-1.000000,-1.000000,-4.000000
1298467.717480,-10.000000,-11.000000,-6.000000,-4.000000,-2.000000,-3.000000,-2.000000,-3.000000
1298467.718099,2.000000,4.000000,-4.000000,-3.000000,0.000000,2.000000,2.000000,3.000000
1298467.718148,-2.000000,-2.000000,-2.000000,-4.000000,1.000000,-2.000000,-1.000000,-2.000000
1298467.719275,0.000000,-8.000000,-1.000000,0.000000,2.000000,1.000000,-3.000000,-2.000000
1298467.719297,0.000000,1.000000,1.000000,-1.000000,-2.000000,-1.000000,2.000000,1.000000
1298467.720604,-6.000000,-2.000000,0.000000,-1.000000,1.000000,0.000000,-4.000000,-2.000000
1298467.720711,-1.000000,4.000000,3.000000,4.000000,-3.000000,4.000000,1.000000,0.000000
1298467.721295,-1.000000,0.000000,0.000000,1.000000,0.000000,2.000000,2.000000,-2.000000
1298467.721337,-3.000000,-1.000000,0.000000,2.000000,-1.000000,-3.000000,-1.000000,0.000000
1298467.731437,-2.000000,-1.000000,0.000000,0.000000,0.000000,-1.000000,0.000000,1.000000
1298467.731485,2.000000,3.000000,-3.000000,-3.000000,0.000000,-2.000000,-3.000000,3.000000
1298467.746766,3.000000,2.000000,1.000000,-3.000000,-3.000000,-2.000000,-1.000000,2.000000
1298467.746821,-7.000000,-8.000000,-1.000000,0.000000,0.000000,-2.000000,-1.000000,-5.000000
1298467.761774,4.000000,2.000000,-2.000000,-1.000000,-3.000000,2.000000,1.000000,0.000000
1298467.761825,0.000000,-1.000000,0.000000,-1.000000,-1.000000,-3.000000,0.000000,-2.000000
1298467.769469,-5.000000,-6.000000,3.000000,-1.000000,3.000000,-3.000000,-3.000000,-2.000000
1298467.769495,-3.000000,-4.000000,-5.000000,-2.000000,1.000000,-1.000000,-4.000000,-1.000000
1298467.800770,-3.000000,-5.000000,2.000000,0.000000,1.000000,-1.000000,-1.000000,1.000000
1298467.801102,-1.000000,0.000000,-1.000000,-1.000000,-2.000000,-1.000000,1.000000,1.000000
1298467.801361,-1.000000,1.000000,1.000000,1.000000,0.000000,2.000000,0.000000,-2.000000
1298467.801385,-3.000000,-2.000000,-3.000000,-5.000000,-1.000000,-2.000000,-3.000000,-1.000000
1298467.802480,-5.000000,-5.000000,-6.000000,-3.000000,-1.000000,-3.000000,-4.000000,0.000000
1298467.802718,1.000000,3.000000,-1.000000,2.000000,-3.000000,-1.000000,-1.000000,-3.000000
1298467.803161,1.000000,0.000000,2.000000,0.000000,0.000000,0.000000,2.000000,-1.000000
1298467.803182,-1.000000,0.000000,-3.000000,2.000000,-2.000000,1.000000,-3.000000,1.000000
1298467.806742,-4.000000,1.000000,0.000000,-1.000000,-2.000000,-3.000000,0.000000,2.000000
1298467.806799,1.000000,6.000000,-1.000000,-5.000000,-3.000000,-4.000000,0.000000,0.000000
1298467.836848,0.000000,-1.000000,1.000000,-4.000000,1.000000,-1.000000,-2.000000,-2.000000
1298467.836898,5.000000,3.000000,-7.000000,-2.000000,-3.000000,1.000000,3.000000,1.000000
1298467.851567,1.000000,-1.000000,-2.000000,0.000000,2.000000,1.000000,0.000000,-2.000000
1298467.851616,-1.000000,-3.000000,0.000000,-1.000000,1.000000,1.000000,0.000000,2.000000
1298467.866715,0.000000,-1.000000,1.000000,-2.000000,-1.000000,1.000000,0.000000,-4.000000
1298467.866741,-1.000000,-6.000000,-9.000000,-1.000000,-1.000000,-2.000000,-1.000000,-3.000000
1298467.889120,-6.000000,-5.000000,-1.000000,-2.000000,-1.000000,-2.000000,0.000000,-3.000000
1298467.889170,-2.000000,-1.000000,0.000000,0.000000,1.000000,-5.000000,-2.000000,-4.000000
1298467.919540,0.000000,0.000000,4.000000,2.000000,-4.000000,0.000000,0.000000,-2.000000
1298467.919687,2.000000,1.000000,0.000000,3.000000,-3.000000,0.000000,1.000000,0.000000
1298467.934996,0.000000,-1.000000,-3.000000,-2.000000,1.000000,1.000000,0.000000,-3.000000
1298467.935058,-1.000000,1.000000,-1.000000,1.000000,0.000000,-2.000000,-2.000000,-1.000000
1298467.935393,-3.000000,-1.000000,2.000000,-2.000000,0.000000,0.000000,-2.000000,0.000000
1298467.935449,-6.000000,-1.000000,2.000000,-2.000000,-1.000000,-1.000000,1.000000,0.000000
1298467.937473,0.000000,1.000000,-2.000000,-1.000000,-3.000000,-1.000000,-1.000000,-1.000000
1298467.937707,1.000000,0.000000,-1.000000,-2.000000,-4.000000,-3.000000,-3.000000,1.000000
1298467.941925,-4.000000,-2.000000,0.000000,-2.000000,1.000000,2.000000,-1.000000,0.000000
1298467.941995,0.000000,2.000000,0.000000,-1.000000,-2.000000,3.000000,-1.000000,0.000000
1298467.956740,-6.000000,-6.000000,3.000000,3.000000,1.000000,0.000000,-1.000000,-2.000000
1298467.957120,1.000000,-2.000000,-4.000000,-2.000000,-2.000000,-1.000000,2.000000,0.000000
1298467.957614,-1.000000,3.000000,3.000000,-2.000000,-1.000000,1.000000,-2.000000,0.000000
1298467.957663,1.000000,1.000000,2.000000,-2.000000,2.000000,-1.000000,-3.000000,2.000000
1298467.979278,1.000000,0.000000,1.000000,0.000000,-2.000000,2.000000,2.000000,-1.000000
1298467.979329,0.000000,1.000000,-2.000000,-2.000000,-3.000000,-4.000000,-3.000000,-2.000000
1298467.994587,4.000000,2.000000,-1.000000,-5.000000,0.000000,-2.000000,-1.000000,-1.000000
1298467.994641,0.000000,-4.000000,4.000000,-1.000000,0.000000,-3.000000,1.000000,0.000000
1298468.009339,2.000000,3.000000,-4.000000,-2.000000,-1.000000,2.000000,-3.000000,-3.000000
1298468.009394,-2.000000,-2.000000,-1.000000,3.000000,0.000000,-1.000000,-1.000000,-3.000000
1298468.016644,-3.000000,2.000000,-9.000000,-1.000000,-2.000000,-3.000000,-4.000000,-3.000000
1298468.016669,-2.000000,-2.000000,0.000000,1.000000,-1.000000,-1.000000,-2.000000,0.000000
1298468.040776,4.000000,10.000000,1.000000,0.000000,0.000000,-3.000000,3.000000,0.000000
1298468.040809,2.000000,3.000000,1.000000,-2.000000,0.000000,1.000000,-1.000000,0.000000
1298468.042262,1.000000,1.000000,-3.000000,-2.000000,-2.000000,-1.000000,-2.000000,-1.000000
1298468.042600,0.000000,0.000000,-3.000000,-4.000000,1.000000,1.000000,1.000000,0.000000
1298468.043011,1.000000,-2.000000,4.000000,-3.000000,-1.000000,-1.000000,-1.000000,-3.000000
1298468.043052,1.000000,-4.000000,-8.000000,-4.000000,-3.000000,-2.000000,-4.000000,-1.000000
1298468.043650,2.000000,6.000000,3.000000,-2.000000,0.000000,-2.000000,-3.000000,2.000000
1298468.043676,1.000000,-6.000000,-3.000000,-1.000000,1.000000,-1.000000,2.000000,0.000000
1298468.046523,-1.000000,-1.000000,1.000000,-1.000000,-2.000000,-1.000000,0.000000,-1.000000
1298468.046551,-4.000000,-3.000000,0.000000,-3.000000,-3.000000,-3.000000,0.000000,-3.000000
1298468.076775,-4.000000,-1.000000,3.000000,0.000000,0.000000,-4.000000,-1.000000,0.000000
1298468.077095,3.000000,2.000000,0.000000,1.000000,0.000000,-2.000000,1.000000,1.000000
1298468.078379,4.000000,2.000000,3.000000,1.000000,-5.000000,2.000000,-1.000000,3.000000
1298468.078545,1.000000,1.000000,5.000000,-1.000000,-3.000000,-2.000000,-1.000000,-1.000000
1298468.078916,0.000000,-4.000000,0.000000,1.000000,-2.000000,-2.000000,-1.000000,-2.000000
1298468.078957,-2.000000,0.000000,6.000000,4.000000,0.000000,-1.000000,2.000000,-3.000000
1298468.114272,-3.000000,-5.000000,-4.000000,-3.000000,-1.000000,-6.000000,-3.000000,-1.000000
1298468.114297,1.000000,3.000000,-1.000000,-1.000000,1.000000,-3.000000,-3.000000,-1.000000
1298468.121743,-2.000000,0.000000,1.000000,-1.000000,0.000000,1.000000,0.000000,-2.000000
1298468.121770,0.000000,-6.000000,-7.000000,-5.000000,-3.000000,1.000000,1.000000,-3.000000
1298468.144393,-3.000000,-2.000000,2.000000,2.000000,0.000000,-2.000000,-3.000000,0.000000
1298468.144420,3.000000,5.000000,3.000000,1.000000,-1.000000,0.000000,-2.000000,2.000000
1298468.152399,-5.000000,-4.000000,1.000000,-1.000000,-1.000000,0.000000,0.000000,-2.000000
1298468.152426,-3.000000,-1.000000,0.000000,-1.000000,1.000000,0.000000,-2.000000,1.000000
1298468.161559,-3.000000,-7.000000,-7.000000,0.000000,1.000000,0.000000,-2.000000,-2.000000
1298468.161603,2.000000,5.000000,5.000000,3.000000,0.000000,-3.000000,-1.000000,1.000000
1298468.162894,-2.000000,-1.000000,1.000000,0.000000,0.000000,-2.000000,1.000000,1.000000
1298468.162921,-2.000000,1.000000,-3.000000,-1.000000,1.000000,-1.000000,0.000000,-2.000000
1298468.163064,5.000000,-3.000000,-11.000000,-5.000000,-2.000000,-6.000000,0.000000,-2.000000
1298468.163117,2.000000,0.000000,-4.000000,-1.000000,0.000000,-1.000000,4.000000,-1.000000
1298468.164021,2.000000,0.000000,1.000000,-2.000000,1.000000,-3.000000,-3.000000,0.000000
1298468.164050,-4.000000,-5.000000,-7.000000,-3.000000,-3.000000,0.000000,1.000000,1.000000
1298468.166987,1.000000,2.000000,-1.000000,0.000000,-1.000000,-3.000000,-4.000000,-3.000000
1298468.167038,3.000000,2.000000,4.000000,2.000000,-3.000000,3.000000,-2.000000,2.000000
1298468.182403,1.000000,2.000000,0.000000,1.000000,-1.000000,0.000000,-1.000000,0.000000
1298468.182433,-2.000000,2.000000,-1.000000,2.000000,-1.000000,-3.000000,-2.000000,-1.000000
1298468.196709,-2.000000,0.000000,1.000000,-2.000000,-2.000000,-4.000000,-2.000000,-1.000000
1298468.196736,-2.000000,-5.000000,-5.000000,1.000000,-1.000000,0.000000,-1.000000,1.000000
1298468.204323,-1.000000,-5.000000,-4.000000,-5.000000,-2.000000,1.000000,-5.000000,-5.000000
1298468.204349,1.000000,-1.000000,0.000000,1.000000,-4.000000,-6.000000,-1.000000,-1.000000
1298468.234178,-4.000000,-5.000000,-1.000000,-1.000000,-1.000000,-2.000000,-3.000000,-4.000000
1298468.234230,2.000000,2.000000,-2.000000,-1.000000,2.000000,1.000000,1.000000,-1.000000
1298468.241639,-2.000000,-1.000000,4.000000,4.000000,-1.000000,-2.000000,-1.000000,-1.000000
1298468.241767,2.000000,3.000000,1.000000,1.000000,0.000000,0.000000,0.000000,0.000000
1298468.257421,-5.000000,-8.000000,-2.000000,0.000000,0.000000,2.000000,-1.000000,-2.000000
1298468.257448,0.000000,-3.000000,-3.000000,2.000000,-2.000000,-1.000000,0.000000,-3.000000
1298468.257693,-1.000000,-3.000000,0.000000,-2.000000,0.000000,-1.000000,-2.000000,-1.000000
1298468.257712,-3.000000,-2.000000,-2.000000,-3.000000,-3.000000,-4.000000,-1.000000,-1.000000
1298468.272917,0.000000,0.000000,4.000000,2.000000,2.000000,-1.000000,-5.000000,0.000000
1298468.272972,-2.000000,-3.000000,-5.000000,1.000000,-1.000000,-2.000000,-2.000000,-4.000000
1298468.273235,4.000000,3.000000,-3.000000,-3.000000,0.000000,0.000000,0.000000,-2.000000
1298468.273260,2.000000,9.000000,3.000000,-1.000000,-1.000000,-1.000000,2.000000,2.000000
1298468.274711,-2.000000,-2.000000,0.000000,-2.000000,-1.000000,1.000000,-1.000000,3.000000
1298468.274753,1.000000,1.000000,-5.000000,1.000000,-4.000000,0.000000,2.000000,2.000000
1298468.278776,1.000000,-1.000000,-2.000000,0.000000,-1.000000,2.000000,1.000000,-2.000000
1298468.278801,-6.000000,-6.000000,0.000000,-5.000000,-2.000000,-3.000000,-2.000000,-3.000000
1298468.286374,-2.000000,1.000000,0.000000,2.000000,-1.000000,2.000000,5.000000,-5.000000
1298468.286424,1.000000,-1.000000,-1.000000,-3.000000,-1.000000,0.000000,0.000000,3.000000
1298468.301678,-2.000000,1.000000,1.000000,2.000000,1.000000,3.000000,-2.000000,-1.000000
1298468.301730,3.000000,4.000000,-1.000000,1.000000,-2.000000,-3.000000,-3.000000,-3.000000
1298468.324310,-2.000000,-4.000000,1.000000,-1.000000,1.000000,0.000000,-2.000000,-4.000000
1298468.324336,-4.000000,-4.000000,-5.000000,-1.000000,1.000000,1.000000,-2.000000,2.000000
1298468.331826,1.000000,-2.000000,-3.000000,-1.000000,-3.000000,-2.000000,-3.000000,-4.000000
1298468.331874,-2.000000,-1.000000,-3.000000,-1.000000,0.000000,1.000000,-2.000000,-1.000000
1298468.361619,0.000000,1.000000,-3.000000,1.000000,-3.000000,-4.000000,-1.000000,-3.000000
1298468.361670,-3.000000,-2.000000,4.000000,-1.000000,-1.000000,-3.000000,-5.000000,-4.000000
1298468.369134,-1.000000,-3.000000,-5.000000,-3.000000,-2.000000,-1.000000,0.000000,-1.000000
1298468.369185,0.000000,1.000000,-6.000000,-1.000000,-2.000000,-3.000000,1.000000,5.000000
1298468.399642,-1.000000,-1.000000,1.000000,-1.000000,1.000000,0.000000,-2.000000,1.000000
1298468.399695,0.000000,1.000000,1.000000,2.000000,-2.000000,0.000000,-1.000000,-5.000000
1298468.406704,3.000000,5.000000,1.000000,0.000000,-3.000000,-2.000000,3.000000,-1.000000
1298468.406977,0.000000,0.000000,2.000000,1.000000,1.000000,-1.000000,1.000000,1.000000
1298468.408361,4.000000,0.000000,-10.000000,-5.000000,-2.000000,-2.000000,0.000000,1.000000
1298468.408413,2.000000,1.000000,-1.000000,1.000000,0.000000,1.000000,0.000000,1.000000
1298468.409233,7.000000,8.000000,-4.000000,0.000000,-2.000000,1.000000,-1.000000,1.000000
1298468.409284,-1.000000,-6.000000,-4.000000,0.000000,-1.000000,2.000000,-5.000000,0.000000
1298468.410674,-3.000000,0.000000,-1.000000,1.000000,-5.000000,0.000000,0.000000,1.000000
1298468.410716,2.000000,7.000000,-2.000000,-1.000000,0.000000,2.000000,0.000000,-2.000000
1298468.436888,1.000000,-2.000000,-2.000000,1.000000,-1.000000,-3.000000,-1.000000,1.000000
1298468.436927,0.000000,0.000000,-3.000000,1.000000,-1.000000,-2.000000,-1.000000,-1.000000
1298468.459291,0.000000,-3.000000,4.000000,4.000000,0.000000,-1.000000,4.000000,-2.000000
1298468.459318,3.000000,1.000000,-4.000000,-1.000000,-1.000000,-1.000000,1.000000,3.000000
1298468.474456,-1.000000,-6.000000,-5.000000,-1.000000,-4.000000,-2.000000,-4.000000,1.000000
1298468.474507,-6.000000,-4.000000,-4.000000,1.000000,-1.000000,-2.000000,1.000000,1.000000
1298468.489311,-4.000000,0.000000,-3.000000,-1.000000,-2.000000,0.000000,-5.000000,0.000000
1298468.489378,1.000000,-5.000000,-1.000000,-5.000000,-1.000000,-4.000000,0.000000,-2.000000
1298468.512385,-4.000000,-2.000000,-9.000000,0.000000,1.000000,0.000000,0.000000,1.000000
1298468.512431,-1.000000,1.000000,0.000000,0.000000,0.000000,2.000000,-1.000000,-1.000000
1298468.513751,-1.000000,3.000000,2.000000,2.000000,0.000000,0.000000,-5.000000,-2.000000
1298468.513792,-1.000000,-3.000000,-5.000000,-2.000000,-1.000000,2.000000,-4.000000,-4.000000
1298468.513997,2.000000,-2.000000,-8.000000,-1.000000,-3.000000,0.000000,-1.000000,3.000000
1298468.514042,2.000000,2.000000,2.000000,-1.000000,-3.000000,-4.000000,-1.000000,1.000000
1298468.515637,0.000000,-1.000000,2.000000,-1.000000,-2.000000,-2.000000,-2.000000,-2.000000
1298468.515696,-1.000000,1.000000,1.000000,0.000000,0.000000,-3.000000,3.000000,1.000000
1298468.515980,1.000000,2.000000,-8.000000,-1.000000,-3.000000,-4.000000,1.000000,2.000000
1298468.516028,-4.000000,-5.000000,-1.000000,-1.000000,0.000000,-2.000000,-3.000000,-5.000000
1298468.518835,-1.000000,2.000000,0.000000,2.000000,-2.000000,2.000000,3.000000,0.000000
1298468.518879,-7.000000,-12.000000,-7.000000,-3.000000,-2.000000,-1.000000,1.000000,-1.000000
1298468.534802,0.000000,0.000000,2.000000,0.000000,-1.000000,-1.000000,0.000000,2.000000
1298468.534853,0.000000,-3.000000,-5.000000,-1.000000,-3.000000,-5.000000,-4.000000,-1.000000
1298468.549351,0.000000,1.000000,-3.000000,-1.000000,-3.000000,0.000000,-2.000000,-2.000000
1298468.549380,0.000000,4.000000,0.000000,-2.000000,1.000000,0.000000,0.000000,2.000000
1298468.564106,1.000000,-1.000000,1.000000,2.000000,-1.000000,1.000000,-3.000000,0.000000
1298468.564157,4.000000,-1.000000,-2.000000,0.000000,-2.000000,1.000000,4.000000,2.000000
1298468.571751,-3.000000,-6.000000,-1.000000,-2.000000,-1.000000,0.000000,-1.000000,1.000000
1298468.571801,0.000000,0.000000,-4.000000,-4.000000,-2.000000,-2.000000,-1.000000,-5.000000
1298468.594054,0.000000,3.000000,-1.000000,-1.000000,-1.000000,1.000000,-2.000000,-2.000000
1298468.594104,1.000000,-1.000000,-1.000000,-4.000000,-1.000000,-1.000000,-2.000000,-3.000000
1298468.601631,0.000000,-1.000000,-2.000000,-4.000000,-1.000000,-1.000000,0.000000,-1.000000
1298468.601683,1.000000,2.000000,-4.000000,-1.000000,-3.000000,-3.000000,-1.000000,1.000000
1298468.633076,-4.000000,-4.000000,2.000000,0.000000,-1.000000,-1.000000,-3.000000,1.000000
1298468.633129,-2.000000,2.000000,0.000000,-1.000000,2.000000,-1.000000,-1.000000,-3.000000
1298468.633504,-1.000000,1.000000,-4.000000,-3.000000,0.000000,-2.000000,-1.000000,-2.000000
1298468.633541,-2.000000,-2.000000,1.000000,2.000000,3.000000,1.000000,2.000000,3.000000
1298468.634874,-1.000000,-2.000000,1.000000,1.000000,2.000000,1.000000,1.000000,0.000000
1298468.635305,1.000000,-2.000000,-4.000000,0.000000,-2.000000,1.000000,-4.000000,3.000000
1298468.636058,-3.000000,-3.000000,0.000000,-1.000000,-2.000000,-1.000000,-3.000000,0.000000
1298468.636105,3.000000,1.000000,0.000000,-1.000000,-1.000000,-4.000000,0.000000,2.000000
1298468.639278,0.000000,1.000000,2.000000,1.000000,-2.000000,1.000000,0.000000,2.000000
1298468.639341,1.000000,-1.000000,-4.000000,-1.000000,-2.000000,-1.000000,-2.000000,-3.000000
1298468.661581,-1.000000,-5.000000,0.000000,0.000000,0.000000,0.000000,4.000000,0.000000
1298468.661632,2.000000,1.000000,-2.000000,-2.000000,-1.000000,0.000000,-3.000000,-3.000000
1298468.669025,-1.000000,0.000000,0.000000,-3.000000,-1.000000,0.000000,-1.000000,0.000000
1298468.669074,1.000000,-2.000000,0.000000,-3.000000,-1.000000,4.000000,-2.000000,-1.000000
1298468.683930,-1.000000,-5.000000,-3.000000,-1.000000,-2.000000,-6.000000,0.000000,1.000000
1298468.683981,-2.000000,-6.000000,-3.000000,-1.000000,-1.000000,0.000000,-3.000000,-2.000000
1298468.714224,0.000000,-2.000000,1.000000,-2.000000,-1.000000,-1.000000,-3.000000,0.000000
1298468.714275,1.000000,0.000000,-2.000000,0.000000,0.000000,-1.000000,-1.000000,0.000000
1298468.736710,-2.000000,-1.000000,-4.000000,0.000000,-3.000000,0.000000,0.000000,-3.000000
1298468.736764,-1.000000,-4.000000,-1.000000,-1.000000,1.000000,-2.000000,3.000000,0.000000
1298468.737721,-4.000000,-6.000000,-2.000000,-3.000000,-2.000000,0.000000,-2.000000,-2.000000
1298468.737752,2.000000,2.000000,-3.000000,-4.000000,-1.000000,1.000000,-4.000000,0.000000
1298468.738526,0.000000,-1.000000,-4.000000,0.000000,-4.000000,-4.000000,1.000000,-1.000000
1298468.738560,-1.000000,-3.000000,-2.000000,1.000000,-2.000000,1.000000,-2.000000,1.000000
1298468.739581,-3.000000,-7.000000,4.000000,-3.000000,-2.000000,0.000000,-2.000000,-1.000000
1298468.739631,3.000000,2.000000,-1.000000,-1.000000,-4.000000,0.000000,-4.000000,0.000000
1298468.751405,-1.000000,-2.000000,0.000000,5.000000,5.000000,1.000000,1.000000,-2.000000
1298468.751454,0.000000,1.000000,0.000000,-1.000000,0.000000,1.000000,0.000000,0.000000
1298468.753329,4.000000,0.000000,1.000000,-1.000000,0.000000,-3.000000,1.000000,-5.000000
1298468.753358,-5.000000,1.000000,-2.000000,-2.000000,-2.000000,-1.000000,3.000000,-2.000000
1298468.753949,2.000000,-2.000000,-4.000000,-3.000000,-1.000000,-4.000000,1.000000,1.000000
1298468.753996,-3.000000,-3.000000,-4.000000,-2.000000,0.000000,-4.000000,-1.000000,-3.000000
1298468.766642,0.000000,-2.000000,0.000000,1.000000,0.000000,-1.000000,-1.000000,1.000000
1298468.766692,-6.000000,-6.000000,-3.000000,1.000000,1.000000,1.000000,-1.000000,0.000000
1298468.774351,-3.000000,-3.000000,-1.000000,1.000000,-4.000000,-2.000000,-3.000000,-2.000000
1298468.774402,0.000000,1.000000,2.000000,-2.000000,0.000000,1.000000,-5.000000,0.000000
1298468.796651,0.000000,1.000000,-1.000000,-3.000000,1.000000,2.000000,-1.000000,-1.000000
1298468.796701,0.000000,-2.000000,-3.000000,-3.000000,-1.000000,0.000000,-1.000000,-2.000000
1298468.804183,-1.000000,-2.000000,-1.000000,-1.000000,-6.000000,-1.000000,0.000000,-4.000000
1298468.804236,-4.000000,-2.000000,-4.000000,-1.000000,1.000000,-3.000000,-2.000000,-3.000000
1298468.826651,-1.000000,-4.000000,-1.000000,0.000000,-1.000000,0.000000,-1.000000,1.000000
1298468.826676,3.000000,3.000000,-1.000000,-1.000000,-1.000000,0.000000,-1.000000,0.000000
1298468.834110,0.000000,-3.000000,0.000000,-2.000000,-2.000000,-1.000000,-2.000000,1.000000
1298468.834160,-2.000000,1.000000,0.000000,-4.000000,-1.000000,-4.000000,2.000000,1.000000
1298468.849779,-5.000000,-2.000000,-1.000000,-5.000000,-3.000000,-3.000000,-2.000000,1.000000
1298468.850137,0.000000,-3.000000,2.000000,2.000000,1.000000,0.000000,2.000000,-1.000000
1298468.850993,-5.000000,-3.000000,-3.000000,3.000000,-2.000000,1.000000,2.000000,-1.000000
1298468.851254,2.000000,0.000000,1.000000,-4.000000,-2.000000,0.000000,-5.000000,-2.000000
1298468.852210,-1.000000,0.000000,0.000000,0.000000,0.000000,0.000000,-1.000000,-1.000000
1298468.852249,0.000000,1.000000,0.000000,-4.000000,1.000000,1.000000,0.000000,-1.000000
1298468.853110,-3.000000,-2.000000,-2.000000,-3.000000,-1.000000,-3.000000,-2.000000,3.000000
1298468.853166,2.000000,1.000000,2.000000,1.000000,0.000000,-1.000000,-2.000000,-1.000000
1298468.872940,2.000000,5.000000,-4.000000,2.000000,-1.000000,0.000000,-1.000000,-1.000000
1298468.872990,-5.000000,-2.000000,3.000000,-3.000000,-1.000000,-1.000000,1.000000,1.000000
1298468.873412,0.000000,0.000000,-1.000000,-1.000000,-1.000000,0.000000,-5.000000,-1.000000
1298468.873435,-2.000000,-1.000000,1.000000,-1.000000,-3.000000,1.000000,1.000000,2.000000
1298468.909407,-1.000000,-2.000000,-4.000000,-2.000000,0.000000,1.000000,3.000000,0.000000
1298468.909471,-2.000000,-3.000000,2.000000,1.000000,-3.000000,2.000000,-2.000000,0.000000
1298468.916826,-3.000000,2.000000,-2.000000,-2.000000,-4.000000,3.000000,-2.000000,-1.000000
1298468.917028,-1.000000,-4.000000,0.000000,2.000000,3.000000,1.000000,-2.000000,-3.000000
1298468.939232,0.000000,0.000000,-1.000000,-4.000000,-2.000000,-3.000000,0.000000,-2.000000
1298468.939280,1.000000,2.000000,-6.000000,1.000000,-2.000000,-1.000000,1.000000,2.000000
1298468.946868,2.000000,1.000000,-3.000000,-5.000000,-2.000000,0.000000,-3.000000,0.000000
1298468.946918,-3.000000,-3.000000,-4.000000,-4.000000,-4.000000,-2.000000,-3.000000,-1.000000
1298468.961880,-3.000000,-4.000000,0.000000,0.000000,0.000000,2.000000,-4.000000,-3.000000
1298468.961926,-4.000000,-3.000000,-5.000000,-3.000000,0.000000,2.000000,0.000000,-2.000000
1298468.991941,1.000000,3.000000,0.000000,1.000000,1.000000,-2.000000,1.000000,0.000000
1298468.992018,-1.000000,-1.000000,0.000000,-2.000000,-1.000000,-1.000000,-4.000000,1.000000
1298469.036993,-1.000000,3.000000,1.000000,0.000000,0.000000,2.000000,-2.000000,1.000000
1298469.037041,-2.000000,-3.000000,-4.000000,1.000000,2.000000,-1.000000,-4.000000,-1.000000
1298469.052041,2.000000,9.000000,3.000000,-2.000000,-1.000000,-1.000000,-3.000000,1.000000
1298469.052093,-1.000000,2.000000,1.000000,-4.000000,-2.000000,-1.000000,0.000000,0.000000
1298469.074637,-1.000000,0.000000,-1.000000,-1.000000,-1.000000,-2.000000,0.000000,-1.000000
1298469.074705,4.000000,-1.000000,0.000000,-2.000000,-1.000000,-1.000000,-2.000000,-2.000000
1298469.089404,2.000000,0.000000,1.000000,-1.000000,-2.000000,3.000000,1.000000,-1.000000
1298469.089459,-2.000000,3.000000,0.000000,-3.000000,-2.000000,-3.000000,-1.000000,-5.000000
1298469.090433,-4.000000,0.000000,-3.000000,2.000000,0.000000,-3.000000,0.000000,1.000000
1298469.090478,4.000000,2.000000,3.000000,-6.000000,-3.000000,-1.000000,-1.000000,0.000000
1298469.105096,0.000000,2.000000,-4.000000,-4.000000,-5.000000,-3.000000,0.000000,-5.000000
1298469.105249,-1.000000,1.000000,2.000000,4.000000,2.000000,-1.000000,-1.000000,-3.000000
1298469.105555,-2.000000,1.000000,0.000000,2.000000,3.000000,1.000000,0.000000,0.000000
1298469.105616,-1.000000,0.000000,-1.000000,-1.000000,-1.000000,2.000000,1.000000,1.000000
1298469.108510,0.000000,-2.000000,0.000000,-2.000000,-3.000000,1.000000,-1.000000,-2.000000
1298469.108563,0.000000,3.000000,-3.000000,-3.000000,-4.000000,-2.000000,-1.000000,-1.000000
1298469.109532,-4.000000,-1.000000,2.000000,3.000000,0.000000,0.000000,0.000000,-2.000000
1298469.109588,0.000000,0.000000,-1.000000,1.000000,0.000000,0.000000,-1.000000,-2.000000
1298469.111699,-2.000000,-3.000000,-3.000000,-1.000000,-3.000000,3.000000,-3.000000,-1.000000
1298469.111751,-4.000000,0.000000,-2.000000,-3.000000,-2.000000,-3.000000,1.000000,0.000000
1298469.120603,-1.000000,-1.000000,3.000000,-2.000000,5.000000,-2.000000,-2.000000,-1.000000
1298469.120665,-2.000000,-4.000000,-1.000000,-1.000000,0.000000,3.000000,-1.000000,1.000000
1298469.142673,-1.000000,-2.000000,-1.000000,-1.000000,0.000000,-3.000000,-5.000000,1.000000
1298469.142737,1.000000,-2.000000,1.000000,1.000000,-1.000000,-6.000000,-3.000000,1.000000
1298469.157672,0.000000,0.000000,-4.000000,-2.000000,-1.000000,0.000000,-3.000000,-1.000000
1298469.157722,-4.000000,-9.000000,-1.000000,-1.000000,0.000000,-2.000000,3.000000,-1.000000
1298469.165539,-5.000000,-3.000000,2.000000,0.000000,-2.000000,-1.000000,-2.000000,-1.000000
1298469.165589,-2.000000,-2.000000,-2.000000,0.000000,-1.000000,0.000000,-2.000000,1.000000
1298469.187172,-4.000000,-4.000000,-5.000000,1.000000,1.000000,4.000000,2.000000,0.000000
1298469.187227,-4.000000,-8.000000,0.000000,-4.000000,-3.000000,-3.000000,-6.000000,-4.000000
1298469.194829,3.000000,5.000000,3.000000,0.000000,-1.000000,-1.000000,-6.000000,0.000000
1298469.194883,0.000000,-2.000000,-5.000000,-1.000000,0.000000,-2.000000,-3.000000,-1.000000
1298469.224720,-1.000000,0.000000,3.000000,-1.000000,-2.000000,0.000000,-1.000000,-4.000000
1298469.225082,-1.000000,4.000000,-2.000000,-1.000000,-4.000000,-6.000000,2.000000,1.000000
1298469.225782,-4.000000,0.000000,-1.000000,-2.000000,3.000000,0.000000,-2.000000,-1.000000
1298469.225820,-1.000000,0.000000,-2.000000,2.000000,0.000000,1.000000,-1.000000,-1.000000
1298469.227511,-5.000000,-4.000000,-2.000000,-1.000000,-3.000000,0.000000,-1.000000,1.000000
1298469.227557,1.000000,0.000000,3.000000,-2.000000,-4.000000,-5.000000,-6.000000,-3.000000
1298469.228167,0.000000,3.000000,-3.000000,-1.000000,-2.000000,0.000000,0.000000,0.000000
1298469.228217,1.000000,4.000000,1.000000,-1.000000,-1.000000,0.000000,-2.000000,2.000000
1298469.229318,-2.000000,2.000000,-1.000000,-2.000000,-2.000000,0.000000,-2.000000,-2.000000
1298469.229368,-5.000000,-2.000000,-1.000000,1.000000,-1.000000,-2.000000,0.000000,-2.000000
1298469.231814,-2.000000,-2.000000,2.000000,0.000000,1.000000,0.000000,-1.000000,-2.000000
1298469.231839,-5.000000,-9.000000,0.000000,-1.000000,2.000000,0.000000,0.000000,-2.000000
1298469.240204,1.000000,0.000000,0.000000,1.000000,0.000000,-3.000000,-3.000000,-3.000000
1298469.240256,0.000000,0.000000,-2.000000,-3.000000,-3.000000,0.000000,-3.000000,-2.000000
1298469.276839,-1.000000,2.000000,1.000000,0.000000,-2.000000,-1.000000,0.000000,1.000000
1298469.276895,1.000000,-1.000000,-6.000000,-3.000000,2.000000,-4.000000,1.000000,0.000000
1298469.291673,-4.000000,3.000000,2.000000,-1.000000,-3.000000,-1.000000,-1.000000,-3.000000
1298469.291699,0.000000,4.000000,-6.000000,0.000000,0.000000,-2.000000,1.000000,0.000000
1298469.299489,-1.000000,1.000000,1.000000,0.000000,1.000000,0.000000,-1.000000,-1.000000
1298469.299537,-2.000000,-1.000000,-2.000000,0.000000,0.000000,-1.000000,1.000000,-2.000000
1298469.314428,-4.000000,-4.000000,-2.000000,-3.000000,-2.000000,-2.000000,0.000000,-4.000000
1298469.314480,-5.000000,-6.000000,-2.000000,-2.000000,-3.000000,-1.000000,-1.000000,-1.000000
1298469.321927,0.000000,4.000000,5.000000,3.000000,1.000000,0.000000,1.000000,3.000000
1298469.322273,0.000000,-3.000000,-2.000000,0.000000,-7.000000,2.000000,-4.000000,-1.000000
1298469.323397,-5.000000,-6.000000,-7.000000,-1.000000,0.000000,-1.000000,-2.000000,1.000000
1298469.323448,-1.000000,2.000000,-2.000000,-4.000000,-2.000000,2.000000,-2.000000,0.000000
1298469.324807,-1.000000,-3.000000,-1.000000,2.000000,-3.000000,-2.000000,-3.000000,-3.000000
1298469.324930,-4.000000,0.000000,1.000000,2.000000,-2.000000,0.000000,2.000000,0.000000
1298469.325724,-3.000000,-2.000000,3.000000,-2.000000,-4.000000,-1.000000,-2.000000,0.000000
1298469.325766,3.000000,2.000000,-1.000000,1.000000,2.000000,5.000000,-1.000000,-1.000000
1298469.329284,-3.000000,-1.000000,-4.000000,-4.000000,-2.000000,1.000000,-4.000000,0.000000
1298469.329310,0.000000,-1.000000,-2.000000,-4.000000,-2.000000,-6.000000,-3.000000,-4.000000
1298469.345330,0.000000,1.000000,-3.000000,-3.000000,0.000000,-3.000000,-4.000000,-2.000000
1298469.345377,-4.000000,-4.000000,0.000000,-2.000000,4.000000,1.000000,0.000000,-3.000000
1298469.359434,0.000000,0.000000,1.000000,0.000000,-1.000000,0.000000,0.000000,-2.000000
1298469.359459,-2.000000,-2.000000,-1.000000,-2.000000,-1.000000,1.000000,-1.000000,2.000000
1298469.360624,2.000000,0.000000,1.000000,-2.000000,-2.000000,-2.000000,2.000000,-2.000000
1298469.360646,-5.000000,-8.000000,-1.000000,0.000000,0.000000,1.000000,1.000000,-2.000000
1298469.381889,2.000000,-3.000000,-3.000000,1.000000,-3.000000,0.000000,-3.000000,0.000000
1298469.381940,1.000000,-2.000000,1.000000,-3.000000,-1.000000,0.000000,-2.000000,-2.000000
1298469.397048,4.000000,0.000000,5.000000,0.000000,0.000000,-2.000000,0.000000,-1.000000
1298469.397103,0.000000,8.000000,-2.000000,-1.000000,-4.000000,0.000000,2.000000,2.000000
1298469.404587,1.000000,0.000000,-5.000000,-4.000000,0.000000,1.000000,-3.000000,-2.000000
1298469.404614,0.000000,2.000000,2.000000,-2.000000,1.000000,-2.000000,-1.000000,-1.000000
1298469.426503,1.000000,5.000000,0.000000,2.000000,0.000000,-1.000000,-1.000000,0.000000
1298469.426527,1.000000,0.000000,-1.000000,-3.000000,0.000000,0.000000,0.000000,-1.000000
1298469.434470,-2.000000,0.000000,0.000000,1.000000,0.000000,1.000000,2.000000,1.000000
1298469.434823,-4.000000,-5.000000,2.000000,-1.000000,0.000000,0.000000,-3.000000,-2.000000
1298469.435948,1.000000,-1.000000,-1.000000,-1.000000,2.000000,-1.000000,-1.000000,-2.000000
1298469.435978,0.000000,0.000000,-3.000000,1.000000,-2.000000,1.000000,0.000000,0.000000
1298469.436736,-1.000000,0.000000,-1.000000,1.000000,-3.000000,-2.000000,-1.000000,1.000000
1298469.436759,-2.000000,3.000000,-1.000000,-4.000000,-2.000000,0.000000,-1.000000,1.000000
1298469.465244,-2.000000,2.000000,-1.000000,-2.000000,-1.000000,-2.000000,2.000000,-2.000000
1298469.465283,0.000000,-6.000000,0.000000,-2.000000,-1.000000,-3.000000,-2.000000,1.000000
1298469.465655,-1.000000,-3.000000,1.000000,-2.000000,-1.000000,-1.000000,-1.000000,2.000000
1298469.465706,-1.000000,-1.000000,1.000000,1.000000,0.000000,-2.000000,-1.000000,1.000000
1298469.467188,0.000000,-1.000000,-1.000000,-2.000000,-3.000000,-1.000000,2.000000,-1.000000
1298469.467282,4.000000,0.000000,4.000000,3.000000,0.000000,-4.000000,4.000000,-4.000000
1298469.472017,-1.000000,-1.000000,2.000000,2.000000,-1.000000,-3.000000,-1.000000,-4.000000
1298469.472067,0.000000,1.000000,-4.000000,-2.000000,-4.000000,-1.000000,-6.000000,-4.000000
1298469.501997,0.000000,-2.000000,-4.000000,-3.000000,-1.000000,1.000000,-1.000000,3.000000
1298469.502042,-5.000000,0.000000,1.000000,-1.000000,-2.000000,1.000000,0.000000,0.000000
1298469.509572,2.000000,7.000000,-5.000000,-1.000000,1.000000,-4.000000,1.000000,1.000000
1298469.509599,-1.000000,-4.000000,0.000000,0.000000,2.000000,-1.000000,-2.000000,-3.000000
1298469.546981,3.000000,-2.000000,-1.000000,2.000000,-2.000000,1.000000,-1.000000,0.000000
1298469.547036,-3.000000,-2.000000,-1.000000,3.000000,0.000000,-3.000000,-2.000000,0.000000
1298469.554347,-1.000000,0.000000,-5.000000,-1.000000,1.000000,-4.000000,-2.000000,0.000000
1298469.554381,-2.000000,-1.000000,-1.000000,-3.000000,-4.000000,-5.000000,-3.000000,-3.000000
1298469.584143,0.000000,2.000000,-1.000000,0.000000,0.000000,0.000000,4.000000,3.000000
1298469.584194,-4.000000,-4.000000,2.000000,0.000000,0.000000,3.000000,-3.000000,1.000000
1298469.591672,-1.000000,-1.000000,2.000000,-2.000000,-2.000000,0.000000,-2.000000,0.000000
1298469.591724,-1.000000,-1.000000,-1.000000,-4.000000,-2.000000,-3.000000,-1.000000,-2.000000
1298469.621827,-1.000000,-3.000000,-2.000000,-2.000000,3.000000,2.000000,2.000000,1.000000
1298469.621876,0.000000,2.000000,-2.000000,-5.000000,-3.000000,-2.000000,-3.000000,-1.000000
1298469.636882,0.000000,1.000000,-4.000000,-1.000000,-3.000000,-5.000000,0.000000,0.000000
1298469.636937,-1.000000,1.000000,-1.000000,4.000000,-1.000000,-1.000000,-4.000000,-5.000000
1298469.674139,0.000000,1.000000,-1.000000,-2.000000,-3.000000,-2.000000,1.000000,2.000000
1298469.674187,-1.000000,1.000000,0.000000,-2.000000,1.000000,-1.000000,0.000000,-1.000000
1298469.696701,-1.000000,-3.000000,0.000000,1.000000,-3.000000,-3.000000,0.000000,-4.000000
1298469.696754,1.000000,-2.000000,1.000000,0.000000,-4.000000,-3.000000,-1.000000,0.000000
1298469.704190,-3.000000,-3.000000,3.000000,-2.000000,0.000000,-1.000000,-2.000000,-4.000000
1298469.704465,-1.000000,-2.000000,-3.000000,-1.000000,-1.000000,-1.000000,-3.000000,-3.000000
1298469.706512,2.000000,3.000000,0.000000,1.000000,-4.000000,0.000000,-2.000000,-2.000000
1298469.706574,-2.000000,-4.000000,-2.000000,-3.000000,-3.000000,-1.000000,2.000000,-1.000000
1298469.707814,1.000000,0.000000,0.000000,0.000000,-1.000000,-3.000000,0.000000,1.000000
1298469.707857,-1.000000,3.000000,-1.000000,-1.000000,2.000000,1.000000,-2.000000,-2.000000
1298469.708611,-1.000000,-1.000000,-3.000000,-4.000000,-1.000000,0.000000,0.000000,-1.000000
1298469.708668,2.000000,-1.000000,-3.000000,0.000000,0.000000,0.000000,-1.000000,1.000000
1298469.711485,-3.000000,-5.000000,-5.000000,-3.000000,2.000000,-2.000000,-6.000000,-1.000000
1298469.711547,0.000000,3.000000,3.000000,0.000000,-1.000000,-2.000000,-2.000000,-3.000000
1298469.741709,-1.000000,0.000000,-1.000000,-1.000000,0.000000,-2.000000,-4.000000,-4.000000
1298469.741761,-1.000000,-1.000000,-3.000000,-1.000000,-1.000000,-3.000000,-2.000000,-5.000000
1298469.749379,2.000000,1.000000,-1.000000,2.000000,-2.000000,1.000000,-1.000000,1.000000
1298469.749407,-3.000000,-3.000000,-4.000000,-2.000000,-2.000000,0.000000,-1.000000,0.000000
1298469.764102,-1.000000,3.000000,1.000000,3.000000,0.000000,-1.000000,2.000000,1.000000
1298469.764217,-4.000000,-5.000000,-2.000000,-1.000000,-1.000000,0.000000,0.000000,-2.000000
1298469.771590,0.000000,-2.000000,-1.000000,1.000000,1.000000,-3.000000,-1.000000,0.000000
1298469.771639,0.000000,-3.000000,-2.000000,-1.000000,-1.000000,-1.000000,-2.000000,2.000000
1298469.786744,-1.000000,-2.000000,-4.000000,-2.000000,0.000000,0.000000,-1.000000,3.000000
1298469.786798,-1.000000,4.000000,-3.000000,-4.000000,-2.000000,-2.000000,-3.000000,2.000000
1298469.794205,0.000000,-1.000000,-4.000000,-2.000000,0.000000,-1.000000,1.000000,-1.000000
1298469.794255,-3.000000,0.000000,0.000000,0.000000,1.000000,-4.000000,1.000000,-1.000000
1298469.826216,-1.000000,0.000000,-2.000000,3.000000,-3.000000,0.000000,-1.000000,0.000000
1298469.826261,-1.000000,0.000000,3.000000,-1.000000,2.000000,-1.000000,0.000000,-1.000000
1298469.826480,0.000000,-4.000000,-4.000000,-3.000000,-3.000000,-1.000000,-3.000000,-2.000000
1298469.826512,0.000000,-4.000000,-1.000000,-3.000000,-2.000000,-2.000000,-4.000000,-1.000000
1298469.827925,-5.000000,1.000000,10.000000,-1.000000,0.000000,0.000000,-4.000000,-1.000000
1298469.827949,2.000000,7.000000,-4.000000,1.000000,0.000000,2.000000,3.000000,1.000000
1298469.828570,0.000000,1.000000,2.000000,-1.000000,-1.000000,-1.000000,0.000000,0.000000
1298469.828593,-3.000000,-7.000000,-3.000000,-1.000000,-3.000000,-1.000000,0.000000,2.000000
1298469.831608,-1.000000,0.000000,-1.000000,1.000000,-1.000000,-1.000000,-1.000000,-5.000000
1298469.831631,0.000000,-1.000000,-4.000000,-6.000000,-4.000000,-5.000000,0.000000,-1.000000
1298469.876987,0.000000,1.000000,-2.000000,0.000000,0.000000,0.000000,-5.000000,-3.000000
1298469.877046,-1.000000,-4.000000,-1.000000,-1.000000,3.000000,1.000000,-1.000000,-1.000000
1298469.899129,-1.000000,1.000000,-1.000000,0.000000,0.000000,-2.000000,-1.000000,4.000000
1298469.899185,0.000000,-3.000000,0.000000,1.000000,-1.000000,-1.000000,-1.000000,-2.000000
1298469.914137,0.000000,-1.000000,-4.000000,-1.000000,-1.000000,-4.000000,0.000000,-2.000000
1298469.914187,0.000000,0.000000,4.000000,0.000000,0.000000,-1.000000,1.000000,1.000000
1298469.921663,-1.000000,-2.000000,-4.000000,-2.000000,-4.000000,0.000000,-2.000000,0.000000
1298469.921690,0.000000,2.000000,-3.000000,-1.000000,0.000000,-2.000000,-3.000000,-1.000000
1298469.937021,-1.000000,-3.000000,0.000000,0.000000,-1.000000,-5.000000,-3.000000,-2.000000
1298469.937519,-1.000000,0.000000,0.000000,0.000000,-1.000000,1.000000,0.000000,1.000000
1298469.938693,1.000000,1.000000,-5.000000,1.000000,-1.000000,2.000000,-1.000000,-1.000000
1298469.939002,-2.000000,1.000000,0.000000,1.000000,-2.000000,0.000000,1.000000,-1.000000
1298469.939249,0.000000,0.000000,-2.000000,-3.000000,-1.000000,-1.000000,-2.000000,1.000000
1298469.939298,1.000000,2.000000,0.000000,1.000000,-1.000000,-3.000000,-4.000000,1.000000
1298469.940144,0.000000,0.000000,-6.000000,-5.000000,-3.000000,1.000000,0.000000,1.000000
1298469.940186,4.000000,-1.000000,0.000000,-2.000000,-4.000000,-1.000000,-5.000000,-1.000000
1298469.944991,-4.000000,-16.000000,-9.000000,-2.000000,1.000000,1.000000,0.000000,2.000000
1298469.945019,1.000000,-1.000000,1.000000,-1.000000,0.000000,-1.000000,-2.000000,-3.000000
1298469.951882,-8.000000,33.000000,5.000000,3.000000,-1.000000,0.000000,-3.000000,1.000000
1298469.951941,0.000000,2.000000,-1.000000,-1.000000,0.000000,0.000000,-2.000000,1.000000
1298469.974338,-4.000000,-2.000000,9.000000,2.000000,-1.000000,-2.000000,-2.000000,0.000000
1298469.974386,4.000000,7.000000,-2.000000,-3.000000,3.000000,3.000000,3.000000,6.000000
1298469.981698,3.000000,4.000000,-4.000000,1.000000,1.000000,-2.000000,1.000000,-1.000000
1298469.981750,-2.000000,8.000000,5.000000,2.000000,2.000000,0.000000,4.000000,2.000000
1298470.019377,-3.000000,5.000000,3.000000,-2.000000,-2.000000,0.000000,-3.000000,-2.000000
1298470.019425,-6.000000,51.000000,13.000000,3.000000,-1.000000,-1.000000,0.000000,2.000000
1298470.026605,1.000000,0.000000,-3.000000,2.000000,1.000000,0.000000,3.000000,-1.000000
1298470.026629,-3.000000,-6.000000,-8.000000,-2.000000,-2.000000,2.000000,-1.000000,1.000000
1298470.035214,-4.000000,-2.000000,2.000000,-1.000000,-1.000000,0.000000,1.000000,3.000000
1298470.035241,-4.000000,-1.000000,-3.000000,1.000000,0.000000,0.000000,1.000000,1.000000
1298470.036774,-1.000000,-4.000000,-2.000000,-3.000000,-2.000000,1.000000,-2.000000,-2.000000
1298470.037106,-1.000000,-1.000000,-2.000000,0.000000,0.000000,3.000000,-1.000000,-1.000000
1298470.037666,-1.000000,0.000000,2.000000,1.000000,-1.000000,-1.000000,1.000000,-1.000000
1298470.037695,0.000000,-4.000000,-1.000000,-1.000000,2.000000,-3.000000,0.000000,-3.000000
1298470.038381,1.000000,-1.000000,-3.000000,-1.000000,-3.000000,1.000000,-1.000000,-1.000000
1298470.038411,-4.000000,-3.000000,0.000000,-4.000000,-3.000000,-1.000000,-4.000000,-3.000000
1298470.057798,0.000000,-3.000000,-1.000000,0.000000,0.000000,-2.000000,0.000000,-5.000000
1298470.058202,-1.000000,0.000000,0.000000,-2.000000,-3.000000,2.000000,0.000000,-1.000000
1298470.058735,-3.000000,0.000000,2.000000,0.000000,2.000000,1.000000,-3.000000,0.000000
1298470.058785,3.000000,3.000000,0.000000,2.000000,-4.000000,-1.000000,-3.000000,-2.000000
1298470.064715,1.000000,0.000000,-1.000000,0.000000,0.000000,2.000000,1.000000,1.000000
1298470.064900,2.000000,-5.000000,-5.000000,-4.000000,-2.000000,-2.000000,-3.000000,0.000000
1298470.072272,2.000000,-4.000000,-4.000000,2.000000,0.000000,-1.000000,-2.000000,1.000000
1298470.072318,-1.000000,-3.000000,2.000000,-4.000000,1.000000,1.000000,1.000000,-3.000000
1298470.102209,-2.000000,-1.000000,-2.000000,-6.000000,-2.000000,0.000000,1.000000,-3.000000
1298470.102256,1.000000,1.000000,1.000000,-1.000000,-1.000000,0.000000,-4.000000,-3.000000
1298470.109196,0.000000,-3.000000,-2.000000,2.000000,1.000000,1.000000,0.000000,-2.000000
1298470.109252,2.000000,1.000000,-4.000000,-1.000000,1.000000,1.000000,-3.000000,-1.000000
1298470.139379,2.000000,0.000000,1.000000,0.000000,-1.000000,-1.000000,0.000000,-3.000000
1298470.139419,-3.000000,-1.000000,1.000000,3.000000,1.000000,-1.000000,1.000000,0.000000
1298470.141180,-6.000000,-4.000000,-1.000000,2.000000,-1.000000,0.000000,-3.000000,1.000000
1298470.141227,2.000000,-2.000000,-2.000000,-3.000000,-2.000000,-2.000000,-3.000000,-1.000000
1298470.141855,-1.000000,-1.000000,-1.000000,0.000000,-3.000000,-3.000000,-1.000000,-1.000000
1298470.141893,-2.000000,0.000000,0.000000,-1.000000,0.000000,1.000000,-1.000000,0.000000
1298470.142518,-2.000000,-2.000000,-1.000000,1.000000,-2.000000,-1.000000,-1.000000,-4.000000
1298470.142547,-1.000000,1.000000,4.000000,-3.000000,-1.000000,3.000000,-4.000000,-3.000000
1298470.146570,0.000000,2.000000,5.000000,0.000000,0.000000,1.000000,-4.000000,1.000000
1298470.146617,1.000000,5.000000,-6.000000,-3.000000,-1.000000,1.000000,1.000000,-2.000000
1298470.154060,3.000000,6.000000,-3.000000,-2.000000,1.000000,-1.000000,-3.000000,-2.000000
1298470.154085,-3.000000,-4.000000,4.000000,0.000000,-2.000000,4.000000,2.000000,-1.000000
1298470.176952,-2.000000,-5.000000,-8.000000,-3.000000,-6.000000,-5.000000,-2.000000,-1.000000
1298470.177169,0.000000,-1.000000,-1.000000,-4.000000,-3.000000,0.000000,-2.000000,-1.000000
1298470.177683,0.000000,3.000000,-1.000000,-1.000000,-1.000000,-2.000000,0.000000,0.000000
1298470.177730,2.000000,-4.000000,-3.000000,-4.000000,1.000000,-1.000000,-1.000000,0.000000
1298470.185084,-2.000000,-4.000000,-1.000000,-3.000000,2.000000,0.000000,-2.000000,1.000000
1298470.185128,0.000000,-1.000000,0.000000,-1.000000,0.000000,-1.000000,-1.000000,-1.000000
1298470.199682,-3.000000,-1.000000,4.000000,1.000000,1.000000,3.000000,2.000000,0.000000
1298470.200068,0.000000,3.000000,0.000000,1.000000,-2.000000,3.000000,-4.000000,-1.000000
1298470.214592,3.000000,1.000000,3.000000,0.000000,1.000000,0.000000,-1.000000,-2.000000
1298470.214621,1.000000,-3.000000,-3.000000,-1.000000,1.000000,2.000000,1.000000,-1.000000
1298470.221791,-1.000000,-1.000000,0.000000,-1.000000,-1.000000,-3.000000,-2.000000,2.000000
1298470.221848,3.000000,4.000000,-5.000000,-4.000000,-6.000000,0.000000,-2.000000,-2.000000
1298470.236844,-2.000000,1.000000,1.000000,-2.000000,1.000000,1.000000,-1.000000,-4.000000
1298470.236900,-2.000000,-2.000000,-5.000000,-1.000000,2.000000,0.000000,-1.000000,-3.000000
1298470.251866,-3.000000,-3.000000,1.000000,1.000000,-1.000000,0.000000,-1.000000,-2.000000
1298470.251921,0.000000,-1.000000,0.000000,-1.000000,-4.000000,0.000000,1.000000,-2.000000
1298470.266723,1.000000,3.000000,-1.000000,2.000000,1.000000,2.000000,1.000000,-2.000000
1298470.266749,-4.000000,-4.000000,2.000000,-1.000000,0.000000,0.000000,0.000000,-1.000000
1298470.274419,1.000000,1.000000,2.000000,2.000000,-3.000000,-2.000000,0.000000,-1.000000
1298470.274549,-1.000000,-4.000000,-3.000000,0.000000,-3.000000,-1.000000,-2.000000,-1.000000
1298470.296476,-4.000000,-1.000000,1.000000,2.000000,0.000000,0.000000,-1.000000,-1.000000
1298470.296512,2.000000,5.000000,1.000000,-3.000000,-2.000000,-2.000000,-1.000000,1.000000
1298470.304200,3.000000,0.000000,4.000000,-1.000000,-1.000000,-1.000000,1.000000,0.000000
1298470.304245,0.000000,-1.000000,-4.000000,-2.000000,-2.000000,0.000000,1.000000,0.000000
1298470.312778,-2.000000,-3.000000,-2.000000,-2.000000,0.000000,0.000000,1.000000,0.000000
1298470.312822,-1.000000,-1.000000,3.000000,3.000000,1.000000,1.000000,-2.000000,5.000000
1298470.313503,-1.000000,-1.000000,4.000000,0.000000,-2.000000,0.000000,0.000000,-1.000000
1298470.313540,2.000000,1.000000,2.000000,-4.000000,-6.000000,-1.000000,1.000000,0.000000
1298470.314975,-3.000000,-2.000000,1.000000,-3.000000,-5.000000,-4.000000,-2.000000,-4.000000
1298470.315026,3.000000,2.000000,2.000000,1.000000,0.000000,1.000000,-1.000000,-1.000000
1298470.315210,0.000000,-1.000000,-1.000000,-1.000000,-3.000000,-5.000000,-3.000000,-3.000000
1298470.315226,-1.000000,-5.000000,-1.000000,2.000000,1.000000,-4.000000,-4.000000,1.000000
1298470.334063,1.000000,4.000000,6.000000,5.000000,2.000000,-1.000000,3.000000,-3.000000
1298470.334144,-2.000000,1.000000,3.000000,-1.000000,-2.000000,1.000000,2.000000,0.000000
1298470.341883,0.000000,1.000000,4.000000,0.000000,0.000000,-1.000000,-4.000000,0.000000
1298470.341928,-1.000000,-2.000000,-4.000000,-3.000000,-3.000000,-2.000000,1.000000,-1.000000
1298470.379699,-2.000000,-4.000000,2.000000,-1.000000,0.000000,0.000000,4.000000,-3.000000
1298470.379747,-1.000000,4.000000,-3.000000,-3.000000,-4.000000,-5.000000,-3.000000,2.000000
1298470.380220,0.000000,1.000000,-1.000000,-6.000000,-3.000000,-1.000000,-3.000000,0.000000
1298470.380259,-2.000000,-2.000000,-3.000000,0.000000,1.000000,2.000000,1.000000,-4.000000
1298470.381881,1.000000,1.000000,0.000000,1.000000,4.000000,3.000000,-3.000000,1.000000
1298470.381931,-1.000000,-1.000000,-1.000000,1.000000,-3.000000,-4.000000,1.000000,1.000000
1298470.382458,0.000000,-3.000000,-4.000000,1.000000,-3.000000,-1.000000,-1.000000,0.000000
1298470.382565,-4.000000,-5.000000,0.000000,0.000000,0.000000,0.000000,-1.000000,-4.000000
1298470.386633,-1.000000,4.000000,0.000000,-5.000000,-5.000000,-4.000000,-2.000000,-5.000000
1298470.386681,-1.000000,2.000000,0.000000,2.000000,0.000000,0.000000,2.000000,1.000000
1298470.416675,-2.000000,-1.000000,-2.000000,-2.000000,-4.000000,0.000000,-3.000000,-1.000000
1298470.416731,1.000000,-5.000000,-1.000000,5.000000,1.000000,-2.000000,0.000000,-3.000000
1298470.418196,-1.000000,4.000000,2.000000,2.000000,2.000000,0.000000,1.000000,-3.000000
1298470.418247,-1.000000,-1.000000,-3.000000,-2.000000,-1.000000,1.000000,-1.000000,-2.000000
1298470.419479,-5.000000,-6.000000,-9.000000,-6.000000,-6.000000,-3.000000,-2.000000,-3.000000
1298470.419531,0.000000,-2.000000,0.000000,0.000000,0.000000,0.000000,2.000000,-1.000000
1298470.431555,1.000000,-2.000000,0.000000,-3.000000,1.000000,-3.000000,-2.000000,-1.000000
1298470.431580,0.000000,2.000000,1.000000,-1.000000,-1.000000,-3.000000,-3.000000,0.000000
1298470.439038,-5.000000,-2.000000,2.000000,2.000000,0.000000,-1.000000,0.000000,-3.000000
1298470.439090,1.000000,4.000000,-3.000000,1.000000,1.000000,2.000000,1.000000,0.000000
1298470.461633,1.000000,-1.000000,0.000000,1.000000,0.000000,-1.000000,2.000000,-3.000000
1298470.461685,-1.000000,-2.000000,-3.000000,-1.000000,2.000000,-1.000000,4.000000,0.000000
1298470.469386,0.000000,-4.000000,4.000000,0.000000,-3.000000,-3.000000,-3.000000,0.000000
1298470.469433,-2.000000,-8.000000,-8.000000,-2.000000,-1.000000,-2.000000,-6.000000,-3.000000
1298470.491738,-1.000000,-2.000000,-4.000000,-2.000000,-6.000000,-5.000000,1.000000,-1.000000
1298470.491790,-1.000000,-1.000000,-1.000000,-3.000000,-2.000000,-2.000000,-1.000000,-2.000000
1298470.499180,1.000000,2.000000,1.000000,3.000000,-3.000000,3.000000,1.000000,4.000000
1298470.499229,1.000000,0.000000,1.000000,-1.000000,2.000000,2.000000,0.000000,-2.000000
1298470.514368,-2.000000,-5.000000,-2.000000,-3.000000,-2.000000,1.000000,-1.000000,0.000000
1298470.514415,0.000000,-3.000000,0.000000,3.000000,0.000000,-1.000000,1.000000,-3.000000
1298470.521849,-2.000000,-2.000000,-1.000000,0.000000,-1.000000,-1.000000,-2.000000,-1.000000
1298470.521899,-1.000000,-4.000000,-2.000000,-6.000000,-3.000000,-1.000000,-4.000000,-2.000000
1298470.544355,0.000000,-1.000000,-1.000000,0.000000,3.000000,0.000000,0.000000,0.000000
1298470.544385,-2.000000,1.000000,-5.000000,-3.000000,-1.000000,1.000000,-1.000000,-1.000000
1298470.545771,4.000000,5.000000,4.000000,2.000000,-1.000000,4.000000,-1.000000,0.000000
