# participant_id: P11
# gesture: soft
# trial_number: 2
# stream_name: Myo_EMG
# stream_type: emg
# timestamp: 20260420_171454
# samples: 5248
# duration_sec: 30.375
# nominal_sample_rate: 200.0
# effective_sample_rate: 172.74
#
timestamp,emg_1,emg_2,emg_3,emg_4,emg_5,emg_6,emg_7,emg_8
1309986.729703,-24.000000,-25.000000,-47.000000,8.000000,-3.000000,19.000000,-12.000000,-7.000000
1309986.729738,0.000000,13.000000,14.000000,3.000000,27.000000,-3.000000,-3.000000,2.000000
1309986.730186,10.000000,22.000000,51.000000,17.000000,-18.000000,-10.000000,1.000000,3.000000
1309986.730195,-13.000000,-39.000000,-26.000000,15.000000,6.000000,1.000000,-22.000000,-16.000000
1309986.737097,2.000000,-5.000000,-38.000000,-56.000000,7.000000,6.000000,-7.000000,14.000000
1309986.737106,16.000000,27.000000,30.000000,2.000000,24.000000,-16.000000,-23.000000,-12.000000
1309986.752102,-14.000000,-6.000000,5.000000,46.000000,38.000000,63.000000,100.000000,33.000000
1309986.752116,-14.000000,-2.000000,-28.000000,-59.000000,13.000000,-21.000000,-35.000000,-22.000000
1309986.767220,19.000000,-20.000000,33.000000,-103.000000,-20.000000,12.000000,-2.000000,-2.000000
1309986.767249,-8.000000,20.000000,-12.000000,27.000000,31.000000,-9.000000,-23.000000,-17.000000
1309986.782152,-27.000000,-30.000000,-16.000000,7.000000,-8.000000,-17.000000,12.000000,-10.000000
1309986.782180,16.000000,17.000000,17.000000,49.000000,35.000000,12.000000,24.000000,4.000000
1309986.812072,9.000000,13.000000,16.000000,51.000000,-1.000000,11.000000,56.000000,10.000000
1309986.812084,-15.000000,-17.000000,-30.000000,-13.000000,-14.000000,-17.000000,-17.000000,-18.000000
1309986.827480,-3.000000,-4.000000,11.000000,38.000000,-12.000000,-6.000000,-8.000000,-3.000000
1309986.827511,16.000000,28.000000,62.000000,29.000000,-1.000000,8.000000,-5.000000,1.000000
1309986.828225,-7.000000,-17.000000,-16.000000,94.000000,7.000000,21.000000,48.000000,1.000000
1309986.828233,-6.000000,-11.000000,-45.000000,-6.000000,-44.000000,-1.000000,15.000000,2.000000
1309986.828816,12.000000,9.000000,17.000000,18.000000,23.000000,4.000000,-15.000000,-13.000000
1309986.828825,-4.000000,25.000000,17.000000,-17.000000,-18.000000,7.000000,9.000000,-1.000000
1309986.830284,-18.000000,-31.000000,-61.000000,-18.000000,2.000000,17.000000,-5.000000,-9.000000
1309986.830292,3.000000,-32.000000,-24.000000,3.000000,5.000000,-4.000000,-8.000000,-2.000000
1309986.831004,9.000000,23.000000,31.000000,44.000000,0.000000,4.000000,29.000000,2.000000
1309986.831012,-21.000000,-42.000000,-30.000000,0.000000,-1.000000,-9.000000,24.000000,-2.000000
1309986.849634,-1.000000,7.000000,0.000000,-2.000000,28.000000,-2.000000,-6.000000,10.000000
1309986.849644,19.000000,29.000000,31.000000,2.000000,1.000000,-12.000000,-18.000000,0.000000
1309986.850055,-8.000000,8.000000,-3.000000,6.000000,8.000000,-5.000000,15.000000,-6.000000
1309986.850069,-20.000000,-47.000000,-39.000000,32.000000,31.000000,2.000000,-8.000000,-5.000000
1309986.872239,19.000000,20.000000,57.000000,13.000000,19.000000,-26.000000,-27.000000,-1.000000
1309986.872255,-5.000000,-7.000000,-9.000000,-18.000000,-35.000000,11.000000,24.000000,-3.000000
1309986.887374,-21.000000,-11.000000,-47.000000,23.000000,5.000000,2.000000,17.000000,2.000000
1309986.887386,18.000000,2.000000,17.000000,29.000000,-31.000000,-4.000000,-5.000000,9.000000
1309986.902084,6.000000,18.000000,23.000000,13.000000,19.000000,-8.000000,-17.000000,-4.000000
1309986.902098,-25.000000,-25.000000,-43.000000,-3.000000,30.000000,15.000000,-1.000000,-7.000000
1309986.909646,5.000000,-1.000000,7.000000,-3.000000,-84.000000,-14.000000,-10.000000,12.000000
1309986.909664,20.000000,28.000000,51.000000,12.000000,1.000000,-5.000000,-17.000000,1.000000
1309986.947133,-4.000000,8.000000,-19.000000,-5.000000,0.000000,5.000000,-8.000000,6.000000
1309986.947158,-12.000000,-31.000000,-2.000000,32.000000,-65.000000,1.000000,-22.000000,-15.000000
1309986.954544,18.000000,16.000000,31.000000,-9.000000,-36.000000,-24.000000,11.000000,0.000000
1309986.954556,3.000000,5.000000,-6.000000,-26.000000,22.000000,-15.000000,-5.000000,0.000000
1309986.977248,-23.000000,-22.000000,-39.000000,4.000000,6.000000,10.000000,5.000000,-5.000000
1309986.977259,7.000000,46.000000,45.000000,65.000000,-38.000000,-9.000000,-12.000000,-7.000000
1309986.992048,5.000000,1.000000,-2.000000,-85.000000,-34.000000,-7.000000,43.000000,17.000000
1309986.992058,-17.000000,-68.000000,-43.000000,35.000000,-2.000000,-11.000000,-8.000000,-6.000000
1309987.014902,-8.000000,-31.000000,-60.000000,-38.000000,1.000000,15.000000,16.000000,-6.000000
1309987.014931,-10.000000,6.000000,-20.000000,-9.000000,-3.000000,0.000000,-7.000000,-8.000000
1309987.029881,14.000000,15.000000,55.000000,91.000000,24.000000,-10.000000,6.000000,-11.000000
1309987.029891,0.000000,8.000000,-35.000000,-9.000000,23.000000,22.000000,12.000000,4.000000
1309987.044684,-16.000000,-25.000000,-42.000000,-55.000000,6.000000,-12.000000,-7.000000,-9.000000
1309987.044694,12.000000,24.000000,9.000000,-29.000000,17.000000,17.000000,-4.000000,-3.000000
1309987.052545,7.000000,14.000000,6.000000,6.000000,-5.000000,-19.000000,-38.000000,4.000000
1309987.052574,17.000000,20.000000,21.000000,-2.000000,-13.000000,9.000000,27.000000,2.000000
1309987.089973,22.000000,27.000000,69.000000,1.000000,-63.000000,-12.000000,-25.000000,1.000000
1309987.089989,-6.000000,-33.000000,-11.000000,63.000000,-15.000000,-6.000000,11.000000,-13.000000
1309987.090752,-21.000000,3.000000,-35.000000,-6.000000,-20.000000,0.000000,-16.000000,-1.000000
1309987.090766,17.000000,14.000000,18.000000,-1.000000,-13.000000,-18.000000,-21.000000,7.000000
1309987.091279,-3.000000,-15.000000,26.000000,16.000000,-1.000000,-20.000000,-8.000000,-20.000000
1309987.091312,-22.000000,-33.000000,-22.000000,-8.000000,-5.000000,-3.000000,4.000000,1.000000
1309987.091985,-7.000000,-26.000000,-29.000000,19.000000,-66.000000,11.000000,25.000000,18.000000
1309987.092004,-10.000000,-1.000000,-5.000000,-74.000000,-6.000000,-4.000000,6.000000,-8.000000
1309987.092499,21.000000,17.000000,54.000000,30.000000,-7.000000,0.000000,3.000000,3.000000
1309987.092507,-4.000000,-5.000000,-9.000000,36.000000,-20.000000,49.000000,-20.000000,-2.000000
1309987.093382,-13.000000,0.000000,-26.000000,-38.000000,-26.000000,9.000000,-16.000000,23.000000
1309987.093392,10.000000,-3.000000,33.000000,40.000000,12.000000,-11.000000,-10.000000,-6.000000
1309987.105060,-7.000000,-25.000000,-22.000000,-76.000000,-16.000000,-4.000000,-15.000000,5.000000
1309987.105089,-14.000000,-17.000000,-8.000000,55.000000,31.000000,10.000000,-8.000000,-19.000000
1309987.112431,21.000000,11.000000,53.000000,-5.000000,27.000000,2.000000,0.000000,13.000000
1309987.112462,-4.000000,-2.000000,-13.000000,41.000000,-4.000000,8.000000,-7.000000,-8.000000
1309987.127057,-26.000000,-27.000000,-48.000000,-39.000000,7.000000,-11.000000,-2.000000,-4.000000
1309987.127067,14.000000,16.000000,32.000000,12.000000,4.000000,22.000000,6.000000,-5.000000
1309987.142117,-1.000000,11.000000,26.000000,19.000000,-17.000000,10.000000,-12.000000,4.000000
1309987.142127,-28.000000,-43.000000,-36.000000,-33.000000,49.000000,-2.000000,35.000000,-9.000000
1309987.164609,-3.000000,2.000000,-3.000000,8.000000,61.000000,-8.000000,5.000000,-3.000000
1309987.164618,17.000000,17.000000,42.000000,12.000000,4.000000,-10.000000,-13.000000,-7.000000
1309987.186949,-4.000000,-11.000000,-19.000000,15.000000,-21.000000,-5.000000,4.000000,3.000000
1309987.186962,-9.000000,-7.000000,-33.000000,-23.000000,0.000000,11.000000,-1.000000,1.000000
1309987.188157,20.000000,18.000000,41.000000,64.000000,1.000000,0.000000,-9.000000,0.000000
1309987.188171,-5.000000,1.000000,16.000000,2.000000,4.000000,7.000000,32.000000,4.000000
1309987.188741,-14.000000,-38.000000,-56.000000,-56.000000,-1.000000,-25.000000,-7.000000,-3.000000
1309987.188749,8.000000,-6.000000,-13.000000,4.000000,1.000000,-6.000000,39.000000,1.000000
1309987.190272,3.000000,9.000000,12.000000,-38.000000,37.000000,-18.000000,-22.000000,-9.000000
1309987.190294,-21.000000,-11.000000,-30.000000,-15.000000,-21.000000,11.000000,22.000000,11.000000
1309987.209917,8.000000,27.000000,29.000000,33.000000,-29.000000,6.000000,-24.000000,4.000000
1309987.210137,14.000000,19.000000,20.000000,-13.000000,14.000000,5.000000,-1.000000,-1.000000
1309987.210780,0.000000,-37.000000,-33.000000,-38.000000,-1.000000,7.000000,27.000000,2.000000
1309987.210788,-2.000000,-1.000000,-21.000000,-4.000000,-14.000000,-16.000000,-6.000000,4.000000
1309987.211393,13.000000,23.000000,48.000000,26.000000,7.000000,7.000000,1.000000,-6.000000
1309987.211401,-4.000000,5.000000,5.000000,2.000000,7.000000,-6.000000,8.000000,15.000000
1309987.224712,-15.000000,-29.000000,-36.000000,6.000000,-11.000000,-2.000000,-5.000000,-11.000000
1309987.224723,4.000000,-1.000000,2.000000,16.000000,6.000000,-8.000000,-17.000000,1.000000
1309987.232095,10.000000,10.000000,20.000000,-9.000000,4.000000,-14.000000,-26.000000,-1.000000
1309987.232112,-16.000000,-3.000000,-31.000000,-32.000000,8.000000,-7.000000,2.000000,-1.000000
1309987.247098,0.000000,-8.000000,-36.000000,-19.000000,11.000000,11.000000,5.000000,-4.000000
1309987.247110,12.000000,30.000000,39.000000,42.000000,9.000000,5.000000,7.000000,-14.000000
1309987.262340,-11.000000,-9.000000,-25.000000,-1.000000,-4.000000,3.000000,4.000000,0.000000
1309987.262352,-3.000000,-6.000000,-15.000000,9.000000,18.000000,7.000000,-5.000000,0.000000
1309987.285088,22.000000,11.000000,47.000000,44.000000,-3.000000,-13.000000,-26.000000,-3.000000
1309987.285107,-6.000000,7.000000,16.000000,3.000000,-10.000000,11.000000,20.000000,9.000000
1309987.292342,-14.000000,-14.000000,-71.000000,-48.000000,-28.000000,11.000000,11.000000,-1.000000
1309987.292354,12.000000,8.000000,21.000000,49.000000,-3.000000,-4.000000,-5.000000,0.000000
1309987.307410,3.000000,0.000000,29.000000,35.000000,-25.000000,-16.000000,-16.000000,-17.000000
1309987.307433,-18.000000,-42.000000,-46.000000,-54.000000,13.000000,31.000000,23.000000,20.000000
1309987.308378,0.000000,-22.000000,9.000000,16.000000,10.000000,-4.000000,-27.000000,-9.000000
1309987.308411,15.000000,22.000000,39.000000,35.000000,3.000000,0.000000,-10.000000,-1.000000
1309987.309747,-7.000000,-1.000000,-19.000000,4.000000,7.000000,12.000000,-27.000000,7.000000
1309987.309769,-1.000000,-5.000000,7.000000,-50.000000,-10.000000,-2.000000,-8.000000,-1.000000
1309987.322024,22.000000,25.000000,23.000000,17.000000,-16.000000,-30.000000,4.000000,9.000000
1309987.322053,3.000000,-4.000000,-5.000000,1.000000,44.000000,-2.000000,-9.000000,-3.000000
1309987.323364,-15.000000,-13.000000,-14.000000,2.000000,-14.000000,-37.000000,-37.000000,-28.000000
1309987.323380,14.000000,5.000000,2.000000,28.000000,42.000000,12.000000,-10.000000,16.000000
1309987.329717,3.000000,11.000000,10.000000,-4.000000,9.000000,3.000000,-10.000000,-6.000000
1309987.329731,-22.000000,-26.000000,-30.000000,-21.000000,-6.000000,-14.000000,-17.000000,2.000000
1309987.344982,-4.000000,-21.000000,10.000000,7.000000,15.000000,-2.000000,34.000000,-2.000000
1309987.344993,15.000000,16.000000,30.000000,6.000000,15.000000,-5.000000,-21.000000,-5.000000
1309987.367089,-7.000000,-11.000000,-19.000000,4.000000,15.000000,16.000000,34.000000,4.000000
1309987.367113,-11.000000,-3.000000,-19.000000,16.000000,-1.000000,-18.000000,3.000000,-7.000000
1309987.382151,18.000000,22.000000,38.000000,33.000000,18.000000,-10.000000,-7.000000,0.000000
1309987.382169,-6.000000,-27.000000,6.000000,31.000000,-20.000000,-7.000000,-25.000000,-4.000000
1309987.404685,-15.000000,-14.000000,-33.000000,-76.000000,29.000000,3.000000,1.000000,5.000000
1309987.404695,22.000000,24.000000,25.000000,35.000000,2.000000,-8.000000,-2.000000,12.000000
1309987.419722,-8.000000,-17.000000,-10.000000,23.000000,5.000000,6.000000,6.000000,9.000000
1309987.419742,-17.000000,-9.000000,-32.000000,-36.000000,9.000000,-4.000000,1.000000,-4.000000
1309987.420709,2.000000,3.000000,-1.000000,35.000000,-9.000000,7.000000,5.000000,15.000000
1309987.420722,6.000000,12.000000,40.000000,7.000000,-5.000000,17.000000,29.000000,3.000000
1309987.427022,-19.000000,-18.000000,-22.000000,21.000000,-27.000000,4.000000,6.000000,-3.000000
1309987.427037,7.000000,7.000000,1.000000,-50.000000,-35.000000,4.000000,23.000000,20.000000
1309987.428195,18.000000,20.000000,22.000000,25.000000,9.000000,-16.000000,-15.000000,-6.000000
1309987.428208,-7.000000,-16.000000,-7.000000,39.000000,28.000000,-2.000000,-24.000000,-6.000000
1309987.428890,-21.000000,-30.000000,-35.000000,2.000000,9.000000,0.000000,-10.000000,-14.000000
1309987.428899,9.000000,18.000000,35.000000,10.000000,-7.000000,5.000000,4.000000,6.000000
1309987.449679,2.000000,0.000000,11.000000,-17.000000,5.000000,2.000000,39.000000,6.000000
1309987.449689,-28.000000,-21.000000,-31.000000,2.000000,33.000000,-13.000000,0.000000,-7.000000
1309987.464632,8.000000,5.000000,-11.000000,-7.000000,23.000000,1.000000,-7.000000,7.000000
1309987.464649,8.000000,13.000000,35.000000,35.000000,7.000000,5.000000,-15.000000,-8.000000
1309987.465579,-15.000000,-20.000000,-25.000000,-11.000000,-41.000000,-9.000000,-16.000000,2.000000
1309987.465587,3.000000,-12.000000,1.000000,12.000000,-31.000000,-6.000000,-20.000000,-4.000000
1309987.466383,11.000000,14.000000,36.000000,-20.000000,14.000000,-4.000000,12.000000,8.000000
1309987.466392,1.000000,7.000000,-6.000000,18.000000,21.000000,6.000000,-6.000000,-7.000000
1309987.495691,-11.000000,-26.000000,-38.000000,-31.000000,21.000000,5.000000,-11.000000,-12.000000
1309987.495721,13.000000,21.000000,23.000000,2.000000,-9.000000,3.000000,-16.000000,11.000000
1309987.509614,1.000000,11.000000,-11.000000,-12.000000,17.000000,13.000000,16.000000,-11.000000
1309987.509625,-18.000000,-15.000000,-42.000000,-32.000000,18.000000,-10.000000,5.000000,2.000000
1309987.539958,3.000000,26.000000,-3.000000,-21.000000,16.000000,5.000000,6.000000,-2.000000
1309987.539969,11.000000,-6.000000,21.000000,23.000000,39.000000,-11.000000,-34.000000,-2.000000
1309987.547228,-25.000000,-33.000000,-32.000000,2.000000,-12.000000,5.000000,21.000000,-1.000000
1309987.547238,-4.000000,-11.000000,-11.000000,31.000000,-42.000000,-12.000000,-15.000000,-4.000000
1309987.569842,20.000000,33.000000,56.000000,0.000000,-3.000000,-2.000000,-11.000000,-5.000000
1309987.569871,-6.000000,7.000000,-7.000000,-18.000000,16.000000,-11.000000,-10.000000,-7.000000
1309987.577136,-6.000000,-12.000000,-23.000000,-5.000000,-36.000000,11.000000,7.000000,16.000000
1309987.577160,25.000000,11.000000,25.000000,11.000000,-30.000000,-9.000000,-22.000000,2.000000
1309987.599684,8.000000,12.000000,12.000000,-4.000000,-10.000000,-22.000000,-9.000000,0.000000
1309987.599695,17.000000,22.000000,17.000000,-34.000000,14.000000,4.000000,-16.000000,1.000000
1309987.622690,16.000000,27.000000,47.000000,25.000000,-3.000000,-1.000000,-9.000000,4.000000
1309987.622739,-5.000000,-8.000000,-5.000000,-30.000000,-22.000000,-8.000000,-11.000000,-6.000000
1309987.623079,-4.000000,-16.000000,9.000000,-23.000000,-16.000000,-8.000000,-6.000000,-15.000000
1309987.623105,-19.000000,-19.000000,-38.000000,9.000000,27.000000,-2.000000,17.000000,-5.000000
1309987.623990,5.000000,-8.000000,2.000000,2.000000,8.000000,27.000000,24.000000,4.000000
1309987.624017,17.000000,22.000000,17.000000,10.000000,30.000000,-9.000000,-36.000000,-2.000000
1309987.624626,-22.000000,-19.000000,-40.000000,-19.000000,-14.000000,-2.000000,-2.000000,5.000000
1309987.624653,-2.000000,-15.000000,-16.000000,-36.000000,-17.000000,19.000000,5.000000,1.000000
1309987.626151,-11.000000,-37.000000,-48.000000,-2.000000,-1.000000,2.000000,-15.000000,0.000000
1309987.626158,17.000000,2.000000,25.000000,36.000000,-40.000000,23.000000,53.000000,7.000000
1309987.645079,2.000000,1.000000,12.000000,-3.000000,-1.000000,-3.000000,-23.000000,0.000000
1309987.645088,-22.000000,-1.000000,-29.000000,-53.000000,26.000000,-8.000000,-16.000000,-19.000000
1309987.645800,6.000000,-8.000000,-15.000000,-25.000000,-4.000000,-10.000000,3.000000,8.000000
1309987.645816,0.000000,-11.000000,4.000000,1.000000,12.000000,-10.000000,-15.000000,-13.000000
1309987.659447,-12.000000,-23.000000,-23.000000,27.000000,23.000000,38.000000,-4.000000,4.000000
1309987.659457,-1.000000,13.000000,6.000000,-5.000000,11.000000,-4.000000,-12.000000,-3.000000
1309987.660210,21.000000,22.000000,47.000000,41.000000,0.000000,2.000000,10.000000,5.000000
1309987.660247,-3.000000,-4.000000,-21.000000,-45.000000,-22.000000,7.000000,-2.000000,-5.000000
1309987.682898,-10.000000,-9.000000,-13.000000,13.000000,0.000000,-1.000000,-15.000000,4.000000
1309987.682928,22.000000,20.000000,24.000000,-33.000000,-14.000000,-13.000000,-5.000000,8.000000
1309987.683518,0.000000,6.000000,4.000000,-23.000000,-39.000000,-4.000000,0.000000,-8.000000
1309987.683544,-22.000000,-33.000000,-52.000000,40.000000,31.000000,-11.000000,-9.000000,-6.000000
1309987.690438,8.000000,15.000000,18.000000,-36.000000,-25.000000,-2.000000,10.000000,2.000000
1309987.690456,1.000000,3.000000,5.000000,-7.000000,15.000000,-1.000000,32.000000,-2.000000
1309987.704553,-14.000000,-26.000000,-37.000000,3.000000,-5.000000,8.000000,-5.000000,-6.000000
1309987.704588,0.000000,22.000000,5.000000,17.000000,-24.000000,-3.000000,-8.000000,-8.000000
1309987.727524,13.000000,-11.000000,41.000000,1.000000,10.000000,-16.000000,-5.000000,3.000000
1309987.727557,-5.000000,-10.000000,-3.000000,19.000000,-30.000000,3.000000,0.000000,-9.000000
1309987.734954,-18.000000,1.000000,-22.000000,3.000000,28.000000,6.000000,-4.000000,-1.000000
1309987.734980,26.000000,36.000000,59.000000,-39.000000,-27.000000,-5.000000,8.000000,6.000000
1309987.764621,0.000000,2.000000,-18.000000,6.000000,-13.000000,-1.000000,-13.000000,-12.000000
1309987.764631,-23.000000,-39.000000,-53.000000,-37.000000,16.000000,-8.000000,-2.000000,-7.000000
1309987.779635,4.000000,11.000000,18.000000,33.000000,11.000000,7.000000,6.000000,-4.000000
1309987.779654,4.000000,10.000000,22.000000,4.000000,1.000000,-12.000000,13.000000,-3.000000
1309987.781609,-23.000000,-29.000000,-38.000000,-27.000000,-36.000000,-3.000000,-2.000000,2.000000
1309987.781626,6.000000,4.000000,-16.000000,-14.000000,-42.000000,-12.000000,-18.000000,-6.000000
1309987.782197,18.000000,3.000000,47.000000,-36.000000,19.000000,-3.000000,-18.000000,17.000000
1309987.782213,-10.000000,-1.000000,-15.000000,13.000000,-6.000000,-4.000000,-15.000000,-15.000000
1309987.783324,-9.000000,-29.000000,-17.000000,-4.000000,-6.000000,11.000000,11.000000,15.000000
1309987.783336,21.000000,25.000000,34.000000,15.000000,-17.000000,4.000000,6.000000,4.000000
1309987.784108,-2.000000,-3.000000,2.000000,28.000000,-29.000000,-11.000000,-16.000000,4.000000
1309987.784117,-18.000000,-18.000000,-28.000000,-24.000000,6.000000,8.000000,9.000000,-2.000000
1309987.802482,7.000000,27.000000,16.000000,12.000000,-28.000000,-8.000000,-30.000000,-16.000000
1309987.802496,12.000000,-11.000000,25.000000,6.000000,13.000000,38.000000,37.000000,19.000000
1309987.803301,-24.000000,-21.000000,-40.000000,-37.000000,-10.000000,5.000000,25.000000,-4.000000
1309987.803316,-1.000000,2.000000,-1.000000,8.000000,10.000000,-1.000000,-17.000000,-7.000000
1309987.817433,15.000000,32.000000,50.000000,38.000000,-39.000000,-9.000000,-3.000000,-1.000000
1309987.817462,-7.000000,-12.000000,-7.000000,-69.000000,21.000000,3.000000,-5.000000,-2.000000
1309987.824937,-3.000000,-4.000000,-34.000000,10.000000,15.000000,-4.000000,-7.000000,-2.000000
1309987.824966,24.000000,28.000000,50.000000,7.000000,-27.000000,-8.000000,-16.000000,4.000000
1309987.847567,-10.000000,-9.000000,7.000000,6.000000,-16.000000,-3.000000,-13.000000,-13.000000
1309987.847586,-19.000000,-44.000000,-42.000000,-40.000000,23.000000,3.000000,-19.000000,-6.000000
1309987.848427,9.000000,-3.000000,18.000000,43.000000,22.000000,15.000000,42.000000,15.000000
1309987.848443,4.000000,24.000000,23.000000,2.000000,6.000000,6.000000,3.000000,3.000000
1309987.877024,-24.000000,-30.000000,-31.000000,11.000000,-18.000000,-20.000000,12.000000,-8.000000
1309987.877035,3.000000,-27.000000,-23.000000,-59.000000,-29.000000,-9.000000,-10.000000,-7.000000
1309987.884519,17.000000,19.000000,33.000000,7.000000,-38.000000,-7.000000,2.000000,8.000000
1309987.884529,-7.000000,-2.000000,-11.000000,-38.000000,-50.000000,10.000000,-14.000000,-3.000000
1309987.899837,-4.000000,1.000000,-21.000000,-36.000000,-19.000000,-8.000000,-12.000000,4.000000
1309987.899845,25.000000,33.000000,47.000000,12.000000,9.000000,-3.000000,-9.000000,-8.000000
1309987.900418,-4.000000,9.000000,9.000000,3.000000,7.000000,5.000000,-4.000000,-4.000000
1309987.900425,-19.000000,-41.000000,-39.000000,4.000000,-5.000000,16.000000,2.000000,-1.000000
1309987.901727,9.000000,24.000000,18.000000,-2.000000,-6.000000,-16.000000,-35.000000,-11.000000
1309987.901735,-3.000000,2.000000,15.000000,6.000000,11.000000,6.000000,-1.000000,2.000000
1309987.902638,-20.000000,-20.000000,-32.000000,-25.000000,-1.000000,-14.000000,-7.000000,-11.000000
1309987.902645,3.000000,4.000000,11.000000,12.000000,-26.000000,-20.000000,-28.000000,-13.000000
1309987.922694,14.000000,24.000000,39.000000,23.000000,-22.000000,39.000000,11.000000,3.000000
1309987.922702,-6.000000,-16.000000,-14.000000,-22.000000,-12.000000,-16.000000,-1.000000,-12.000000
1309987.923362,-4.000000,-1.000000,-40.000000,26.000000,0.000000,-3.000000,-6.000000,3.000000
1309987.923378,23.000000,15.000000,38.000000,-54.000000,6.000000,8.000000,-12.000000,8.000000
1309987.937172,-3.000000,4.000000,0.000000,21.000000,-16.000000,4.000000,1.000000,-9.000000
1309987.937187,-20.000000,-19.000000,-25.000000,-36.000000,-28.000000,-7.000000,27.000000,-8.000000
1309987.944504,13.000000,-1.000000,8.000000,-29.000000,12.000000,-4.000000,-10.000000,-7.000000
1309987.944513,6.000000,4.000000,11.000000,-16.000000,16.000000,-18.000000,-21.000000,-4.000000
1309987.981920,-13.000000,-20.000000,-30.000000,20.000000,39.000000,-6.000000,-12.000000,11.000000
1309987.981934,-2.000000,12.000000,0.000000,-7.000000,53.000000,34.000000,17.000000,2.000000
1309987.982510,17.000000,18.000000,37.000000,49.000000,17.000000,-2.000000,-18.000000,2.000000
1309987.982519,-13.000000,-41.000000,-23.000000,-40.000000,10.000000,3.000000,18.000000,-4.000000
1309987.983727,-7.000000,7.000000,-6.000000,16.000000,7.000000,3.000000,-7.000000,-5.000000
1309987.983746,25.000000,33.000000,56.000000,23.000000,-78.000000,-24.000000,-15.000000,12.000000
1309987.984513,-10.000000,-22.000000,-17.000000,-11.000000,10.000000,6.000000,7.000000,-5.000000
1309987.984521,-13.000000,7.000000,-27.000000,-30.000000,-11.000000,1.000000,0.000000,-5.000000
1309988.004972,14.000000,20.000000,16.000000,-29.000000,-16.000000,-11.000000,-20.000000,-6.000000
1309988.004985,2.000000,-12.000000,13.000000,-4.000000,0.000000,11.000000,-5.000000,-1.000000
1309988.012731,-24.000000,-8.000000,-37.000000,-18.000000,11.000000,30.000000,38.000000,21.000000
1309988.012746,2.000000,24.000000,4.000000,-16.000000,-17.000000,-17.000000,-32.000000,-12.000000
1309988.042024,13.000000,-13.000000,52.000000,32.000000,11.000000,-5.000000,-16.000000,-2.000000
1309988.042035,-12.000000,-5.000000,-10.000000,-16.000000,24.000000,3.000000,13.000000,-4.000000
1309988.042405,-1.000000,-13.000000,-29.000000,31.000000,24.000000,13.000000,-1.000000,3.000000
1309988.042413,16.000000,44.000000,43.000000,8.000000,3.000000,-12.000000,-6.000000,5.000000
1309988.043637,-8.000000,-16.000000,2.000000,20.000000,-8.000000,1.000000,-3.000000,-7.000000
1309988.043664,-19.000000,-26.000000,-39.000000,-45.000000,-12.000000,-3.000000,12.000000,2.000000
1309988.044629,11.000000,16.000000,26.000000,7.000000,-20.000000,10.000000,13.000000,-2.000000
1309988.044660,-1.000000,4.000000,-14.000000,-8.000000,-19.000000,16.000000,-11.000000,-1.000000
1309988.079673,-17.000000,-12.000000,-21.000000,-25.000000,-14.000000,-4.000000,6.000000,-1.000000
1309988.079684,8.000000,25.000000,15.000000,-40.000000,17.000000,9.000000,-19.000000,-8.000000
1309988.094781,13.000000,-19.000000,33.000000,47.000000,-5.000000,4.000000,-7.000000,16.000000
1309988.094792,-16.000000,-31.000000,-36.000000,-1.000000,17.000000,6.000000,23.000000,22.000000
1309988.109681,-14.000000,-6.000000,5.000000,32.000000,11.000000,0.000000,-17.000000,-10.000000
1309988.109691,20.000000,47.000000,53.000000,16.000000,-30.000000,-13.000000,13.000000,0.000000
1309988.117072,-4.000000,-15.000000,-1.000000,3.000000,-20.000000,-3.000000,-6.000000,-7.000000
1309988.117082,-13.000000,-20.000000,-29.000000,0.000000,-5.000000,7.000000,-4.000000,-5.000000
1309988.125012,15.000000,49.000000,34.000000,24.000000,-43.000000,1.000000,0.000000,6.000000
1309988.125022,10.000000,9.000000,15.000000,-43.000000,7.000000,1.000000,-7.000000,-2.000000
1309988.125578,-20.000000,-47.000000,-32.000000,-21.000000,-32.000000,-6.000000,-7.000000,-17.000000
1309988.125587,-5.000000,-29.000000,-8.000000,18.000000,12.000000,-14.000000,-1.000000,8.000000
1309988.127290,3.000000,9.000000,22.000000,-3.000000,-13.000000,-11.000000,-8.000000,5.000000
1309988.127308,21.000000,21.000000,41.000000,48.000000,-2.000000,2.000000,-3.000000,-1.000000
1309988.140594,-6.000000,-42.000000,-18.000000,-33.000000,14.000000,2.000000,-5.000000,3.000000
1309988.140606,-14.000000,-6.000000,-16.000000,2.000000,0.000000,-15.000000,9.000000,5.000000
1309988.154650,21.000000,27.000000,31.000000,0.000000,32.000000,6.000000,-20.000000,-6.000000
1309988.154663,-3.000000,11.000000,-10.000000,-3.000000,19.000000,2.000000,6.000000,-2.000000
1309988.155891,-21.000000,-34.000000,-36.000000,-25.000000,20.000000,-1.000000,-7.000000,1.000000
1309988.155900,0.000000,12.000000,27.000000,48.000000,10.000000,-11.000000,-14.000000,0.000000
1309988.162184,13.000000,20.000000,11.000000,-40.000000,5.000000,9.000000,-22.000000,-6.000000
1309988.162194,-15.000000,-7.000000,-39.000000,-37.000000,-21.000000,-13.000000,37.000000,0.000000
1309988.199833,-7.000000,-23.000000,-3.000000,-7.000000,8.000000,10.000000,3.000000,-6.000000
1309988.199847,16.000000,27.000000,50.000000,23.000000,1.000000,-25.000000,-11.000000,8.000000
1309988.214553,-6.000000,0.000000,-9.000000,3.000000,-19.000000,-14.000000,5.000000,-1.000000
1309988.214564,-10.000000,-54.000000,-31.000000,-13.000000,-20.000000,5.000000,8.000000,9.000000
1309988.252121,16.000000,40.000000,41.000000,17.000000,-17.000000,-4.000000,-12.000000,-4.000000
1309988.252139,0.000000,-17.000000,12.000000,10.000000,16.000000,-12.000000,-3.000000,-6.000000
1309988.259486,-18.000000,-9.000000,-35.000000,-48.000000,-21.000000,-4.000000,-11.000000,-12.000000
1309988.259497,-4.000000,-5.000000,5.000000,13.000000,14.000000,14.000000,37.000000,-1.000000
1309988.282437,11.000000,35.000000,26.000000,-11.000000,14.000000,5.000000,-5.000000,14.000000
1309988.282449,-9.000000,-36.000000,-36.000000,-9.000000,15.000000,8.000000,14.000000,13.000000
1309988.282869,-2.000000,10.000000,-26.000000,-46.000000,17.000000,7.000000,11.000000,-3.000000
1309988.282885,22.000000,0.000000,40.000000,53.000000,21.000000,-3.000000,-12.000000,0.000000
1309988.283773,-7.000000,12.000000,0.000000,-11.000000,-15.000000,6.000000,5.000000,-10.000000
1309988.283782,-21.000000,-11.000000,-28.000000,-33.000000,0.000000,20.000000,32.000000,1.000000
1309988.284436,4.000000,-7.000000,7.000000,37.000000,-4.000000,-6.000000,-13.000000,2.000000
1309988.284446,-15.000000,-5.000000,-45.000000,-34.000000,13.000000,-13.000000,-13.000000,-15.000000
1309988.319854,20.000000,22.000000,17.000000,-26.000000,-3.000000,-10.000000,-9.000000,2.000000
1309988.319866,-4.000000,-6.000000,-4.000000,56.000000,42.000000,-1.000000,-14.000000,-10.000000
1309988.334751,-20.000000,-31.000000,-35.000000,-116.000000,-40.000000,10.000000,19.000000,11.000000
1309988.334761,8.000000,-2.000000,25.000000,45.000000,8.000000,-14.000000,-12.000000,2.000000
1309988.357137,12.000000,-8.000000,21.000000,23.000000,8.000000,-19.000000,-4.000000,-5.000000
1309988.357154,-23.000000,8.000000,-43.000000,-53.000000,13.000000,10.000000,-9.000000,5.000000
1309988.357509,-9.000000,-60.000000,-2.000000,43.000000,22.000000,-7.000000,-8.000000,2.000000
1309988.357516,26.000000,53.000000,40.000000,16.000000,-8.000000,-13.000000,-22.000000,-2.000000
1309988.358715,-1.000000,5.000000,-15.000000,10.000000,-16.000000,-41.000000,-11.000000,3.000000
1309988.358735,-11.000000,-10.000000,-28.000000,-33.000000,18.000000,14.000000,-10.000000,-11.000000
1309988.359357,19.000000,24.000000,54.000000,18.000000,-20.000000,-22.000000,12.000000,2.000000
1309988.359372,-5.000000,-6.000000,-3.000000,15.000000,-59.000000,1.000000,10.000000,-3.000000
1309988.360896,-20.000000,-28.000000,-41.000000,17.000000,12.000000,10.000000,13.000000,1.000000
1309988.360905,5.000000,7.000000,-6.000000,-11.000000,-10.000000,-17.000000,10.000000,0.000000
1309988.364458,7.000000,0.000000,25.000000,-7.000000,-10.000000,-4.000000,-13.000000,8.000000
1309988.364468,-14.000000,-22.000000,-25.000000,-1.000000,6.000000,12.000000,-4.000000,-13.000000
1309988.380530,-7.000000,19.000000,0.000000,11.000000,24.000000,0.000000,5.000000,26.000000
1309988.380541,12.000000,1.000000,27.000000,16.000000,-1.000000,4.000000,-16.000000,-7.000000
1309988.394822,-6.000000,12.000000,-12.000000,-46.000000,0.000000,-1.000000,7.000000,11.000000
1309988.394851,-7.000000,2.000000,-22.000000,-11.000000,17.000000,7.000000,-1.000000,-7.000000
1309988.395855,21.000000,23.000000,54.000000,46.000000,13.000000,11.000000,-14.000000,2.000000
1309988.395863,-10.000000,-19.000000,-1.000000,-66.000000,-11.000000,16.000000,52.000000,11.000000
1309988.402029,-24.000000,0.000000,-39.000000,52.000000,30.000000,3.000000,-6.000000,-12.000000
1309988.402046,-6.000000,-20.000000,4.000000,-4.000000,0.000000,-3.000000,5.000000,6.000000
1309988.417342,16.000000,39.000000,10.000000,-26.000000,-54.000000,-18.000000,-8.000000,-4.000000
1309988.417372,-15.000000,-44.000000,-44.000000,7.000000,13.000000,-6.000000,-9.000000,-12.000000
1309988.454697,4.000000,25.000000,9.000000,31.000000,-48.000000,-5.000000,-11.000000,0.000000
1309988.454707,22.000000,7.000000,44.000000,-3.000000,5.000000,8.000000,2.000000,12.000000
1309988.477659,-8.000000,3.000000,-1.000000,29.000000,-6.000000,-42.000000,-23.000000,-15.000000
1309988.477677,-2.000000,-2.000000,-18.000000,-33.000000,-14.000000,32.000000,29.000000,13.000000
1309988.478433,23.000000,36.000000,53.000000,66.000000,15.000000,-3.000000,5.000000,6.000000
1309988.478446,-4.000000,-30.000000,-19.000000,-20.000000,9.000000,-13.000000,-12.000000,8.000000
1309988.479572,-26.000000,-31.000000,-36.000000,-38.000000,-7.000000,-5.000000,-8.000000,-8.000000
1309988.479583,3.000000,22.000000,20.000000,23.000000,13.000000,10.000000,33.000000,-1.000000
1309988.480299,2.000000,30.000000,24.000000,18.000000,-43.000000,17.000000,25.000000,19.000000
1309988.480310,-20.000000,-28.000000,-21.000000,-5.000000,10.000000,13.000000,-14.000000,-9.000000
1309988.481195,-4.000000,-21.000000,-35.000000,-16.000000,8.000000,-12.000000,-7.000000,-3.000000
1309988.481217,24.000000,24.000000,30.000000,37.000000,-3.000000,-8.000000,0.000000,6.000000
1309988.492081,-15.000000,-8.000000,-2.000000,21.000000,24.000000,-16.000000,-8.000000,-4.000000
1309988.492096,-10.000000,-8.000000,-22.000000,16.000000,5.000000,-3.000000,-3.000000,-13.000000
1309988.493420,15.000000,22.000000,25.000000,15.000000,-15.000000,-17.000000,-4.000000,3.000000
1309988.493437,-4.000000,-16.000000,-2.000000,12.000000,-15.000000,8.000000,13.000000,4.000000
1309988.514959,-15.000000,-7.000000,-35.000000,-13.000000,-11.000000,0.000000,3.000000,-10.000000
1309988.515195,10.000000,-9.000000,7.000000,-26.000000,24.000000,4.000000,-5.000000,16.000000
1309988.515938,0.000000,16.000000,13.000000,33.000000,2.000000,-21.000000,-7.000000,-7.000000
1309988.515946,-21.000000,-30.000000,-36.000000,-37.000000,-17.000000,-13.000000,-20.000000,-16.000000
1309988.529737,4.000000,20.000000,5.000000,-5.000000,23.000000,14.000000,-24.000000,9.000000
1309988.529758,17.000000,-3.000000,39.000000,30.000000,-17.000000,-4.000000,-10.000000,-6.000000
1309988.552315,-14.000000,-23.000000,-21.000000,-3.000000,14.000000,15.000000,27.000000,-8.000000
1309988.552325,-8.000000,-10.000000,-7.000000,7.000000,-5.000000,2.000000,-25.000000,4.000000
1309988.560013,17.000000,26.000000,42.000000,3.000000,-25.000000,-22.000000,9.000000,-6.000000
1309988.560027,0.000000,25.000000,-5.000000,20.000000,-21.000000,7.000000,1.000000,5.000000
1309988.589696,-14.000000,-32.000000,-38.000000,-27.000000,-37.000000,-1.000000,-4.000000,-18.000000
1309988.589712,3.000000,-1.000000,13.000000,-9.000000,18.000000,-6.000000,-18.000000,1.000000
1309988.597042,1.000000,15.000000,-1.000000,-4.000000,2.000000,3.000000,3.000000,5.000000
1309988.597052,-17.000000,-10.000000,-23.000000,-4.000000,-6.000000,-2.000000,-1.000000,-20.000000
1309988.612322,9.000000,14.000000,10.000000,6.000000,-21.000000,-12.000000,2.000000,19.000000
1309988.612352,21.000000,15.000000,38.000000,14.000000,-18.000000,-1.000000,-12.000000,-5.000000
1309988.612740,-9.000000,-37.000000,-22.000000,28.000000,-14.000000,12.000000,11.000000,1.000000
1309988.612768,-15.000000,-2.000000,-10.000000,-12.000000,7.000000,-13.000000,0.000000,-4.000000
1309988.613889,18.000000,21.000000,28.000000,-6.000000,29.000000,-5.000000,-1.000000,6.000000
1309988.613916,-8.000000,-8.000000,-32.000000,-23.000000,13.000000,5.000000,6.000000,-7.000000
1309988.614466,-11.000000,-6.000000,-35.000000,-36.000000,4.000000,3.000000,-9.000000,-8.000000
1309988.614493,11.000000,4.000000,26.000000,20.000000,-1.000000,6.000000,2.000000,5.000000
1309988.634597,7.000000,-4.000000,6.000000,-11.000000,-30.000000,1.000000,11.000000,11.000000
1309988.634633,11.000000,20.000000,28.000000,15.000000,6.000000,-1.000000,-4.000000,3.000000
1309988.635909,-8.000000,-23.000000,-24.000000,-11.000000,25.000000,-22.000000,-11.000000,-14.000000
1309988.635926,-11.000000,19.000000,-7.000000,2.000000,-7.000000,20.000000,27.000000,8.000000
1309988.642108,18.000000,38.000000,34.000000,-8.000000,-12.000000,-14.000000,-10.000000,15.000000
1309988.642124,-3.000000,-25.000000,-12.000000,-22.000000,-19.000000,18.000000,-1.000000,7.000000
1309988.672318,-14.000000,-29.000000,-25.000000,0.000000,-34.000000,0.000000,-4.000000,-7.000000
1309988.672334,-4.000000,4.000000,20.000000,16.000000,-7.000000,-3.000000,-10.000000,-5.000000
1309988.679571,-2.000000,-2.000000,25.000000,-18.000000,-32.000000,-1.000000,1.000000,3.000000
1309988.679598,-15.000000,-16.000000,-69.000000,-37.000000,18.000000,-3.000000,11.000000,0.000000
1309988.710278,6.000000,3.000000,13.000000,22.000000,-3.000000,-2.000000,-23.000000,-3.000000
1309988.710534,11.000000,17.000000,50.000000,43.000000,0.000000,12.000000,33.000000,3.000000
1309988.710996,-11.000000,1.000000,-37.000000,-83.000000,3.000000,-5.000000,-21.000000,-7.000000
1309988.711161,1.000000,-16.000000,-16.000000,20.000000,12.000000,-8.000000,-6.000000,-1.000000
1309988.711697,7.000000,5.000000,39.000000,13.000000,0.000000,0.000000,-22.000000,-14.000000
1309988.711707,-6.000000,-10.000000,-13.000000,-15.000000,21.000000,-4.000000,-4.000000,-6.000000
1309988.712122,-11.000000,-14.000000,-44.000000,-47.000000,5.000000,-3.000000,0.000000,0.000000
1309988.712149,19.000000,32.000000,36.000000,21.000000,-37.000000,-9.000000,-14.000000,-5.000000
1309988.717672,-1.000000,-4.000000,26.000000,33.000000,1.000000,-13.000000,-4.000000,0.000000
1309988.717714,-17.000000,3.000000,-58.000000,-110.000000,-6.000000,11.000000,0.000000,-8.000000
1309988.732456,-11.000000,-25.000000,-4.000000,1.000000,8.000000,-2.000000,-4.000000,-16.000000
1309988.732506,12.000000,31.000000,43.000000,36.000000,15.000000,9.000000,13.000000,10.000000
1309988.769536,-10.000000,-19.000000,-22.000000,-14.000000,16.000000,-8.000000,-5.000000,-10.000000
1309988.769547,-12.000000,-14.000000,8.000000,43.000000,11.000000,1.000000,0.000000,-5.000000
1309988.777196,19.000000,21.000000,12.000000,3.000000,-69.000000,-13.000000,-6.000000,2.000000
1309988.777214,-7.000000,-21.000000,-1.000000,-50.000000,-11.000000,-20.000000,-20.000000,-5.000000
1309988.814533,-21.000000,-13.000000,-34.000000,5.000000,10.000000,0.000000,-19.000000,-8.000000
1309988.814544,9.000000,10.000000,20.000000,6.000000,-28.000000,-23.000000,-17.000000,-10.000000
1309988.829594,-2.000000,-32.000000,13.000000,20.000000,21.000000,28.000000,11.000000,8.000000
1309988.829603,-16.000000,-19.000000,-40.000000,-56.000000,-1.000000,-3.000000,-27.000000,-6.000000
1309988.844795,9.000000,10.000000,18.000000,-64.000000,-14.000000,-17.000000,-8.000000,-8.000000
1309988.844805,15.000000,31.000000,23.000000,11.000000,9.000000,3.000000,0.000000,-5.000000
1309988.852320,-8.000000,11.000000,-1.000000,-3.000000,-12.000000,-11.000000,-11.000000,-9.000000
1309988.852330,-2.000000,-30.000000,-11.000000,0.000000,-12.000000,-7.000000,4.000000,-5.000000
1309988.889906,-9.000000,7.000000,-2.000000,-38.000000,-17.000000,-5.000000,-22.000000,-16.000000
1309988.889935,12.000000,2.000000,10.000000,-8.000000,-6.000000,-7.000000,0.000000,7.000000
1309988.912645,23.000000,25.000000,27.000000,33.000000,-18.000000,2.000000,-7.000000,9.000000
1309988.912663,-3.000000,3.000000,3.000000,8.000000,8.000000,18.000000,21.000000,2.000000
1309988.934557,2.000000,5.000000,14.000000,-13.000000,42.000000,8.000000,-5.000000,3.000000
1309988.934583,-20.000000,-16.000000,-42.000000,-12.000000,5.000000,16.000000,-5.000000,-10.000000
1309988.950154,9.000000,-3.000000,37.000000,1.000000,-35.000000,-5.000000,-6.000000,6.000000
1309988.950171,1.000000,18.000000,-1.000000,-15.000000,-8.000000,-12.000000,-1.000000,4.000000
1309988.950616,-14.000000,-10.000000,-29.000000,5.000000,14.000000,-27.000000,-20.000000,-14.000000
1309988.950625,14.000000,21.000000,33.000000,-3.000000,-6.000000,1.000000,-10.000000,0.000000
1309988.951915,2.000000,-3.000000,28.000000,38.000000,18.000000,3.000000,-1.000000,12.000000
1309988.951930,7.000000,-37.000000,1.000000,-7.000000,-14.000000,-9.000000,-3.000000,-8.000000
1309988.957635,-7.000000,-28.000000,-25.000000,-22.000000,3.000000,9.000000,-17.000000,-1.000000
1309988.957649,12.000000,23.000000,23.000000,26.000000,2.000000,5.000000,24.000000,19.000000
1309988.972050,-2.000000,2.000000,12.000000,1.000000,13.000000,8.000000,26.000000,2.000000
1309988.972060,-22.000000,-34.000000,-57.000000,-32.000000,-32.000000,-17.000000,-15.000000,-5.000000
1309988.973250,-4.000000,15.000000,-12.000000,-17.000000,10.000000,5.000000,24.000000,-1.000000
1309988.973258,8.000000,9.000000,20.000000,0.000000,-14.000000,-9.000000,-8.000000,-2.000000
1309988.987533,-14.000000,-12.000000,-29.000000,-23.000000,-26.000000,-3.000000,0.000000,-2.000000
1309988.987547,6.000000,-9.000000,4.000000,15.000000,-25.000000,1.000000,9.000000,-3.000000
1309988.995419,16.000000,33.000000,41.000000,10.000000,-14.000000,-4.000000,-4.000000,-6.000000
1309988.995431,-9.000000,4.000000,-23.000000,-26.000000,-34.000000,2.000000,39.000000,10.000000
1309989.002025,-14.000000,-28.000000,-21.000000,-13.000000,-4.000000,-6.000000,-3.000000,-3.000000
1309989.002034,10.000000,12.000000,23.000000,16.000000,-5.000000,-2.000000,28.000000,1.000000
1309989.032332,-4.000000,11.000000,-6.000000,-29.000000,0.000000,7.000000,-3.000000,-7.000000
1309989.032343,-22.000000,-16.000000,-34.000000,14.000000,-6.000000,6.000000,15.000000,6.000000
1309989.054751,12.000000,55.000000,20.000000,6.000000,7.000000,15.000000,-16.000000,8.000000
1309989.054770,9.000000,-25.000000,44.000000,49.000000,7.000000,-15.000000,-23.000000,-5.000000
1309989.092208,-17.000000,-10.000000,-22.000000,-16.000000,17.000000,-1.000000,15.000000,-8.000000
1309989.092219,5.000000,17.000000,-12.000000,28.000000,-22.000000,6.000000,-1.000000,-5.000000
1309989.092551,19.000000,1.000000,40.000000,-54.000000,-27.000000,-26.000000,-9.000000,3.000000
1309989.092563,-8.000000,0.000000,-9.000000,21.000000,-2.000000,1.000000,-19.000000,5.000000
1309989.093815,-10.000000,-10.000000,-3.000000,14.000000,6.000000,-9.000000,-2.000000,-12.000000
1309989.093845,21.000000,24.000000,22.000000,24.000000,16.000000,-4.000000,-7.000000,-4.000000
1309989.094879,-7.000000,-28.000000,-10.000000,24.000000,0.000000,2.000000,-10.000000,6.000000
1309989.094922,-19.000000,-6.000000,-36.000000,-26.000000,-68.000000,-10.000000,-8.000000,-2.000000
1309989.095259,-1.000000,7.000000,10.000000,21.000000,-8.000000,-24.000000,22.000000,-7.000000
1309989.095267,10.000000,21.000000,7.000000,-3.000000,-16.000000,-4.000000,-17.000000,-2.000000
1309989.095952,-14.000000,-18.000000,-40.000000,-15.000000,22.000000,7.000000,-6.000000,-9.000000
1309989.095967,2.000000,1.000000,-5.000000,-41.000000,-44.000000,-2.000000,-6.000000,-6.000000
1309989.107197,-11.000000,-10.000000,-21.000000,4.000000,-2.000000,30.000000,68.000000,8.000000
1309989.107218,22.000000,35.000000,45.000000,29.000000,-21.000000,-17.000000,-19.000000,-1.000000
1309989.115163,-9.000000,-9.000000,-3.000000,-25.000000,25.000000,6.000000,-7.000000,-3.000000
1309989.115172,-15.000000,-31.000000,-40.000000,-26.000000,8.000000,-11.000000,-15.000000,6.000000
1309989.129911,2.000000,1.000000,1.000000,-22.000000,5.000000,8.000000,12.000000,-6.000000
1309989.129923,6.000000,15.000000,25.000000,27.000000,-15.000000,-11.000000,2.000000,-2.000000
1309989.167272,-17.000000,-22.000000,-24.000000,-6.000000,0.000000,14.000000,-18.000000,-2.000000
1309989.167300,-4.000000,12.000000,-8.000000,-43.000000,10.000000,-2.000000,-6.000000,-16.000000
1309989.174977,21.000000,-2.000000,35.000000,30.000000,16.000000,-6.000000,-3.000000,-2.000000
1309989.175006,-12.000000,-13.000000,-22.000000,-20.000000,-16.000000,-2.000000,-1.000000,1.000000
1309989.212016,-9.000000,-11.000000,-24.000000,-2.000000,-13.000000,-18.000000,8.000000,5.000000
1309989.212029,19.000000,19.000000,49.000000,27.000000,9.000000,7.000000,-1.000000,2.000000
1309989.212423,-9.000000,0.000000,10.000000,3.000000,19.000000,-4.000000,-7.000000,-10.000000
1309989.212432,-19.000000,-8.000000,-52.000000,-32.000000,0.000000,-4.000000,2.000000,2.000000
1309989.213606,10.000000,-15.000000,7.000000,15.000000,17.000000,1.000000,-1.000000,9.000000
1309989.213614,5.000000,36.000000,25.000000,14.000000,-8.000000,2.000000,-10.000000,-6.000000
1309989.214223,-24.000000,-32.000000,-26.000000,-17.000000,7.000000,-6.000000,10.000000,12.000000
1309989.214232,6.000000,-10.000000,-8.000000,14.000000,13.000000,9.000000,12.000000,8.000000
1309989.215797,-12.000000,-3.000000,-31.000000,-55.000000,22.000000,1.000000,-5.000000,-1.000000
1309989.215807,19.000000,-1.000000,48.000000,10.000000,35.000000,-11.000000,-10.000000,6.000000
1309989.227317,4.000000,13.000000,0.000000,-8.000000,-3.000000,10.000000,-4.000000,-1.000000
1309989.227331,-19.000000,0.000000,-32.000000,-18.000000,-27.000000,-16.000000,1.000000,-6.000000
1309989.228212,11.000000,7.000000,-8.000000,0.000000,7.000000,3.000000,2.000000,4.000000
1309989.228220,5.000000,5.000000,18.000000,-10.000000,12.000000,10.000000,1.000000,-5.000000
1309989.235413,-14.000000,-48.000000,-39.000000,-48.000000,-17.000000,-13.000000,-8.000000,-12.000000
1309989.235422,5.000000,19.000000,6.000000,6.000000,2.000000,-12.000000,-17.000000,1.000000
1309989.249523,7.000000,17.000000,45.000000,31.000000,53.000000,13.000000,39.000000,22.000000
1309989.249533,-6.000000,-6.000000,-14.000000,18.000000,-2.000000,-11.000000,4.000000,-11.000000
1309989.280219,-6.000000,-4.000000,-18.000000,10.000000,18.000000,-10.000000,-21.000000,-12.000000
1309989.280247,19.000000,12.000000,26.000000,-39.000000,17.000000,-5.000000,-3.000000,20.000000
1309989.287119,-2.000000,-1.000000,11.000000,18.000000,-1.000000,-20.000000,2.000000,-4.000000
1309989.287193,-15.000000,-17.000000,-48.000000,-1.000000,-12.000000,5.000000,-7.000000,-3.000000
1309989.310060,9.000000,3.000000,27.000000,13.000000,-14.000000,-19.000000,-7.000000,0.000000
1309989.310092,6.000000,13.000000,31.000000,-6.000000,-16.000000,-2.000000,-8.000000,-8.000000
1309989.311231,-16.000000,-13.000000,-46.000000,-16.000000,-23.000000,-5.000000,-21.000000,-10.000000
1309989.311259,-7.000000,-17.000000,-5.000000,24.000000,-22.000000,-2.000000,-1.000000,4.000000
1309989.312305,20.000000,7.000000,34.000000,21.000000,11.000000,6.000000,-8.000000,-6.000000
1309989.312326,3.000000,5.000000,-17.000000,1.000000,-13.000000,-11.000000,-19.000000,-11.000000
1309989.312770,0.000000,-3.000000,-14.000000,5.000000,-1.000000,20.000000,37.000000,20.000000
1309989.312777,15.000000,21.000000,40.000000,17.000000,-5.000000,1.000000,-8.000000,19.000000
1309989.317076,-6.000000,-21.000000,-9.000000,48.000000,9.000000,6.000000,-11.000000,-12.000000
1309989.317084,-19.000000,17.000000,-34.000000,-61.000000,-9.000000,5.000000,-11.000000,-11.000000
1309989.325033,15.000000,6.000000,-2.000000,15.000000,-17.000000,-9.000000,-8.000000,6.000000
1309989.325052,0.000000,5.000000,0.000000,19.000000,8.000000,0.000000,-5.000000,-7.000000
1309989.347118,-25.000000,-14.000000,-35.000000,-27.000000,4.000000,18.000000,4.000000,-3.000000
1309989.347139,-1.000000,-3.000000,3.000000,24.000000,10.000000,5.000000,11.000000,10.000000
1309989.369791,11.000000,14.000000,33.000000,12.000000,42.000000,-4.000000,-1.000000,-3.000000
1309989.369802,-9.000000,-12.000000,-9.000000,-52.000000,-6.000000,9.000000,-11.000000,-8.000000
1309989.392165,-3.000000,-9.000000,-18.000000,21.000000,4.000000,5.000000,-13.000000,-13.000000
1309989.392183,13.000000,8.000000,29.000000,-6.000000,-5.000000,-12.000000,11.000000,5.000000
1309989.407434,-9.000000,-12.000000,3.000000,24.000000,-19.000000,-10.000000,3.000000,-3.000000
1309989.407443,-13.000000,-35.000000,-31.000000,5.000000,-15.000000,-9.000000,7.000000,6.000000
1309989.430055,4.000000,2.000000,19.000000,28.000000,10.000000,-1.000000,2.000000,2.000000
1309989.430076,11.000000,29.000000,14.000000,15.000000,4.000000,-4.000000,-5.000000,-6.000000
1309989.430587,-15.000000,-11.000000,-36.000000,-36.000000,11.000000,-2.000000,-1.000000,-4.000000
1309989.430595,3.000000,-19.000000,5.000000,30.000000,-3.000000,7.000000,19.000000,4.000000
1309989.431864,9.000000,14.000000,22.000000,-37.000000,-2.000000,-3.000000,-3.000000,4.000000
1309989.431873,-10.000000,-7.000000,-10.000000,27.000000,17.000000,-7.000000,-13.000000,-12.000000
1309989.432581,-7.000000,-3.000000,-14.000000,-13.000000,3.000000,9.000000,-9.000000,1.000000
1309989.432601,14.000000,13.000000,30.000000,44.000000,3.000000,15.000000,6.000000,15.000000
1309989.433379,3.000000,8.000000,24.000000,47.000000,-2.000000,-3.000000,-5.000000,19.000000
1309989.433395,5.000000,-4.000000,2.000000,-9.000000,-5.000000,17.000000,11.000000,-20.000000
1309989.436919,-17.000000,-22.000000,-45.000000,-37.000000,2.000000,13.000000,5.000000,8.000000
1309989.436930,5.000000,24.000000,10.000000,-1.000000,1.000000,-3.000000,-18.000000,-15.000000
1309989.444734,15.000000,-6.000000,38.000000,30.000000,-7.000000,-12.000000,11.000000,0.000000
1309989.444762,-13.000000,4.000000,-31.000000,-39.000000,47.000000,35.000000,28.000000,-8.000000
1309989.467315,-11.000000,-22.000000,-8.000000,16.000000,36.000000,4.000000,6.000000,8.000000
1309989.467332,19.000000,-21.000000,21.000000,8.000000,-13.000000,-14.000000,-13.000000,0.000000
1309989.474667,-1.000000,-5.000000,-25.000000,-33.000000,61.000000,11.000000,7.000000,-10.000000
1309989.474691,-20.000000,-6.000000,-43.000000,-10.000000,6.000000,2.000000,3.000000,9.000000
1309989.504640,11.000000,4.000000,34.000000,42.000000,20.000000,-1.000000,-4.000000,7.000000
1309989.504650,11.000000,19.000000,15.000000,-44.000000,-15.000000,-7.000000,-3.000000,1.000000
1309989.512095,-13.000000,-38.000000,-30.000000,-2.000000,-7.000000,-5.000000,3.000000,2.000000
1309989.512124,-2.000000,14.000000,-6.000000,4.000000,-6.000000,-2.000000,-44.000000,-7.000000
1309989.527263,16.000000,35.000000,57.000000,16.000000,3.000000,4.000000,-23.000000,8.000000
1309989.527284,-14.000000,-51.000000,-11.000000,-7.000000,-7.000000,-13.000000,-5.000000,-8.000000
1309989.542041,4.000000,32.000000,-25.000000,0.000000,0.000000,-15.000000,1.000000,2.000000
1309989.542052,19.000000,30.000000,50.000000,8.000000,-12.000000,7.000000,-7.000000,3.000000
1309989.564628,-7.000000,-21.000000,-5.000000,9.000000,6.000000,-1.000000,-18.000000,0.000000
1309989.564662,-11.000000,-9.000000,-26.000000,12.000000,15.000000,7.000000,34.000000,4.000000
1309989.565090,9.000000,7.000000,28.000000,-20.000000,2.000000,-6.000000,-4.000000,-2.000000
1309989.565112,0.000000,7.000000,14.000000,59.000000,-20.000000,-7.000000,-26.000000,-11.000000
1309989.566186,-16.000000,-18.000000,-37.000000,-22.000000,26.000000,27.000000,54.000000,6.000000
1309989.566195,5.000000,6.000000,1.000000,2.000000,-9.000000,0.000000,-3.000000,-12.000000
1309989.566791,13.000000,1.000000,36.000000,22.000000,-5.000000,3.000000,-11.000000,5.000000
1309989.566800,-10.000000,-24.000000,-31.000000,-37.000000,-6.000000,3.000000,3.000000,-6.000000
1309989.567591,-2.000000,18.000000,-8.000000,34.000000,20.000000,-14.000000,-4.000000,-12.000000
1309989.567607,10.000000,-3.000000,32.000000,24.000000,-25.000000,0.000000,7.000000,8.000000
1309989.568481,-11.000000,-23.000000,-15.000000,-21.000000,2.000000,-8.000000,-3.000000,-7.000000
1309989.568524,-8.000000,10.000000,-19.000000,-8.000000,-24.000000,-1.000000,-28.000000,-1.000000
1309989.587464,13.000000,21.000000,20.000000,-16.000000,9.000000,24.000000,8.000000,4.000000
1309989.587473,0.000000,-22.000000,1.000000,14.000000,0.000000,-11.000000,1.000000,-8.000000
1309989.588343,-17.000000,-9.000000,-35.000000,-51.000000,24.000000,-1.000000,3.000000,-3.000000
1309989.588351,8.000000,3.000000,10.000000,-9.000000,35.000000,9.000000,3.000000,-17.000000
1309989.609731,10.000000,18.000000,19.000000,0.000000,27.000000,14.000000,9.000000,15.000000
1309989.609794,-15.000000,-41.000000,-23.000000,5.000000,-12.000000,-17.000000,-10.000000,-4.000000
1309989.624723,-15.000000,-41.000000,-24.000000,-29.000000,-18.000000,16.000000,17.000000,9.000000
1309989.624732,15.000000,64.000000,40.000000,14.000000,-38.000000,11.000000,-12.000000,-4.000000
1309989.647093,3.000000,-9.000000,2.000000,-8.000000,13.000000,-14.000000,-18.000000,-5.000000
1309989.647140,-23.000000,-5.000000,-54.000000,-48.000000,-20.000000,9.000000,-1.000000,-12.000000
1309989.647661,15.000000,-1.000000,11.000000,0.000000,-5.000000,-1.000000,0.000000,4.000000
1309989.647674,2.000000,3.000000,5.000000,19.000000,-27.000000,-12.000000,-5.000000,-4.000000
1309989.648789,-15.000000,-2.000000,-21.000000,-11.000000,8.000000,2.000000,-10.000000,-9.000000
1309989.648798,6.000000,-13.000000,20.000000,20.000000,10.000000,0.000000,-16.000000,-1.000000
1309989.649975,9.000000,7.000000,27.000000,13.000000,-19.000000,-13.000000,-4.000000,11.000000
1309989.649996,-13.000000,-19.000000,-46.000000,-30.000000,15.000000,-3.000000,-15.000000,-16.000000
1309989.662322,-3.000000,11.000000,-1.000000,8.000000,-22.000000,0.000000,-8.000000,3.000000
1309989.662358,19.000000,8.000000,43.000000,21.000000,-4.000000,-1.000000,7.000000,7.000000
1309989.669481,-14.000000,-9.000000,-11.000000,-24.000000,-33.000000,-13.000000,-14.000000,-4.000000
1309989.669493,-7.000000,-17.000000,-13.000000,-22.000000,-32.000000,-1.000000,11.000000,2.000000
1309989.685047,14.000000,8.000000,27.000000,-29.000000,-9.000000,-19.000000,-2.000000,4.000000
1309989.685095,-6.000000,0.000000,-4.000000,-38.000000,0.000000,30.000000,6.000000,-5.000000
1309989.685597,-14.000000,-24.000000,-49.000000,-23.000000,-13.000000,-17.000000,-3.000000,-9.000000
1309989.685605,7.000000,11.000000,19.000000,11.000000,-7.000000,20.000000,24.000000,10.000000
1309989.707581,10.000000,12.000000,36.000000,16.000000,13.000000,-8.000000,-9.000000,-11.000000
1309989.707611,-11.000000,-45.000000,-36.000000,-36.000000,-38.000000,0.000000,7.000000,-3.000000
1309989.708245,0.000000,-6.000000,-39.000000,-7.000000,-17.000000,-7.000000,-11.000000,3.000000
1309989.708254,18.000000,41.000000,45.000000,17.000000,11.000000,-1.000000,-3.000000,-3.000000
1309989.730034,-3.000000,-15.000000,1.000000,21.000000,16.000000,8.000000,-5.000000,7.000000
1309989.730063,-11.000000,6.000000,-29.000000,-28.000000,-10.000000,-7.000000,-9.000000,0.000000
1309989.767193,13.000000,6.000000,35.000000,32.000000,-10.000000,-4.000000,-17.000000,-10.000000
1309989.767204,3.000000,9.000000,2.000000,-32.000000,-71.000000,-11.000000,12.000000,2.000000
1309989.768221,-19.000000,-16.000000,-32.000000,-2.000000,18.000000,17.000000,-1.000000,4.000000
1309989.768232,3.000000,-6.000000,19.000000,-9.000000,26.000000,0.000000,-10.000000,8.000000
1309989.768853,15.000000,19.000000,3.000000,-68.000000,1.000000,-1.000000,-13.000000,-3.000000
1309989.768870,-21.000000,-22.000000,-34.000000,14.000000,-2.000000,10.000000,10.000000,2.000000
1309989.770041,4.000000,8.000000,-2.000000,-65.000000,-128.000000,8.000000,36.000000,7.000000
1309989.770064,23.000000,30.000000,51.000000,37.000000,-10.000000,-9.000000,4.000000,1.000000
1309989.770811,4.000000,2.000000,-14.000000,-6.000000,-32.000000,-5.000000,2.000000,10.000000
1309989.770832,-5.000000,-30.000000,0.000000,46.000000,7.000000,-5.000000,-12.000000,8.000000
1309989.782887,18.000000,42.000000,22.000000,-29.000000,1.000000,2.000000,-1.000000,1.000000
1309989.782897,2.000000,-24.000000,6.000000,-7.000000,-5.000000,-4.000000,-10.000000,-4.000000
1309989.790194,-20.000000,-14.000000,-33.000000,10.000000,-3.000000,-6.000000,-21.000000,-9.000000
1309989.790314,4.000000,4.000000,10.000000,35.000000,2.000000,13.000000,2.000000,4.000000
1309989.804665,2.000000,-31.000000,1.000000,-34.000000,8.000000,20.000000,21.000000,13.000000
1309989.804692,-22.000000,-16.000000,-27.000000,11.000000,3.000000,-9.000000,-6.000000,-12.000000
1309989.805134,7.000000,11.000000,-7.000000,-14.000000,7.000000,-4.000000,-15.000000,-8.000000
1309989.805156,14.000000,14.000000,32.000000,12.000000,18.000000,40.000000,28.000000,15.000000
1309989.820172,-5.000000,-5.000000,-8.000000,13.000000,32.000000,-11.000000,15.000000,-5.000000
1309989.820181,-10.000000,-8.000000,-4.000000,2.000000,7.000000,-7.000000,-11.000000,2.000000
1309989.827273,16.000000,14.000000,19.000000,22.000000,-8.000000,-7.000000,13.000000,4.000000
1309989.827283,-6.000000,-2.000000,8.000000,13.000000,0.000000,2.000000,-14.000000,-9.000000
1309989.872308,-22.000000,-17.000000,-36.000000,-58.000000,35.000000,22.000000,36.000000,10.000000
1309989.872320,13.000000,11.000000,3.000000,8.000000,-24.000000,-14.000000,-12.000000,-4.000000
1309989.879687,3.000000,-13.000000,8.000000,-28.000000,13.000000,11.000000,-24.000000,10.000000
1309989.879697,-22.000000,-1.000000,-31.000000,-18.000000,5.000000,-6.000000,-17.000000,-12.000000
1309989.887531,8.000000,-25.000000,-4.000000,18.000000,-68.000000,-24.000000,-21.000000,-9.000000
1309989.887540,3.000000,24.000000,26.000000,30.000000,20.000000,9.000000,-1.000000,-9.000000
1309989.888073,-6.000000,-8.000000,-5.000000,24.000000,14.000000,-4.000000,0.000000,-1.000000
1309989.888081,-12.000000,-7.000000,-27.000000,-3.000000,8.000000,3.000000,-8.000000,-8.000000
1309989.889345,15.000000,12.000000,41.000000,8.000000,-44.000000,-12.000000,-11.000000,10.000000
1309989.889356,-5.000000,8.000000,2.000000,-15.000000,-27.000000,-7.000000,-9.000000,-12.000000
1309989.890281,-16.000000,-23.000000,-39.000000,-37.000000,34.000000,-1.000000,-19.000000,-7.000000
1309989.890299,9.000000,42.000000,13.000000,11.000000,4.000000,9.000000,20.000000,6.000000
1309989.902135,14.000000,-28.000000,6.000000,11.000000,7.000000,-1.000000,0.000000,5.000000
1309989.902152,-21.000000,-6.000000,-34.000000,-37.000000,-5.000000,-10.000000,-2.000000,6.000000
1309989.909527,0.000000,8.000000,11.000000,32.000000,-7.000000,-2.000000,9.000000,0.000000
1309989.909538,19.000000,20.000000,39.000000,53.000000,-66.000000,8.000000,9.000000,3.000000
1309989.927282,-6.000000,-9.000000,-22.000000,-67.000000,2.000000,-6.000000,-3.000000,6.000000
1309989.927298,-3.000000,-11.000000,-19.000000,11.000000,7.000000,-7.000000,-12.000000,3.000000
1309989.927440,14.000000,27.000000,32.000000,23.000000,-27.000000,12.000000,-4.000000,19.000000
1309989.927448,-6.000000,-25.000000,1.000000,15.000000,20.000000,-3.000000,-11.000000,-11.000000
1309989.940335,-11.000000,-1.000000,-19.000000,0.000000,14.000000,2.000000,-33.000000,-10.000000
1309989.940351,2.000000,6.000000,14.000000,25.000000,-6.000000,15.000000,15.000000,19.000000
1309989.947080,9.000000,21.000000,15.000000,6.000000,9.000000,-10.000000,-21.000000,-10.000000
1309989.947102,-19.000000,-26.000000,-38.000000,-51.000000,28.000000,6.000000,-16.000000,-3.000000
1309989.962110,-5.000000,6.000000,-33.000000,-19.000000,19.000000,-5.000000,-10.000000,3.000000
1309989.962121,12.000000,5.000000,30.000000,1.000000,-15.000000,19.000000,9.000000,-8.000000
1309989.984736,-7.000000,-8.000000,-10.000000,15.000000,6.000000,8.000000,-6.000000,3.000000
1309989.984765,-3.000000,8.000000,-4.000000,-22.000000,-25.000000,-5.000000,-6.000000,-7.000000
1309990.007286,15.000000,12.000000,19.000000,37.000000,-10.000000,-3.000000,-5.000000,1.000000
1309990.007297,-1.000000,-3.000000,1.000000,-7.000000,25.000000,-9.000000,-5.000000,1.000000
1309990.007780,-20.000000,-5.000000,-27.000000,-28.000000,17.000000,-3.000000,9.000000,-9.000000
1309990.007788,8.000000,14.000000,18.000000,34.000000,-12.000000,3.000000,-6.000000,-1.000000
1309990.008701,5.000000,6.000000,15.000000,-12.000000,6.000000,-12.000000,1.000000,11.000000
1309990.008709,-14.000000,-37.000000,-23.000000,-8.000000,-11.000000,-6.000000,-13.000000,-6.000000
1309990.009818,-4.000000,11.000000,-1.000000,26.000000,15.000000,-6.000000,-8.000000,-2.000000
1309990.009828,10.000000,0.000000,26.000000,-16.000000,14.000000,15.000000,4.000000,9.000000
1309990.022941,-10.000000,8.000000,-11.000000,10.000000,25.000000,-8.000000,-20.000000,-16.000000
1309990.022951,-1.000000,-13.000000,-5.000000,9.000000,6.000000,2.000000,31.000000,10.000000
1309990.029625,11.000000,27.000000,39.000000,39.000000,3.000000,3.000000,19.000000,-4.000000
1309990.029639,-5.000000,-9.000000,-11.000000,-37.000000,17.000000,-18.000000,-21.000000,-10.000000
1309990.059835,-11.000000,-10.000000,-33.000000,30.000000,-18.000000,10.000000,14.000000,9.000000
1309990.059846,4.000000,-3.000000,4.000000,-71.000000,-48.000000,-24.000000,-2.000000,-7.000000
1309990.067250,3.000000,7.000000,17.000000,-1.000000,22.000000,9.000000,9.000000,4.000000
1309990.067277,-22.000000,-48.000000,-39.000000,23.000000,28.000000,15.000000,20.000000,-6.000000
1309990.082186,5.000000,27.000000,2.000000,-23.000000,36.000000,6.000000,11.000000,-4.000000
1309990.082197,17.000000,7.000000,24.000000,19.000000,12.000000,11.000000,3.000000,7.000000
1309990.097060,-14.000000,-12.000000,-18.000000,-28.000000,-35.000000,-11.000000,-8.000000,-9.000000
1309990.097070,-3.000000,2.000000,-6.000000,19.000000,3.000000,7.000000,-11.000000,0.000000
1309990.112224,19.000000,13.000000,22.000000,28.000000,-25.000000,-17.000000,29.000000,-3.000000
1309990.112253,-1.000000,10.000000,4.000000,-6.000000,-25.000000,7.000000,12.000000,9.000000
1309990.119492,-13.000000,-34.000000,-39.000000,-35.000000,3.000000,14.000000,-10.000000,5.000000
1309990.119502,16.000000,19.000000,16.000000,37.000000,4.000000,4.000000,3.000000,9.000000
1309990.157607,3.000000,7.000000,11.000000,18.000000,25.000000,7.000000,-6.000000,-6.000000
1309990.157619,-19.000000,-24.000000,-34.000000,-25.000000,4.000000,23.000000,15.000000,-4.000000
1309990.165044,4.000000,5.000000,1.000000,-4.000000,-3.000000,-10.000000,-15.000000,-3.000000
1309990.165067,8.000000,7.000000,26.000000,11.000000,17.000000,3.000000,-12.000000,-5.000000
1309990.202488,-7.000000,-14.000000,-21.000000,35.000000,23.000000,-8.000000,-3.000000,-2.000000
1309990.202498,-9.000000,-8.000000,-13.000000,4.000000,11.000000,-5.000000,6.000000,5.000000
1309990.202938,16.000000,32.000000,48.000000,39.000000,-13.000000,-13.000000,-17.000000,-4.000000
1309990.202946,-2.000000,1.000000,3.000000,-76.000000,-26.000000,0.000000,-16.000000,-5.000000
1309990.217160,-14.000000,-44.000000,-44.000000,21.000000,-31.000000,-11.000000,44.000000,6.000000
1309990.217181,3.000000,5.000000,12.000000,13.000000,-9.000000,-3.000000,-27.000000,-13.000000
1309990.224485,0.000000,-31.000000,9.000000,29.000000,24.000000,12.000000,-9.000000,5.000000
1309990.224499,15.000000,16.000000,14.000000,-1.000000,4.000000,-3.000000,-1.000000,-2.000000
1309990.225047,-10.000000,-4.000000,-17.000000,25.000000,1.000000,16.000000,-5.000000,-6.000000
1309990.225059,-7.000000,1.000000,-4.000000,15.000000,-12.000000,-12.000000,-13.000000,-11.000000
1309990.225627,-12.000000,-12.000000,-35.000000,-19.000000,6.000000,30.000000,23.000000,14.000000
1309990.225642,12.000000,16.000000,29.000000,27.000000,-12.000000,-6.000000,-4.000000,-3.000000
1309990.226248,-1.000000,-9.000000,8.000000,29.000000,17.000000,14.000000,36.000000,7.000000
1309990.226263,-14.000000,-20.000000,-43.000000,-73.000000,-9.000000,-24.000000,-7.000000,-6.000000
1309990.226772,2.000000,-6.000000,-26.000000,-24.000000,-7.000000,7.000000,12.000000,-1.000000
1309990.226780,8.000000,9.000000,33.000000,12.000000,-2.000000,1.000000,-9.000000,-7.000000
1309990.227705,-13.000000,-28.000000,-16.000000,-24.000000,-1.000000,1.000000,-7.000000,-5.000000
1309990.227714,-3.000000,6.000000,-21.000000,21.000000,44.000000,7.000000,33.000000,8.000000
1309990.239844,15.000000,27.000000,36.000000,10.000000,17.000000,-10.000000,-5.000000,-13.000000
1309990.239858,5.000000,-4.000000,3.000000,-15.000000,-26.000000,-20.000000,3.000000,6.000000
1309990.240973,-23.000000,-11.000000,-26.000000,-10.000000,18.000000,24.000000,44.000000,3.000000
1309990.240983,14.000000,10.000000,13.000000,-16.000000,5.000000,-14.000000,-14.000000,-1.000000
1309990.262313,2.000000,5.000000,9.000000,-20.000000,-7.000000,1.000000,1.000000,-7.000000
1309990.262328,-11.000000,-10.000000,-33.000000,-19.000000,5.000000,-8.000000,-20.000000,-15.000000
1309990.263532,12.000000,2.000000,10.000000,11.000000,-1.000000,-9.000000,-14.000000,6.000000
1309990.263548,8.000000,7.000000,30.000000,25.000000,11.000000,9.000000,15.000000,8.000000
1309990.276968,-18.000000,-6.000000,-29.000000,-12.000000,2.000000,1.000000,8.000000,-8.000000
1309990.276983,3.000000,0.000000,-8.000000,5.000000,1.000000,-19.000000,-4.000000,0.000000
1309990.278322,13.000000,10.000000,44.000000,14.000000,40.000000,10.000000,16.000000,-5.000000
1309990.278339,-3.000000,2.000000,-30.000000,-55.000000,-47.000000,9.000000,19.000000,-6.000000
1309990.299780,-13.000000,-14.000000,-22.000000,55.000000,-21.000000,10.000000,-8.000000,-4.000000
1309990.299809,11.000000,28.000000,16.000000,-29.000000,22.000000,-13.000000,1.000000,-12.000000
1309990.322234,8.000000,-4.000000,-1.000000,66.000000,-10.000000,-5.000000,13.000000,30.000000
1309990.322262,-26.000000,17.000000,-48.000000,-11.000000,22.000000,25.000000,30.000000,1.000000
1309990.337235,9.000000,-33.000000,17.000000,-23.000000,-3.000000,-3.000000,1.000000,-1.000000
1309990.337245,5.000000,24.000000,0.000000,18.000000,9.000000,7.000000,-15.000000,-6.000000
1309990.352141,-20.000000,-12.000000,-41.000000,-40.000000,-7.000000,5.000000,15.000000,-3.000000
1309990.352155,-2.000000,-7.000000,-3.000000,-9.000000,-7.000000,12.000000,30.000000,3.000000
1309990.359989,17.000000,24.000000,39.000000,36.000000,16.000000,-15.000000,-10.000000,0.000000
1309990.360010,-3.000000,-6.000000,-4.000000,-18.000000,11.000000,2.000000,-12.000000,-3.000000
1309990.360690,-13.000000,-10.000000,-26.000000,-23.000000,46.000000,-2.000000,-17.000000,-9.000000
1309990.360698,9.000000,16.000000,32.000000,-3.000000,15.000000,18.000000,-5.000000,2.000000
1309990.361203,-3.000000,-10.000000,7.000000,11.000000,-5.000000,-3.000000,-14.000000,-2.000000
1309990.361211,-20.000000,-20.000000,-36.000000,9.000000,20.000000,-8.000000,-1.000000,6.000000
1309990.362814,12.000000,16.000000,18.000000,-6.000000,-22.000000,11.000000,12.000000,2.000000
1309990.362843,1.000000,-1.000000,21.000000,26.000000,-14.000000,-23.000000,-14.000000,-1.000000
1309990.374450,-14.000000,-19.000000,-17.000000,-14.000000,-2.000000,0.000000,-6.000000,-7.000000
1309990.374470,-5.000000,-8.000000,-4.000000,9.000000,-5.000000,-7.000000,-15.000000,-10.000000
1309990.382554,20.000000,20.000000,26.000000,3.000000,-21.000000,-18.000000,1.000000,12.000000
1309990.382583,-8.000000,-17.000000,-14.000000,11.000000,-18.000000,1.000000,-8.000000,-9.000000
1309990.397406,-6.000000,5.000000,-13.000000,-39.000000,-16.000000,-4.000000,-21.000000,0.000000
1309990.397424,17.000000,-10.000000,24.000000,43.000000,32.000000,-14.000000,-12.000000,3.000000
1309990.398710,-7.000000,6.000000,-5.000000,-55.000000,15.000000,2.000000,-10.000000,-14.000000
1309990.398719,-21.000000,-28.000000,-30.000000,10.000000,36.000000,20.000000,25.000000,23.000000
1309990.419570,4.000000,16.000000,21.000000,29.000000,-27.000000,-25.000000,-10.000000,-8.000000
1309990.419580,12.000000,22.000000,30.000000,-30.000000,-29.000000,-20.000000,-1.000000,1.000000
1309990.442560,-21.000000,-48.000000,-34.000000,-5.000000,34.000000,7.000000,0.000000,-9.000000
1309990.442587,-3.000000,11.000000,-10.000000,-11.000000,-24.000000,10.000000,-5.000000,-3.000000
1309990.457034,17.000000,21.000000,27.000000,-7.000000,18.000000,10.000000,10.000000,23.000000
1309990.457044,-9.000000,-3.000000,-1.000000,15.000000,38.000000,7.000000,-16.000000,-10.000000
1309990.471889,-12.000000,-12.000000,-29.000000,-28.000000,5.000000,3.000000,13.000000,-4.000000
1309990.471899,16.000000,13.000000,26.000000,-22.000000,-39.000000,1.000000,2.000000,-4.000000
1309990.479825,1.000000,-2.000000,10.000000,-21.000000,-5.000000,-4.000000,-22.000000,-11.000000
1309990.479836,-21.000000,-23.000000,-53.000000,-15.000000,-2.000000,-7.000000,22.000000,2.000000
1309990.480668,9.000000,33.000000,20.000000,-14.000000,-44.000000,-7.000000,1.000000,-5.000000
1309990.480676,5.000000,-10.000000,23.000000,12.000000,13.000000,7.000000,-19.000000,-9.000000
1309990.481899,-15.000000,-14.000000,-39.000000,-37.000000,0.000000,19.000000,29.000000,9.000000
1309990.481907,11.000000,27.000000,4.000000,34.000000,12.000000,3.000000,-9.000000,-10.000000
1309990.482901,15.000000,12.000000,43.000000,-35.000000,-60.000000,3.000000,-9.000000,-1.000000
1309990.482910,-6.000000,-46.000000,-14.000000,11.000000,13.000000,18.000000,2.000000,4.000000
1309990.495232,-9.000000,13.000000,-26.000000,-13.000000,-5.000000,-16.000000,-5.000000,-12.000000
1309990.495251,15.000000,14.000000,25.000000,24.000000,-1.000000,-8.000000,-19.000000,10.000000
1309990.502081,-11.000000,15.000000,3.000000,-13.000000,-13.000000,8.000000,14.000000,-4.000000
1309990.502090,-17.000000,-25.000000,-33.000000,-22.000000,-5.000000,-5.000000,2.000000,-6.000000
1309990.517542,-1.000000,4.000000,20.000000,4.000000,6.000000,-2.000000,-11.000000,-2.000000
1309990.517553,10.000000,5.000000,7.000000,-28.000000,24.000000,5.000000,-3.000000,14.000000
1309990.518369,-12.000000,-19.000000,-38.000000,17.000000,-45.000000,-12.000000,-12.000000,2.000000
1309990.518379,0.000000,1.000000,7.000000,-60.000000,2.000000,5.000000,-14.000000,-7.000000
1309990.554574,20.000000,15.000000,25.000000,39.000000,18.000000,-12.000000,18.000000,-5.000000
1309990.554586,-11.000000,-7.000000,-13.000000,3.000000,53.000000,2.000000,-22.000000,-4.000000
1309990.562094,-12.000000,-18.000000,-17.000000,-7.000000,-11.000000,-6.000000,-10.000000,-13.000000
1309990.562103,18.000000,16.000000,36.000000,9.000000,-17.000000,-8.000000,18.000000,5.000000
1309990.592501,-1.000000,-12.000000,-19.000000,-13.000000,-10.000000,-9.000000,-7.000000,-1.000000
1309990.592513,-22.000000,-57.000000,-38.000000,-2.000000,10.000000,-1.000000,-18.000000,-11.000000
1309990.599751,4.000000,19.000000,13.000000,-12.000000,1.000000,9.000000,2.000000,14.000000
1309990.599763,5.000000,19.000000,17.000000,-12.000000,6.000000,-2.000000,-7.000000,1.000000
1309990.600932,-19.000000,3.000000,-35.000000,-15.000000,37.000000,-18.000000,-25.000000,-15.000000
1309990.600960,-2.000000,-10.000000,-4.000000,9.000000,29.000000,-14.000000,-22.000000,-7.000000
1309990.601556,10.000000,-1.000000,39.000000,49.000000,2.000000,17.000000,-5.000000,9.000000
1309990.601572,-6.000000,-4.000000,-25.000000,-31.000000,-32.000000,-7.000000,7.000000,11.000000
1309990.602826,-1.000000,7.000000,-20.000000,-17.000000,-4.000000,-7.000000,-10.000000,4.000000
1309990.602835,13.000000,10.000000,45.000000,54.000000,15.000000,2.000000,13.000000,1.000000
1309990.615286,15.000000,21.000000,27.000000,7.000000,-26.000000,-23.000000,-15.000000,-7.000000
1309990.615301,7.000000,9.000000,8.000000,0.000000,-12.000000,37.000000,58.000000,19.000000
1309990.622146,-19.000000,-23.000000,-40.000000,1.000000,-2.000000,4.000000,0.000000,-19.000000
1309990.622156,0.000000,-35.000000,2.000000,13.000000,13.000000,-16.000000,4.000000,4.000000
1309990.637680,4.000000,7.000000,24.000000,26.000000,-2.000000,-7.000000,-2.000000,-6.000000
1309990.637690,-5.000000,0.000000,-8.000000,-18.000000,-30.000000,-23.000000,0.000000,3.000000
1309990.638467,-7.000000,7.000000,-23.000000,-7.000000,35.000000,34.000000,33.000000,6.000000
1309990.638475,18.000000,20.000000,46.000000,26.000000,-9.000000,-5.000000,-4.000000,3.000000
1309990.659830,-2.000000,5.000000,9.000000,-17.000000,-9.000000,-1.000000,-11.000000,0.000000
1309990.659870,-16.000000,1.000000,-32.000000,-12.000000,-28.000000,-13.000000,14.000000,0.000000
1309990.675017,4.000000,-14.000000,15.000000,-8.000000,-17.000000,15.000000,-16.000000,-2.000000
1309990.675030,3.000000,9.000000,22.000000,1.000000,-1.000000,1.000000,-5.000000,1.000000
1309990.712130,-22.000000,-19.000000,-40.000000,-7.000000,24.000000,-8.000000,-5.000000,-12.000000
1309990.712139,1.000000,2.000000,3.000000,-6.000000,26.000000,15.000000,18.000000,8.000000
1309990.719455,16.000000,23.000000,39.000000,34.000000,13.000000,-4.000000,-20.000000,-1.000000
1309990.719486,-11.000000,-28.000000,-8.000000,-15.000000,-4.000000,-11.000000,7.000000,-3.000000
1309990.720501,2.000000,3.000000,-14.000000,7.000000,-27.000000,-4.000000,-16.000000,0.000000
1309990.720522,17.000000,13.000000,29.000000,4.000000,-5.000000,5.000000,2.000000,4.000000
1309990.721157,-6.000000,3.000000,8.000000,15.000000,-22.000000,-8.000000,9.000000,-12.000000
1309990.721164,-16.000000,-12.000000,-30.000000,-5.000000,-5.000000,-20.000000,-5.000000,-8.000000
1309990.722707,7.000000,15.000000,15.000000,-4.000000,4.000000,-8.000000,-3.000000,-7.000000
1309990.722714,8.000000,0.000000,17.000000,-18.000000,-2.000000,-4.000000,-3.000000,7.000000
1309990.772090,6.000000,-3.000000,13.000000,13.000000,19.000000,16.000000,23.000000,10.000000
1309990.772100,-5.000000,-7.000000,-8.000000,-39.000000,-18.000000,-10.000000,-14.000000,-9.000000
1309990.779802,-8.000000,7.000000,-22.000000,-13.000000,-19.000000,6.000000,13.000000,-2.000000
1309990.779831,15.000000,11.000000,31.000000,19.000000,-8.000000,-5.000000,20.000000,-3.000000
1309990.817155,-5.000000,-4.000000,-6.000000,-25.000000,26.000000,22.000000,-19.000000,6.000000
1309990.817179,-21.000000,-8.000000,-31.000000,-10.000000,6.000000,-13.000000,27.000000,-9.000000
1309990.824906,7.000000,4.000000,-2.000000,-50.000000,3.000000,-3.000000,0.000000,13.000000
1309990.824915,0.000000,12.000000,19.000000,31.000000,29.000000,15.000000,-5.000000,-5.000000
1309990.832522,-15.000000,-22.000000,-36.000000,-20.000000,4.000000,7.000000,-2.000000,-8.000000
1309990.832531,6.000000,10.000000,13.000000,27.000000,-13.000000,-9.000000,-6.000000,-1.000000
1309990.833734,-10.000000,-13.000000,3.000000,4.000000,-19.000000,11.000000,48.000000,3.000000
1309990.833743,-11.000000,-12.000000,-23.000000,-31.000000,81.000000,-1.000000,-9.000000,-11.000000
1309990.834391,-9.000000,-37.000000,-28.000000,5.000000,-49.000000,2.000000,11.000000,-16.000000
1309990.834400,-12.000000,-1.000000,1.000000,3.000000,-17.000000,-4.000000,1.000000,10.000000
1309990.836047,15.000000,17.000000,37.000000,5.000000,-3.000000,5.000000,19.000000,6.000000
1309990.836083,-11.000000,-3.000000,-8.000000,2.000000,-21.000000,-22.000000,-3.000000,-10.000000
1309990.839615,-4.000000,-5.000000,-26.000000,-15.000000,-5.000000,-11.000000,2.000000,-2.000000
1309990.839643,24.000000,26.000000,45.000000,31.000000,-2.000000,-17.000000,-23.000000,10.000000
1309990.855386,-8.000000,-3.000000,1.000000,-6.000000,3.000000,15.000000,5.000000,-8.000000
1309990.855425,-15.000000,-11.000000,-32.000000,-36.000000,-10.000000,-12.000000,-11.000000,-12.000000
1309990.869471,14.000000,4.000000,27.000000,36.000000,-39.000000,-7.000000,2.000000,-5.000000
1309990.869482,1.000000,0.000000,6.000000,-17.000000,8.000000,-1.000000,3.000000,1.000000
1309990.877567,-9.000000,-5.000000,-63.000000,-88.000000,-5.000000,4.000000,8.000000,-4.000000
1309990.877594,-4.000000,-3.000000,7.000000,59.000000,-29.000000,-3.000000,-6.000000,-6.000000
1309990.878403,3.000000,-6.000000,21.000000,-20.000000,1.000000,-6.000000,-16.000000,4.000000
1309990.878430,-17.000000,-29.000000,-21.000000,-16.000000,12.000000,-6.000000,23.000000,8.000000
1309990.899563,5.000000,9.000000,-2.000000,15.000000,-10.000000,12.000000,3.000000,19.000000
1309990.899574,13.000000,9.000000,18.000000,9.000000,37.000000,5.000000,14.000000,-8.000000
1309990.914600,-2.000000,6.000000,-8.000000,-13.000000,3.000000,9.000000,40.000000,26.000000
1309990.914616,-12.000000,-13.000000,-20.000000,-1.000000,-2.000000,-11.000000,-10.000000,-11.000000
1309990.937290,14.000000,-7.000000,21.000000,10.000000,7.000000,-4.000000,3.000000,-3.000000
1309990.937303,-2.000000,-1.000000,3.000000,7.000000,-1.000000,-12.000000,0.000000,-2.000000
1309990.944921,-15.000000,-20.000000,-27.000000,-48.000000,2.000000,-4.000000,4.000000,-7.000000
1309990.944954,4.000000,-12.000000,10.000000,10.000000,16.000000,9.000000,-8.000000,2.000000
1309990.945611,8.000000,0.000000,18.000000,34.000000,-20.000000,-11.000000,-6.000000,3.000000
1309990.945620,-13.000000,-10.000000,-27.000000,19.000000,14.000000,1.000000,-1.000000,-3.000000
1309990.946523,-3.000000,-2.000000,-4.000000,-28.000000,14.000000,-5.000000,-3.000000,0.000000
1309990.946555,15.000000,30.000000,48.000000,77.000000,-23.000000,-15.000000,-1.000000,-6.000000
1309990.967057,-8.000000,-10.000000,-7.000000,-63.000000,-5.000000,11.000000,14.000000,19.000000
1309990.967080,-16.000000,-23.000000,-50.000000,7.000000,-16.000000,9.000000,30.000000,-4.000000
1309990.974745,14.000000,14.000000,27.000000,26.000000,-5.000000,7.000000,1.000000,2.000000
1309990.974766,1.000000,-1.000000,15.000000,7.000000,7.000000,7.000000,-20.000000,4.000000
1309990.976296,-17.000000,-14.000000,-32.000000,-14.000000,-2.000000,5.000000,-11.000000,4.000000
1309990.976373,5.000000,9.000000,11.000000,-1.000000,-15.000000,5.000000,23.000000,-1.000000
1309990.989531,15.000000,3.000000,39.000000,26.000000,38.000000,-5.000000,-26.000000,0.000000
1309990.989556,-22.000000,-44.000000,-29.000000,-32.000000,19.000000,15.000000,21.000000,5.000000
1309990.991065,-4.000000,16.000000,-9.000000,58.000000,17.000000,-7.000000,-2.000000,-1.000000
1309990.991080,22.000000,19.000000,28.000000,-77.000000,-41.000000,-5.000000,17.000000,9.000000
1309991.012307,-10.000000,-13.000000,7.000000,-4.000000,-15.000000,-4.000000,-7.000000,-1.000000
1309991.012319,-12.000000,-32.000000,-49.000000,-1.000000,56.000000,6.000000,-7.000000,-4.000000
1309991.049738,9.000000,24.000000,34.000000,-6.000000,11.000000,1.000000,4.000000,-3.000000
1309991.049748,-1.000000,5.000000,7.000000,18.000000,6.000000,-7.000000,-3.000000,-7.000000
1309991.056996,-17.000000,-5.000000,-42.000000,-34.000000,-6.000000,1.000000,3.000000,-3.000000
1309991.057020,-3.000000,-15.000000,2.000000,11.000000,-43.000000,-10.000000,2.000000,3.000000
1309991.072462,10.000000,-3.000000,28.000000,15.000000,-4.000000,-2.000000,-2.000000,-1.000000
1309991.072639,-17.000000,-11.000000,-27.000000,13.000000,-6.000000,3.000000,-4.000000,-5.000000
1309991.072913,2.000000,12.000000,-4.000000,16.000000,-19.000000,-8.000000,-12.000000,-3.000000
1309991.072922,16.000000,29.000000,43.000000,-15.000000,-35.000000,-17.000000,-10.000000,6.000000
1309991.073785,3.000000,20.000000,-6.000000,-5.000000,-15.000000,-14.000000,-31.000000,3.000000
1309991.073797,-7.000000,-50.000000,-29.000000,-28.000000,14.000000,1.000000,20.000000,-4.000000
1309991.074529,14.000000,16.000000,23.000000,80.000000,-14.000000,6.000000,-2.000000,4.000000
1309991.074540,1.000000,9.000000,6.000000,-56.000000,13.000000,-22.000000,-15.000000,-11.000000
1309991.094803,9.000000,6.000000,26.000000,31.000000,-48.000000,-3.000000,4.000000,-5.000000
1309991.094911,-10.000000,-13.000000,-31.000000,-19.000000,-56.000000,-11.000000,-1.000000,-14.000000
1309991.109509,1.000000,3.000000,-14.000000,0.000000,-14.000000,1.000000,-2.000000,11.000000
1309991.109519,20.000000,22.000000,44.000000,15.000000,11.000000,2.000000,-12.000000,-4.000000
1309991.110007,-9.000000,-10.000000,-14.000000,-34.000000,-2.000000,10.000000,14.000000,-5.000000
1309991.110015,-9.000000,-18.000000,-12.000000,15.000000,-26.000000,-5.000000,-11.000000,-3.000000
1309991.111607,20.000000,23.000000,41.000000,12.000000,-3.000000,16.000000,-13.000000,-2.000000
1309991.111615,-5.000000,-8.000000,-22.000000,12.000000,-30.000000,13.000000,22.000000,2.000000
1309991.132048,-25.000000,-41.000000,-34.000000,19.000000,17.000000,-14.000000,-19.000000,6.000000
1309991.132058,10.000000,38.000000,14.000000,-25.000000,-4.000000,0.000000,-3.000000,-3.000000
1309991.154634,8.000000,-11.000000,23.000000,-1.000000,1.000000,-14.000000,-5.000000,-6.000000
1309991.154643,-20.000000,-12.000000,-37.000000,-1.000000,39.000000,18.000000,-8.000000,-8.000000
1309991.169749,2.000000,8.000000,-1.000000,2.000000,9.000000,-6.000000,-19.000000,-3.000000
1309991.169760,11.000000,10.000000,44.000000,50.000000,1.000000,20.000000,41.000000,22.000000
1309991.177537,-7.000000,-4.000000,-12.000000,3.000000,21.000000,-5.000000,5.000000,-2.000000
1309991.177546,-14.000000,-46.000000,-26.000000,-41.000000,11.000000,0.000000,5.000000,-1.000000
1309991.178141,15.000000,20.000000,38.000000,64.000000,54.000000,3.000000,6.000000,1.000000
1309991.178159,0.000000,9.000000,5.000000,-34.000000,-54.000000,-12.000000,-11.000000,-6.000000
1309991.179735,-13.000000,-17.000000,-21.000000,-18.000000,19.000000,16.000000,15.000000,2.000000
1309991.179746,7.000000,18.000000,17.000000,19.000000,-10.000000,-15.000000,4.000000,-5.000000
1309991.184570,6.000000,12.000000,21.000000,1.000000,1.000000,-14.000000,-6.000000,-3.000000
1309991.184579,-27.000000,-14.000000,-29.000000,-20.000000,26.000000,10.000000,-5.000000,-17.000000
1309991.192802,2.000000,-19.000000,-12.000000,16.000000,-7.000000,-7.000000,-11.000000,6.000000
1309991.192818,12.000000,12.000000,36.000000,11.000000,-33.000000,10.000000,-5.000000,-7.000000
1309991.207333,-1.000000,8.000000,-1.000000,20.000000,-7.000000,-17.000000,4.000000,-2.000000
1309991.207344,-7.000000,7.000000,-23.000000,-29.000000,-26.000000,10.000000,10.000000,6.000000
1309991.214979,16.000000,-2.000000,29.000000,-12.000000,-56.000000,-9.000000,7.000000,-4.000000
1309991.214996,-5.000000,-7.000000,-13.000000,33.000000,10.000000,4.000000,-12.000000,-4.000000
1309991.222384,-14.000000,-5.000000,-33.000000,-25.000000,-1.000000,-10.000000,-1.000000,-14.000000
1309991.222403,5.000000,13.000000,14.000000,-14.000000,-25.000000,-4.000000,-10.000000,0.000000
1309991.230463,9.000000,3.000000,24.000000,26.000000,52.000000,6.000000,-20.000000,-1.000000
1309991.230500,-14.000000,-19.000000,-36.000000,-19.000000,1.000000,-1.000000,28.000000,0.000000
1309991.252504,-7.000000,3.000000,-3.000000,34.000000,38.000000,-23.000000,-17.000000,-17.000000
1309991.252514,13.000000,-1.000000,29.000000,10.000000,42.000000,-6.000000,1.000000,-7.000000
1309991.274506,-7.000000,10.000000,-16.000000,-29.000000,4.000000,10.000000,3.000000,1.000000
1309991.274525,-9.000000,-8.000000,-11.000000,25.000000,14.000000,6.000000,-11.000000,2.000000
1309991.289664,19.000000,40.000000,45.000000,51.000000,-15.000000,-3.000000,-8.000000,2.000000
1309991.289675,2.000000,-25.000000,-9.000000,-15.000000,-15.000000,14.000000,-17.000000,0.000000
1309991.327638,-23.000000,-12.000000,-23.000000,-15.000000,25.000000,-1.000000,1.000000,-13.000000
1309991.327652,3.000000,2.000000,6.000000,28.000000,18.000000,18.000000,-18.000000,-2.000000
1309991.328182,5.000000,10.000000,13.000000,-10.000000,-3.000000,10.000000,34.000000,8.000000
1309991.328190,-18.000000,1.000000,-28.000000,-2.000000,6.000000,10.000000,-11.000000,-1.000000
1309991.329704,-3.000000,-11.000000,4.000000,9.000000,18.000000,-8.000000,-2.000000,0.000000
1309991.329713,22.000000,8.000000,29.000000,-13.000000,-49.000000,3.000000,25.000000,1.000000
1309991.330234,-11.000000,-3.000000,-11.000000,1.000000,10.000000,-20.000000,-15.000000,-9.000000
1309991.330253,-11.000000,1.000000,-20.000000,-2.000000,16.000000,6.000000,8.000000,5.000000
1309991.334474,5.000000,-11.000000,21.000000,23.000000,18.000000,-3.000000,3.000000,-3.000000
1309991.334482,-20.000000,-20.000000,-35.000000,-19.000000,9.000000,1.000000,1.000000,8.000000
1309991.350107,7.000000,17.000000,-8.000000,-4.000000,-7.000000,4.000000,-9.000000,-1.000000
1309991.350117,4.000000,-5.000000,37.000000,7.000000,0.000000,-16.000000,-8.000000,2.000000
1309991.351037,-7.000000,-10.000000,-28.000000,-24.000000,14.000000,15.000000,42.000000,-9.000000
1309991.351045,-6.000000,-11.000000,-23.000000,42.000000,-47.000000,-15.000000,-4.000000,0.000000
1309991.364775,14.000000,17.000000,21.000000,18.000000,26.000000,13.000000,-11.000000,3.000000
1309991.364796,-2.000000,-10.000000,10.000000,12.000000,28.000000,-2.000000,-2.000000,-3.000000
1309991.387065,-16.000000,-28.000000,-55.000000,-31.000000,62.000000,0.000000,13.000000,-6.000000
1309991.387088,10.000000,14.000000,14.000000,18.000000,7.000000,1.000000,6.000000,4.000000
1309991.395034,1.000000,0.000000,13.000000,15.000000,-18.000000,7.000000,-4.000000,2.000000
1309991.395047,-20.000000,-15.000000,-23.000000,-2.000000,-1.000000,-9.000000,5.000000,14.000000
1309991.417381,4.000000,5.000000,2.000000,-18.000000,25.000000,16.000000,-7.000000,1.000000
1309991.417398,10.000000,10.000000,29.000000,19.000000,-37.000000,-8.000000,-12.000000,4.000000
1309991.432164,-7.000000,5.000000,-11.000000,-19.000000,1.000000,-2.000000,35.000000,2.000000
1309991.432174,-13.000000,-48.000000,-15.000000,-27.000000,-6.000000,1.000000,-12.000000,-2.000000
1309991.469700,13.000000,17.000000,23.000000,10.000000,2.000000,8.000000,3.000000,0.000000
1309991.469713,-2.000000,4.000000,-3.000000,1.000000,18.000000,29.000000,9.000000,3.000000
1309991.485101,-11.000000,-16.000000,-26.000000,-19.000000,16.000000,1.000000,-14.000000,-10.000000
1309991.485130,11.000000,23.000000,17.000000,14.000000,32.000000,24.000000,17.000000,5.000000
1309991.500135,2.000000,-5.000000,11.000000,12.000000,15.000000,18.000000,28.000000,4.000000
1309991.500161,-23.000000,-15.000000,-50.000000,-76.000000,3.000000,-14.000000,-26.000000,-22.000000
1309991.507004,5.000000,-6.000000,-9.000000,14.000000,-18.000000,-12.000000,-3.000000,-8.000000
1309991.507089,12.000000,18.000000,43.000000,10.000000,-13.000000,-2.000000,4.000000,7.000000
1309991.508696,2.000000,-9.000000,8.000000,-12.000000,9.000000,-15.000000,-15.000000,-15.000000
1309991.508706,-22.000000,-20.000000,-44.000000,-24.000000,9.000000,13.000000,16.000000,13.000000
1309991.509487,-7.000000,-13.000000,-19.000000,-1.000000,-8.000000,-20.000000,-9.000000,-11.000000
1309991.509495,-6.000000,-15.000000,-20.000000,1.000000,-2.000000,8.000000,-1.000000,2.000000
1309991.529617,16.000000,22.000000,33.000000,35.000000,34.000000,6.000000,-7.000000,4.000000
1309991.529628,-8.000000,11.000000,12.000000,-9.000000,8.000000,41.000000,8.000000,-1.000000
1309991.530027,-12.000000,-24.000000,-22.000000,-51.000000,15.000000,6.000000,9.000000,-6.000000
1309991.530037,7.000000,8.000000,-15.000000,12.000000,5.000000,0.000000,-10.000000,-1.000000
1309991.531934,2.000000,9.000000,14.000000,17.000000,-37.000000,3.000000,10.000000,-4.000000
1309991.531947,-12.000000,-29.000000,-22.000000,-22.000000,0.000000,-16.000000,-4.000000,9.000000
1309991.544820,4.000000,3.000000,-11.000000,2.000000,26.000000,7.000000,23.000000,2.000000
1309991.544840,4.000000,4.000000,23.000000,19.000000,-5.000000,10.000000,-8.000000,0.000000
1309991.552637,-6.000000,1.000000,-3.000000,-6.000000,-6.000000,-1.000000,10.000000,0.000000
1309991.552646,-4.000000,0.000000,-4.000000,16.000000,10.000000,-15.000000,-8.000000,-2.000000
1309991.589901,16.000000,12.000000,44.000000,50.000000,-6.000000,0.000000,-22.000000,-1.000000
1309991.589918,-4.000000,-4.000000,-4.000000,-37.000000,-27.000000,-1.000000,10.000000,-9.000000
1309991.591219,-12.000000,-12.000000,-31.000000,2.000000,-14.000000,-10.000000,-8.000000,-11.000000
1309991.591342,16.000000,3.000000,24.000000,9.000000,-3.000000,-9.000000,-12.000000,-6.000000
1309991.591725,-1.000000,-3.000000,4.000000,11.000000,-23.000000,10.000000,37.000000,-1.000000
1309991.591749,-17.000000,-11.000000,-43.000000,-38.000000,31.000000,6.000000,1.000000,5.000000
1309991.593322,5.000000,15.000000,13.000000,21.000000,-2.000000,-1.000000,1.000000,-11.000000
1309991.593350,12.000000,-23.000000,27.000000,8.000000,-6.000000,-12.000000,-12.000000,0.000000
1309991.604544,-6.000000,-28.000000,-20.000000,-14.000000,-56.000000,-10.000000,-1.000000,-10.000000
1309991.604588,-4.000000,26.000000,-8.000000,-15.000000,-29.000000,8.000000,-2.000000,-4.000000
1309991.649637,21.000000,9.000000,33.000000,29.000000,-42.000000,-7.000000,-11.000000,-6.000000
1309991.649653,-3.000000,14.000000,-19.000000,-37.000000,-9.000000,9.000000,25.000000,-4.000000
1309991.664813,-12.000000,-24.000000,-15.000000,42.000000,-11.000000,-9.000000,-13.000000,-6.000000
1309991.664822,18.000000,32.000000,15.000000,5.000000,-25.000000,-11.000000,-28.000000,2.000000
1309991.679653,-2.000000,-10.000000,9.000000,10.000000,32.000000,14.000000,-5.000000,0.000000
1309991.679682,-15.000000,-29.000000,-28.000000,-2.000000,-1.000000,9.000000,14.000000,13.000000
1309991.687080,5.000000,20.000000,-1.000000,-31.000000,-20.000000,-5.000000,-7.000000,-6.000000
1309991.687098,4.000000,8.000000,14.000000,69.000000,-10.000000,-3.000000,-9.000000,-3.000000
1309991.688141,-3.000000,-6.000000,-7.000000,-31.000000,-19.000000,-6.000000,12.000000,9.000000
1309991.688163,-1.000000,-6.000000,-20.000000,10.000000,-15.000000,2.000000,-6.000000,-6.000000
1309991.688656,13.000000,5.000000,27.000000,20.000000,28.000000,12.000000,6.000000,6.000000
1309991.688678,-8.000000,-19.000000,-3.000000,-14.000000,43.000000,-5.000000,-6.000000,-2.000000
1309991.689450,4.000000,10.000000,10.000000,18.000000,-57.000000,-9.000000,9.000000,-1.000000
1309991.689468,-17.000000,-20.000000,-34.000000,-5.000000,9.000000,-17.000000,-8.000000,-15.000000
1309991.694712,5.000000,-12.000000,7.000000,-9.000000,-7.000000,14.000000,-3.000000,6.000000
1309991.694736,12.000000,9.000000,18.000000,-1.000000,-43.000000,-16.000000,-9.000000,-2.000000
1309991.702200,-13.000000,-14.000000,-26.000000,-11.000000,20.000000,2.000000,3.000000,-10.000000
1309991.702217,0.000000,-9.000000,-17.000000,-14.000000,40.000000,12.000000,16.000000,3.000000
1309991.710132,28.000000,29.000000,33.000000,0.000000,-31.000000,17.000000,-19.000000,2.000000
1309991.710154,0.000000,-9.000000,-12.000000,2.000000,-9.000000,-11.000000,-9.000000,19.000000
1309991.725177,-18.000000,21.000000,-21.000000,13.000000,-1.000000,-6.000000,7.000000,-6.000000
1309991.725210,13.000000,-39.000000,30.000000,27.000000,16.000000,12.000000,14.000000,0.000000
1309991.739457,3.000000,6.000000,-2.000000,14.000000,22.000000,-9.000000,1.000000,3.000000
1309991.739467,-19.000000,-43.000000,-44.000000,-51.000000,23.000000,7.000000,-6.000000,-18.000000
1309991.747193,7.000000,13.000000,17.000000,11.000000,42.000000,-38.000000,-4.000000,21.000000
1309991.747214,14.000000,22.000000,29.000000,21.000000,16.000000,7.000000,10.000000,1.000000
1309991.770309,-18.000000,-15.000000,-29.000000,-20.000000,12.000000,13.000000,-29.000000,-9.000000
1309991.770340,-5.000000,10.000000,-3.000000,-7.000000,-12.000000,0.000000,1.000000,0.000000
1309991.777633,14.000000,8.000000,39.000000,21.000000,3.000000,3.000000,3.000000,-3.000000
1309991.777657,-3.000000,-5.000000,-8.000000,-20.000000,6.000000,-5.000000,-18.000000,-8.000000
1309991.785025,-9.000000,-13.000000,-42.000000,4.000000,27.000000,20.000000,45.000000,11.000000
1309991.785042,18.000000,13.000000,20.000000,0.000000,6.000000,-1.000000,-1.000000,-4.000000
1309991.785822,1.000000,3.000000,2.000000,-6.000000,-3.000000,-8.000000,0.000000,-4.000000
1309991.785839,-11.000000,5.000000,-24.000000,-21.000000,0.000000,5.000000,1.000000,-4.000000
1309991.807419,-2.000000,0.000000,23.000000,38.000000,0.000000,4.000000,-13.000000,-8.000000
1309991.807428,3.000000,-43.000000,-9.000000,-31.000000,-18.000000,20.000000,7.000000,9.000000
1309991.808254,-12.000000,-15.000000,-26.000000,-20.000000,-15.000000,-22.000000,-15.000000,-11.000000
1309991.808263,-3.000000,14.000000,2.000000,-9.000000,-6.000000,-10.000000,8.000000,-7.000000
1309991.822079,16.000000,43.000000,23.000000,33.000000,0.000000,5.000000,-12.000000,18.000000
1309991.822090,-4.000000,-37.000000,-6.000000,-2.000000,31.000000,-11.000000,-9.000000,-10.000000
1309991.822764,-15.000000,3.000000,-23.000000,5.000000,15.000000,1.000000,-3.000000,3.000000
1309991.822782,20.000000,20.000000,34.000000,19.000000,-45.000000,-13.000000,-14.000000,22.000000
1309991.830179,2.000000,5.000000,9.000000,-37.000000,-5.000000,11.000000,38.000000,4.000000
1309991.830191,-12.000000,-10.000000,-33.000000,-5.000000,22.000000,-6.000000,-11.000000,-16.000000
1309991.844711,-5.000000,0.000000,12.000000,35.000000,0.000000,-7.000000,-1.000000,2.000000
1309991.844721,6.000000,15.000000,26.000000,29.000000,2.000000,2.000000,-15.000000,-10.000000
1309991.859786,-15.000000,-19.000000,-35.000000,-58.000000,-16.000000,-3.000000,14.000000,2.000000
1309991.859797,5.000000,5.000000,0.000000,15.000000,10.000000,6.000000,-9.000000,3.000000
1309991.867175,15.000000,1.000000,38.000000,21.000000,-19.000000,14.000000,4.000000,-1.000000
1309991.867184,-9.000000,-6.000000,-7.000000,11.000000,1.000000,13.000000,-12.000000,3.000000
1309991.889593,-3.000000,6.000000,-17.000000,1.000000,-9.000000,0.000000,12.000000,5.000000
1309991.889612,16.000000,21.000000,31.000000,15.000000,9.000000,-2.000000,4.000000,9.000000
1309991.897427,0.000000,-1.000000,6.000000,-1.000000,2.000000,7.000000,-9.000000,-2.000000
1309991.897454,-19.000000,-44.000000,-39.000000,-29.000000,52.000000,22.000000,-12.000000,0.000000
1309991.928179,4.000000,-15.000000,13.000000,37.000000,9.000000,-18.000000,7.000000,8.000000
1309991.928195,5.000000,1.000000,-21.000000,-61.000000,-31.000000,2.000000,-6.000000,5.000000
1309991.928272,-12.000000,-10.000000,-19.000000,-44.000000,-5.000000,18.000000,5.000000,-2.000000
1309991.928279,4.000000,6.000000,-12.000000,6.000000,-11.000000,-1.000000,30.000000,5.000000
1309991.928922,12.000000,11.000000,43.000000,20.000000,-28.000000,-20.000000,-19.000000,11.000000
1309991.928973,-7.000000,11.000000,-9.000000,-24.000000,10.000000,11.000000,-7.000000,-9.000000
1309991.929516,-7.000000,-31.000000,-20.000000,-2.000000,-80.000000,-14.000000,-14.000000,-9.000000
1309991.929529,14.000000,20.000000,29.000000,16.000000,-5.000000,-12.000000,-1.000000,-1.000000
1309991.942075,-2.000000,-2.000000,5.000000,12.000000,-4.000000,-16.000000,-3.000000,-2.000000
1309991.942093,-17.000000,-15.000000,-41.000000,-41.000000,6.000000,27.000000,-8.000000,-8.000000
1309991.942784,7.000000,9.000000,9.000000,2.000000,-37.000000,0.000000,1.000000,12.000000
1309991.942792,5.000000,16.000000,25.000000,23.000000,-14.000000,-15.000000,-10.000000,4.000000
1309991.964950,-10.000000,-29.000000,-26.000000,-9.000000,-33.000000,21.000000,37.000000,8.000000
1309991.964976,-10.000000,7.000000,-20.000000,-28.000000,3.000000,-13.000000,16.000000,-4.000000
1309991.972130,12.000000,2.000000,43.000000,29.000000,-41.000000,-8.000000,-5.000000,8.000000
1309991.972140,-7.000000,-17.000000,-25.000000,0.000000,4.000000,19.000000,-14.000000,-2.000000
1309992.002289,-16.000000,-28.000000,-24.000000,-30.000000,-2.000000,-15.000000,-11.000000,-13.000000
1309992.002300,16.000000,28.000000,44.000000,-8.000000,-1.000000,23.000000,-12.000000,8.000000
1309992.009762,1.000000,-1.000000,-8.000000,11.000000,-11.000000,5.000000,-2.000000,2.000000
1309992.009772,-18.000000,-24.000000,-35.000000,3.000000,15.000000,8.000000,-6.000000,-15.000000
1309992.010670,3.000000,6.000000,16.000000,-10.000000,-2.000000,-3.000000,2.000000,-3.000000
1309992.010707,9.000000,39.000000,24.000000,3.000000,-12.000000,-3.000000,-7.000000,-5.000000
1309992.011487,-20.000000,-49.000000,-39.000000,4.000000,28.000000,5.000000,-3.000000,-7.000000
1309992.011496,2.000000,2.000000,-1.000000,-8.000000,28.000000,1.000000,5.000000,2.000000
1309992.024763,11.000000,18.000000,35.000000,25.000000,23.000000,4.000000,-18.000000,9.000000
1309992.024784,-10.000000,-7.000000,-10.000000,-56.000000,-5.000000,7.000000,18.000000,-8.000000
1309992.039597,-9.000000,-4.000000,-18.000000,9.000000,1.000000,-29.000000,-2.000000,2.000000
1309992.039621,17.000000,13.000000,38.000000,34.000000,34.000000,3.000000,-11.000000,-1.000000
1309992.054793,-2.000000,1.000000,-2.000000,-46.000000,-7.000000,22.000000,64.000000,15.000000
1309992.054821,-12.000000,-29.000000,-50.000000,-5.000000,-39.000000,-4.000000,-17.000000,2.000000
1309992.062400,0.000000,8.000000,-2.000000,-10.000000,-19.000000,3.000000,35.000000,-3.000000
1309992.062419,8.000000,16.000000,10.000000,-11.000000,31.000000,2.000000,0.000000,-1.000000
1309992.099746,-14.000000,-6.000000,-22.000000,19.000000,38.000000,-6.000000,-21.000000,-9.000000
1309992.099758,6.000000,4.000000,2.000000,11.000000,-8.000000,1.000000,-8.000000,6.000000
1309992.107063,2.000000,-32.000000,27.000000,38.000000,-30.000000,-2.000000,-6.000000,0.000000
1309992.107074,-9.000000,-9.000000,-7.000000,-50.000000,-8.000000,-5.000000,24.000000,9.000000
1309992.108157,-1.000000,5.000000,-27.000000,-3.000000,-11.000000,0.000000,-6.000000,-7.000000
1309992.108176,14.000000,21.000000,33.000000,40.000000,-7.000000,-19.000000,4.000000,-5.000000
1309992.109546,-5.000000,2.000000,2.000000,8.000000,-2.000000,15.000000,1.000000,2.000000
1309992.109572,-16.000000,-13.000000,-20.000000,-18.000000,11.000000,16.000000,-1.000000,1.000000
1309992.110532,-22.000000,-23.000000,-47.000000,-7.000000,-29.000000,-3.000000,-24.000000,-17.000000
1309992.110541,5.000000,31.000000,8.000000,-2.000000,-1.000000,32.000000,28.000000,21.000000
1309992.121910,15.000000,-11.000000,35.000000,7.000000,-29.000000,-22.000000,-17.000000,-11.000000
1309992.121933,-12.000000,5.000000,-27.000000,-4.000000,-10.000000,7.000000,2.000000,0.000000
1309992.122661,-2.000000,-10.000000,-12.000000,-27.000000,-1.000000,-2.000000,17.000000,-1.000000
1309992.122683,21.000000,21.000000,44.000000,46.000000,-1.000000,2.000000,16.000000,9.000000
1309992.137152,-2.000000,6.000000,7.000000,-23.000000,-46.000000,-20.000000,0.000000,-4.000000
1309992.137162,-17.000000,-47.000000,-39.000000,37.000000,-6.000000,-3.000000,-1.000000,-14.000000
1309992.144860,8.000000,1.000000,9.000000,12.000000,-3.000000,-11.000000,3.000000,14.000000
1309992.144870,4.000000,36.000000,22.000000,-17.000000,-3.000000,-11.000000,-4.000000,-9.000000
1309992.160258,-14.000000,-27.000000,-50.000000,-6.000000,-26.000000,-14.000000,-21.000000,-6.000000
1309992.160277,1.000000,17.000000,-1.000000,5.000000,-6.000000,-10.000000,4.000000,7.000000
1309992.166953,15.000000,19.000000,34.000000,-20.000000,10.000000,5.000000,3.000000,-5.000000
1309992.166969,-9.000000,-20.000000,-12.000000,-41.000000,-26.000000,2.000000,11.000000,-9.000000
1309992.174901,-6.000000,2.000000,-11.000000,14.000000,19.000000,19.000000,-12.000000,5.000000
1309992.174929,16.000000,21.000000,35.000000,21.000000,5.000000,0.000000,-4.000000,-4.000000
1309992.182435,-7.000000,13.000000,-3.000000,38.000000,16.000000,24.000000,16.000000,-7.000000
1309992.182464,-5.000000,-35.000000,-34.000000,-59.000000,6.000000,2.000000,-9.000000,13.000000
1309992.204622,1.000000,-8.000000,0.000000,37.000000,26.000000,-11.000000,-9.000000,-6.000000
1309992.204642,-3.000000,2.000000,11.000000,-24.000000,10.000000,-12.000000,-4.000000,-9.000000
1309992.212141,-11.000000,-19.000000,-22.000000,19.000000,35.000000,7.000000,-24.000000,-19.000000
1309992.212151,5.000000,34.000000,12.000000,-42.000000,2.000000,13.000000,22.000000,21.000000
1309992.227485,8.000000,-46.000000,-1.000000,-10.000000,-17.000000,-11.000000,26.000000,2.000000
1309992.227520,-22.000000,-23.000000,-14.000000,-1.000000,-2.000000,-10.000000,-7.000000,-15.000000
1309992.256974,4.000000,16.000000,-2.000000,-20.000000,8.000000,37.000000,-3.000000,-1.000000
1309992.256985,19.000000,35.000000,33.000000,-4.000000,-20.000000,-13.000000,-8.000000,-1.000000
1309992.264953,-10.000000,-23.000000,-19.000000,5.000000,42.000000,23.000000,7.000000,4.000000
1309992.264962,-13.000000,-6.000000,-48.000000,-14.000000,3.000000,-30.000000,3.000000,1.000000
1309992.265497,2.000000,15.000000,10.000000,-27.000000,18.000000,21.000000,-13.000000,-1.000000
1309992.265505,9.000000,-1.000000,29.000000,24.000000,25.000000,10.000000,26.000000,22.000000
1309992.266768,-12.000000,-8.000000,-32.000000,-20.000000,-31.000000,9.000000,31.000000,0.000000
1309992.266778,-1.000000,2.000000,-20.000000,-22.000000,-11.000000,14.000000,-15.000000,-9.000000
1309992.267677,8.000000,-6.000000,20.000000,30.000000,38.000000,-5.000000,9.000000,9.000000
1309992.267684,-12.000000,-5.000000,-16.000000,-9.000000,38.000000,1.000000,10.000000,-10.000000
1309992.287417,-7.000000,7.000000,-16.000000,-20.000000,-5.000000,46.000000,83.000000,20.000000
1309992.287570,9.000000,22.000000,36.000000,4.000000,-18.000000,5.000000,10.000000,4.000000
1309992.287798,-5.000000,-43.000000,-12.000000,3.000000,53.000000,2.000000,-4.000000,-8.000000
1309992.287806,-13.000000,-6.000000,-35.000000,-7.000000,-23.000000,-8.000000,-19.000000,-4.000000
1309992.301875,0.000000,3.000000,16.000000,-34.000000,19.000000,8.000000,33.000000,4.000000
1309992.301885,3.000000,-19.000000,5.000000,6.000000,1.000000,-1.000000,-2.000000,10.000000
1309992.302671,-15.000000,0.000000,-29.000000,9.000000,-1.000000,2.000000,-3.000000,-2.000000
1309992.302711,2.000000,10.000000,11.000000,8.000000,-9.000000,3.000000,-16.000000,-2.000000
1309992.325049,8.000000,12.000000,20.000000,-4.000000,24.000000,6.000000,-13.000000,-7.000000
1309992.325079,-19.000000,-20.000000,-25.000000,22.000000,0.000000,2.000000,-3.000000,-7.000000
1309992.332254,-1.000000,5.000000,-6.000000,-14.000000,-17.000000,11.000000,10.000000,-8.000000
1309992.332283,19.000000,16.000000,31.000000,-17.000000,7.000000,15.000000,-2.000000,30.000000
1309992.362106,-5.000000,-13.000000,-8.000000,-8.000000,-20.000000,-9.000000,31.000000,-5.000000
1309992.362130,-14.000000,-3.000000,-26.000000,5.000000,5.000000,-1.000000,-3.000000,-6.000000
1309992.377099,14.000000,3.000000,19.000000,-6.000000,15.000000,-5.000000,-13.000000,-6.000000
1309992.377123,-1.000000,28.000000,8.000000,8.000000,-56.000000,1.000000,-9.000000,2.000000
1309992.378128,-11.000000,-46.000000,-39.000000,-17.000000,-8.000000,14.000000,12.000000,8.000000
1309992.378137,-5.000000,3.000000,11.000000,27.000000,-20.000000,-12.000000,-15.000000,-18.000000
1309992.378791,14.000000,9.000000,11.000000,8.000000,5.000000,-1.000000,-1.000000,17.000000
1309992.378799,-13.000000,-24.000000,-29.000000,-31.000000,-9.000000,-5.000000,-28.000000,-3.000000
1309992.380312,1.000000,23.000000,1.000000,-11.000000,-23.000000,11.000000,30.000000,2.000000
1309992.380320,13.000000,7.000000,35.000000,25.000000,-27.000000,-11.000000,-12.000000,11.000000
1309992.384683,-7.000000,3.000000,-17.000000,-9.000000,-10.000000,-1.000000,2.000000,-14.000000
1309992.384700,-3.000000,-12.000000,-14.000000,-16.000000,-82.000000,-6.000000,-3.000000,-1.000000
1309992.400271,9.000000,6.000000,7.000000,33.000000,11.000000,-16.000000,-4.000000,0.000000
1309992.400290,0.000000,3.000000,6.000000,-17.000000,-34.000000,36.000000,-18.000000,-11.000000
1309992.406973,-19.000000,-30.000000,-32.000000,-5.000000,16.000000,-14.000000,4.000000,2.000000
1309992.406984,6.000000,0.000000,13.000000,-4.000000,8.000000,17.000000,10.000000,8.000000
1309992.415488,8.000000,-10.000000,29.000000,27.000000,16.000000,-10.000000,-8.000000,3.000000
1309992.415499,-12.000000,-3.000000,-38.000000,1.000000,-7.000000,6.000000,-19.000000,-3.000000
1309992.422547,-7.000000,1.000000,-6.000000,42.000000,19.000000,4.000000,14.000000,13.000000
1309992.422561,11.000000,9.000000,28.000000,-75.000000,7.000000,1.000000,-4.000000,-5.000000
1309992.444726,-8.000000,12.000000,-6.000000,2.000000,2.000000,1.000000,0.000000,-14.000000
1309992.444737,-2.000000,-31.000000,-20.000000,-9.000000,-30.000000,-12.000000,-18.000000,-7.000000
1309992.452592,11.000000,25.000000,17.000000,0.000000,-16.000000,7.000000,9.000000,1.000000
1309992.452616,1.000000,-11.000000,14.000000,10.000000,-6.000000,-35.000000,-7.000000,-8.000000
1309992.482386,-17.000000,-8.000000,-37.000000,17.000000,23.000000,0.000000,-1.000000,-12.000000
1309992.482484,10.000000,30.000000,17.000000,-30.000000,-22.000000,-18.000000,-31.000000,0.000000
1309992.482764,11.000000,-18.000000,32.000000,4.000000,20.000000,14.000000,-17.000000,3.000000
1309992.482780,-15.000000,3.000000,-31.000000,-1.000000,-5.000000,-1.000000,18.000000,9.000000
1309992.483676,-4.000000,-10.000000,3.000000,6.000000,-61.000000,4.000000,-2.000000,-7.000000
1309992.483685,12.000000,43.000000,31.000000,15.000000,-21.000000,-8.000000,-3.000000,1.000000
1309992.484918,-10.000000,-10.000000,-5.000000,-4.000000,3.000000,23.000000,1.000000,-6.000000
1309992.484934,-11.000000,-12.000000,-20.000000,-12.000000,-45.000000,-2.000000,-8.000000,2.000000
1309992.497820,13.000000,5.000000,19.000000,39.000000,26.000000,-1.000000,-8.000000,-1.000000
1309992.497836,-1.000000,15.000000,-17.000000,-90.000000,-16.000000,-1.000000,-4.000000,0.000000
1309992.504666,-8.000000,-19.000000,-21.000000,27.000000,-2.000000,6.000000,-1.000000,-6.000000
1309992.504687,8.000000,1.000000,5.000000,-37.000000,-7.000000,-1.000000,-14.000000,-3.000000
1309992.542209,8.000000,-4.000000,1.000000,-9.000000,-10.000000,-10.000000,8.000000,10.000000
1309992.542220,-26.000000,8.000000,-18.000000,4.000000,-5.000000,6.000000,14.000000,-7.000000
1309992.557270,1.000000,-26.000000,6.000000,-2.000000,-10.000000,-3.000000,-15.000000,-3.000000
1309992.557281,16.000000,13.000000,29.000000,3.000000,-24.000000,-24.000000,-8.000000,18.000000
1309992.579588,-7.000000,1.000000,-14.000000,9.000000,21.000000,2.000000,5.000000,-3.000000
1309992.579599,-1.000000,3.000000,-7.000000,-32.000000,58.000000,0.000000,-20.000000,-2.000000
1309992.594690,16.000000,11.000000,21.000000,68.000000,17.000000,-43.000000,-10.000000,8.000000
1309992.594713,2.000000,7.000000,8.000000,-6.000000,-10.000000,3.000000,8.000000,-1.000000
1309992.609914,-16.000000,-25.000000,-30.000000,4.000000,12.000000,-6.000000,-4.000000,-4.000000
1309992.609946,7.000000,2.000000,8.000000,-17.000000,-1.000000,1.000000,-3.000000,1.000000
1309992.617267,7.000000,0.000000,4.000000,-1.000000,-6.000000,-3.000000,-6.000000,1.000000
1309992.617384,-14.000000,-11.000000,-32.000000,20.000000,18.000000,-12.000000,20.000000,14.000000
1309992.618029,-9.000000,-11.000000,-21.000000,-12.000000,-49.000000,-14.000000,2.000000,11.000000
1309992.618037,-6.000000,-2.000000,-10.000000,6.000000,22.000000,4.000000,-4.000000,2.000000
1309992.618696,-17.000000,-30.000000,-37.000000,-39.000000,2.000000,-16.000000,-20.000000,-15.000000
1309992.618715,-4.000000,-9.000000,10.000000,15.000000,-49.000000,8.000000,28.000000,9.000000
1309992.620258,7.000000,20.000000,17.000000,-24.000000,-24.000000,-6.000000,4.000000,17.000000
1309992.620277,-9.000000,-21.000000,-39.000000,-42.000000,-19.000000,-4.000000,-21.000000,-9.000000
1309992.639732,0.000000,13.000000,1.000000,11.000000,-38.000000,1.000000,30.000000,-2.000000
1309992.639743,19.000000,19.000000,35.000000,14.000000,3.000000,4.000000,-6.000000,2.000000
1309992.655020,-1.000000,1.000000,-5.000000,-32.000000,18.000000,9.000000,35.000000,1.000000
1309992.655030,-6.000000,-16.000000,-11.000000,11.000000,10.000000,-24.000000,-10.000000,-7.000000
1309992.662325,15.000000,9.000000,23.000000,8.000000,13.000000,-2.000000,1.000000,-3.000000
1309992.662335,-5.000000,0.000000,-14.000000,-11.000000,-2.000000,7.000000,-9.000000,8.000000
1309992.685280,-13.000000,-31.000000,-24.000000,-10.000000,15.000000,10.000000,6.000000,-5.000000
1309992.685318,8.000000,25.000000,24.000000,29.000000,-6.000000,4.000000,-3.000000,-5.000000
1309992.700279,7.000000,21.000000,9.000000,-9.000000,-14.000000,14.000000,20.000000,4.000000
1309992.700395,-16.000000,-40.000000,-36.000000,-25.000000,47.000000,3.000000,-10.000000,-3.000000
1309992.722166,4.000000,16.000000,9.000000,40.000000,19.000000,9.000000,7.000000,-11.000000
1309992.722179,16.000000,41.000000,20.000000,20.000000,2.000000,-2.000000,-12.000000,18.000000
1309992.730032,-14.000000,-14.000000,1.000000,-14.000000,-10.000000,10.000000,-7.000000,1.000000
1309992.730046,-4.000000,-5.000000,-11.000000,11.000000,9.000000,-18.000000,-3.000000,-8.000000
1309992.760033,13.000000,24.000000,39.000000,39.000000,-42.000000,-13.000000,-23.000000,-8.000000
1309992.760080,-3.000000,9.000000,2.000000,-25.000000,27.000000,-2.000000,10.000000,11.000000
1309992.767019,-12.000000,-27.000000,-29.000000,8.000000,-25.000000,-3.000000,-3.000000,-8.000000
1309992.767029,5.000000,12.000000,12.000000,36.000000,-6.000000,5.000000,12.000000,-7.000000
1309992.782137,8.000000,16.000000,15.000000,-24.000000,-3.000000,-12.000000,-5.000000,-3.000000
1309992.782146,-10.000000,-5.000000,-36.000000,-31.000000,-21.000000,-37.000000,25.000000,-8.000000
1309992.797876,-4.000000,-9.000000,-2.000000,11.000000,24.000000,-23.000000,-6.000000,2.000000
1309992.797904,-5.000000,-5.000000,-9.000000,-40.000000,18.000000,9.000000,-3.000000,-8.000000
1309992.798505,13.000000,14.000000,25.000000,24.000000,-10.000000,5.000000,-5.000000,1.000000
1309992.798531,-6.000000,-9.000000,-3.000000,18.000000,14.000000,10.000000,-13.000000,0.000000
1309992.799473,-6.000000,-17.000000,-10.000000,-20.000000,-7.000000,-4.000000,-16.000000,-7.000000
1309992.799498,7.000000,2.000000,16.000000,-18.000000,43.000000,10.000000,5.000000,-3.000000
1309992.800969,22.000000,6.000000,46.000000,23.000000,-39.000000,-7.000000,3.000000,3.000000
1309992.800995,-4.000000,4.000000,-3.000000,-19.000000,-11.000000,4.000000,6.000000,-6.000000
1309992.812201,-16.000000,-22.000000,-40.000000,6.000000,9.000000,9.000000,18.000000,-8.000000
1309992.812229,-1.000000,36.000000,15.000000,4.000000,-14.000000,-7.000000,-11.000000,-6.000000
1309992.820293,8.000000,15.000000,26.000000,17.000000,4.000000,-16.000000,-7.000000,-2.000000
1309992.820311,-17.000000,-29.000000,-47.000000,-11.000000,23.000000,29.000000,17.000000,-8.000000
1309992.834638,0.000000,1.000000,-1.000000,-17.000000,-8.000000,-4.000000,-2.000000,6.000000
1309992.834658,14.000000,11.000000,32.000000,47.000000,10.000000,2.000000,-6.000000,7.000000
1309992.857877,-15.000000,-8.000000,-8.000000,9.000000,33.000000,5.000000,1.000000,7.000000
1309992.857894,3.000000,-1.000000,-13.000000,-9.000000,13.000000,-1.000000,-8.000000,-13.000000
1309992.858506,14.000000,15.000000,26.000000,23.000000,-18.000000,-4.000000,1.000000,8.000000
1309992.858516,-4.000000,-6.000000,-6.000000,-11.000000,-67.000000,-9.000000,-2.000000,2.000000
1309992.859747,-16.000000,-16.000000,-50.000000,-21.000000,30.000000,35.000000,11.000000,4.000000
1309992.859757,10.000000,-1.000000,28.000000,31.000000,12.000000,8.000000,-7.000000,0.000000
1309992.872091,2.000000,5.000000,4.000000,-10.000000,5.000000,-5.000000,-10.000000,1.000000
1309992.872106,-9.000000,-6.000000,-22.000000,11.000000,-17.000000,-3.000000,-2.000000,-10.000000
1309992.873396,2.000000,3.000000,-11.000000,29.000000,9.000000,-8.000000,-6.000000,3.000000
1309992.873415,14.000000,-29.000000,28.000000,10.000000,11.000000,17.000000,5.000000,-1.000000
1309992.917020,-14.000000,-5.000000,-16.000000,0.000000,-35.000000,-30.000000,-34.000000,-25.000000
1309992.917031,0.000000,10.000000,-18.000000,-43.000000,-3.000000,5.000000,7.000000,-1.000000
1309992.932317,17.000000,9.000000,32.000000,51.000000,8.000000,3.000000,-8.000000,18.000000
1309992.932338,-5.000000,33.000000,12.000000,-16.000000,1.000000,33.000000,-21.000000,-11.000000
1309992.939914,-9.000000,-24.000000,-26.000000,22.000000,5.000000,-28.000000,-7.000000,0.000000
1309992.939947,10.000000,-19.000000,8.000000,8.000000,-8.000000,-4.000000,-2.000000,9.000000
1309992.962472,1.000000,13.000000,11.000000,1.000000,-7.000000,-9.000000,-5.000000,-13.000000
1309992.962492,-14.000000,-23.000000,-26.000000,1.000000,58.000000,0.000000,-2.000000,1.000000
1309992.977298,2.000000,8.000000,7.000000,10.000000,-5.000000,-5.000000,-21.000000,-8.000000
1309992.977327,12.000000,21.000000,26.000000,-7.000000,-68.000000,-3.000000,-14.000000,6.000000
1309992.978168,13.000000,15.000000,31.000000,13.000000,7.000000,-4.000000,-4.000000,-8.000000
1309992.978177,-1.000000,4.000000,-4.000000,-3.000000,-3.000000,-6.000000,-4.000000,-6.000000
1309992.979865,-9.000000,27.000000,-14.000000,17.000000,-14.000000,0.000000,4.000000,3.000000
1309992.979943,11.000000,-20.000000,20.000000,-37.000000,-35.000000,-1.000000,-19.000000,-7.000000
1309992.980404,2.000000,17.000000,-3.000000,-2.000000,37.000000,10.000000,24.000000,15.000000
1309992.980434,-22.000000,-7.000000,-23.000000,18.000000,-8.000000,3.000000,3.000000,-15.000000
1309992.981053,3.000000,3.000000,7.000000,-32.000000,5.000000,13.000000,2.000000,19.000000
1309992.981063,15.000000,5.000000,-19.000000,-13.000000,-16.000000,17.000000,-13.000000,-3.000000
1309992.992341,-18.000000,-13.000000,-24.000000,0.000000,4.000000,-9.000000,25.000000,-2.000000
1309992.992362,-5.000000,-3.000000,-17.000000,-5.000000,25.000000,3.000000,-5.000000,3.000000
1309992.999679,18.000000,17.000000,41.000000,46.000000,-6.000000,-8.000000,23.000000,19.000000
1309992.999700,3.000000,0.000000,-12.000000,-11.000000,-5.000000,-8.000000,-11.000000,5.000000
1309993.007362,-17.000000,-15.000000,-37.000000,8.000000,-6.000000,3.000000,-1.000000,5.000000
1309993.007381,8.000000,7.000000,18.000000,30.000000,15.000000,-15.000000,-12.000000,0.000000
1309993.037216,1.000000,1.000000,16.000000,5.000000,-14.000000,-4.000000,-9.000000,-9.000000
1309993.037228,-13.000000,-12.000000,-56.000000,-23.000000,-14.000000,-12.000000,-13.000000,-3.000000
1309993.052548,1.000000,2.000000,5.000000,5.000000,37.000000,-6.000000,6.000000,-3.000000
1309993.052604,6.000000,6.000000,28.000000,31.000000,13.000000,21.000000,-14.000000,-4.000000
1309993.074443,-14.000000,-5.000000,-20.000000,-15.000000,-15.000000,29.000000,24.000000,-5.000000
1309993.074453,-3.000000,-16.000000,4.000000,-12.000000,2.000000,-55.000000,-2.000000,1.000000
1309993.074835,9.000000,-4.000000,24.000000,29.000000,8.000000,13.000000,-6.000000,14.000000
1309993.074844,-5.000000,11.000000,-7.000000,-9.000000,6.000000,8.000000,-3.000000,-2.000000
1309993.076093,-7.000000,-10.000000,-15.000000,38.000000,-19.000000,-8.000000,-13.000000,-6.000000
1309993.076101,13.000000,16.000000,19.000000,-12.000000,15.000000,8.000000,6.000000,0.000000
1309993.076719,-6.000000,-6.000000,7.000000,23.000000,15.000000,19.000000,5.000000,-1.000000
1309993.076727,-24.000000,-18.000000,-31.000000,-12.000000,12.000000,-11.000000,-12.000000,-13.000000
1309993.078347,6.000000,-10.000000,5.000000,-4.000000,-6.000000,-3.000000,-11.000000,1.000000
1309993.078357,16.000000,21.000000,21.000000,19.000000,-35.000000,-3.000000,9.000000,-12.000000
1309993.097598,-14.000000,5.000000,-21.000000,3.000000,-12.000000,-4.000000,44.000000,9.000000
1309993.097649,-13.000000,-13.000000,-22.000000,-26.000000,5.000000,0.000000,-2.000000,1.000000
1309993.098611,2.000000,4.000000,42.000000,8.000000,-5.000000,3.000000,0.000000,9.000000
1309993.098650,-6.000000,-15.000000,-28.000000,-28.000000,-6.000000,4.000000,3.000000,-11.000000
1309993.112071,-7.000000,19.000000,-23.000000,-12.000000,-9.000000,-3.000000,-6.000000,3.000000
1309993.112088,4.000000,-14.000000,27.000000,3.000000,0.000000,30.000000,5.000000,-1.000000
1309993.119391,-7.000000,-19.000000,7.000000,49.000000,18.000000,-60.000000,4.000000,-2.000000
1309993.119404,-18.000000,-14.000000,-37.000000,-33.000000,-43.000000,19.000000,-8.000000,-10.000000
1309993.134730,3.000000,25.000000,13.000000,29.000000,14.000000,4.000000,-11.000000,-2.000000
1309993.134740,10.000000,40.000000,18.000000,-46.000000,-5.000000,46.000000,1.000000,7.000000
1309993.157136,-13.000000,-43.000000,-32.000000,40.000000,30.000000,-4.000000,-19.000000,-11.000000
1309993.157161,-7.000000,-6.000000,-5.000000,12.000000,-19.000000,7.000000,12.000000,0.000000
1309993.172463,15.000000,39.000000,40.000000,32.000000,-9.000000,4.000000,-17.000000,8.000000
1309993.172475,-3.000000,-15.000000,2.000000,0.000000,0.000000,-1.000000,-10.000000,3.000000
1309993.194991,-7.000000,-13.000000,-18.000000,5.000000,3.000000,16.000000,-17.000000,-14.000000
1309993.195000,11.000000,4.000000,20.000000,26.000000,14.000000,-7.000000,-4.000000,7.000000
1309993.195584,4.000000,19.000000,-4.000000,-12.000000,11.000000,-10.000000,8.000000,-6.000000
1309993.195601,-13.000000,-11.000000,-19.000000,-7.000000,-25.000000,-13.000000,-8.000000,-7.000000
1309993.196815,6.000000,-37.000000,-4.000000,7.000000,-43.000000,18.000000,-15.000000,-6.000000
1309993.196823,4.000000,6.000000,15.000000,-15.000000,38.000000,7.000000,5.000000,0.000000
1309993.197584,-11.000000,-1.000000,-21.000000,-44.000000,17.000000,-11.000000,-12.000000,-13.000000
1309993.197592,-2.000000,5.000000,-2.000000,30.000000,16.000000,8.000000,-4.000000,1.000000
1309993.209430,-8.000000,-24.000000,-22.000000,-20.000000,10.000000,19.000000,-1.000000,2.000000
1309993.209440,11.000000,23.000000,32.000000,16.000000,-17.000000,-3.000000,-12.000000,3.000000
1309993.217153,-9.000000,-3.000000,-6.000000,-18.000000,24.000000,-16.000000,-14.000000,-11.000000
1309993.217164,-7.000000,-11.000000,-25.000000,-10.000000,-21.000000,-44.000000,-5.000000,-16.000000
1309993.232454,4.000000,3.000000,9.000000,23.000000,25.000000,9.000000,-8.000000,10.000000
1309993.232469,6.000000,11.000000,27.000000,-3.000000,11.000000,12.000000,-1.000000,-13.000000
1309993.247407,-7.000000,6.000000,-37.000000,7.000000,-3.000000,12.000000,-7.000000,4.000000
1309993.247420,1.000000,-8.000000,0.000000,-17.000000,-1.000000,-12.000000,-14.000000,7.000000
1309993.254800,11.000000,-13.000000,32.000000,26.000000,20.000000,31.000000,20.000000,4.000000
1309993.254814,-8.000000,-38.000000,-24.000000,6.000000,23.000000,9.000000,-17.000000,-7.000000
1309993.277189,-9.000000,-1.000000,-19.000000,-1.000000,17.000000,2.000000,-18.000000,3.000000
1309993.277213,13.000000,23.000000,33.000000,-8.000000,-1.000000,-10.000000,21.000000,-5.000000
1309993.284803,7.000000,15.000000,7.000000,40.000000,-7.000000,5.000000,-10.000000,7.000000
1309993.284813,-20.000000,4.000000,-36.000000,-29.000000,15.000000,-8.000000,-11.000000,-11.000000
1309993.292839,0.000000,-14.000000,8.000000,24.000000,16.000000,-24.000000,28.000000,2.000000
1309993.292854,8.000000,-9.000000,-8.000000,-24.000000,-34.000000,5.000000,-12.000000,-1.000000
1309993.293498,-15.000000,-8.000000,-21.000000,-15.000000,-6.000000,7.000000,14.000000,-7.000000
1309993.293508,1.000000,9.000000,-1.000000,-21.000000,-58.000000,-12.000000,-9.000000,5.000000
1309993.330089,14.000000,17.000000,32.000000,44.000000,4.000000,12.000000,17.000000,1.000000
1309993.330118,-4.000000,-6.000000,-12.000000,-14.000000,-9.000000,-7.000000,-7.000000,-9.000000
1309993.337408,-6.000000,0.000000,-19.000000,-14.000000,2.000000,1.000000,-11.000000,0.000000
1309993.337418,14.000000,6.000000,36.000000,44.000000,2.000000,-1.000000,7.000000,4.000000
1309993.367031,-6.000000,-8.000000,6.000000,-26.000000,-18.000000,-12.000000,-13.000000,-7.000000
1309993.367041,-13.000000,-9.000000,-45.000000,-7.000000,36.000000,19.000000,-6.000000,-6.000000
1309993.374799,2.000000,-13.000000,0.000000,-7.000000,-9.000000,-13.000000,-8.000000,0.000000
1309993.374812,3.000000,35.000000,24.000000,33.000000,-44.000000,-28.000000,-22.000000,-6.000000
1309993.404888,-16.000000,-31.000000,-42.000000,-29.000000,-5.000000,12.000000,9.000000,4.000000
1309993.404902,-6.000000,6.000000,0.000000,35.000000,16.000000,10.000000,-15.000000,-18.000000
1309993.412108,18.000000,4.000000,34.000000,15.000000,18.000000,-6.000000,-22.000000,4.000000
1309993.412125,-12.000000,-4.000000,-10.000000,11.000000,0.000000,32.000000,-5.000000,-9.000000
1309993.434682,3.000000,4.000000,1.000000,-4.000000,-14.000000,-26.000000,-1.000000,4.000000
1309993.434694,3.000000,5.000000,27.000000,26.000000,8.000000,11.000000,10.000000,-9.000000
1309993.434997,-14.000000,-6.000000,-50.000000,-25.000000,5.000000,-22.000000,-7.000000,6.000000
1309993.435007,-6.000000,-12.000000,-12.000000,-20.000000,10.000000,-5.000000,21.000000,-2.000000
1309993.437015,-4.000000,-4.000000,5.000000,-12.000000,-3.000000,7.000000,1.000000,-9.000000
1309993.437026,-13.000000,-11.000000,-13.000000,31.000000,-39.000000,-30.000000,-6.000000,-3.000000
1309993.437884,5.000000,8.000000,8.000000,24.000000,-1.000000,7.000000,4.000000,-1.000000
1309993.437894,2.000000,11.000000,15.000000,-10.000000,3.000000,9.000000,-6.000000,-10.000000
1309993.449481,20.000000,10.000000,21.000000,0.000000,-59.000000,-5.000000,-11.000000,5.000000
1309993.449491,1.000000,10.000000,-9.000000,2.000000,-33.000000,-22.000000,17.000000,5.000000
1309993.472550,-6.000000,-12.000000,-31.000000,-22.000000,-3.000000,-33.000000,-26.000000,-7.000000
1309993.472566,12.000000,0.000000,21.000000,10.000000,9.000000,15.000000,44.000000,6.000000
1309993.473259,-7.000000,6.000000,1.000000,31.000000,7.000000,-3.000000,-14.000000,-1.000000
1309993.473275,-12.000000,-15.000000,-40.000000,-51.000000,13.000000,14.000000,-6.000000,4.000000
1309993.487371,12.000000,14.000000,20.000000,-14.000000,-40.000000,10.000000,-8.000000,-5.000000
1309993.487403,-2.000000,0.000000,18.000000,28.000000,-17.000000,10.000000,-12.000000,-8.000000
1309993.494533,-9.000000,1.000000,-29.000000,-18.000000,-40.000000,5.000000,0.000000,-6.000000
1309993.494543,1.000000,-21.000000,-2.000000,21.000000,3.000000,3.000000,-9.000000,6.000000
1309993.509487,4.000000,7.000000,15.000000,9.000000,34.000000,39.000000,22.000000,2.000000
1309993.509497,-4.000000,-2.000000,-20.000000,-23.000000,-4.000000,-5.000000,-8.000000,-6.000000
1309993.532448,2.000000,2.000000,0.000000,15.000000,-34.000000,0.000000,13.000000,-3.000000
1309993.532459,7.000000,22.000000,36.000000,7.000000,-17.000000,-6.000000,-1.000000,6.000000
1309993.533323,1.000000,-4.000000,-7.000000,3.000000,-56.000000,-26.000000,-6.000000,-3.000000
1309993.533342,-10.000000,-17.000000,-29.000000,-15.000000,-4.000000,3.000000,2.000000,1.000000
1309993.534022,8.000000,-22.000000,5.000000,-17.000000,54.000000,-8.000000,-17.000000,-2.000000
1309993.534044,-1.000000,18.000000,12.000000,16.000000,32.000000,11.000000,-8.000000,-3.000000
1309993.546977,-21.000000,-12.000000,-31.000000,4.000000,-39.000000,-1.000000,-5.000000,-4.000000
1309993.546992,-3.000000,-5.000000,9.000000,21.000000,16.000000,-5.000000,-4.000000,-7.000000
1309993.548358,6.000000,2.000000,32.000000,-43.000000,12.000000,-14.000000,3.000000,10.000000
1309993.548374,-4.000000,2.000000,-17.000000,10.000000,-23.000000,-16.000000,-32.000000,-7.000000
1309993.554434,-3.000000,-1.000000,-10.000000,-24.000000,13.000000,6.000000,2.000000,-10.000000
1309993.554444,21.000000,18.000000,35.000000,27.000000,3.000000,-13.000000,-9.000000,9.000000
1309993.570564,-2.000000,4.000000,-6.000000,-16.000000,-27.000000,10.000000,-1.000000,0.000000
1309993.570572,-10.000000,-17.000000,-24.000000,5.000000,28.000000,-1.000000,-1.000000,9.000000
1309993.592231,3.000000,8.000000,17.000000,16.000000,10.000000,-4.000000,-34.000000,-13.000000
