# participant_id: P11
# gesture: soft
# trial_number: 1
# stream_name: Myo_EMG
# stream_type: emg
# timestamp: 20260420_171001
# samples: 5412
# duration_sec: 30.960
# nominal_sample_rate: 200.0
# effective_sample_rate: 174.77
#
timestamp,emg_1,emg_2,emg_3,emg_4,emg_5,emg_6,emg_7,emg_8
1309693.254273,7.000000,-5.000000,-17.000000,-15.000000,-12.000000,-5.000000,-5.000000,4.000000
1309693.254302,-4.000000,46.000000,1.000000,5.000000,-10.000000,-14.000000,1.000000,-14.000000
1309693.255276,85.000000,-13.000000,14.000000,-18.000000,21.000000,7.000000,21.000000,4.000000
1309693.255287,-99.000000,-40.000000,-29.000000,-31.000000,-19.000000,-4.000000,-34.000000,-4.000000
1309693.256561,12.000000,19.000000,3.000000,-18.000000,5.000000,-1.000000,9.000000,4.000000
1309693.256622,1.000000,-16.000000,-44.000000,-12.000000,-18.000000,-5.000000,0.000000,-1.000000
1309693.257290,10.000000,8.000000,11.000000,-38.000000,-19.000000,-1.000000,20.000000,-1.000000
1309693.257318,-53.000000,23.000000,29.000000,76.000000,22.000000,-17.000000,-52.000000,-3.000000
1309693.292341,101.000000,30.000000,-22.000000,-19.000000,-6.000000,7.000000,35.000000,6.000000
1309693.292369,-35.000000,1.000000,-20.000000,-58.000000,-12.000000,5.000000,11.000000,-3.000000
1309693.299254,-48.000000,-20.000000,33.000000,126.000000,10.000000,11.000000,1.000000,-3.000000
1309693.299265,-27.000000,-23.000000,-5.000000,-20.000000,4.000000,-2.000000,-44.000000,-10.000000
1309693.337061,20.000000,3.000000,18.000000,-44.000000,-23.000000,4.000000,31.000000,12.000000
1309693.337088,-29.000000,1.000000,-31.000000,-28.000000,-4.000000,-1.000000,14.000000,24.000000
1309693.337565,77.000000,-14.000000,-1.000000,11.000000,24.000000,-5.000000,-18.000000,-2.000000
1309693.337592,-42.000000,12.000000,13.000000,6.000000,6.000000,3.000000,-10.000000,-14.000000
1309693.338359,0.000000,38.000000,-23.000000,-25.000000,-17.000000,-5.000000,-2.000000,3.000000
1309693.338384,-13.000000,7.000000,44.000000,98.000000,20.000000,16.000000,7.000000,5.000000
1309693.339060,6.000000,41.000000,4.000000,-14.000000,-10.000000,-5.000000,-1.000000,-2.000000
1309693.339068,39.000000,5.000000,-10.000000,6.000000,-2.000000,-3.000000,16.000000,10.000000
1309693.339768,-11.000000,-6.000000,-7.000000,-24.000000,7.000000,11.000000,-10.000000,-3.000000
1309693.339793,-43.000000,25.000000,6.000000,25.000000,-13.000000,0.000000,11.000000,-8.000000
1309693.340555,-28.000000,54.000000,21.000000,-56.000000,8.000000,-8.000000,-36.000000,-5.000000
1309693.340561,63.000000,1.000000,-34.000000,1.000000,-5.000000,-6.000000,4.000000,6.000000
1309693.351957,2.000000,39.000000,2.000000,-59.000000,-9.000000,0.000000,-13.000000,0.000000
1309693.352016,13.000000,24.000000,6.000000,18.000000,30.000000,12.000000,4.000000,7.000000
1309693.359309,-26.000000,-52.000000,-27.000000,-4.000000,11.000000,2.000000,20.000000,-2.000000
1309693.359332,-50.000000,39.000000,0.000000,-9.000000,1.000000,-2.000000,3.000000,-11.000000
1309693.366584,18.000000,-22.000000,-11.000000,-2.000000,-11.000000,-2.000000,-14.000000,-8.000000
1309693.366593,-2.000000,8.000000,-6.000000,-18.000000,-4.000000,-5.000000,15.000000,3.000000
1309693.397141,29.000000,3.000000,3.000000,-15.000000,18.000000,14.000000,18.000000,6.000000
1309693.397155,-32.000000,5.000000,-1.000000,-29.000000,-24.000000,-11.000000,-15.000000,-4.000000
1309693.411694,2.000000,-30.000000,-12.000000,-7.000000,6.000000,-5.000000,-19.000000,-4.000000
1309693.411704,22.000000,4.000000,0.000000,15.000000,9.000000,2.000000,2.000000,11.000000
1309693.434458,-10.000000,7.000000,19.000000,-5.000000,-18.000000,3.000000,-1.000000,-4.000000
1309693.434489,-39.000000,-4.000000,31.000000,-1.000000,12.000000,13.000000,23.000000,1.000000
1309693.456926,18.000000,-6.000000,-5.000000,-12.000000,-9.000000,-9.000000,-10.000000,-3.000000
1309693.457035,-13.000000,119.000000,-3.000000,4.000000,-15.000000,6.000000,4.000000,-1.000000
1309693.457712,-49.000000,-74.000000,-37.000000,-54.000000,-20.000000,-11.000000,25.000000,-3.000000
1309693.457722,-2.000000,-43.000000,-8.000000,-5.000000,-4.000000,0.000000,16.000000,9.000000
1309693.458267,12.000000,57.000000,-7.000000,-53.000000,-8.000000,-7.000000,-15.000000,-5.000000
1309693.458275,-51.000000,-12.000000,8.000000,95.000000,6.000000,4.000000,14.000000,-6.000000
1309693.459778,54.000000,3.000000,0.000000,-8.000000,-11.000000,-2.000000,-36.000000,-7.000000
1309693.459786,-5.000000,27.000000,15.000000,-9.000000,13.000000,-1.000000,55.000000,4.000000
1309693.460480,-32.000000,9.000000,-6.000000,-7.000000,-8.000000,-10.000000,-72.000000,-14.000000
1309693.460489,45.000000,1.000000,7.000000,-11.000000,3.000000,7.000000,16.000000,2.000000
1309693.471780,-14.000000,-16.000000,27.000000,-3.000000,-7.000000,2.000000,8.000000,3.000000
1309693.471792,16.000000,9.000000,-12.000000,17.000000,41.000000,8.000000,1.000000,6.000000
1309693.494011,28.000000,-25.000000,-17.000000,27.000000,0.000000,-5.000000,0.000000,-3.000000
1309693.494026,41.000000,41.000000,13.000000,-28.000000,-5.000000,-1.000000,14.000000,10.000000
1309693.494444,8.000000,-46.000000,-35.000000,-25.000000,-3.000000,-3.000000,-19.000000,-6.000000
1309693.494452,1.000000,-2.000000,18.000000,49.000000,3.000000,5.000000,-3.000000,-7.000000
1309693.509074,-44.000000,-7.000000,-11.000000,-5.000000,-20.000000,-2.000000,16.000000,-7.000000
1309693.509084,-4.000000,-20.000000,-38.000000,-4.000000,-3.000000,-4.000000,-36.000000,-10.000000
1309693.516899,58.000000,21.000000,36.000000,-17.000000,-1.000000,0.000000,38.000000,6.000000
1309693.516930,-26.000000,17.000000,-6.000000,-1.000000,-6.000000,-1.000000,-36.000000,3.000000
1309693.554203,-1.000000,-32.000000,-15.000000,5.000000,3.000000,-11.000000,-39.000000,-1.000000
1309693.554222,11.000000,-12.000000,-10.000000,-5.000000,11.000000,2.000000,24.000000,-7.000000
1309693.569222,-12.000000,33.000000,0.000000,-4.000000,-4.000000,4.000000,1.000000,0.000000
1309693.569246,-50.000000,-17.000000,6.000000,39.000000,3.000000,2.000000,0.000000,-3.000000
1309693.591995,-19.000000,7.000000,-45.000000,-15.000000,-14.000000,-2.000000,3.000000,1.000000
1309693.592008,13.000000,48.000000,25.000000,-4.000000,2.000000,-14.000000,-19.000000,4.000000
1309693.606548,12.000000,19.000000,10.000000,-17.000000,0.000000,6.000000,12.000000,-3.000000
1309693.606559,46.000000,-14.000000,5.000000,-28.000000,2.000000,1.000000,-10.000000,-2.000000
1309693.614744,-19.000000,-14.000000,-2.000000,12.000000,-8.000000,-1.000000,10.000000,-8.000000
1309693.614767,23.000000,34.000000,16.000000,-22.000000,0.000000,2.000000,15.000000,3.000000
1309693.615550,-128.000000,-45.000000,-13.000000,4.000000,23.000000,-10.000000,17.000000,-11.000000
1309693.615567,53.000000,-3.000000,28.000000,-3.000000,3.000000,-14.000000,-50.000000,3.000000
1309693.615961,-5.000000,-56.000000,-78.000000,-41.000000,-7.000000,2.000000,30.000000,6.000000
1309693.615974,22.000000,24.000000,26.000000,65.000000,18.000000,9.000000,-26.000000,3.000000
1309693.617295,-33.000000,-46.000000,-6.000000,2.000000,-6.000000,-9.000000,10.000000,-8.000000
1309693.617320,19.000000,15.000000,-17.000000,-24.000000,-25.000000,-4.000000,3.000000,10.000000
1309693.621573,-16.000000,-60.000000,11.000000,-3.000000,-6.000000,11.000000,0.000000,-6.000000
1309693.621601,12.000000,57.000000,-6.000000,-6.000000,-10.000000,-3.000000,-4.000000,-4.000000
1309693.629438,-57.000000,-47.000000,5.000000,9.000000,-5.000000,2.000000,1.000000,2.000000
1309693.629466,19.000000,-30.000000,9.000000,2.000000,-4.000000,5.000000,-11.000000,12.000000
1309693.651864,-7.000000,-40.000000,-11.000000,10.000000,-5.000000,9.000000,27.000000,-8.000000
1309693.651912,80.000000,16.000000,33.000000,-4.000000,0.000000,-20.000000,-39.000000,4.000000
1309693.674347,-5.000000,9.000000,-7.000000,-9.000000,-5.000000,-12.000000,3.000000,2.000000
1309693.674357,33.000000,-22.000000,-11.000000,-50.000000,-4.000000,10.000000,29.000000,-1.000000
1309693.689590,-66.000000,-9.000000,10.000000,3.000000,0.000000,7.000000,-2.000000,-8.000000
1309693.689605,10.000000,79.000000,-3.000000,-28.000000,1.000000,-16.000000,2.000000,1.000000
1309693.690142,-23.000000,-35.000000,-23.000000,-10.000000,-13.000000,4.000000,5.000000,-1.000000
1309693.690150,4.000000,18.000000,4.000000,-11.000000,21.000000,4.000000,3.000000,-5.000000
1309693.691421,-4.000000,-1.000000,7.000000,5.000000,11.000000,2.000000,13.000000,-1.000000
1309693.691432,-11.000000,32.000000,19.000000,-12.000000,1.000000,-17.000000,-26.000000,2.000000
1309693.692391,11.000000,-23.000000,10.000000,22.000000,0.000000,-2.000000,1.000000,-3.000000
1309693.692400,5.000000,-10.000000,-27.000000,-45.000000,-18.000000,-5.000000,4.000000,-1.000000
1309693.697216,-12.000000,8.000000,40.000000,-12.000000,3.000000,4.000000,2.000000,7.000000
1309693.697225,62.000000,-24.000000,8.000000,-1.000000,22.000000,4.000000,14.000000,-4.000000
1309693.711943,-42.000000,117.000000,-9.000000,-7.000000,-8.000000,-5.000000,-12.000000,-10.000000
1309693.711977,5.000000,-42.000000,-33.000000,-15.000000,-18.000000,-8.000000,18.000000,4.000000
1309693.734604,34.000000,-15.000000,13.000000,5.000000,12.000000,-9.000000,1.000000,10.000000
1309693.734701,-37.000000,70.000000,10.000000,12.000000,19.000000,3.000000,-17.000000,2.000000
1309693.734851,18.000000,-12.000000,4.000000,-23.000000,-8.000000,1.000000,4.000000,8.000000
1309693.734859,-50.000000,-9.000000,-16.000000,5.000000,9.000000,-4.000000,10.000000,-3.000000
1309693.741643,-5.000000,-21.000000,11.000000,1.000000,15.000000,-9.000000,-35.000000,-4.000000
1309693.741672,56.000000,13.000000,9.000000,-10.000000,-22.000000,2.000000,10.000000,3.000000
1309693.749191,-39.000000,5.000000,-6.000000,-8.000000,-1.000000,5.000000,13.000000,-21.000000
1309693.749215,-22.000000,-26.000000,-14.000000,-37.000000,-15.000000,-3.000000,-3.000000,-2.000000
1309693.772217,23.000000,26.000000,71.000000,127.000000,48.000000,4.000000,-3.000000,-3.000000
1309693.772227,16.000000,12.000000,-11.000000,-3.000000,15.000000,-1.000000,5.000000,4.000000
1309693.772983,0.000000,5.000000,-4.000000,-20.000000,-8.000000,0.000000,6.000000,3.000000
1309693.772991,17.000000,-25.000000,-8.000000,4.000000,-4.000000,1.000000,-13.000000,-3.000000
1309693.794067,4.000000,-20.000000,-4.000000,-79.000000,-5.000000,2.000000,10.000000,-5.000000
1309693.794094,-16.000000,-75.000000,-5.000000,19.000000,13.000000,-9.000000,-25.000000,-3.000000
1309693.809169,5.000000,0.000000,-9.000000,-18.000000,-4.000000,11.000000,37.000000,12.000000
1309693.809179,12.000000,-9.000000,24.000000,21.000000,14.000000,7.000000,-15.000000,-6.000000
1309693.846823,-25.000000,45.000000,16.000000,12.000000,5.000000,-9.000000,-27.000000,-16.000000
1309693.846848,72.000000,-13.000000,-5.000000,-20.000000,16.000000,5.000000,17.000000,6.000000
1309693.854031,66.000000,-26.000000,18.000000,16.000000,-20.000000,-2.000000,31.000000,8.000000
1309693.854042,-128.000000,23.000000,13.000000,-51.000000,-7.000000,-4.000000,-2.000000,-3.000000
1309693.855075,39.000000,-11.000000,-3.000000,28.000000,-3.000000,-2.000000,-12.000000,3.000000
1309693.855096,-4.000000,-1.000000,-14.000000,-9.000000,2.000000,0.000000,12.000000,2.000000
1309693.855666,-9.000000,46.000000,12.000000,23.000000,16.000000,3.000000,3.000000,-3.000000
1309693.855689,-28.000000,65.000000,-13.000000,23.000000,2.000000,6.000000,4.000000,-1.000000
1309693.857271,-44.000000,32.000000,34.000000,-41.000000,-6.000000,-15.000000,8.000000,4.000000
1309693.857293,19.000000,-9.000000,-99.000000,-39.000000,-24.000000,-2.000000,4.000000,-16.000000
1309693.861446,4.000000,-8.000000,30.000000,49.000000,-6.000000,5.000000,31.000000,5.000000
1309693.861454,4.000000,25.000000,11.000000,9.000000,3.000000,3.000000,-20.000000,3.000000
1309693.869391,-20.000000,-21.000000,-16.000000,-18.000000,-7.000000,-1.000000,-18.000000,-8.000000
1309693.869401,22.000000,-13.000000,-3.000000,20.000000,-3.000000,-2.000000,11.000000,2.000000
1309693.906692,-37.000000,10.000000,3.000000,-14.000000,-13.000000,2.000000,2.000000,-1.000000
1309693.906702,-1.000000,-9.000000,3.000000,14.000000,14.000000,8.000000,-2.000000,-3.000000
1309693.913967,-5.000000,11.000000,11.000000,-44.000000,-1.000000,6.000000,18.000000,-3.000000
1309693.913998,37.000000,20.000000,-9.000000,5.000000,-8.000000,-2.000000,-15.000000,-2.000000
1309693.915362,13.000000,-53.000000,-12.000000,-13.000000,-16.000000,-16.000000,19.000000,5.000000
1309693.915459,-27.000000,-6.000000,-27.000000,-16.000000,20.000000,2.000000,-29.000000,-12.000000
1309693.915966,12.000000,3.000000,-32.000000,-41.000000,-17.000000,1.000000,2.000000,0.000000
1309693.915993,-16.000000,10.000000,24.000000,-53.000000,7.000000,5.000000,7.000000,2.000000
1309693.922451,23.000000,-39.000000,-17.000000,-9.000000,1.000000,-3.000000,-3.000000,-5.000000
1309693.922471,-27.000000,17.000000,-15.000000,-34.000000,-2.000000,-8.000000,1.000000,-5.000000
1309693.929380,-15.000000,8.000000,35.000000,21.000000,8.000000,7.000000,5.000000,-6.000000
1309693.929398,28.000000,-38.000000,-15.000000,28.000000,-1.000000,-11.000000,-8.000000,13.000000
1309693.951864,4.000000,-23.000000,-18.000000,-7.000000,-10.000000,-15.000000,-32.000000,-3.000000
1309693.951893,54.000000,14.000000,14.000000,8.000000,-13.000000,3.000000,3.000000,2.000000
1309693.952248,-14.000000,-7.000000,-5.000000,-4.000000,5.000000,4.000000,1.000000,-5.000000
1309693.952255,14.000000,-39.000000,-12.000000,-89.000000,-19.000000,-3.000000,0.000000,-4.000000
1309693.966921,-13.000000,-5.000000,15.000000,38.000000,30.000000,12.000000,2.000000,-6.000000
1309693.966967,-20.000000,33.000000,-24.000000,-28.000000,-14.000000,1.000000,-14.000000,1.000000
1309693.967571,14.000000,65.000000,15.000000,33.000000,-11.000000,-5.000000,45.000000,-1.000000
1309693.967584,10.000000,-20.000000,8.000000,-19.000000,-3.000000,-7.000000,-13.000000,-3.000000
1309693.989362,1.000000,20.000000,20.000000,-11.000000,-17.000000,-4.000000,21.000000,1.000000
1309693.989381,10.000000,-15.000000,-10.000000,4.000000,-5.000000,0.000000,-17.000000,-5.000000
1309694.011879,11.000000,4.000000,4.000000,-22.000000,-3.000000,7.000000,21.000000,-4.000000
1309694.011890,-10.000000,1.000000,-10.000000,-22.000000,-4.000000,-3.000000,7.000000,3.000000
1309694.049386,-18.000000,-21.000000,10.000000,15.000000,11.000000,1.000000,-35.000000,-4.000000
1309694.049398,22.000000,-30.000000,-24.000000,-11.000000,-16.000000,-5.000000,-1.000000,6.000000
1309694.049878,-6.000000,-21.000000,6.000000,35.000000,11.000000,5.000000,18.000000,2.000000
1309694.049885,55.000000,-20.000000,-6.000000,-55.000000,-31.000000,-8.000000,-14.000000,8.000000
1309694.050777,41.000000,32.000000,22.000000,6.000000,11.000000,9.000000,-6.000000,1.000000
1309694.050785,45.000000,-11.000000,-8.000000,45.000000,16.000000,1.000000,-13.000000,-3.000000
1309694.051774,-45.000000,57.000000,-1.000000,94.000000,-17.000000,-3.000000,13.000000,-2.000000
1309694.051784,-49.000000,-25.000000,57.000000,4.000000,-14.000000,7.000000,17.000000,-1.000000
1309694.053375,-40.000000,20.000000,-33.000000,-22.000000,-9.000000,4.000000,-4.000000,-5.000000
1309694.053386,20.000000,-1.000000,5.000000,-35.000000,-9.000000,-1.000000,-18.000000,0.000000
1309694.065075,-2.000000,7.000000,-5.000000,6.000000,5.000000,0.000000,21.000000,-12.000000
1309694.065088,-11.000000,-8.000000,23.000000,48.000000,-2.000000,1.000000,19.000000,3.000000
1309694.071646,-15.000000,37.000000,7.000000,77.000000,-3.000000,-6.000000,-35.000000,-6.000000
1309694.071674,3.000000,-25.000000,-41.000000,-26.000000,-14.000000,-2.000000,12.000000,0.000000
1309694.086674,31.000000,10.000000,11.000000,-20.000000,-2.000000,5.000000,4.000000,-2.000000
1309694.086684,-33.000000,-9.000000,7.000000,20.000000,-4.000000,-4.000000,-7.000000,-7.000000
1309694.094278,13.000000,-5.000000,-21.000000,-11.000000,18.000000,-4.000000,13.000000,3.000000
1309694.094289,-11.000000,-23.000000,-1.000000,41.000000,-7.000000,-3.000000,3.000000,7.000000
1309694.124125,9.000000,-12.000000,13.000000,-16.000000,-7.000000,3.000000,-2.000000,4.000000
1309694.124143,-38.000000,-35.000000,-31.000000,-16.000000,-17.000000,0.000000,5.000000,-10.000000
1309694.131958,-4.000000,33.000000,28.000000,-51.000000,-10.000000,-12.000000,-22.000000,-2.000000
1309694.131989,-18.000000,20.000000,38.000000,127.000000,26.000000,6.000000,-5.000000,-21.000000
1309694.169277,-20.000000,5.000000,1.000000,-21.000000,-12.000000,0.000000,10.000000,1.000000
1309694.169288,4.000000,4.000000,-3.000000,-9.000000,-9.000000,1.000000,0.000000,1.000000
1309694.184403,3.000000,-21.000000,9.000000,-8.000000,-4.000000,-6.000000,19.000000,-6.000000
1309694.184413,-31.000000,17.000000,-10.000000,-9.000000,-11.000000,-12.000000,-32.000000,-4.000000
1309694.192257,17.000000,37.000000,-7.000000,-4.000000,1.000000,6.000000,48.000000,4.000000
1309694.192266,16.000000,14.000000,10.000000,-1.000000,16.000000,-7.000000,-55.000000,-3.000000
1309694.192806,34.000000,24.000000,-23.000000,-5.000000,-8.000000,2.000000,8.000000,3.000000
1309694.192817,-19.000000,-34.000000,-42.000000,-5.000000,-16.000000,-3.000000,1.000000,-13.000000
1309694.193924,2.000000,-3.000000,15.000000,-37.000000,-26.000000,-9.000000,-3.000000,-2.000000
1309694.193931,-13.000000,36.000000,26.000000,68.000000,29.000000,6.000000,22.000000,2.000000
1309694.194913,-26.000000,13.000000,15.000000,30.000000,-21.000000,-12.000000,7.000000,-9.000000
1309694.194921,20.000000,-16.000000,16.000000,-7.000000,15.000000,-5.000000,-16.000000,4.000000
1309694.199083,-7.000000,-37.000000,-13.000000,-5.000000,0.000000,1.000000,-2.000000,0.000000
1309694.199091,15.000000,-9.000000,9.000000,52.000000,8.000000,-8.000000,11.000000,-5.000000
1309694.214790,-25.000000,-6.000000,-7.000000,-25.000000,0.000000,2.000000,-1.000000,-5.000000
1309694.214800,45.000000,7.000000,11.000000,42.000000,-25.000000,5.000000,7.000000,-3.000000
1309694.244562,-32.000000,-22.000000,-3.000000,-6.000000,24.000000,-12.000000,-26.000000,-4.000000
1309694.244591,50.000000,13.000000,14.000000,-5.000000,3.000000,-1.000000,16.000000,4.000000
1309694.252660,9.000000,11.000000,1.000000,7.000000,-13.000000,6.000000,-2.000000,2.000000
1309694.252675,-6.000000,-45.000000,-13.000000,-42.000000,-2.000000,-6.000000,-10.000000,-3.000000
1309694.289389,-22.000000,-16.000000,-3.000000,-8.000000,45.000000,9.000000,10.000000,1.000000
1309694.289401,-1.000000,21.000000,24.000000,-32.000000,4.000000,4.000000,-3.000000,-1.000000
1309694.304232,-7.000000,-6.000000,16.000000,25.000000,-8.000000,-11.000000,-30.000000,-10.000000
1309694.304255,69.000000,-16.000000,-34.000000,-48.000000,-23.000000,7.000000,15.000000,-2.000000
1309694.305076,-101.000000,20.000000,19.000000,127.000000,15.000000,4.000000,-24.000000,-5.000000
1309694.305084,-21.000000,-6.000000,-4.000000,-38.000000,-15.000000,-11.000000,16.000000,16.000000
1309694.305707,26.000000,-24.000000,-7.000000,22.000000,12.000000,-19.000000,-27.000000,-8.000000
1309694.305716,-23.000000,38.000000,-4.000000,-20.000000,-5.000000,14.000000,28.000000,-2.000000
1309694.307136,7.000000,62.000000,12.000000,-36.000000,-10.000000,-9.000000,-22.000000,-7.000000
1309694.307145,5.000000,-39.000000,12.000000,-26.000000,-13.000000,-5.000000,-7.000000,-12.000000
1309694.308036,33.000000,8.000000,-3.000000,10.000000,8.000000,5.000000,-25.000000,0.000000
1309694.308051,-6.000000,-40.000000,3.000000,-35.000000,13.000000,-6.000000,19.000000,9.000000
1309694.326847,13.000000,-2.000000,6.000000,76.000000,6.000000,-1.000000,14.000000,-5.000000
1309694.326858,23.000000,64.000000,8.000000,-44.000000,-6.000000,-5.000000,5.000000,-4.000000
1309694.327883,-17.000000,9.000000,5.000000,39.000000,1.000000,-9.000000,-20.000000,-6.000000
1309694.327891,32.000000,-2.000000,-12.000000,-58.000000,-10.000000,2.000000,10.000000,-3.000000
1309694.341720,19.000000,19.000000,4.000000,-4.000000,3.000000,-18.000000,-15.000000,6.000000
1309694.341730,-35.000000,32.000000,-4.000000,-60.000000,5.000000,10.000000,-31.000000,-8.000000
1309694.356606,11.000000,-5.000000,6.000000,-24.000000,-15.000000,0.000000,15.000000,0.000000
1309694.356617,-21.000000,24.000000,9.000000,2.000000,7.000000,0.000000,-25.000000,-10.000000
1309694.364124,32.000000,4.000000,4.000000,-5.000000,-12.000000,1.000000,46.000000,6.000000
1309694.364132,32.000000,-28.000000,-19.000000,-5.000000,21.000000,-3.000000,46.000000,9.000000
1309694.388430,35.000000,8.000000,6.000000,-6.000000,20.000000,-6.000000,-36.000000,2.000000
1309694.388442,-35.000000,21.000000,-12.000000,-18.000000,-7.000000,3.000000,1.000000,3.000000
1309694.388499,-1.000000,-13.000000,25.000000,25.000000,-12.000000,13.000000,7.000000,3.000000
1309694.388508,10.000000,-17.000000,0.000000,1.000000,17.000000,13.000000,-3.000000,-7.000000
1309694.389358,-4.000000,28.000000,14.000000,5.000000,4.000000,-11.000000,-33.000000,2.000000
1309694.389371,-3.000000,-94.000000,-26.000000,-14.000000,13.000000,1.000000,-13.000000,-1.000000
1309694.401699,10.000000,-8.000000,-17.000000,-11.000000,16.000000,7.000000,44.000000,-18.000000
1309694.401710,22.000000,14.000000,46.000000,41.000000,8.000000,14.000000,26.000000,12.000000
1309694.402883,53.000000,-18.000000,2.000000,-68.000000,2.000000,-9.000000,14.000000,27.000000
1309694.402902,16.000000,-13.000000,-10.000000,-5.000000,-13.000000,-2.000000,-13.000000,-6.000000
1309694.409088,6.000000,25.000000,-28.000000,-2.000000,-2.000000,-2.000000,-11.000000,-7.000000
1309694.409108,-7.000000,11.000000,-18.000000,14.000000,-7.000000,1.000000,7.000000,5.000000
1309694.446669,-13.000000,-18.000000,32.000000,0.000000,26.000000,6.000000,1.000000,-4.000000
1309694.446742,30.000000,0.000000,-26.000000,-3.000000,-2.000000,0.000000,-23.000000,-3.000000
1309694.461944,-5.000000,38.000000,6.000000,-14.000000,-9.000000,-8.000000,3.000000,7.000000
1309694.461954,44.000000,-24.000000,-48.000000,42.000000,4.000000,-3.000000,-5.000000,4.000000
1309694.484329,8.000000,-18.000000,2.000000,-22.000000,5.000000,0.000000,-3.000000,-6.000000
1309694.484348,0.000000,40.000000,-11.000000,15.000000,-7.000000,1.000000,-7.000000,8.000000
1309694.491733,8.000000,-7.000000,-7.000000,-8.000000,-7.000000,10.000000,-6.000000,-18.000000
1309694.491742,47.000000,0.000000,-10.000000,26.000000,21.000000,-10.000000,0.000000,6.000000
1309694.522139,-60.000000,-12.000000,-4.000000,-13.000000,7.000000,2.000000,-5.000000,-2.000000
1309694.522168,-35.000000,56.000000,11.000000,51.000000,4.000000,5.000000,-12.000000,2.000000
1309694.522527,44.000000,-34.000000,-4.000000,-20.000000,-8.000000,0.000000,25.000000,6.000000
1309694.522553,19.000000,15.000000,-15.000000,-4.000000,3.000000,-9.000000,-8.000000,-1.000000
1309694.523531,11.000000,6.000000,15.000000,13.000000,19.000000,13.000000,-4.000000,-4.000000
1309694.523552,-23.000000,49.000000,-1.000000,-40.000000,-13.000000,-1.000000,16.000000,-1.000000
1309694.524203,-17.000000,-13.000000,-14.000000,-20.000000,-6.000000,-21.000000,-27.000000,-11.000000
1309694.524229,31.000000,17.000000,-23.000000,-23.000000,4.000000,3.000000,22.000000,-1.000000
1309694.524744,-18.000000,6.000000,-38.000000,13.000000,-12.000000,1.000000,0.000000,0.000000
1309694.524770,6.000000,5.000000,4.000000,-4.000000,-17.000000,7.000000,1.000000,-1.000000
1309694.525561,1.000000,15.000000,-10.000000,-3.000000,10.000000,-7.000000,-19.000000,-3.000000
1309694.525568,-9.000000,3.000000,3.000000,-8.000000,-20.000000,-6.000000,5.000000,3.000000
1309694.529175,69.000000,16.000000,-20.000000,-7.000000,10.000000,-3.000000,21.000000,4.000000
1309694.529185,-15.000000,-15.000000,-6.000000,16.000000,34.000000,-3.000000,-26.000000,-2.000000
1309694.544771,3.000000,27.000000,-23.000000,-8.000000,4.000000,-5.000000,0.000000,-9.000000
1309694.544787,-3.000000,9.000000,17.000000,-22.000000,6.000000,8.000000,35.000000,11.000000
1309694.566867,7.000000,-25.000000,28.000000,53.000000,8.000000,-4.000000,3.000000,-1.000000
1309694.566877,16.000000,-7.000000,-12.000000,-12.000000,3.000000,1.000000,5.000000,0.000000
1309694.568084,-25.000000,6.000000,-23.000000,-5.000000,0.000000,4.000000,-2.000000,-10.000000
1309694.568094,-24.000000,14.000000,22.000000,-6.000000,-22.000000,-1.000000,9.000000,4.000000
1309694.581816,50.000000,-26.000000,-14.000000,-7.000000,0.000000,-7.000000,-32.000000,-2.000000
1309694.581826,-8.000000,-6.000000,-27.000000,33.000000,-7.000000,-4.000000,16.000000,2.000000
1309694.604564,10.000000,-2.000000,24.000000,45.000000,-9.000000,-3.000000,12.000000,4.000000
1309694.604593,-27.000000,4.000000,-5.000000,25.000000,-2.000000,13.000000,-3.000000,-4.000000
1309694.619422,9.000000,-10.000000,3.000000,-36.000000,-24.000000,3.000000,-8.000000,-4.000000
1309694.619433,42.000000,53.000000,-3.000000,33.000000,-6.000000,8.000000,7.000000,-4.000000
1309694.641888,-57.000000,-45.000000,4.000000,-14.000000,-12.000000,-5.000000,1.000000,-7.000000
1309694.641907,-1.000000,54.000000,3.000000,10.000000,-12.000000,-10.000000,-11.000000,-2.000000
1309694.642748,15.000000,-16.000000,-4.000000,-15.000000,-4.000000,-8.000000,-13.000000,5.000000
1309694.642761,-27.000000,-12.000000,5.000000,36.000000,7.000000,10.000000,15.000000,2.000000
1309694.643255,-54.000000,-47.000000,-17.000000,-26.000000,-9.000000,6.000000,9.000000,-21.000000
1309694.643264,38.000000,-2.000000,-2.000000,10.000000,13.000000,2.000000,-9.000000,9.000000
1309694.644563,-31.000000,2.000000,9.000000,26.000000,24.000000,6.000000,22.000000,8.000000
1309694.644591,84.000000,4.000000,-7.000000,2.000000,-6.000000,-18.000000,-35.000000,-7.000000
1309694.645559,16.000000,5.000000,-17.000000,1.000000,35.000000,0.000000,-15.000000,-6.000000
1309694.645567,7.000000,32.000000,37.000000,17.000000,-17.000000,2.000000,-10.000000,0.000000
1309694.664314,0.000000,-24.000000,-17.000000,-26.000000,-15.000000,-4.000000,13.000000,5.000000
1309694.664345,6.000000,-38.000000,-16.000000,-36.000000,-13.000000,-4.000000,22.000000,6.000000
1309694.665120,-12.000000,0.000000,-7.000000,-16.000000,-3.000000,-6.000000,20.000000,3.000000
1309694.665128,40.000000,5.000000,-14.000000,40.000000,21.000000,12.000000,5.000000,1.000000
1309694.679563,9.000000,-17.000000,-14.000000,-29.000000,5.000000,-2.000000,-16.000000,0.000000
1309694.679586,1.000000,11.000000,4.000000,26.000000,-9.000000,-4.000000,1.000000,-3.000000
1309694.680486,-6.000000,12.000000,-3.000000,-8.000000,8.000000,-1.000000,-1.000000,1.000000
1309694.680501,-49.000000,-40.000000,8.000000,-12.000000,8.000000,0.000000,-18.000000,-3.000000
1309694.724121,15.000000,80.000000,-3.000000,22.000000,17.000000,10.000000,25.000000,-10.000000
1309694.724132,9.000000,10.000000,5.000000,-13.000000,-10.000000,-5.000000,2.000000,2.000000
1309694.739104,-32.000000,-8.000000,1.000000,-10.000000,4.000000,4.000000,-1.000000,-6.000000
1309694.739124,-3.000000,12.000000,3.000000,0.000000,-3.000000,-3.000000,-6.000000,1.000000
1309694.740122,29.000000,-21.000000,-19.000000,-8.000000,5.000000,-6.000000,-17.000000,-8.000000
1309694.740144,0.000000,25.000000,14.000000,-12.000000,-7.000000,15.000000,2.000000,2.000000
1309694.740876,4.000000,-28.000000,-18.000000,23.000000,-1.000000,-3.000000,-23.000000,3.000000
1309694.740952,9.000000,-1.000000,21.000000,46.000000,14.000000,-17.000000,-11.000000,5.000000
1309694.742186,23.000000,7.000000,3.000000,-35.000000,-20.000000,-4.000000,31.000000,0.000000
1309694.742196,-5.000000,-26.000000,-18.000000,-22.000000,-1.000000,-1.000000,-5.000000,1.000000
1309694.742965,31.000000,-3.000000,1.000000,-46.000000,-9.000000,7.000000,20.000000,6.000000
1309694.742988,-22.000000,24.000000,25.000000,67.000000,1.000000,-10.000000,-43.000000,-8.000000
1309694.762723,3.000000,-18.000000,-11.000000,5.000000,-25.000000,-3.000000,-1.000000,0.000000
1309694.762752,-9.000000,-15.000000,3.000000,-25.000000,-10.000000,-6.000000,-4.000000,-5.000000
1309694.763098,-5.000000,7.000000,1.000000,-34.000000,2.000000,3.000000,-26.000000,-3.000000
1309694.763106,3.000000,11.000000,-7.000000,-8.000000,-17.000000,3.000000,29.000000,-4.000000
1309694.777221,-72.000000,-41.000000,-22.000000,-3.000000,-6.000000,-12.000000,-2.000000,10.000000
1309694.777231,71.000000,15.000000,2.000000,-1.000000,-10.000000,2.000000,9.000000,-4.000000
1309694.784169,-9.000000,35.000000,-14.000000,17.000000,38.000000,18.000000,0.000000,0.000000
1309694.784179,-3.000000,-8.000000,0.000000,-11.000000,0.000000,4.000000,-8.000000,-2.000000
1309694.799776,-13.000000,37.000000,3.000000,-10.000000,-6.000000,-2.000000,-4.000000,-6.000000
1309694.799786,22.000000,-4.000000,12.000000,5.000000,-8.000000,-10.000000,5.000000,0.000000
1309694.800721,-37.000000,-2.000000,-14.000000,-45.000000,-9.000000,1.000000,-33.000000,-1.000000
1309694.800733,9.000000,-35.000000,-28.000000,-12.000000,-3.000000,-8.000000,13.000000,-5.000000
1309694.844497,40.000000,15.000000,-7.000000,-36.000000,-16.000000,2.000000,23.000000,8.000000
1309694.844510,-11.000000,-47.000000,-12.000000,-38.000000,11.000000,3.000000,-16.000000,-4.000000
1309694.859482,16.000000,-22.000000,-5.000000,1.000000,-22.000000,9.000000,3.000000,-1.000000
1309694.859507,-15.000000,-1.000000,-6.000000,-29.000000,-25.000000,-13.000000,-16.000000,-2.000000
1309694.896832,2.000000,5.000000,26.000000,25.000000,-3.000000,-2.000000,1.000000,-4.000000
1309694.896860,31.000000,1.000000,-10.000000,-11.000000,-10.000000,-5.000000,-27.000000,-1.000000
1309694.905391,14.000000,-6.000000,-19.000000,-2.000000,9.000000,4.000000,39.000000,8.000000
1309694.905585,2.000000,31.000000,32.000000,-3.000000,2.000000,-3.000000,-4.000000,-1.000000
1309694.906301,-25.000000,28.000000,-33.000000,0.000000,9.000000,8.000000,1.000000,-1.000000
1309694.906329,67.000000,-19.000000,35.000000,8.000000,22.000000,-3.000000,-27.000000,-2.000000
1309694.906669,-24.000000,-27.000000,-20.000000,-30.000000,-15.000000,-4.000000,-3.000000,-2.000000
1309694.906695,2.000000,11.000000,6.000000,12.000000,3.000000,3.000000,-8.000000,-3.000000
1309694.919667,31.000000,9.000000,6.000000,28.000000,-2.000000,0.000000,37.000000,1.000000
1309694.919692,21.000000,-20.000000,-12.000000,-20.000000,-14.000000,-7.000000,-31.000000,-2.000000
1309694.920448,-18.000000,-24.000000,-8.000000,23.000000,7.000000,3.000000,-19.000000,-11.000000
1309694.920457,-53.000000,35.000000,-6.000000,-33.000000,-5.000000,6.000000,-3.000000,-1.000000
1309694.956858,9.000000,-19.000000,-6.000000,-13.000000,-18.000000,2.000000,0.000000,4.000000
1309694.956966,0.000000,-14.000000,-36.000000,28.000000,-6.000000,-8.000000,4.000000,-2.000000
1309694.957126,-1.000000,10.000000,7.000000,-30.000000,24.000000,7.000000,4.000000,-5.000000
1309694.957134,-8.000000,-52.000000,-13.000000,46.000000,-8.000000,1.000000,-1.000000,10.000000
1309694.958573,47.000000,66.000000,28.000000,-27.000000,-2.000000,1.000000,-2.000000,-2.000000
1309694.958589,-24.000000,-7.000000,-37.000000,-1.000000,13.000000,-9.000000,-6.000000,-8.000000
1309694.964115,-3.000000,-2.000000,-23.000000,-74.000000,-10.000000,-5.000000,-3.000000,-7.000000
1309694.964129,-3.000000,24.000000,13.000000,102.000000,20.000000,3.000000,6.000000,-5.000000
1309695.002468,-26.000000,-61.000000,-52.000000,-14.000000,-11.000000,-18.000000,-7.000000,-3.000000
1309695.002500,16.000000,23.000000,48.000000,0.000000,-1.000000,6.000000,3.000000,11.000000
1309695.016622,18.000000,-21.000000,2.000000,12.000000,-13.000000,-1.000000,-43.000000,-3.000000
1309695.016638,-50.000000,-11.000000,-5.000000,-3.000000,-4.000000,-1.000000,28.000000,-6.000000
1309695.039449,-12.000000,6.000000,4.000000,-18.000000,-5.000000,10.000000,57.000000,-3.000000
1309695.039460,-10.000000,43.000000,-7.000000,-11.000000,14.000000,-6.000000,-15.000000,3.000000
1309695.047109,-3.000000,-5.000000,22.000000,31.000000,-10.000000,-11.000000,-46.000000,-1.000000
1309695.047145,31.000000,1.000000,-5.000000,-27.000000,-12.000000,2.000000,10.000000,2.000000
1309695.061590,-2.000000,25.000000,24.000000,30.000000,11.000000,7.000000,8.000000,-2.000000
1309695.061621,34.000000,25.000000,4.000000,-12.000000,-9.000000,-3.000000,2.000000,7.000000
1309695.076683,-10.000000,-11.000000,-4.000000,9.000000,-7.000000,-4.000000,-7.000000,-8.000000
1309695.076692,3.000000,4.000000,-15.000000,-6.000000,-3.000000,2.000000,-1.000000,0.000000
1309695.091839,-26.000000,3.000000,-1.000000,-12.000000,-7.000000,-2.000000,4.000000,6.000000
1309695.091848,-3.000000,-1.000000,-8.000000,-24.000000,-20.000000,-4.000000,-3.000000,-1.000000
1309695.136764,21.000000,54.000000,5.000000,7.000000,36.000000,3.000000,12.000000,3.000000
1309695.136793,-63.000000,-23.000000,-40.000000,-19.000000,-18.000000,2.000000,0.000000,-4.000000
1309695.174517,15.000000,19.000000,20.000000,21.000000,24.000000,15.000000,-6.000000,-1.000000
1309695.174530,-9.000000,-21.000000,22.000000,52.000000,6.000000,2.000000,49.000000,3.000000
1309695.196846,14.000000,-22.000000,-8.000000,-26.000000,8.000000,4.000000,8.000000,2.000000
1309695.196857,-47.000000,-30.000000,11.000000,11.000000,-1.000000,-1.000000,-3.000000,-18.000000
1309695.219393,2.000000,34.000000,8.000000,-25.000000,13.000000,2.000000,2.000000,0.000000
1309695.219408,33.000000,6.000000,5.000000,-1.000000,0.000000,-3.000000,-1.000000,9.000000
1309695.221547,-3.000000,27.000000,38.000000,39.000000,4.000000,-5.000000,0.000000,-10.000000
1309695.221557,51.000000,43.000000,-19.000000,-7.000000,-1.000000,-4.000000,1.000000,15.000000
1309695.234356,18.000000,-78.000000,-11.000000,-17.000000,0.000000,-9.000000,-15.000000,-6.000000
1309695.234402,-34.000000,4.000000,-26.000000,-49.000000,5.000000,-2.000000,11.000000,-9.000000
1309695.235622,-3.000000,-33.000000,20.000000,16.000000,-24.000000,-9.000000,-21.000000,-3.000000
1309695.235640,3.000000,-45.000000,-35.000000,-4.000000,-14.000000,-13.000000,1.000000,-6.000000
1309695.241449,-1.000000,12.000000,10.000000,-30.000000,-10.000000,5.000000,9.000000,0.000000
1309695.241463,7.000000,6.000000,3.000000,27.000000,7.000000,5.000000,9.000000,6.000000
1309695.257132,3.000000,-25.000000,0.000000,-9.000000,22.000000,-8.000000,-5.000000,-4.000000
1309695.257141,-37.000000,2.000000,-11.000000,7.000000,-1.000000,3.000000,3.000000,-16.000000
1309695.279428,-6.000000,26.000000,13.000000,-3.000000,-4.000000,-1.000000,-7.000000,-5.000000
1309695.279458,37.000000,-5.000000,-9.000000,-1.000000,-12.000000,-6.000000,-12.000000,7.000000
1309695.301516,-2.000000,-5.000000,0.000000,-3.000000,25.000000,3.000000,29.000000,4.000000
1309695.301526,-25.000000,16.000000,-9.000000,-5.000000,-6.000000,15.000000,16.000000,-14.000000
1309695.316710,-24.000000,1.000000,24.000000,-34.000000,-3.000000,-16.000000,-12.000000,-1.000000
1309695.316722,43.000000,14.000000,-6.000000,-3.000000,-11.000000,5.000000,13.000000,4.000000
1309695.339160,26.000000,-11.000000,-17.000000,-7.000000,-7.000000,-3.000000,-13.000000,-4.000000
1309695.339196,-31.000000,25.000000,24.000000,31.000000,-2.000000,-3.000000,-2.000000,-7.000000
1309695.354944,21.000000,-4.000000,15.000000,-24.000000,0.000000,-9.000000,-5.000000,5.000000
1309695.354974,19.000000,10.000000,-15.000000,-9.000000,-6.000000,5.000000,26.000000,5.000000
1309695.355909,-31.000000,43.000000,6.000000,-22.000000,-15.000000,5.000000,7.000000,-9.000000
1309695.355917,-24.000000,-9.000000,-31.000000,-32.000000,1.000000,1.000000,-8.000000,-6.000000
1309695.356381,6.000000,0.000000,-1.000000,0.000000,1.000000,6.000000,7.000000,-4.000000
1309695.356404,11.000000,34.000000,15.000000,-15.000000,7.000000,1.000000,-9.000000,8.000000
1309695.357159,-22.000000,-19.000000,-10.000000,-23.000000,-10.000000,-5.000000,-5.000000,-17.000000
1309695.357185,-40.000000,22.000000,-1.000000,-8.000000,-16.000000,-3.000000,9.000000,0.000000
1309695.361548,49.000000,23.000000,10.000000,-43.000000,-18.000000,2.000000,-7.000000,4.000000
1309695.361573,7.000000,16.000000,-23.000000,-21.000000,0.000000,7.000000,5.000000,5.000000
1309695.377340,-2.000000,-22.000000,15.000000,34.000000,18.000000,-1.000000,-17.000000,-6.000000
1309695.377349,-7.000000,0.000000,7.000000,-10.000000,-10.000000,-3.000000,-4.000000,-6.000000
1309695.399203,7.000000,4.000000,-1.000000,8.000000,-7.000000,-13.000000,26.000000,2.000000
1309695.399242,-31.000000,-29.000000,-38.000000,-26.000000,-2.000000,-12.000000,-10.000000,-4.000000
1309695.436640,57.000000,-4.000000,-20.000000,-24.000000,43.000000,-1.000000,-6.000000,2.000000
1309695.436664,7.000000,19.000000,-2.000000,-43.000000,-20.000000,-8.000000,-18.000000,0.000000
1309695.451895,-28.000000,8.000000,0.000000,66.000000,-5.000000,0.000000,15.000000,-4.000000
1309695.451906,-30.000000,6.000000,-1.000000,-1.000000,-8.000000,0.000000,17.000000,-5.000000
1309695.459739,-25.000000,22.000000,41.000000,-5.000000,-6.000000,-3.000000,-10.000000,-2.000000
1309695.459749,34.000000,-16.000000,-67.000000,-10.000000,7.000000,-6.000000,-6.000000,-3.000000
1309695.460362,16.000000,13.000000,17.000000,15.000000,17.000000,3.000000,-3.000000,3.000000
1309695.460370,10.000000,22.000000,1.000000,49.000000,-23.000000,-5.000000,14.000000,1.000000
1309695.461753,9.000000,-46.000000,-20.000000,-61.000000,-17.000000,-10.000000,-25.000000,-8.000000
1309695.461782,35.000000,8.000000,46.000000,3.000000,4.000000,-8.000000,-8.000000,9.000000
1309695.474068,39.000000,11.000000,-28.000000,13.000000,-8.000000,4.000000,18.000000,9.000000
1309695.474112,-48.000000,-22.000000,-6.000000,-7.000000,-24.000000,-6.000000,0.000000,-15.000000
1309695.475458,88.000000,-22.000000,-17.000000,-10.000000,-4.000000,-7.000000,-37.000000,12.000000
1309695.475466,-40.000000,42.000000,-6.000000,-3.000000,-11.000000,3.000000,25.000000,0.000000
1309695.496749,22.000000,23.000000,29.000000,-32.000000,19.000000,-6.000000,-15.000000,-2.000000
1309695.496778,-78.000000,-18.000000,-34.000000,-3.000000,-2.000000,-1.000000,-4.000000,-5.000000
1309695.497856,40.000000,-4.000000,-6.000000,-13.000000,-8.000000,2.000000,-26.000000,-2.000000
1309695.497883,-27.000000,-12.000000,4.000000,5.000000,7.000000,4.000000,-8.000000,-8.000000
1309695.511814,1.000000,-35.000000,-24.000000,20.000000,-10.000000,-4.000000,22.000000,1.000000
1309695.511843,14.000000,32.000000,37.000000,-45.000000,-1.000000,-3.000000,0.000000,1.000000
1309695.513011,2.000000,12.000000,-11.000000,4.000000,-12.000000,-1.000000,10.000000,5.000000
1309695.513038,0.000000,13.000000,6.000000,-67.000000,17.000000,-5.000000,-1.000000,4.000000
1309695.534090,0.000000,10.000000,46.000000,11.000000,-4.000000,9.000000,-26.000000,-5.000000
1309695.534101,-45.000000,-60.000000,-84.000000,-24.000000,-21.000000,-1.000000,28.000000,-4.000000
1309695.571785,3.000000,-41.000000,-2.000000,-2.000000,-8.000000,-20.000000,-32.000000,0.000000
1309695.571807,30.000000,-14.000000,-8.000000,3.000000,1.000000,-6.000000,-8.000000,0.000000
1309695.578985,-14.000000,26.000000,-3.000000,-5.000000,-10.000000,0.000000,1.000000,-6.000000
1309695.578995,46.000000,12.000000,30.000000,-17.000000,-10.000000,9.000000,15.000000,16.000000
1309695.594841,-54.000000,-24.000000,2.000000,-11.000000,-10.000000,-9.000000,-6.000000,-10.000000
1309695.594852,15.000000,-39.000000,-45.000000,26.000000,8.000000,3.000000,11.000000,-8.000000
1309695.595320,9.000000,30.000000,26.000000,-12.000000,-8.000000,8.000000,-5.000000,4.000000
1309695.595330,3.000000,-3.000000,0.000000,-12.000000,-12.000000,-9.000000,-1.000000,4.000000
1309695.596519,-7.000000,-24.000000,-8.000000,6.000000,13.000000,-6.000000,8.000000,-3.000000
1309695.596532,-13.000000,11.000000,7.000000,35.000000,5.000000,4.000000,-16.000000,-2.000000
1309695.597162,3.000000,-31.000000,-7.000000,-38.000000,-8.000000,2.000000,-4.000000,-3.000000
1309695.597172,-7.000000,-6.000000,23.000000,82.000000,32.000000,2.000000,-5.000000,2.000000
1309695.601716,15.000000,7.000000,-24.000000,3.000000,0.000000,-1.000000,-1.000000,0.000000
1309695.601728,4.000000,36.000000,2.000000,-32.000000,-22.000000,-2.000000,1.000000,-3.000000
1309695.617234,35.000000,-16.000000,-4.000000,50.000000,-5.000000,8.000000,2.000000,4.000000
1309695.617244,24.000000,33.000000,30.000000,15.000000,9.000000,-8.000000,-22.000000,8.000000
1309695.632210,-51.000000,-39.000000,-40.000000,-10.000000,0.000000,4.000000,-1.000000,-1.000000
1309695.632223,-11.000000,6.000000,-3.000000,-3.000000,-19.000000,-10.000000,8.000000,-9.000000
1309695.654453,-24.000000,-24.000000,14.000000,-10.000000,-4.000000,2.000000,-8.000000,-1.000000
1309695.654470,4.000000,-5.000000,-9.000000,-6.000000,-4.000000,-3.000000,-7.000000,2.000000
1309695.676595,-10.000000,14.000000,16.000000,-14.000000,-15.000000,-8.000000,5.000000,-7.000000
1309695.676605,-15.000000,-29.000000,-95.000000,7.000000,9.000000,7.000000,-12.000000,3.000000
1309695.692212,-7.000000,-36.000000,1.000000,-3.000000,6.000000,-7.000000,10.000000,-6.000000
1309695.692280,-2.000000,15.000000,8.000000,8.000000,7.000000,-1.000000,15.000000,3.000000
1309695.693155,-3.000000,-2.000000,0.000000,-9.000000,-5.000000,0.000000,-4.000000,-4.000000
1309695.693164,9.000000,-7.000000,-5.000000,-13.000000,-9.000000,-2.000000,1.000000,-3.000000
1309695.729398,13.000000,-3.000000,-25.000000,-50.000000,-6.000000,-8.000000,-11.000000,0.000000
1309695.729410,-3.000000,-3.000000,44.000000,109.000000,33.000000,8.000000,2.000000,8.000000
1309695.736910,-9.000000,-1.000000,-31.000000,-14.000000,0.000000,10.000000,5.000000,-1.000000
1309695.736921,2.000000,-18.000000,-14.000000,-15.000000,-8.000000,-5.000000,-7.000000,-4.000000
1309695.751724,-39.000000,-29.000000,-40.000000,-5.000000,30.000000,0.000000,41.000000,0.000000
1309695.751739,23.000000,15.000000,-10.000000,9.000000,-1.000000,-4.000000,-36.000000,11.000000
1309695.774597,20.000000,35.000000,14.000000,-21.000000,-23.000000,0.000000,28.000000,11.000000
1309695.774626,-18.000000,0.000000,-9.000000,-12.000000,-5.000000,3.000000,7.000000,-16.000000
1309695.789322,7.000000,-15.000000,-8.000000,-9.000000,16.000000,-3.000000,-18.000000,-1.000000
1309695.789351,3.000000,24.000000,13.000000,-24.000000,-19.000000,-1.000000,-5.000000,-6.000000
1309695.796985,-29.000000,-7.000000,-25.000000,12.000000,16.000000,1.000000,32.000000,-6.000000
1309695.796994,11.000000,-8.000000,56.000000,-12.000000,-8.000000,-3.000000,-16.000000,-5.000000
1309695.798502,11.000000,4.000000,32.000000,5.000000,11.000000,-1.000000,-24.000000,4.000000
1309695.798514,19.000000,-39.000000,-17.000000,-17.000000,5.000000,-5.000000,5.000000,3.000000
1309695.799100,23.000000,16.000000,19.000000,9.000000,-7.000000,10.000000,8.000000,11.000000
1309695.799108,6.000000,-2.000000,-27.000000,-12.000000,-15.000000,-8.000000,-26.000000,-1.000000
1309695.811489,-1.000000,-3.000000,-14.000000,-5.000000,-1.000000,-3.000000,12.000000,3.000000
1309695.811503,-23.000000,-7.000000,-60.000000,-12.000000,-8.000000,1.000000,-6.000000,-1.000000
1309695.812758,29.000000,8.000000,-2.000000,-25.000000,-13.000000,-3.000000,-17.000000,-1.000000
1309695.812766,-29.000000,-8.000000,9.000000,0.000000,2.000000,-7.000000,-12.000000,-8.000000
1309695.834950,-13.000000,15.000000,5.000000,46.000000,2.000000,2.000000,2.000000,0.000000
1309695.834961,-49.000000,31.000000,17.000000,-15.000000,5.000000,8.000000,-11.000000,3.000000
1309695.835595,10.000000,18.000000,-19.000000,-11.000000,-8.000000,-5.000000,10.000000,5.000000
1309695.835604,0.000000,-10.000000,-3.000000,-3.000000,-11.000000,-11.000000,-13.000000,-1.000000
1309695.849217,-5.000000,6.000000,-4.000000,-12.000000,0.000000,8.000000,8.000000,-3.000000
1309695.849238,16.000000,-24.000000,6.000000,-23.000000,-25.000000,-4.000000,-12.000000,1.000000
1309695.872001,-4.000000,-18.000000,-8.000000,18.000000,3.000000,-1.000000,5.000000,-10.000000
1309695.872013,-18.000000,14.000000,-15.000000,-33.000000,-6.000000,0.000000,1.000000,-7.000000
1309695.886869,3.000000,-6.000000,-3.000000,-18.000000,-4.000000,4.000000,2.000000,6.000000
1309695.886890,-8.000000,-13.000000,-37.000000,-6.000000,-8.000000,-3.000000,4.000000,-4.000000
1309695.909508,3.000000,4.000000,16.000000,-36.000000,-12.000000,6.000000,-36.000000,-11.000000
1309695.909521,5.000000,56.000000,37.000000,108.000000,-2.000000,-3.000000,3.000000,13.000000
1309695.916858,22.000000,-48.000000,12.000000,19.000000,0.000000,-2.000000,-5.000000,-1.000000
1309695.916869,-9.000000,-19.000000,18.000000,-3.000000,9.000000,4.000000,7.000000,0.000000
1309695.932219,-17.000000,10.000000,-11.000000,46.000000,0.000000,1.000000,-7.000000,-3.000000
1309695.932239,-15.000000,2.000000,-16.000000,-14.000000,-20.000000,-11.000000,-20.000000,-5.000000
1309695.932805,5.000000,-21.000000,0.000000,-22.000000,8.000000,2.000000,-3.000000,-6.000000
1309695.932835,28.000000,-9.000000,-30.000000,-21.000000,0.000000,11.000000,-12.000000,7.000000
1309695.933949,-7.000000,34.000000,20.000000,-28.000000,-9.000000,-4.000000,33.000000,7.000000
1309695.933978,54.000000,-8.000000,-7.000000,-4.000000,1.000000,0.000000,6.000000,8.000000
1309695.934649,-13.000000,9.000000,-4.000000,-19.000000,-12.000000,-7.000000,-6.000000,-10.000000
1309695.934658,-8.000000,26.000000,25.000000,-9.000000,-3.000000,-1.000000,-10.000000,-3.000000
1309695.954077,6.000000,39.000000,24.000000,28.000000,-6.000000,-1.000000,-13.000000,-3.000000
1309695.954100,14.000000,-27.000000,-22.000000,-13.000000,-22.000000,-9.000000,-4.000000,4.000000
1309695.955368,22.000000,-10.000000,-13.000000,-20.000000,5.000000,-1.000000,-1.000000,6.000000
1309695.955416,-70.000000,-13.000000,-23.000000,-54.000000,16.000000,3.000000,4.000000,-5.000000
1309695.969315,36.000000,9.000000,13.000000,3.000000,-18.000000,-1.000000,-13.000000,-1.000000
1309695.969327,24.000000,-5.000000,-2.000000,6.000000,8.000000,-1.000000,21.000000,-4.000000
1309695.991711,-14.000000,2.000000,-40.000000,-41.000000,-19.000000,-4.000000,4.000000,6.000000
1309695.991722,-18.000000,51.000000,37.000000,66.000000,12.000000,10.000000,-9.000000,-8.000000
1309696.006953,10.000000,-2.000000,10.000000,-19.000000,-7.000000,-22.000000,-33.000000,-6.000000
1309696.006964,0.000000,4.000000,-14.000000,-7.000000,1.000000,-8.000000,1.000000,6.000000
1309696.036814,-4.000000,-8.000000,32.000000,39.000000,-18.000000,9.000000,-17.000000,2.000000
1309696.036885,-35.000000,12.000000,7.000000,3.000000,21.000000,5.000000,6.000000,-18.000000
1309696.037057,24.000000,-43.000000,-18.000000,-25.000000,-27.000000,-24.000000,11.000000,-8.000000
1309696.037065,-26.000000,25.000000,38.000000,4.000000,0.000000,8.000000,-27.000000,-4.000000
1309696.044713,3.000000,29.000000,34.000000,3.000000,-9.000000,-4.000000,4.000000,3.000000
1309696.044734,6.000000,6.000000,-12.000000,-10.000000,0.000000,0.000000,-4.000000,10.000000
1309696.051657,-1.000000,13.000000,7.000000,-86.000000,16.000000,6.000000,6.000000,-6.000000
1309696.051700,38.000000,11.000000,16.000000,0.000000,-21.000000,0.000000,-20.000000,-1.000000
1309696.052663,18.000000,-3.000000,-14.000000,4.000000,31.000000,-6.000000,-60.000000,3.000000
1309696.052671,-11.000000,47.000000,13.000000,-2.000000,-20.000000,5.000000,21.000000,-2.000000
1309696.066976,-1.000000,-60.000000,-5.000000,7.000000,-6.000000,0.000000,22.000000,5.000000
1309696.067004,-18.000000,-33.000000,-1.000000,-1.000000,-9.000000,3.000000,-9.000000,-13.000000
1309696.074029,-15.000000,9.000000,4.000000,-20.000000,0.000000,2.000000,-5.000000,1.000000
1309696.074056,33.000000,11.000000,-8.000000,30.000000,16.000000,2.000000,7.000000,3.000000
1309696.075492,6.000000,24.000000,13.000000,47.000000,3.000000,2.000000,-3.000000,0.000000
1309696.075519,-16.000000,0.000000,-12.000000,-13.000000,-5.000000,-2.000000,-20.000000,-2.000000
1309696.089182,1.000000,-43.000000,-4.000000,4.000000,11.000000,-4.000000,34.000000,0.000000
1309696.089200,-17.000000,-25.000000,-30.000000,-8.000000,-8.000000,-12.000000,8.000000,-11.000000
1309696.111715,-1.000000,18.000000,-23.000000,-32.000000,1.000000,-1.000000,3.000000,5.000000
1309696.111744,-16.000000,-20.000000,59.000000,36.000000,9.000000,3.000000,-44.000000,-4.000000
1309696.119210,28.000000,-32.000000,-46.000000,-26.000000,-6.000000,-8.000000,21.000000,-10.000000
1309696.119220,-15.000000,-18.000000,7.000000,3.000000,-12.000000,-18.000000,-36.000000,5.000000
1309696.134275,-3.000000,-19.000000,6.000000,-15.000000,12.000000,11.000000,12.000000,-3.000000
1309696.134304,17.000000,3.000000,19.000000,32.000000,0.000000,3.000000,14.000000,7.000000
1309696.149599,15.000000,34.000000,14.000000,-4.000000,-11.000000,12.000000,-5.000000,-3.000000
1309696.149636,-68.000000,-1.000000,-8.000000,-9.000000,6.000000,-1.000000,16.000000,1.000000
1309696.171613,-65.000000,-7.000000,-19.000000,6.000000,-3.000000,-7.000000,4.000000,-1.000000
1309696.171623,27.000000,-2.000000,-1.000000,-19.000000,0.000000,-6.000000,-25.000000,-3.000000
1309696.186809,0.000000,11.000000,-12.000000,-14.000000,-21.000000,-3.000000,6.000000,-1.000000
1309696.186819,9.000000,-35.000000,-14.000000,-22.000000,-1.000000,0.000000,4.000000,-3.000000
1309696.194455,10.000000,-3.000000,22.000000,11.000000,4.000000,-1.000000,2.000000,4.000000
1309696.194465,-7.000000,28.000000,-5.000000,-15.000000,0.000000,4.000000,-7.000000,-13.000000
1309696.195219,-9.000000,23.000000,-1.000000,26.000000,30.000000,-1.000000,0.000000,5.000000
1309696.195227,55.000000,-53.000000,-5.000000,1.000000,7.000000,1.000000,-5.000000,10.000000
1309696.196628,-38.000000,-6.000000,5.000000,18.000000,0.000000,-1.000000,-11.000000,-8.000000
1309696.196650,-6.000000,17.000000,6.000000,-31.000000,-19.000000,-7.000000,11.000000,7.000000
1309696.209344,13.000000,-7.000000,-31.000000,-43.000000,-9.000000,-7.000000,5.000000,-12.000000
1309696.209359,-18.000000,-7.000000,16.000000,38.000000,25.000000,7.000000,3.000000,2.000000
1309696.232016,-22.000000,26.000000,16.000000,-27.000000,-34.000000,-4.000000,-7.000000,-3.000000
1309696.232031,61.000000,4.000000,-34.000000,36.000000,9.000000,6.000000,-20.000000,4.000000
1309696.246838,-48.000000,9.000000,36.000000,124.000000,23.000000,0.000000,-4.000000,-6.000000
1309696.246852,22.000000,-16.000000,-12.000000,15.000000,-6.000000,-3.000000,10.000000,5.000000
1309696.284141,30.000000,11.000000,32.000000,-28.000000,-7.000000,-1.000000,3.000000,1.000000
1309696.284152,4.000000,-8.000000,-28.000000,-14.000000,-2.000000,4.000000,-8.000000,-3.000000
1309696.284725,4.000000,26.000000,34.000000,1.000000,7.000000,10.000000,22.000000,-1.000000
1309696.284749,-3.000000,-13.000000,5.000000,-13.000000,6.000000,-11.000000,-32.000000,7.000000
1309696.285976,-26.000000,20.000000,-15.000000,-14.000000,-15.000000,-1.000000,-3.000000,-17.000000
1309696.285992,-10.000000,9.000000,18.000000,-11.000000,15.000000,13.000000,-11.000000,-8.000000
1309696.286564,28.000000,-13.000000,-31.000000,-23.000000,-8.000000,6.000000,34.000000,11.000000
1309696.286576,-27.000000,-20.000000,-6.000000,-6.000000,-14.000000,-36.000000,-28.000000,1.000000
1309696.288021,-37.000000,0.000000,-11.000000,-12.000000,3.000000,14.000000,9.000000,9.000000
1309696.288043,-11.000000,1.000000,9.000000,11.000000,27.000000,-4.000000,-18.000000,-3.000000
1309696.306532,7.000000,9.000000,41.000000,-5.000000,4.000000,-2.000000,4.000000,4.000000
1309696.306541,-10.000000,-10.000000,32.000000,72.000000,-3.000000,2.000000,13.000000,-9.000000
1309696.307086,-24.000000,-14.000000,-21.000000,-6.000000,-3.000000,2.000000,25.000000,-6.000000
1309696.307093,31.000000,-3.000000,-6.000000,-15.000000,-6.000000,-4.000000,-35.000000,14.000000
1309696.321888,-48.000000,5.000000,0.000000,-5.000000,2.000000,-12.000000,-15.000000,-12.000000
1309696.321899,14.000000,3.000000,19.000000,46.000000,24.000000,11.000000,-1.000000,-6.000000
1309696.330364,13.000000,-23.000000,-5.000000,60.000000,18.000000,6.000000,21.000000,2.000000
1309696.330393,-3.000000,15.000000,26.000000,-27.000000,-21.000000,-17.000000,-41.000000,-5.000000
1309696.344061,3.000000,35.000000,24.000000,2.000000,16.000000,-7.000000,18.000000,5.000000
1309696.344071,38.000000,29.000000,0.000000,2.000000,32.000000,4.000000,10.000000,11.000000
1309696.351720,4.000000,7.000000,16.000000,-20.000000,-8.000000,5.000000,10.000000,-1.000000
1309696.351732,-45.000000,-28.000000,8.000000,22.000000,-9.000000,-16.000000,-59.000000,-7.000000
1309696.389273,5.000000,-21.000000,2.000000,30.000000,12.000000,1.000000,27.000000,-7.000000
1309696.389291,-5.000000,-60.000000,30.000000,-19.000000,-9.000000,-3.000000,9.000000,5.000000
1309696.404712,5.000000,10.000000,-8.000000,18.000000,4.000000,-2.000000,-9.000000,-1.000000
1309696.404723,7.000000,0.000000,19.000000,3.000000,-19.000000,5.000000,-10.000000,-1.000000
1309696.449346,-29.000000,48.000000,13.000000,-9.000000,-3.000000,3.000000,-9.000000,-4.000000
1309696.449358,26.000000,-20.000000,4.000000,-44.000000,-26.000000,-12.000000,-5.000000,0.000000
1309696.449799,-13.000000,-26.000000,-54.000000,-26.000000,-3.000000,-11.000000,-28.000000,-13.000000
1309696.449807,13.000000,-42.000000,14.000000,-6.000000,11.000000,-6.000000,-28.000000,-9.000000
1309696.450797,-28.000000,44.000000,12.000000,7.000000,-11.000000,-3.000000,43.000000,10.000000
1309696.450805,9.000000,-21.000000,3.000000,14.000000,-7.000000,-8.000000,3.000000,0.000000
1309696.451393,-7.000000,1.000000,-12.000000,2.000000,-2.000000,3.000000,-13.000000,-4.000000
1309696.451401,38.000000,36.000000,5.000000,-3.000000,-10.000000,4.000000,0.000000,-1.000000
1309696.452031,-6.000000,30.000000,-2.000000,-19.000000,11.000000,0.000000,-8.000000,-2.000000
1309696.452038,-6.000000,19.000000,28.000000,21.000000,-9.000000,-2.000000,3.000000,-5.000000
1309696.452961,0.000000,62.000000,59.000000,-20.000000,-6.000000,-10.000000,-50.000000,-8.000000
1309696.452969,-22.000000,-17.000000,-10.000000,-51.000000,-1.000000,-3.000000,2.000000,-11.000000
1309696.464552,7.000000,-12.000000,-24.000000,-8.000000,-14.000000,-4.000000,10.000000,1.000000
1309696.464647,-9.000000,-1.000000,-16.000000,-5.000000,0.000000,1.000000,0.000000,1.000000
1309696.472204,-4.000000,-1.000000,39.000000,-6.000000,-3.000000,0.000000,-14.000000,-4.000000
1309696.472215,-14.000000,1.000000,-5.000000,3.000000,-8.000000,-5.000000,-24.000000,-7.000000
1309696.509528,38.000000,8.000000,2.000000,37.000000,-1.000000,1.000000,15.000000,-4.000000
1309696.509542,14.000000,46.000000,30.000000,57.000000,14.000000,2.000000,3.000000,1.000000
1309696.524321,-13.000000,-42.000000,-8.000000,-7.000000,14.000000,5.000000,-5.000000,-2.000000
1309696.524331,-10.000000,27.000000,7.000000,-23.000000,-10.000000,0.000000,-18.000000,-4.000000
1309696.547506,28.000000,15.000000,-31.000000,15.000000,-18.000000,2.000000,-6.000000,3.000000
1309696.547533,19.000000,-47.000000,-19.000000,-42.000000,-11.000000,-3.000000,8.000000,-4.000000
1309696.548017,42.000000,29.000000,6.000000,26.000000,29.000000,-13.000000,-6.000000,5.000000
1309696.548047,-23.000000,-14.000000,-20.000000,-51.000000,-6.000000,0.000000,2.000000,-4.000000
1309696.549488,11.000000,23.000000,-13.000000,-7.000000,-3.000000,-1.000000,-29.000000,-1.000000
1309696.549530,-12.000000,-14.000000,-6.000000,5.000000,-3.000000,-3.000000,3.000000,4.000000
1309696.550069,45.000000,-1.000000,18.000000,5.000000,3.000000,10.000000,15.000000,8.000000
1309696.550095,-52.000000,10.000000,-3.000000,-23.000000,-13.000000,3.000000,1.000000,3.000000
1309696.550705,26.000000,24.000000,20.000000,-13.000000,15.000000,-4.000000,-8.000000,0.000000
1309696.550713,-41.000000,7.000000,53.000000,38.000000,8.000000,-12.000000,-19.000000,0.000000
1309696.561681,1.000000,-45.000000,-3.000000,-3.000000,0.000000,-1.000000,11.000000,-4.000000
1309696.561691,15.000000,29.000000,10.000000,40.000000,4.000000,10.000000,1.000000,7.000000
1309696.569238,16.000000,-18.000000,-28.000000,-33.000000,-1.000000,0.000000,-9.000000,-2.000000
1309696.569267,2.000000,-25.000000,-8.000000,55.000000,2.000000,-6.000000,-19.000000,-2.000000
1309696.584241,45.000000,-28.000000,-5.000000,-22.000000,10.000000,-1.000000,6.000000,-3.000000
1309696.584252,-25.000000,49.000000,-9.000000,-27.000000,-15.000000,-6.000000,-10.000000,1.000000
1309696.606871,3.000000,17.000000,31.000000,69.000000,43.000000,7.000000,-2.000000,-4.000000
1309696.606883,43.000000,31.000000,26.000000,16.000000,-4.000000,0.000000,9.000000,10.000000
1309696.629150,-46.000000,-6.000000,3.000000,0.000000,11.000000,8.000000,3.000000,-8.000000
1309696.629174,25.000000,-28.000000,-25.000000,-6.000000,-6.000000,-3.000000,7.000000,5.000000
1309696.644403,-9.000000,-4.000000,3.000000,7.000000,-9.000000,2.000000,-9.000000,-5.000000
1309696.644417,-9.000000,3.000000,6.000000,-13.000000,27.000000,4.000000,0.000000,-1.000000
1309696.645322,27.000000,-32.000000,0.000000,53.000000,-11.000000,-7.000000,11.000000,17.000000
1309696.645336,-12.000000,-19.000000,-28.000000,5.000000,-8.000000,-15.000000,-28.000000,-2.000000
1309696.645844,18.000000,26.000000,3.000000,-27.000000,-4.000000,12.000000,8.000000,6.000000
1309696.645853,-5.000000,4.000000,35.000000,37.000000,-1.000000,-4.000000,3.000000,3.000000
1309696.647155,11.000000,-17.000000,-24.000000,-4.000000,-12.000000,-4.000000,-7.000000,-5.000000
1309696.647165,-6.000000,1.000000,-25.000000,-24.000000,0.000000,3.000000,-2.000000,-11.000000
1309696.648010,34.000000,37.000000,-1.000000,4.000000,0.000000,-4.000000,-25.000000,2.000000
1309696.648020,14.000000,-21.000000,29.000000,-27.000000,5.000000,-1.000000,52.000000,-1.000000
1309696.667086,-14.000000,38.000000,-38.000000,-11.000000,11.000000,-10.000000,-26.000000,-8.000000
1309696.667102,20.000000,22.000000,2.000000,3.000000,-4.000000,-17.000000,-16.000000,-8.000000
1309696.667930,-33.000000,-12.000000,-7.000000,-2.000000,-13.000000,13.000000,-8.000000,1.000000
1309696.667945,31.000000,-13.000000,-22.000000,-3.000000,-6.000000,-3.000000,11.000000,-1.000000
1309696.682772,-5.000000,-7.000000,-11.000000,45.000000,16.000000,11.000000,8.000000,2.000000
1309696.682781,5.000000,16.000000,42.000000,-34.000000,-19.000000,-5.000000,-11.000000,-1.000000
1309696.689353,-83.000000,-37.000000,-80.000000,-12.000000,6.000000,-11.000000,-29.000000,-18.000000
1309696.689384,39.000000,24.000000,5.000000,-14.000000,-8.000000,-5.000000,16.000000,7.000000
1309696.704489,-29.000000,27.000000,22.000000,27.000000,12.000000,13.000000,-13.000000,0.000000
1309696.704506,1.000000,4.000000,-9.000000,-18.000000,-3.000000,-5.000000,28.000000,-5.000000
1309696.719401,13.000000,-35.000000,0.000000,21.000000,-4.000000,3.000000,4.000000,0.000000
1309696.719419,5.000000,21.000000,-15.000000,-12.000000,-3.000000,-6.000000,-22.000000,-3.000000
1309696.741907,-2.000000,-12.000000,4.000000,7.000000,-11.000000,0.000000,22.000000,0.000000
1309696.741918,-5.000000,-11.000000,-39.000000,-21.000000,-12.000000,-7.000000,-19.000000,-4.000000
1309696.764135,-16.000000,-9.000000,-1.000000,19.000000,0.000000,-10.000000,17.000000,-1.000000
1309696.764147,56.000000,-1.000000,-8.000000,-17.000000,-13.000000,-2.000000,-7.000000,1.000000
1309696.765181,4.000000,1.000000,11.000000,0.000000,13.000000,-4.000000,-8.000000,-5.000000
1309696.765200,-39.000000,70.000000,7.000000,-75.000000,-12.000000,6.000000,-9.000000,-11.000000
1309696.765916,54.000000,39.000000,15.000000,77.000000,14.000000,6.000000,10.000000,14.000000
1309696.766029,-23.000000,-31.000000,-11.000000,-20.000000,-21.000000,-2.000000,-10.000000,-12.000000
1309696.767256,-10.000000,-7.000000,-25.000000,12.000000,5.000000,-12.000000,-12.000000,1.000000
1309696.767265,18.000000,22.000000,18.000000,-20.000000,-15.000000,2.000000,3.000000,10.000000
1309696.787300,-41.000000,1.000000,-13.000000,-17.000000,-8.000000,4.000000,4.000000,-7.000000
1309696.787312,36.000000,1.000000,39.000000,-1.000000,5.000000,2.000000,-26.000000,8.000000
1309696.787996,24.000000,-22.000000,-38.000000,-4.000000,-6.000000,-7.000000,16.000000,-2.000000
1309696.788011,-40.000000,16.000000,-10.000000,-8.000000,-10.000000,-5.000000,-9.000000,0.000000
1309696.802287,9.000000,35.000000,23.000000,-2.000000,-17.000000,-3.000000,-9.000000,-9.000000
1309696.802297,4.000000,-14.000000,3.000000,-33.000000,-11.000000,1.000000,0.000000,-1.000000
1309696.824507,-11.000000,-18.000000,37.000000,109.000000,30.000000,7.000000,3.000000,-6.000000
1309696.824520,-5.000000,69.000000,15.000000,-53.000000,-5.000000,-1.000000,-24.000000,-2.000000
1309696.846738,-26.000000,-21.000000,-2.000000,-51.000000,-31.000000,-2.000000,37.000000,-1.000000
1309696.846763,14.000000,-61.000000,-26.000000,38.000000,-13.000000,-5.000000,4.000000,-10.000000
1309696.854261,5.000000,41.000000,16.000000,6.000000,-2.000000,-3.000000,-7.000000,-2.000000
1309696.854290,-24.000000,14.000000,2.000000,-12.000000,-7.000000,0.000000,-37.000000,0.000000
1309696.884588,32.000000,-4.000000,-23.000000,-3.000000,5.000000,1.000000,17.000000,-2.000000
1309696.884600,-6.000000,15.000000,19.000000,-4.000000,17.000000,-2.000000,1.000000,-3.000000
1309696.884997,39.000000,9.000000,1.000000,-9.000000,-14.000000,1.000000,13.000000,7.000000
1309696.885024,-67.000000,-17.000000,1.000000,-3.000000,-11.000000,-3.000000,-4.000000,3.000000
1309696.885876,2.000000,14.000000,-6.000000,-5.000000,4.000000,7.000000,19.000000,-7.000000
1309696.885884,10.000000,0.000000,3.000000,-19.000000,-13.000000,-12.000000,-41.000000,1.000000
1309696.886560,-2.000000,-66.000000,-34.000000,0.000000,-5.000000,2.000000,-14.000000,-3.000000
1309696.886569,-3.000000,-22.000000,-10.000000,11.000000,3.000000,-1.000000,12.000000,-4.000000
1309696.888018,-1.000000,51.000000,11.000000,-45.000000,-7.000000,4.000000,22.000000,5.000000
1309696.888027,37.000000,6.000000,-28.000000,-17.000000,5.000000,-2.000000,12.000000,10.000000
1309696.899827,-13.000000,11.000000,16.000000,-7.000000,-19.000000,0.000000,1.000000,7.000000
1309696.899836,51.000000,-31.000000,-7.000000,-3.000000,-6.000000,-6.000000,-1.000000,3.000000
1309696.906594,4.000000,19.000000,1.000000,2.000000,0.000000,4.000000,-34.000000,-2.000000
1309696.906604,-16.000000,16.000000,23.000000,33.000000,10.000000,-2.000000,26.000000,6.000000
1309696.921867,16.000000,4.000000,-4.000000,-18.000000,-7.000000,10.000000,27.000000,-1.000000
1309696.921896,13.000000,-14.000000,1.000000,-42.000000,4.000000,1.000000,-15.000000,5.000000
1309696.944301,-14.000000,8.000000,-4.000000,-11.000000,-5.000000,-11.000000,-27.000000,-8.000000
1309696.944311,-6.000000,13.000000,-1.000000,16.000000,-4.000000,0.000000,9.000000,3.000000
1309696.966882,-8.000000,-7.000000,4.000000,-31.000000,-16.000000,0.000000,4.000000,-8.000000
1309696.966893,-10.000000,5.000000,-12.000000,-17.000000,-12.000000,-4.000000,-1.000000,-5.000000
1309696.981829,-3.000000,45.000000,7.000000,-3.000000,-18.000000,0.000000,11.000000,-2.000000
1309696.981935,-10.000000,-6.000000,3.000000,-5.000000,8.000000,-5.000000,-16.000000,-5.000000
1309697.004051,-5.000000,33.000000,-11.000000,31.000000,1.000000,-1.000000,4.000000,2.000000
1309697.004062,41.000000,-13.000000,13.000000,-1.000000,-9.000000,1.000000,-2.000000,1.000000
1309697.019551,-9.000000,-2.000000,-8.000000,26.000000,-6.000000,2.000000,-10.000000,-1.000000
1309697.019581,12.000000,-25.000000,-7.000000,-23.000000,19.000000,-1.000000,3.000000,1.000000
1309697.020445,-53.000000,10.000000,10.000000,-13.000000,-2.000000,-10.000000,-11.000000,-10.000000
1309697.020471,48.000000,26.000000,15.000000,3.000000,15.000000,1.000000,13.000000,8.000000
1309697.020961,-15.000000,4.000000,-10.000000,-41.000000,2.000000,7.000000,0.000000,-7.000000
1309697.020991,-53.000000,-10.000000,13.000000,42.000000,-14.000000,-3.000000,-22.000000,-10.000000
1309697.021575,36.000000,6.000000,-20.000000,17.000000,6.000000,10.000000,4.000000,-6.000000
1309697.021602,-13.000000,-14.000000,13.000000,-20.000000,-19.000000,-13.000000,-8.000000,7.000000
1309697.022329,35.000000,6.000000,-9.000000,-10.000000,2.000000,5.000000,-10.000000,7.000000
1309697.022355,-3.000000,3.000000,7.000000,7.000000,-6.000000,5.000000,6.000000,-6.000000
1309697.023036,11.000000,9.000000,-4.000000,-7.000000,3.000000,1.000000,17.000000,5.000000
1309697.023062,-1.000000,-17.000000,-10.000000,3.000000,-3.000000,-4.000000,2.000000,-4.000000
1309697.026709,5.000000,17.000000,21.000000,-1.000000,9.000000,-2.000000,6.000000,6.000000
1309697.026737,-29.000000,-12.000000,17.000000,-12.000000,7.000000,6.000000,12.000000,2.000000
1309697.042225,58.000000,-41.000000,-21.000000,-15.000000,-9.000000,-2.000000,-4.000000,5.000000
1309697.042241,-74.000000,-6.000000,-9.000000,7.000000,-20.000000,-13.000000,-9.000000,-14.000000
1309697.064634,-21.000000,0.000000,16.000000,4.000000,2.000000,-1.000000,10.000000,2.000000
1309697.064660,16.000000,-13.000000,1.000000,-35.000000,-21.000000,-3.000000,-2.000000,3.000000
1309697.101651,-32.000000,-14.000000,-21.000000,73.000000,36.000000,9.000000,0.000000,-20.000000
1309697.101766,-2.000000,33.000000,53.000000,-63.000000,-14.000000,-8.000000,4.000000,0.000000
1309697.116738,-1.000000,-14.000000,17.000000,127.000000,21.000000,7.000000,8.000000,4.000000
1309697.116747,-10.000000,-24.000000,19.000000,15.000000,1.000000,-3.000000,-11.000000,5.000000
1309697.117688,49.000000,-8.000000,4.000000,5.000000,7.000000,11.000000,23.000000,12.000000
1309697.117706,15.000000,-19.000000,-24.000000,-7.000000,-12.000000,-12.000000,-12.000000,-8.000000
1309697.118405,-13.000000,-34.000000,-3.000000,-18.000000,-1.000000,-8.000000,-8.000000,-1.000000
1309697.118414,-11.000000,-22.000000,4.000000,1.000000,5.000000,10.000000,7.000000,-4.000000
1309697.119654,3.000000,26.000000,0.000000,3.000000,14.000000,6.000000,2.000000,-1.000000
1309697.119662,1.000000,-30.000000,4.000000,9.000000,8.000000,4.000000,22.000000,2.000000
1309697.120486,-14.000000,-2.000000,6.000000,-4.000000,-22.000000,-22.000000,19.000000,-16.000000
1309697.120495,5.000000,-18.000000,25.000000,25.000000,46.000000,14.000000,-27.000000,-3.000000
1309697.139192,7.000000,30.000000,-14.000000,-12.000000,-7.000000,2.000000,7.000000,5.000000
1309697.139208,-11.000000,-13.000000,-14.000000,-1.000000,-7.000000,2.000000,-5.000000,7.000000
1309697.140680,-8.000000,-31.000000,-20.000000,-46.000000,-4.000000,-2.000000,8.000000,0.000000
1309697.140693,34.000000,-5.000000,31.000000,64.000000,7.000000,4.000000,-12.000000,0.000000
1309697.161896,-12.000000,0.000000,-22.000000,-7.000000,13.000000,-5.000000,-15.000000,-2.000000
1309697.161909,-22.000000,-30.000000,-9.000000,3.000000,27.000000,3.000000,15.000000,-4.000000
1309697.162928,-15.000000,34.000000,45.000000,-12.000000,-5.000000,8.000000,-8.000000,-6.000000
1309697.162936,-27.000000,-67.000000,-19.000000,-6.000000,-6.000000,-4.000000,-16.000000,-4.000000
1309697.176613,-4.000000,24.000000,63.000000,54.000000,21.000000,-5.000000,-1.000000,0.000000
1309697.176624,18.000000,-16.000000,-35.000000,-15.000000,-1.000000,3.000000,-2.000000,1.000000
1309697.191679,1.000000,15.000000,-2.000000,16.000000,-4.000000,2.000000,33.000000,9.000000
1309697.191697,-36.000000,9.000000,-7.000000,-23.000000,1.000000,-7.000000,-24.000000,-9.000000
1309697.199316,13.000000,-6.000000,5.000000,20.000000,-7.000000,-3.000000,-14.000000,-4.000000
1309697.199326,-3.000000,5.000000,11.000000,-9.000000,9.000000,-1.000000,9.000000,4.000000
1309697.236545,12.000000,-1.000000,-17.000000,-10.000000,3.000000,4.000000,-13.000000,3.000000
1309697.236555,0.000000,6.000000,-7.000000,1.000000,-3.000000,1.000000,19.000000,3.000000
1309697.236888,-45.000000,16.000000,5.000000,3.000000,11.000000,2.000000,-6.000000,-8.000000
1309697.236897,51.000000,25.000000,9.000000,-2.000000,8.000000,5.000000,24.000000,1.000000
1309697.238120,-55.000000,-16.000000,-18.000000,-9.000000,-16.000000,-14.000000,-18.000000,-11.000000
1309697.238127,6.000000,-8.000000,-7.000000,-5.000000,19.000000,-5.000000,-18.000000,9.000000
1309697.238764,-3.000000,7.000000,-1.000000,14.000000,3.000000,-5.000000,-10.000000,-3.000000
1309697.238772,24.000000,-1.000000,-6.000000,-44.000000,-11.000000,7.000000,41.000000,-5.000000
1309697.240335,-3.000000,-8.000000,9.000000,86.000000,7.000000,0.000000,-12.000000,-3.000000
1309697.240343,-21.000000,-21.000000,19.000000,-16.000000,-5.000000,1.000000,18.000000,-1.000000
1309697.259268,6.000000,20.000000,-7.000000,-15.000000,-12.000000,-3.000000,9.000000,1.000000
1309697.259297,-4.000000,-6.000000,-6.000000,-12.000000,28.000000,7.000000,3.000000,4.000000
1309697.260503,4.000000,35.000000,37.000000,-8.000000,-3.000000,-3.000000,-14.000000,-4.000000
1309697.260512,-2.000000,-2.000000,8.000000,-6.000000,-18.000000,-7.000000,-30.000000,-12.000000
1309697.281729,-8.000000,-7.000000,11.000000,-4.000000,-1.000000,-3.000000,5.000000,3.000000
1309697.281739,36.000000,-33.000000,-16.000000,33.000000,21.000000,4.000000,-11.000000,-4.000000
1309697.282919,-23.000000,-12.000000,-17.000000,-26.000000,-13.000000,-8.000000,-1.000000,-3.000000
1309697.282928,-7.000000,-4.000000,2.000000,-8.000000,6.000000,3.000000,7.000000,4.000000
1309697.296903,-13.000000,-39.000000,-4.000000,15.000000,-1.000000,0.000000,-4.000000,-8.000000
1309697.296914,14.000000,31.000000,0.000000,-14.000000,4.000000,7.000000,1.000000,1.000000
1309697.319113,-36.000000,-3.000000,3.000000,-20.000000,-11.000000,-1.000000,16.000000,2.000000
1309697.319124,0.000000,8.000000,11.000000,-25.000000,-8.000000,-6.000000,-33.000000,-9.000000
1309697.342030,-5.000000,-26.000000,-71.000000,-42.000000,-35.000000,-4.000000,22.000000,-8.000000
1309697.342059,15.000000,28.000000,12.000000,75.000000,11.000000,0.000000,-30.000000,2.000000
1309697.357433,-5.000000,-65.000000,22.000000,-24.000000,-15.000000,-6.000000,-11.000000,-1.000000
1309697.357447,-9.000000,-10.000000,-10.000000,28.000000,14.000000,-3.000000,31.000000,4.000000
1309697.357785,-13.000000,10.000000,2.000000,-5.000000,-2.000000,2.000000,2.000000,-5.000000
1309697.357792,82.000000,-25.000000,6.000000,-19.000000,13.000000,0.000000,-5.000000,-4.000000
1309697.358899,-15.000000,-15.000000,-13.000000,-2.000000,23.000000,3.000000,10.000000,6.000000
1309697.358907,-6.000000,55.000000,2.000000,-7.000000,-7.000000,-10.000000,-11.000000,3.000000
1309697.359781,-10.000000,0.000000,-13.000000,-11.000000,9.000000,9.000000,-21.000000,2.000000
1309697.359793,-7.000000,-16.000000,-43.000000,13.000000,-15.000000,-2.000000,2.000000,1.000000
1309697.360383,11.000000,13.000000,58.000000,22.000000,-4.000000,7.000000,20.000000,6.000000
1309697.360405,-32.000000,20.000000,-2.000000,18.000000,1.000000,9.000000,-1.000000,3.000000
1309697.379154,6.000000,-21.000000,-22.000000,-15.000000,-4.000000,5.000000,3.000000,-1.000000
1309697.379189,0.000000,17.000000,-10.000000,49.000000,14.000000,-2.000000,-35.000000,-7.000000
1309697.380420,-12.000000,18.000000,9.000000,-13.000000,-5.000000,-8.000000,18.000000,1.000000
1309697.380429,2.000000,-31.000000,-11.000000,-35.000000,13.000000,2.000000,15.000000,2.000000
1309697.387031,9.000000,22.000000,-2.000000,113.000000,7.000000,8.000000,-19.000000,-4.000000
1309697.387042,36.000000,-3.000000,66.000000,-10.000000,22.000000,0.000000,-14.000000,5.000000
1309697.401904,13.000000,16.000000,-22.000000,-39.000000,-12.000000,-6.000000,-16.000000,9.000000
1309697.401921,-9.000000,-21.000000,-13.000000,-17.000000,-6.000000,-15.000000,-5.000000,-5.000000
1309697.416587,-11.000000,26.000000,21.000000,38.000000,-8.000000,2.000000,5.000000,-3.000000
1309697.416599,37.000000,42.000000,34.000000,3.000000,-4.000000,3.000000,-7.000000,-7.000000
1309697.454237,-45.000000,-37.000000,-28.000000,40.000000,9.000000,10.000000,10.000000,5.000000
1309697.454255,7.000000,3.000000,-16.000000,-18.000000,20.000000,-3.000000,-29.000000,-6.000000
1309697.461516,1.000000,6.000000,11.000000,-8.000000,2.000000,-3.000000,10.000000,5.000000
1309697.461526,0.000000,-12.000000,5.000000,7.000000,-8.000000,9.000000,1.000000,4.000000
1309697.476813,0.000000,-7.000000,-13.000000,17.000000,-1.000000,-3.000000,0.000000,-1.000000
1309697.476825,3.000000,8.000000,13.000000,-7.000000,6.000000,-7.000000,20.000000,5.000000
1309697.506601,20.000000,-9.000000,-13.000000,-10.000000,-6.000000,-3.000000,-44.000000,2.000000
1309697.506612,5.000000,-37.000000,30.000000,13.000000,3.000000,-5.000000,37.000000,2.000000
1309697.514635,-4.000000,-48.000000,-30.000000,-49.000000,-11.000000,6.000000,8.000000,0.000000
1309697.514647,9.000000,18.000000,16.000000,-6.000000,-13.000000,-10.000000,-31.000000,-5.000000
1309697.515198,25.000000,20.000000,19.000000,-13.000000,-10.000000,-1.000000,-7.000000,-2.000000
1309697.515211,33.000000,-8.000000,24.000000,11.000000,-5.000000,0.000000,8.000000,-12.000000
1309697.515758,-59.000000,4.000000,-7.000000,-49.000000,-5.000000,5.000000,30.000000,3.000000
1309697.515786,-4.000000,-8.000000,-14.000000,-59.000000,-9.000000,-4.000000,-6.000000,4.000000
1309697.516378,-3.000000,-21.000000,11.000000,9.000000,-4.000000,-11.000000,-17.000000,-1.000000
1309697.516404,-9.000000,-11.000000,-1.000000,-3.000000,9.000000,1.000000,-8.000000,1.000000
1309697.521540,-2.000000,-21.000000,-8.000000,-6.000000,7.000000,-7.000000,-12.000000,-2.000000
1309697.521551,-16.000000,-9.000000,-9.000000,-7.000000,-16.000000,-15.000000,12.000000,-6.000000
1309697.537021,19.000000,11.000000,-29.000000,-3.000000,-9.000000,-3.000000,-25.000000,4.000000
1309697.537034,14.000000,-9.000000,15.000000,16.000000,-15.000000,0.000000,2.000000,6.000000
1309697.574470,-11.000000,-44.000000,-22.000000,-8.000000,6.000000,0.000000,5.000000,-5.000000
1309697.574481,55.000000,39.000000,4.000000,8.000000,20.000000,8.000000,16.000000,6.000000
1309697.581874,-27.000000,-14.000000,-14.000000,-25.000000,-13.000000,-10.000000,-19.000000,3.000000
1309697.581906,-62.000000,-51.000000,-16.000000,59.000000,-1.000000,-7.000000,-28.000000,-10.000000
1309697.582738,5.000000,-13.000000,8.000000,-11.000000,-5.000000,2.000000,6.000000,-13.000000
1309697.582745,-51.000000,35.000000,4.000000,-10.000000,-12.000000,6.000000,8.000000,1.000000
1309697.583316,47.000000,-56.000000,-11.000000,14.000000,-1.000000,-5.000000,30.000000,10.000000
1309697.583323,-31.000000,-1.000000,6.000000,-18.000000,1.000000,2.000000,-2.000000,-7.000000
1309697.585241,1.000000,49.000000,23.000000,25.000000,-10.000000,3.000000,-3.000000,-12.000000
1309697.585256,31.000000,-27.000000,-40.000000,-1.000000,7.000000,-2.000000,-35.000000,2.000000
1309697.589076,-18.000000,-21.000000,-27.000000,-6.000000,22.000000,-3.000000,2.000000,-9.000000
1309697.589086,-5.000000,-1.000000,10.000000,-13.000000,9.000000,5.000000,0.000000,-3.000000
1309697.597333,9.000000,23.000000,-5.000000,44.000000,1.000000,2.000000,7.000000,6.000000
1309697.597351,-8.000000,-36.000000,13.000000,-7.000000,-2.000000,4.000000,3.000000,-2.000000
1309697.619422,-4.000000,75.000000,-8.000000,-11.000000,-7.000000,1.000000,-4.000000,-6.000000
1309697.619434,0.000000,-2.000000,-15.000000,-29.000000,-11.000000,-6.000000,-5.000000,-1.000000
1309697.656749,-10.000000,-24.000000,14.000000,2.000000,0.000000,-5.000000,-13.000000,7.000000
1309697.656761,26.000000,-6.000000,-43.000000,-8.000000,-9.000000,-1.000000,1.000000,-3.000000
1309697.671930,8.000000,22.000000,30.000000,-2.000000,-10.000000,0.000000,-1.000000,-6.000000
1309697.671941,4.000000,-10.000000,-1.000000,-3.000000,-2.000000,7.000000,-1.000000,7.000000
1309697.694241,17.000000,-36.000000,-14.000000,7.000000,0.000000,-4.000000,-3.000000,4.000000
1309697.694252,3.000000,41.000000,25.000000,-2.000000,1.000000,-5.000000,-1.000000,5.000000
1309697.716968,-16.000000,-2.000000,-11.000000,9.000000,-1.000000,6.000000,13.000000,-10.000000
1309697.716980,28.000000,-29.000000,-8.000000,27.000000,17.000000,4.000000,21.000000,12.000000
1309697.732182,-22.000000,-4.000000,-6.000000,-5.000000,-11.000000,-1.000000,-8.000000,1.000000
1309697.732354,-10.000000,6.000000,20.000000,-38.000000,-13.000000,5.000000,4.000000,-1.000000
1309697.732606,5.000000,-7.000000,4.000000,-15.000000,-4.000000,7.000000,14.000000,1.000000
1309697.732729,1.000000,-4.000000,-22.000000,-12.000000,-12.000000,-5.000000,-12.000000,0.000000
1309697.733438,-3.000000,-54.000000,10.000000,59.000000,38.000000,17.000000,9.000000,5.000000
1309697.733449,9.000000,2.000000,4.000000,-4.000000,7.000000,7.000000,8.000000,-13.000000
1309697.739800,-3.000000,10.000000,2.000000,-28.000000,11.000000,5.000000,15.000000,-1.000000
1309697.739808,-27.000000,21.000000,4.000000,65.000000,5.000000,-2.000000,-20.000000,3.000000
1309697.754716,37.000000,-45.000000,-13.000000,-31.000000,-13.000000,-11.000000,-4.000000,1.000000
1309697.754725,2.000000,3.000000,2.000000,3.000000,13.000000,2.000000,5.000000,-9.000000
1309697.777265,-9.000000,10.000000,4.000000,-27.000000,-1.000000,-1.000000,17.000000,-3.000000
1309697.777330,1.000000,8.000000,-8.000000,-14.000000,-20.000000,-13.000000,-22.000000,8.000000
1309697.791576,-15.000000,-40.000000,-6.000000,3.000000,-13.000000,-13.000000,-7.000000,-7.000000
1309697.791586,40.000000,25.000000,6.000000,-51.000000,22.000000,2.000000,10.000000,0.000000
1309697.799078,-21.000000,20.000000,-5.000000,57.000000,-10.000000,6.000000,16.000000,0.000000
1309697.799088,44.000000,1.000000,-3.000000,-15.000000,-10.000000,-1.000000,-15.000000,-7.000000
1309697.814744,28.000000,-19.000000,-49.000000,-6.000000,-13.000000,-1.000000,-8.000000,8.000000
1309697.814759,-6.000000,5.000000,41.000000,9.000000,-11.000000,-1.000000,-4.000000,8.000000
1309697.815526,4.000000,9.000000,13.000000,24.000000,4.000000,2.000000,19.000000,3.000000
1309697.815536,27.000000,4.000000,-11.000000,51.000000,4.000000,2.000000,18.000000,1.000000
1309697.816806,-23.000000,11.000000,-3.000000,-7.000000,-16.000000,-9.000000,-18.000000,3.000000
1309697.816816,12.000000,42.000000,-11.000000,-8.000000,22.000000,0.000000,-3.000000,0.000000
1309697.836670,9.000000,-17.000000,-12.000000,-8.000000,-10.000000,4.000000,4.000000,-9.000000
1309697.836681,-19.000000,5.000000,-4.000000,1.000000,2.000000,8.000000,21.000000,0.000000
1309697.837883,10.000000,51.000000,24.000000,7.000000,6.000000,-11.000000,-26.000000,0.000000
1309697.837897,-4.000000,27.000000,1.000000,0.000000,1.000000,3.000000,25.000000,5.000000
1309697.851942,-92.000000,-17.000000,-7.000000,21.000000,-5.000000,9.000000,12.000000,-11.000000
1309697.852085,7.000000,-22.000000,6.000000,-21.000000,-3.000000,-2.000000,-11.000000,-5.000000
1309697.852921,-21.000000,-35.000000,24.000000,63.000000,9.000000,0.000000,20.000000,1.000000
1309697.852928,39.000000,-23.000000,-10.000000,1.000000,-2.000000,3.000000,15.000000,7.000000
1309697.858977,-5.000000,18.000000,-27.000000,-17.000000,-3.000000,-1.000000,-37.000000,7.000000
1309697.858985,-48.000000,42.000000,42.000000,34.000000,28.000000,5.000000,4.000000,-18.000000
1309697.874716,-33.000000,-37.000000,-7.000000,-40.000000,-13.000000,-1.000000,0.000000,-3.000000
1309697.874744,-29.000000,-9.000000,-28.000000,-3.000000,9.000000,12.000000,5.000000,-2.000000
1309697.896786,11.000000,27.000000,26.000000,-22.000000,-7.000000,3.000000,6.000000,3.000000
1309697.896798,19.000000,-14.000000,-36.000000,-13.000000,17.000000,-1.000000,-12.000000,6.000000
1309697.911759,9.000000,15.000000,25.000000,5.000000,-8.000000,0.000000,-2.000000,2.000000
1309697.911771,-33.000000,29.000000,31.000000,-36.000000,11.000000,8.000000,9.000000,-4.000000
1309697.933990,-6.000000,-20.000000,-10.000000,-20.000000,10.000000,-9.000000,0.000000,4.000000
1309697.934004,33.000000,0.000000,-27.000000,2.000000,2.000000,-1.000000,-1.000000,-4.000000
1309697.935006,18.000000,18.000000,33.000000,-9.000000,11.000000,13.000000,17.000000,7.000000
1309697.935014,-20.000000,-13.000000,-3.000000,60.000000,3.000000,11.000000,3.000000,-3.000000
1309697.935636,20.000000,-9.000000,-1.000000,0.000000,7.000000,-3.000000,-11.000000,-1.000000
1309697.935644,0.000000,6.000000,-17.000000,-8.000000,-17.000000,-7.000000,-10.000000,3.000000
1309697.937267,11.000000,25.000000,-4.000000,-5.000000,5.000000,3.000000,-5.000000,-6.000000
1309697.937276,9.000000,-20.000000,0.000000,-11.000000,-4.000000,0.000000,-1.000000,0.000000
1309697.941826,3.000000,-4.000000,9.000000,-17.000000,22.000000,13.000000,12.000000,4.000000
1309697.941853,2.000000,5.000000,-20.000000,-28.000000,-4.000000,-2.000000,1.000000,4.000000
1309697.949932,-9.000000,-10.000000,5.000000,31.000000,17.000000,4.000000,-7.000000,1.000000
1309697.949941,23.000000,-26.000000,-20.000000,-7.000000,14.000000,0.000000,-14.000000,-8.000000
1309697.971634,11.000000,36.000000,17.000000,16.000000,-4.000000,1.000000,11.000000,-1.000000
1309697.971645,-22.000000,-125.000000,6.000000,-12.000000,-8.000000,-5.000000,-11.000000,4.000000
1309697.972930,9.000000,-25.000000,17.000000,22.000000,-28.000000,-13.000000,-2.000000,-6.000000
1309697.972952,18.000000,25.000000,43.000000,-7.000000,-4.000000,5.000000,-15.000000,-6.000000
1309697.994573,-8.000000,39.000000,-13.000000,-8.000000,-20.000000,-7.000000,19.000000,-3.000000
1309697.994602,1.000000,-30.000000,-15.000000,-10.000000,-16.000000,-6.000000,-14.000000,8.000000
1309698.024046,25.000000,-33.000000,-23.000000,7.000000,13.000000,6.000000,2.000000,-6.000000
1309698.024057,-26.000000,28.000000,16.000000,7.000000,-6.000000,10.000000,17.000000,5.000000
1309698.031812,1.000000,-21.000000,-16.000000,-45.000000,10.000000,1.000000,4.000000,5.000000
1309698.031824,54.000000,-11.000000,-16.000000,0.000000,13.000000,-10.000000,-26.000000,-4.000000
1309698.054773,-3.000000,7.000000,8.000000,11.000000,-4.000000,5.000000,2.000000,-6.000000
1309698.054786,-28.000000,-1.000000,1.000000,28.000000,-10.000000,0.000000,12.000000,-5.000000
1309698.055504,12.000000,-33.000000,-28.000000,-67.000000,-19.000000,0.000000,3.000000,2.000000
1309698.055525,-5.000000,22.000000,22.000000,48.000000,6.000000,-12.000000,-46.000000,-7.000000
1309698.056666,-7.000000,6.000000,-27.000000,-29.000000,-16.000000,5.000000,7.000000,-4.000000
1309698.056686,29.000000,70.000000,19.000000,-13.000000,17.000000,4.000000,8.000000,-3.000000
1309698.057176,-16.000000,-5.000000,-16.000000,24.000000,9.000000,-11.000000,-18.000000,0.000000
1309698.057186,30.000000,25.000000,16.000000,-30.000000,10.000000,0.000000,-4.000000,12.000000
1309698.068977,-11.000000,7.000000,19.000000,-3.000000,16.000000,3.000000,1.000000,0.000000
1309698.068988,18.000000,9.000000,-56.000000,25.000000,9.000000,1.000000,10.000000,1.000000
1309698.070283,31.000000,-47.000000,-69.000000,-17.000000,-16.000000,-1.000000,9.000000,0.000000
1309698.070292,16.000000,26.000000,-10.000000,-22.000000,-3.000000,6.000000,-1.000000,5.000000
1309698.092025,3.000000,5.000000,14.000000,21.000000,-14.000000,0.000000,-16.000000,-1.000000
1309698.092060,4.000000,7.000000,1.000000,-38.000000,-6.000000,-1.000000,10.000000,-5.000000
1309698.093004,23.000000,14.000000,9.000000,92.000000,32.000000,14.000000,44.000000,13.000000
1309698.093012,0.000000,-20.000000,-5.000000,-8.000000,-3.000000,-17.000000,-51.000000,-2.000000
1309698.106809,-29.000000,6.000000,-7.000000,29.000000,-17.000000,-4.000000,-14.000000,-5.000000
1309698.106820,24.000000,1.000000,25.000000,-19.000000,-1.000000,1.000000,-17.000000,-12.000000
1309698.129225,13.000000,4.000000,8.000000,-11.000000,12.000000,2.000000,29.000000,1.000000
1309698.129253,1.000000,-6.000000,-10.000000,1.000000,-11.000000,2.000000,-6.000000,3.000000
1309698.136861,-20.000000,-31.000000,-12.000000,26.000000,-24.000000,-12.000000,-9.000000,-10.000000
1309698.136871,10.000000,21.000000,17.000000,-5.000000,-4.000000,3.000000,-8.000000,-1.000000
1309698.174223,-15.000000,40.000000,27.000000,-7.000000,-4.000000,-4.000000,11.000000,-2.000000
1309698.174234,18.000000,-14.000000,-8.000000,-4.000000,-10.000000,-5.000000,3.000000,-4.000000
1309698.189218,16.000000,-22.000000,13.000000,12.000000,11.000000,-2.000000,-21.000000,-4.000000
1309698.189271,4.000000,125.000000,36.000000,-54.000000,4.000000,5.000000,0.000000,1.000000
1309698.190255,34.000000,-37.000000,26.000000,-11.000000,-1.000000,0.000000,10.000000,2.000000
1309698.190281,-19.000000,19.000000,-62.000000,-4.000000,2.000000,-5.000000,3.000000,-5.000000
1309698.190928,12.000000,6.000000,5.000000,4.000000,-1.000000,-10.000000,13.000000,1.000000
1309698.190955,-40.000000,-5.000000,9.000000,-10.000000,-14.000000,-3.000000,-11.000000,-7.000000
1309698.192208,3.000000,-18.000000,-3.000000,-8.000000,6.000000,2.000000,13.000000,1.000000
1309698.192235,11.000000,-25.000000,-28.000000,-24.000000,-12.000000,-5.000000,3.000000,0.000000
1309698.211722,-12.000000,-1.000000,-38.000000,5.000000,-1.000000,-1.000000,-5.000000,-4.000000
1309698.211743,6.000000,-3.000000,43.000000,-24.000000,9.000000,9.000000,26.000000,0.000000
1309698.213078,15.000000,32.000000,-17.000000,3.000000,5.000000,-8.000000,-21.000000,0.000000
1309698.213110,-12.000000,-41.000000,2.000000,4.000000,-8.000000,2.000000,-1.000000,0.000000
1309698.226640,10.000000,-25.000000,2.000000,-4.000000,-1.000000,4.000000,1.000000,-2.000000
1309698.226650,4.000000,-12.000000,-7.000000,0.000000,-8.000000,-1.000000,0.000000,1.000000
1309698.249106,-17.000000,12.000000,28.000000,-11.000000,0.000000,1.000000,2.000000,-1.000000
1309698.249117,2.000000,-23.000000,6.000000,2.000000,1.000000,0.000000,1.000000,-2.000000
1309698.271699,0.000000,-7.000000,-16.000000,-6.000000,5.000000,-3.000000,-1.000000,-4.000000
1309698.271711,7.000000,-8.000000,-3.000000,0.000000,-1.000000,4.000000,2.000000,4.000000
1309698.294243,29.000000,-6.000000,6.000000,-4.000000,9.000000,4.000000,0.000000,-5.000000
1309698.294278,-7.000000,26.000000,3.000000,76.000000,13.000000,-6.000000,0.000000,-7.000000
1309698.302045,-6.000000,11.000000,11.000000,-6.000000,5.000000,-7.000000,33.000000,3.000000
1309698.302090,0.000000,-16.000000,-89.000000,-3.000000,0.000000,-10.000000,-11.000000,10.000000
1309698.331743,32.000000,-34.000000,-7.000000,-16.000000,-14.000000,-9.000000,-24.000000,-10.000000
1309698.331756,-23.000000,18.000000,6.000000,0.000000,-6.000000,-3.000000,-9.000000,-3.000000
1309698.332086,-12.000000,0.000000,-3.000000,-27.000000,3.000000,2.000000,15.000000,0.000000
1309698.332096,23.000000,-15.000000,-3.000000,64.000000,10.000000,-7.000000,-8.000000,6.000000
1309698.333407,-27.000000,-25.000000,-4.000000,8.000000,-4.000000,-8.000000,-30.000000,-2.000000
1309698.333418,26.000000,12.000000,-19.000000,-11.000000,-14.000000,-3.000000,-3.000000,6.000000
1309698.334706,-26.000000,20.000000,-14.000000,3.000000,2.000000,2.000000,15.000000,1.000000
1309698.334730,11.000000,-1.000000,24.000000,37.000000,4.000000,-15.000000,-38.000000,5.000000
1309698.339040,21.000000,-6.000000,22.000000,5.000000,-1.000000,1.000000,3.000000,13.000000
1309698.339061,-26.000000,17.000000,28.000000,10.000000,-11.000000,-16.000000,-34.000000,-9.000000
1309698.391831,13.000000,-8.000000,-16.000000,-39.000000,5.000000,5.000000,11.000000,7.000000
1309698.391842,-5.000000,-35.000000,-18.000000,-19.000000,-6.000000,-2.000000,-5.000000,-3.000000
1309698.406611,4.000000,40.000000,3.000000,21.000000,1.000000,6.000000,10.000000,3.000000
1309698.406631,0.000000,-13.000000,-1.000000,0.000000,-5.000000,-10.000000,-7.000000,-3.000000
1309698.407686,42.000000,-26.000000,30.000000,2.000000,46.000000,5.000000,-4.000000,-1.000000
1309698.407695,-15.000000,-46.000000,-6.000000,-7.000000,-2.000000,4.000000,-3.000000,-8.000000
1309698.408288,16.000000,70.000000,-17.000000,-16.000000,-1.000000,-5.000000,-11.000000,3.000000
1309698.408296,-5.000000,-21.000000,16.000000,33.000000,4.000000,-6.000000,13.000000,-2.000000
1309698.409808,-13.000000,34.000000,10.000000,-30.000000,11.000000,6.000000,12.000000,1.000000
1309698.409817,2.000000,12.000000,17.000000,0.000000,-7.000000,-5.000000,-1.000000,1.000000
1309698.415087,46.000000,2.000000,3.000000,-8.000000,1.000000,0.000000,26.000000,3.000000
1309698.415115,10.000000,-22.000000,22.000000,1.000000,-6.000000,-1.000000,-21.000000,3.000000
1309698.429480,-14.000000,-59.000000,-9.000000,-44.000000,-17.000000,-6.000000,11.000000,3.000000
1309698.429512,22.000000,82.000000,0.000000,-38.000000,-32.000000,-5.000000,1.000000,-6.000000
1309698.430781,0.000000,-15.000000,24.000000,-44.000000,17.000000,3.000000,-3.000000,3.000000
1309698.430791,-7.000000,-24.000000,-13.000000,95.000000,6.000000,-8.000000,-6.000000,0.000000
1309698.451699,15.000000,35.000000,25.000000,-11.000000,-5.000000,-3.000000,-1.000000,-2.000000
1309698.451720,-7.000000,-8.000000,3.000000,-13.000000,0.000000,-7.000000,4.000000,-3.000000
1309698.452793,-28.000000,-3.000000,-9.000000,11.000000,7.000000,1.000000,-21.000000,-3.000000
1309698.452846,37.000000,-19.000000,-41.000000,-24.000000,-6.000000,2.000000,15.000000,3.000000
1309698.458999,-3.000000,-6.000000,16.000000,38.000000,-15.000000,-2.000000,9.000000,-4.000000
1309698.459008,0.000000,-15.000000,8.000000,23.000000,24.000000,-6.000000,-21.000000,-1.000000
1309698.504280,-5.000000,-23.000000,-13.000000,-19.000000,-1.000000,-12.000000,-20.000000,-10.000000
1309698.504310,-3.000000,7.000000,15.000000,-1.000000,-10.000000,2.000000,6.000000,5.000000
1309698.511510,-24.000000,7.000000,-2.000000,-5.000000,3.000000,4.000000,21.000000,2.000000
1309698.511520,39.000000,-21.000000,11.000000,-2.000000,0.000000,4.000000,3.000000,9.000000
1309698.549066,-32.000000,28.000000,-15.000000,-22.000000,5.000000,4.000000,4.000000,-1.000000
1309698.549076,9.000000,41.000000,46.000000,27.000000,6.000000,2.000000,-1.000000,1.000000
1309698.549522,-11.000000,-13.000000,-12.000000,-11.000000,-22.000000,-6.000000,-19.000000,-6.000000
1309698.549530,28.000000,-29.000000,-17.000000,-53.000000,1.000000,-10.000000,8.000000,7.000000
1309698.550871,44.000000,21.000000,-7.000000,62.000000,5.000000,-5.000000,-8.000000,1.000000
1309698.550880,-12.000000,-11.000000,33.000000,10.000000,3.000000,-3.000000,3.000000,9.000000
1309698.551620,4.000000,-1.000000,-17.000000,-15.000000,-4.000000,0.000000,19.000000,2.000000
1309698.551630,0.000000,18.000000,-19.000000,-16.000000,-12.000000,3.000000,-19.000000,-9.000000
1309698.552947,-9.000000,20.000000,45.000000,-2.000000,-3.000000,-5.000000,-8.000000,2.000000
1309698.552955,3.000000,-13.000000,-43.000000,-31.000000,-7.000000,5.000000,15.000000,-3.000000
1309698.564164,-9.000000,17.000000,15.000000,3.000000,0.000000,8.000000,11.000000,-1.000000
1309698.564174,-7.000000,-17.000000,1.000000,-16.000000,-27.000000,-4.000000,-4.000000,0.000000
1309698.572328,-7.000000,1.000000,-22.000000,10.000000,-7.000000,4.000000,-1.000000,-3.000000
1309698.572349,-7.000000,9.000000,36.000000,34.000000,21.000000,-1.000000,14.000000,-2.000000
1309698.586884,6.000000,21.000000,14.000000,26.000000,8.000000,-4.000000,-34.000000,1.000000
1309698.586895,1.000000,-79.000000,-3.000000,-41.000000,-3.000000,-10.000000,9.000000,4.000000
1309698.624470,-7.000000,38.000000,-24.000000,-21.000000,-6.000000,-1.000000,11.000000,-11.000000
1309698.624482,44.000000,27.000000,58.000000,-15.000000,-7.000000,1.000000,8.000000,10.000000
1309698.631770,-11.000000,7.000000,-4.000000,15.000000,1.000000,4.000000,5.000000,0.000000
1309698.631781,1.000000,-2.000000,3.000000,-16.000000,-7.000000,-1.000000,-10.000000,-12.000000
1309698.647615,-7.000000,15.000000,12.000000,-6.000000,19.000000,2.000000,6.000000,8.000000
1309698.647626,0.000000,-27.000000,3.000000,17.000000,0.000000,-7.000000,-3.000000,2.000000
1309698.647922,5.000000,10.000000,-13.000000,-6.000000,-10.000000,-9.000000,-19.000000,1.000000
1309698.647930,-26.000000,16.000000,13.000000,-2.000000,-2.000000,3.000000,4.000000,-10.000000
1309698.649110,7.000000,-5.000000,22.000000,-11.000000,-7.000000,3.000000,7.000000,-8.000000
1309698.649131,-1.000000,-54.000000,-11.000000,8.000000,5.000000,-5.000000,-24.000000,-3.000000
1309698.649913,27.000000,-21.000000,6.000000,5.000000,-3.000000,-2.000000,3.000000,9.000000
1309698.649934,-16.000000,68.000000,9.000000,-27.000000,5.000000,1.000000,25.000000,0.000000
1309698.669068,1.000000,-23.000000,8.000000,-16.000000,-8.000000,-6.000000,-9.000000,2.000000
1309698.669079,0.000000,-28.000000,12.000000,3.000000,-3.000000,13.000000,3.000000,0.000000
1309698.684474,-24.000000,18.000000,-4.000000,-37.000000,-17.000000,-2.000000,-10.000000,-9.000000
1309698.684516,16.000000,-15.000000,0.000000,50.000000,-2.000000,-8.000000,-22.000000,-1.000000
1309698.685348,-31.000000,20.000000,-33.000000,-24.000000,16.000000,15.000000,29.000000,-7.000000
1309698.685356,54.000000,42.000000,32.000000,3.000000,6.000000,-4.000000,-17.000000,-7.000000
1309698.686123,-15.000000,9.000000,-7.000000,-29.000000,-21.000000,-17.000000,-24.000000,8.000000
1309698.686130,-24.000000,-6.000000,-3.000000,27.000000,-4.000000,5.000000,16.000000,-8.000000
1309698.692434,-3.000000,3.000000,-15.000000,-9.000000,-14.000000,-1.000000,-5.000000,5.000000
1309698.692443,0.000000,2.000000,7.000000,-2.000000,-5.000000,8.000000,-1.000000,-2.000000
1309698.706625,-19.000000,-37.000000,-14.000000,4.000000,-4.000000,1.000000,13.000000,1.000000
1309698.706655,23.000000,24.000000,-12.000000,-28.000000,-1.000000,-11.000000,-19.000000,1.000000
1309698.744097,0.000000,45.000000,-17.000000,2.000000,-7.000000,-2.000000,12.000000,-3.000000
1309698.744113,1.000000,-20.000000,10.000000,2.000000,-15.000000,0.000000,-18.000000,-1.000000
1309698.766651,-4.000000,-13.000000,-19.000000,-12.000000,9.000000,-4.000000,4.000000,-4.000000
1309698.766661,-3.000000,21.000000,24.000000,-45.000000,8.000000,20.000000,14.000000,-4.000000
1309698.782110,4.000000,2.000000,-10.000000,-12.000000,-21.000000,-7.000000,1.000000,5.000000
1309698.782122,8.000000,-11.000000,9.000000,18.000000,-13.000000,0.000000,-27.000000,-4.000000
1309698.782652,-6.000000,30.000000,-11.000000,-11.000000,-5.000000,-6.000000,1.000000,-6.000000
1309698.782659,1.000000,7.000000,-17.000000,-17.000000,-12.000000,5.000000,20.000000,5.000000
1309698.783958,18.000000,-16.000000,0.000000,0.000000,25.000000,-3.000000,-4.000000,1.000000
1309698.783965,-10.000000,-21.000000,22.000000,-3.000000,-12.000000,-6.000000,17.000000,-1.000000
1309698.784607,41.000000,34.000000,10.000000,-20.000000,9.000000,8.000000,12.000000,6.000000
1309698.784614,-18.000000,-22.000000,-4.000000,-15.000000,-10.000000,-4.000000,-3.000000,0.000000
1309698.785434,-11.000000,-23.000000,-7.000000,-19.000000,-1.000000,-6.000000,-13.000000,4.000000
1309698.785441,5.000000,-12.000000,5.000000,21.000000,-6.000000,1.000000,-4.000000,-1.000000
1309698.804142,-8.000000,7.000000,-30.000000,-27.000000,-5.000000,1.000000,1.000000,-7.000000
1309698.804155,-22.000000,30.000000,48.000000,67.000000,8.000000,7.000000,17.000000,-6.000000
1309698.804686,12.000000,-21.000000,-35.000000,-10.000000,2.000000,0.000000,5.000000,9.000000
1309698.804695,20.000000,51.000000,2.000000,4.000000,9.000000,-6.000000,-7.000000,1.000000
1309698.841868,10.000000,70.000000,20.000000,22.000000,-3.000000,-7.000000,-18.000000,-5.000000
1309698.841883,-19.000000,17.000000,-6.000000,-43.000000,-27.000000,-2.000000,18.000000,-1.000000
1309698.849292,0.000000,-5.000000,-31.000000,-3.000000,7.000000,-4.000000,-36.000000,-2.000000
1309698.849310,19.000000,34.000000,10.000000,-34.000000,5.000000,-8.000000,12.000000,-17.000000
1309698.887050,20.000000,-30.000000,-17.000000,-4.000000,-9.000000,2.000000,17.000000,12.000000
1309698.887083,-23.000000,-19.000000,25.000000,14.000000,14.000000,7.000000,32.000000,3.000000
1309698.887536,-57.000000,12.000000,2.000000,-2.000000,-26.000000,-9.000000,-48.000000,-10.000000
1309698.887562,26.000000,16.000000,25.000000,40.000000,12.000000,12.000000,-7.000000,5.000000
1309698.888554,49.000000,-15.000000,9.000000,-11.000000,-12.000000,-5.000000,1.000000,0.000000
1309698.888564,-1.000000,13.000000,-1.000000,32.000000,-9.000000,-5.000000,-4.000000,-3.000000
1309698.889138,-15.000000,12.000000,-9.000000,-16.000000,0.000000,4.000000,2.000000,1.000000
1309698.889151,5.000000,-35.000000,-26.000000,-14.000000,-10.000000,-7.000000,-1.000000,-1.000000
1309698.890532,4.000000,-32.000000,-13.000000,-18.000000,-20.000000,-11.000000,-14.000000,-1.000000
1309698.890540,11.000000,-43.000000,-12.000000,19.000000,-5.000000,-5.000000,3.000000,6.000000
1309698.901765,-23.000000,23.000000,6.000000,6.000000,7.000000,7.000000,9.000000,3.000000
1309698.901782,37.000000,32.000000,10.000000,-32.000000,-13.000000,-8.000000,-6.000000,-4.000000
1309698.909092,-19.000000,-7.000000,-21.000000,-31.000000,-9.000000,-6.000000,-6.000000,4.000000
1309698.909102,31.000000,28.000000,29.000000,11.000000,-21.000000,-1.000000,-1.000000,-14.000000
1309698.931900,-15.000000,9.000000,-58.000000,49.000000,24.000000,-8.000000,-27.000000,1.000000
1309698.931913,-4.000000,-16.000000,17.000000,-18.000000,-6.000000,0.000000,35.000000,-1.000000
1309698.946850,11.000000,-14.000000,-1.000000,-5.000000,-11.000000,1.000000,-2.000000,3.000000
1309698.946869,-36.000000,-32.000000,8.000000,-23.000000,-13.000000,-7.000000,-15.000000,-3.000000
1309698.947808,25.000000,39.000000,2.000000,-49.000000,-10.000000,6.000000,13.000000,-1.000000
1309698.947817,5.000000,-44.000000,4.000000,10.000000,3.000000,3.000000,-16.000000,0.000000
1309698.948315,-10.000000,21.000000,8.000000,37.000000,-8.000000,-4.000000,21.000000,2.000000
1309698.948324,-2.000000,-9.000000,-15.000000,-41.000000,-8.000000,-5.000000,-21.000000,-1.000000
1309698.961557,-2.000000,-11.000000,23.000000,15.000000,15.000000,0.000000,25.000000,0.000000
1309698.961568,5.000000,34.000000,2.000000,-36.000000,-14.000000,-1.000000,-33.000000,-6.000000
1309698.962114,3.000000,27.000000,-13.000000,-7.000000,-13.000000,2.000000,20.000000,-3.000000
1309698.962122,0.000000,-56.000000,0.000000,1.000000,21.000000,-10.000000,-3.000000,3.000000
1309698.984231,21.000000,36.000000,6.000000,59.000000,-1.000000,2.000000,2.000000,7.000000
1309698.984241,0.000000,-10.000000,-14.000000,-15.000000,-11.000000,-3.000000,-8.000000,-10.000000
1309699.006577,-16.000000,-3.000000,10.000000,6.000000,21.000000,9.000000,14.000000,2.000000
1309699.006588,7.000000,-48.000000,-25.000000,-6.000000,6.000000,-3.000000,-1.000000,0.000000
1309699.007511,-5.000000,35.000000,11.000000,20.000000,24.000000,1.000000,-6.000000,0.000000
1309699.007520,0.000000,-29.000000,8.000000,-18.000000,-5.000000,2.000000,30.000000,-1.000000
1309699.008181,-21.000000,-25.000000,-33.000000,-32.000000,8.000000,-12.000000,-53.000000,4.000000
1309699.008189,29.000000,17.000000,19.000000,52.000000,5.000000,1.000000,30.000000,2.000000
1309699.021903,-11.000000,35.000000,11.000000,-9.000000,2.000000,2.000000,-2.000000,-4.000000
1309699.021918,-10.000000,-7.000000,-5.000000,-10.000000,-1.000000,-1.000000,-19.000000,-5.000000
1309699.022470,1.000000,-7.000000,-13.000000,2.000000,5.000000,0.000000,6.000000,1.000000
1309699.022480,-4.000000,16.000000,9.000000,-43.000000,-5.000000,2.000000,3.000000,0.000000
1309699.059352,53.000000,0.000000,13.000000,39.000000,1.000000,5.000000,-7.000000,3.000000
1309699.059362,-61.000000,12.000000,-11.000000,-4.000000,-6.000000,0.000000,-3.000000,0.000000
1309699.066987,-6.000000,-10.000000,0.000000,-16.000000,-14.000000,0.000000,6.000000,-6.000000
1309699.066997,-19.000000,3.000000,6.000000,1.000000,6.000000,8.000000,13.000000,-3.000000
1309699.096723,-9.000000,-16.000000,-16.000000,-16.000000,-2.000000,-18.000000,-50.000000,-4.000000
1309699.096756,24.000000,26.000000,-3.000000,-21.000000,-3.000000,7.000000,21.000000,3.000000
1309699.103938,-14.000000,11.000000,7.000000,70.000000,-5.000000,-2.000000,8.000000,1.000000
1309699.103948,43.000000,0.000000,-1.000000,2.000000,6.000000,-1.000000,-8.000000,7.000000
1309699.105174,-31.000000,-9.000000,-1.000000,-23.000000,1.000000,-7.000000,-5.000000,-10.000000
1309699.105182,7.000000,13.000000,-2.000000,18.000000,-8.000000,0.000000,12.000000,8.000000
1309699.105746,4.000000,8.000000,-1.000000,11.000000,6.000000,-2.000000,9.000000,-6.000000
1309699.105754,0.000000,9.000000,-9.000000,-12.000000,-1.000000,0.000000,0.000000,-2.000000
1309699.107212,-21.000000,-26.000000,-4.000000,14.000000,-8.000000,-10.000000,-27.000000,-10.000000
1309699.107221,21.000000,0.000000,22.000000,-30.000000,-5.000000,8.000000,20.000000,6.000000
1309699.107953,1.000000,-27.000000,-20.000000,17.000000,6.000000,0.000000,7.000000,11.000000
1309699.107961,-1.000000,31.000000,6.000000,-42.000000,-13.000000,-4.000000,-1.000000,-3.000000
1309699.126987,-11.000000,45.000000,51.000000,-6.000000,3.000000,8.000000,0.000000,1.000000
1309699.127097,56.000000,-8.000000,-34.000000,-2.000000,-3.000000,-7.000000,-1.000000,7.000000
1309699.127367,-13.000000,24.000000,15.000000,-3.000000,22.000000,1.000000,-10.000000,-8.000000
1309699.127382,-10.000000,-16.000000,-20.000000,-26.000000,-11.000000,-2.000000,5.000000,0.000000
1309699.141716,5.000000,13.000000,-14.000000,11.000000,-1.000000,10.000000,10.000000,5.000000
1309699.141741,-13.000000,-26.000000,-27.000000,-22.000000,-4.000000,1.000000,37.000000,2.000000
1309699.142422,30.000000,21.000000,4.000000,39.000000,-1.000000,-23.000000,-59.000000,5.000000
1309699.142445,-30.000000,5.000000,6.000000,-11.000000,-6.000000,7.000000,13.000000,-11.000000
1309699.179275,8.000000,-8.000000,23.000000,-45.000000,-5.000000,0.000000,6.000000,1.000000
1309699.179297,18.000000,24.000000,-1.000000,-24.000000,-12.000000,-5.000000,-22.000000,3.000000
1309699.186664,4.000000,8.000000,-1.000000,4.000000,-8.000000,-7.000000,16.000000,0.000000
1309699.186715,-9.000000,-26.000000,-3.000000,14.000000,-14.000000,0.000000,29.000000,8.000000
1309699.224223,-17.000000,10.000000,-6.000000,-10.000000,18.000000,5.000000,-12.000000,-11.000000
1309699.224234,-2.000000,46.000000,30.000000,20.000000,2.000000,-5.000000,-13.000000,-4.000000
1309699.238948,30.000000,3.000000,-15.000000,4.000000,47.000000,10.000000,-21.000000,2.000000
1309699.238962,-20.000000,-57.000000,-13.000000,1.000000,-3.000000,-2.000000,-9.000000,-9.000000
1309699.239996,1.000000,8.000000,8.000000,-5.000000,-4.000000,2.000000,11.000000,3.000000
1309699.240004,-14.000000,-17.000000,-30.000000,-10.000000,-21.000000,1.000000,16.000000,4.000000
1309699.240639,-21.000000,8.000000,-9.000000,-31.000000,-4.000000,7.000000,-2.000000,-2.000000
1309699.240647,33.000000,-7.000000,-2.000000,34.000000,-7.000000,-3.000000,6.000000,-6.000000
1309699.242269,-47.000000,3.000000,15.000000,-1.000000,-5.000000,-4.000000,-27.000000,-8.000000
1309699.242277,-2.000000,-5.000000,-10.000000,-12.000000,-3.000000,-13.000000,-11.000000,5.000000
1309699.246570,6.000000,35.000000,3.000000,-42.000000,-32.000000,-5.000000,-62.000000,-4.000000
1309699.246601,-4.000000,-31.000000,-11.000000,-28.000000,-2.000000,-3.000000,42.000000,-7.000000
1309699.261866,18.000000,-20.000000,-14.000000,-6.000000,3.000000,-1.000000,13.000000,6.000000
1309699.261897,-32.000000,-3.000000,-9.000000,-12.000000,-10.000000,-7.000000,-28.000000,-5.000000
1309699.262258,7.000000,26.000000,19.000000,23.000000,0.000000,3.000000,12.000000,5.000000
1309699.262266,22.000000,-20.000000,-40.000000,0.000000,-6.000000,-4.000000,-14.000000,3.000000
1309699.284092,32.000000,3.000000,21.000000,-37.000000,2.000000,5.000000,-6.000000,-1.000000
1309699.284102,-1.000000,79.000000,55.000000,32.000000,7.000000,4.000000,2.000000,-5.000000
1309699.299201,-10.000000,-11.000000,3.000000,-20.000000,-14.000000,-2.000000,1.000000,0.000000
1309699.299212,31.000000,-38.000000,-4.000000,25.000000,-9.000000,3.000000,11.000000,-2.000000
1309699.337033,-31.000000,17.000000,4.000000,-12.000000,6.000000,-11.000000,9.000000,-2.000000
1309699.337046,32.000000,-13.000000,-38.000000,-27.000000,11.000000,9.000000,10.000000,7.000000
1309699.344438,-5.000000,-4.000000,-6.000000,3.000000,-19.000000,-17.000000,-38.000000,-4.000000
1309699.344450,-5.000000,28.000000,25.000000,-68.000000,38.000000,16.000000,7.000000,3.000000
1309699.359823,-29.000000,-3.000000,9.000000,14.000000,-3.000000,9.000000,13.000000,-6.000000
1309699.359840,27.000000,-44.000000,7.000000,-3.000000,-15.000000,-3.000000,5.000000,-3.000000
1309699.360225,31.000000,-15.000000,-1.000000,-23.000000,12.000000,9.000000,8.000000,0.000000
1309699.360234,-18.000000,51.000000,18.000000,24.000000,2.000000,-2.000000,-22.000000,-1.000000
1309699.361525,12.000000,-14.000000,3.000000,-7.000000,-12.000000,-8.000000,11.000000,3.000000
1309699.361534,1.000000,-36.000000,-12.000000,9.000000,2.000000,5.000000,37.000000,-5.000000
1309699.374029,38.000000,80.000000,18.000000,-23.000000,-20.000000,0.000000,-1.000000,9.000000
1309699.374039,-87.000000,-39.000000,2.000000,52.000000,25.000000,-5.000000,18.000000,-13.000000
1309699.382058,14.000000,-11.000000,-35.000000,21.000000,13.000000,0.000000,-6.000000,0.000000
1309699.382086,-3.000000,4.000000,-5.000000,2.000000,-18.000000,4.000000,6.000000,-1.000000
1309699.384044,9.000000,-3.000000,-4.000000,-42.000000,-15.000000,-5.000000,-7.000000,-1.000000
1309699.384053,-1.000000,-45.000000,-9.000000,-4.000000,13.000000,0.000000,-4.000000,-6.000000
1309699.404646,7.000000,11.000000,-8.000000,35.000000,-2.000000,9.000000,5.000000,2.000000
1309699.404655,-19.000000,33.000000,2.000000,-40.000000,-9.000000,2.000000,9.000000,5.000000
1309699.411620,47.000000,-29.000000,-1.000000,13.000000,8.000000,5.000000,25.000000,-4.000000
1309699.411638,0.000000,17.000000,7.000000,-33.000000,-4.000000,-23.000000,-53.000000,-1.000000
1309699.441936,-13.000000,5.000000,3.000000,-2.000000,-11.000000,-4.000000,21.000000,8.000000
1309699.441948,-2.000000,-25.000000,-10.000000,3.000000,-10.000000,5.000000,1.000000,0.000000
1309699.449249,14.000000,-38.000000,21.000000,-10.000000,9.000000,-4.000000,-5.000000,1.000000
1309699.449262,-2.000000,-5.000000,1.000000,-7.000000,-2.000000,12.000000,52.000000,-15.000000
1309699.464114,20.000000,-12.000000,-26.000000,-53.000000,-15.000000,-20.000000,-8.000000,16.000000
1309699.464124,-12.000000,26.000000,25.000000,93.000000,17.000000,7.000000,-25.000000,2.000000
1309699.479185,12.000000,10.000000,8.000000,-20.000000,0.000000,5.000000,-6.000000,-6.000000
1309699.479198,10.000000,-14.000000,29.000000,-11.000000,-16.000000,-4.000000,-3.000000,1.000000
1309699.480500,-9.000000,-23.000000,-35.000000,-37.000000,-12.000000,-8.000000,-6.000000,-3.000000
1309699.480512,6.000000,1.000000,28.000000,-19.000000,-10.000000,-1.000000,8.000000,-3.000000
1309699.480931,-27.000000,-6.000000,25.000000,2.000000,1.000000,0.000000,-15.000000,-9.000000
1309699.480941,23.000000,-4.000000,1.000000,-4.000000,9.000000,-6.000000,11.000000,12.000000
1309699.482427,2.000000,-19.000000,-56.000000,4.000000,-1.000000,-1.000000,10.000000,6.000000
1309699.482437,12.000000,27.000000,8.000000,5.000000,-19.000000,-12.000000,-13.000000,-7.000000
1309699.486414,3.000000,3.000000,32.000000,17.000000,31.000000,-3.000000,-10.000000,0.000000
1309699.486423,3.000000,26.000000,-110.000000,-24.000000,-6.000000,-3.000000,-3.000000,-5.000000
1309699.516872,-8.000000,56.000000,44.000000,33.000000,-4.000000,-3.000000,-1.000000,-3.000000
1309699.516882,2.000000,-13.000000,33.000000,49.000000,-5.000000,5.000000,20.000000,1.000000
1309699.524349,-13.000000,-58.000000,-17.000000,-27.000000,-4.000000,-12.000000,-31.000000,1.000000
1309699.524374,5.000000,21.000000,24.000000,-7.000000,-7.000000,-3.000000,4.000000,-2.000000
1309699.561793,-73.000000,-1.000000,3.000000,-15.000000,-18.000000,-11.000000,15.000000,-6.000000
1309699.561807,42.000000,-2.000000,-20.000000,-6.000000,2.000000,-1.000000,-35.000000,10.000000
1309699.576830,0.000000,22.000000,22.000000,44.000000,24.000000,-2.000000,40.000000,0.000000
1309699.576841,13.000000,-12.000000,-11.000000,-6.000000,0.000000,3.000000,28.000000,-5.000000
1309699.614390,14.000000,-26.000000,-12.000000,9.000000,-1.000000,1.000000,-27.000000,-5.000000
1309699.614419,6.000000,-27.000000,-12.000000,-3.000000,6.000000,5.000000,-14.000000,2.000000
1309699.621996,-18.000000,12.000000,-12.000000,-3.000000,-21.000000,3.000000,11.000000,-3.000000
1309699.622024,10.000000,-11.000000,-1.000000,-26.000000,-14.000000,-7.000000,-11.000000,2.000000
1309699.636855,6.000000,-22.000000,3.000000,55.000000,9.000000,-1.000000,-8.000000,-6.000000
1309699.636866,-51.000000,0.000000,6.000000,-10.000000,4.000000,-1.000000,-2.000000,-5.000000
1309699.659142,-21.000000,8.000000,-5.000000,-10.000000,-11.000000,-1.000000,-18.000000,-4.000000
1309699.659165,-5.000000,27.000000,8.000000,-4.000000,-7.000000,-2.000000,-5.000000,1.000000
1309699.674862,-3.000000,18.000000,9.000000,6.000000,19.000000,5.000000,13.000000,-2.000000
1309699.674871,14.000000,-41.000000,-23.000000,-19.000000,-2.000000,4.000000,1.000000,3.000000
1309699.675832,-5.000000,3.000000,22.000000,44.000000,11.000000,3.000000,1.000000,1.000000
1309699.675840,25.000000,-26.000000,-18.000000,13.000000,-8.000000,3.000000,-5.000000,2.000000
1309699.676516,22.000000,18.000000,6.000000,17.000000,1.000000,-3.000000,7.000000,0.000000
1309699.676524,-23.000000,-25.000000,-10.000000,15.000000,1.000000,-6.000000,-4.000000,-6.000000
1309699.678197,13.000000,9.000000,31.000000,-11.000000,-22.000000,-7.000000,3.000000,-6.000000
1309699.678207,-6.000000,27.000000,10.000000,7.000000,-10.000000,5.000000,24.000000,8.000000
1309699.681654,2.000000,31.000000,15.000000,32.000000,-12.000000,2.000000,12.000000,0.000000
1309699.681665,20.000000,-40.000000,-48.000000,3.000000,4.000000,3.000000,-9.000000,-5.000000
1309699.696512,2.000000,6.000000,36.000000,-7.000000,-11.000000,-7.000000,-8.000000,4.000000
1309699.696522,-4.000000,0.000000,-31.000000,2.000000,-4.000000,0.000000,-4.000000,-8.000000
1309699.719503,33.000000,-21.000000,-8.000000,-18.000000,-3.000000,-6.000000,2.000000,6.000000
1309699.719528,-31.000000,10.000000,-1.000000,39.000000,1.000000,-1.000000,-10.000000,-7.000000
1309699.734577,25.000000,0.000000,-11.000000,-29.000000,-12.000000,2.000000,-2.000000,-3.000000
1309699.734597,26.000000,0.000000,-14.000000,-12.000000,-7.000000,-6.000000,-5.000000,-2.000000
1309699.735169,-9.000000,16.000000,0.000000,-32.000000,1.000000,5.000000,12.000000,-2.000000
1309699.735186,-11.000000,19.000000,4.000000,-35.000000,-23.000000,-1.000000,17.000000,-3.000000
1309699.736629,17.000000,-9.000000,-82.000000,5.000000,-4.000000,-24.000000,-34.000000,6.000000
1309699.736638,7.000000,-1.000000,16.000000,11.000000,25.000000,13.000000,27.000000,4.000000
1309699.756926,7.000000,13.000000,43.000000,41.000000,-18.000000,-10.000000,-15.000000,2.000000
1309699.756955,6.000000,0.000000,-13.000000,-22.000000,0.000000,5.000000,10.000000,1.000000
1309699.758090,-9.000000,-39.000000,-23.000000,-22.000000,-7.000000,-4.000000,0.000000,-4.000000
1309699.758117,6.000000,-11.000000,-3.000000,59.000000,8.000000,3.000000,1.000000,1.000000
1309699.779215,12.000000,-3.000000,-11.000000,-24.000000,-12.000000,0.000000,-19.000000,3.000000
1309699.779226,12.000000,-31.000000,10.000000,-7.000000,-10.000000,-4.000000,10.000000,0.000000
1309699.802130,-38.000000,2.000000,-5.000000,-7.000000,6.000000,-11.000000,-10.000000,0.000000
1309699.802159,5.000000,11.000000,-44.000000,-30.000000,-12.000000,-6.000000,-27.000000,-8.000000
1309699.817405,2.000000,-52.000000,-22.000000,12.000000,-9.000000,-6.000000,6.000000,-2.000000
1309699.817422,4.000000,8.000000,-3.000000,-20.000000,-17.000000,-3.000000,-1.000000,2.000000
1309699.817871,-17.000000,29.000000,7.000000,-17.000000,5.000000,-2.000000,-11.000000,3.000000
1309699.817879,-46.000000,-3.000000,-16.000000,-1.000000,11.000000,-2.000000,-4.000000,-5.000000
1309699.818361,35.000000,3.000000,3.000000,5.000000,21.000000,2.000000,14.000000,1.000000
1309699.818368,14.000000,-1.000000,-2.000000,1.000000,-25.000000,-11.000000,-21.000000,4.000000
1309699.819863,25.000000,15.000000,8.000000,-12.000000,4.000000,11.000000,2.000000,7.000000
1309699.819872,-10.000000,-22.000000,7.000000,3.000000,11.000000,6.000000,18.000000,-1.000000
1309699.831619,-11.000000,28.000000,2.000000,-16.000000,1.000000,-6.000000,-11.000000,-1.000000
1309699.831643,19.000000,18.000000,18.000000,55.000000,-10.000000,2.000000,-8.000000,-6.000000
1309699.839671,-12.000000,-11.000000,-15.000000,-3.000000,-8.000000,-3.000000,13.000000,5.000000
1309699.839680,50.000000,-9.000000,-16.000000,-11.000000,17.000000,6.000000,4.000000,5.000000
1309699.854392,-7.000000,27.000000,25.000000,9.000000,-15.000000,0.000000,-3.000000,-5.000000
1309699.854405,11.000000,4.000000,11.000000,-6.000000,8.000000,1.000000,-6.000000,7.000000
1309699.855565,-2.000000,-31.000000,-14.000000,4.000000,10.000000,-3.000000,-7.000000,2.000000
1309699.855576,28.000000,3.000000,13.000000,-7.000000,-1.000000,2.000000,-20.000000,-1.000000
1309699.876847,-3.000000,-9.000000,16.000000,82.000000,7.000000,-5.000000,-3.000000,4.000000
1309699.876862,-10.000000,-84.000000,-3.000000,-13.000000,-2.000000,-2.000000,-8.000000,-2.000000
1309699.877941,3.000000,12.000000,2.000000,-23.000000,3.000000,4.000000,5.000000,-8.000000
1309699.877951,-17.000000,-9.000000,8.000000,52.000000,-7.000000,-13.000000,-12.000000,1.000000
1309699.891642,12.000000,-3.000000,-6.000000,-29.000000,-3.000000,4.000000,6.000000,-4.000000
1309699.891651,-30.000000,-9.000000,-21.000000,-11.000000,4.000000,-7.000000,-29.000000,7.000000
1309699.921594,-10.000000,32.000000,1.000000,-19.000000,-3.000000,1.000000,18.000000,-7.000000
1309699.921603,-31.000000,-27.000000,0.000000,-2.000000,3.000000,-3.000000,-35.000000,-9.000000
1309699.936653,15.000000,-10.000000,8.000000,13.000000,15.000000,-2.000000,6.000000,0.000000
1309699.936682,-21.000000,22.000000,-20.000000,-32.000000,1.000000,0.000000,9.000000,3.000000
1309699.952085,9.000000,-3.000000,60.000000,13.000000,-20.000000,4.000000,10.000000,9.000000
1309699.952094,-34.000000,-17.000000,-16.000000,-12.000000,7.000000,-1.000000,-20.000000,-1.000000
1309699.952858,-14.000000,3.000000,-15.000000,9.000000,6.000000,-5.000000,-1.000000,-12.000000
1309699.952866,-10.000000,24.000000,22.000000,-27.000000,-18.000000,-1.000000,8.000000,1.000000
1309699.953985,6.000000,-38.000000,-1.000000,-7.000000,-7.000000,0.000000,-4.000000,3.000000
1309699.953993,4.000000,13.000000,2.000000,-8.000000,3.000000,0.000000,-4.000000,1.000000
1309699.954647,-28.000000,-8.000000,-17.000000,-15.000000,-17.000000,0.000000,-2.000000,-4.000000
1309699.954655,-1.000000,-8.000000,10.000000,-41.000000,-14.000000,1.000000,2.000000,3.000000
1309699.959223,-48.000000,24.000000,-29.000000,36.000000,37.000000,12.000000,9.000000,-6.000000
1309699.959246,21.000000,31.000000,-13.000000,11.000000,-9.000000,-13.000000,12.000000,1.000000
1309699.966540,7.000000,-15.000000,11.000000,-6.000000,-10.000000,-13.000000,6.000000,4.000000
1309699.966551,28.000000,-38.000000,-26.000000,-8.000000,-4.000000,-3.000000,-12.000000,1.000000
1309699.974861,-3.000000,37.000000,15.000000,3.000000,5.000000,7.000000,8.000000,-2.000000
1309699.974870,-34.000000,-31.000000,16.000000,-22.000000,-18.000000,-5.000000,1.000000,0.000000
1309699.997285,7.000000,-13.000000,-5.000000,31.000000,-1.000000,2.000000,-11.000000,-9.000000
1309699.997312,-39.000000,-13.000000,0.000000,-28.000000,2.000000,-4.000000,-4.000000,-9.000000
1309699.998086,73.000000,22.000000,7.000000,-5.000000,-28.000000,-12.000000,-12.000000,17.000000
1309699.998112,-22.000000,-56.000000,-20.000000,4.000000,5.000000,3.000000,23.000000,3.000000
1309700.012030,-6.000000,0.000000,-3.000000,-4.000000,-1.000000,4.000000,12.000000,-4.000000
1309700.012041,-17.000000,24.000000,6.000000,10.000000,7.000000,-4.000000,4.000000,-16.000000
1309700.034464,-6.000000,11.000000,-6.000000,-7.000000,-8.000000,4.000000,-1.000000,5.000000
1309700.034478,13.000000,-34.000000,6.000000,54.000000,8.000000,-8.000000,-10.000000,0.000000
1309700.056763,-17.000000,8.000000,8.000000,-36.000000,-18.000000,2.000000,-2.000000,-2.000000
1309700.056788,-5.000000,28.000000,-60.000000,44.000000,-15.000000,-1.000000,9.000000,-1.000000
1309700.079106,7.000000,16.000000,49.000000,12.000000,12.000000,10.000000,-31.000000,-4.000000
1309700.079116,5.000000,42.000000,-5.000000,-26.000000,-9.000000,-8.000000,63.000000,-4.000000
1309700.086670,9.000000,10.000000,-22.000000,1.000000,-4.000000,-29.000000,-55.000000,9.000000
1309700.086679,19.000000,8.000000,-1.000000,-5.000000,-8.000000,3.000000,2.000000,-7.000000
1309700.116790,7.000000,-6.000000,14.000000,-6.000000,21.000000,3.000000,-8.000000,-1.000000
1309700.116815,-4.000000,13.000000,3.000000,-28.000000,-5.000000,-4.000000,-1.000000,-2.000000
1309700.117070,-19.000000,-13.000000,-4.000000,-14.000000,-23.000000,-2.000000,12.000000,-8.000000
1309700.117092,5.000000,-41.000000,-16.000000,0.000000,10.000000,-3.000000,1.000000,1.000000
1309700.118583,69.000000,-8.000000,38.000000,-14.000000,-7.000000,4.000000,-24.000000,2.000000
1309700.118600,-60.000000,-56.000000,-28.000000,-10.000000,-3.000000,-6.000000,49.000000,-14.000000
1309700.119103,-10.000000,18.000000,10.000000,51.000000,-5.000000,-18.000000,-7.000000,4.000000
1309700.119112,35.000000,1.000000,-13.000000,-12.000000,3.000000,6.000000,-24.000000,16.000000
1309700.119573,5.000000,-9.000000,6.000000,3.000000,34.000000,3.000000,-31.000000,-2.000000
1309700.119581,-2.000000,37.000000,13.000000,-13.000000,-8.000000,-2.000000,2.000000,-6.000000
1309700.123911,-5.000000,7.000000,35.000000,-40.000000,-10.000000,-1.000000,-11.000000,-7.000000
1309700.123920,17.000000,54.000000,-22.000000,-7.000000,-7.000000,5.000000,28.000000,6.000000
1309700.154182,16.000000,-21.000000,-6.000000,6.000000,-3.000000,-7.000000,-8.000000,1.000000
1309700.154192,-118.000000,11.000000,7.000000,-1.000000,4.000000,-11.000000,-31.000000,-16.000000
1309700.169009,-16.000000,23.000000,7.000000,-9.000000,-9.000000,-2.000000,3.000000,-7.000000
1309700.169024,19.000000,-7.000000,-17.000000,-2.000000,-6.000000,3.000000,0.000000,2.000000
1309700.170057,8.000000,-33.000000,-24.000000,-11.000000,42.000000,-8.000000,-13.000000,3.000000
1309700.170084,-1.000000,7.000000,20.000000,35.000000,19.000000,5.000000,4.000000,0.000000
1309700.170707,13.000000,-64.000000,-3.000000,-46.000000,-11.000000,1.000000,0.000000,-2.000000
1309700.170733,-31.000000,-32.000000,29.000000,-19.000000,-6.000000,-2.000000,-7.000000,-6.000000
1309700.176700,-10.000000,16.000000,-89.000000,5.000000,0.000000,-1.000000,-4.000000,-7.000000
1309700.176712,-1.000000,6.000000,6.000000,-3.000000,-6.000000,-10.000000,16.000000,-3.000000
1309700.191741,14.000000,-39.000000,-18.000000,17.000000,-1.000000,-14.000000,-19.000000,8.000000
1309700.191754,11.000000,26.000000,-8.000000,1.000000,17.000000,1.000000,-1.000000,7.000000
1309700.229242,-14.000000,16.000000,31.000000,16.000000,13.000000,11.000000,19.000000,-5.000000
1309700.229253,-10.000000,19.000000,2.000000,12.000000,4.000000,-5.000000,-12.000000,3.000000
1309700.237192,73.000000,1.000000,-13.000000,-14.000000,-24.000000,-4.000000,-10.000000,7.000000
1309700.237295,-12.000000,27.000000,-14.000000,-10.000000,-3.000000,2.000000,5.000000,0.000000
1309700.274468,12.000000,9.000000,18.000000,8.000000,2.000000,4.000000,12.000000,-8.000000
1309700.274482,-20.000000,-26.000000,-13.000000,10.000000,6.000000,-12.000000,-23.000000,-4.000000
1309700.289318,-4.000000,31.000000,-6.000000,-31.000000,2.000000,-1.000000,-11.000000,-10.000000
1309700.289329,-6.000000,9.000000,23.000000,26.000000,-14.000000,-2.000000,-5.000000,-1.000000
1309700.311593,9.000000,23.000000,-19.000000,-24.000000,5.000000,7.000000,6.000000,4.000000
1309700.311615,-5.000000,-15.000000,11.000000,12.000000,8.000000,6.000000,16.000000,-3.000000
1309700.312003,13.000000,54.000000,9.000000,-5.000000,-9.000000,-7.000000,-46.000000,1.000000
1309700.312029,-1.000000,-22.000000,-25.000000,-6.000000,-5.000000,6.000000,32.000000,5.000000
1309700.313223,-28.000000,-57.000000,1.000000,-36.000000,-2.000000,2.000000,4.000000,-2.000000
1309700.313241,10.000000,-3.000000,9.000000,2.000000,16.000000,3.000000,4.000000,-1.000000
1309700.314000,-7.000000,-5.000000,-4.000000,30.000000,-14.000000,-1.000000,5.000000,0.000000
1309700.314010,-1.000000,-9.000000,-46.000000,-25.000000,-13.000000,-11.000000,-10.000000,-10.000000
1309700.314572,3.000000,-3.000000,-7.000000,-21.000000,-18.000000,-9.000000,17.000000,-3.000000
1309700.314581,22.000000,-5.000000,-9.000000,-9.000000,6.000000,1.000000,-8.000000,6.000000
1309700.334478,33.000000,-14.000000,0.000000,26.000000,1.000000,-8.000000,26.000000,11.000000
1309700.334495,-5.000000,-37.000000,-8.000000,-4.000000,2.000000,-5.000000,-17.000000,-5.000000
1309700.334875,6.000000,14.000000,18.000000,-9.000000,-9.000000,-2.000000,-20.000000,-7.000000
1309700.334902,0.000000,5.000000,-36.000000,-24.000000,2.000000,5.000000,7.000000,1.000000
1309700.336205,-8.000000,-26.000000,21.000000,7.000000,-5.000000,-13.000000,5.000000,-7.000000
1309700.336215,31.000000,-11.000000,-12.000000,-13.000000,-1.000000,-15.000000,-32.000000,14.000000
1309700.349329,25.000000,61.000000,15.000000,-20.000000,30.000000,11.000000,10.000000,-4.000000
1309700.349345,-9.000000,-14.000000,-8.000000,21.000000,13.000000,9.000000,8.000000,4.000000
