# participant_id: P5
# gesture: hard
# trial_number: 1
# stream_name: Myo_EMG
# stream_type: emg
# timestamp: 20260420_140002
# samples: 5672
# duration_sec: 30.524
# nominal_sample_rate: 200.0
# effective_sample_rate: 185.79
#
timestamp,emg_1,emg_2,emg_3,emg_4,emg_5,emg_6,emg_7,emg_8
1298293.844234,127.000000,83.000000,91.000000,96.000000,27.000000,21.000000,113.000000,127.000000
1298293.844285,-128.000000,-128.000000,-65.000000,-128.000000,-22.000000,-20.000000,-75.000000,-128.000000
1298293.851843,-128.000000,-7.000000,-26.000000,-27.000000,-16.000000,8.000000,22.000000,-30.000000
1298293.851891,127.000000,1.000000,54.000000,35.000000,10.000000,28.000000,46.000000,92.000000
1298293.861321,81.000000,69.000000,-20.000000,18.000000,6.000000,-27.000000,46.000000,109.000000
1298293.861767,-128.000000,-128.000000,-111.000000,-27.000000,-25.000000,-72.000000,-128.000000,-128.000000
1298293.862121,63.000000,56.000000,38.000000,-3.000000,-9.000000,37.000000,58.000000,67.000000
1298293.862443,34.000000,-19.000000,34.000000,65.000000,39.000000,50.000000,70.000000,81.000000
1298293.863774,127.000000,28.000000,-51.000000,-49.000000,27.000000,30.000000,43.000000,80.000000
1298293.863818,-128.000000,-74.000000,-75.000000,9.000000,-14.000000,-10.000000,-39.000000,-65.000000
1298293.864085,41.000000,103.000000,29.000000,-45.000000,-14.000000,20.000000,28.000000,42.000000
1298293.864248,127.000000,40.000000,55.000000,4.000000,24.000000,9.000000,10.000000,38.000000
1298293.889531,-128.000000,-128.000000,-77.000000,-43.000000,-38.000000,-42.000000,-48.000000,-128.000000
1298293.889597,56.000000,67.000000,26.000000,30.000000,-3.000000,-25.000000,-76.000000,-128.000000
1298293.896741,127.000000,-4.000000,13.000000,7.000000,6.000000,34.000000,58.000000,79.000000
1298293.896787,127.000000,-28.000000,-31.000000,-128.000000,-59.000000,-24.000000,-30.000000,50.000000
1298293.911499,-128.000000,-65.000000,-16.000000,-20.000000,23.000000,35.000000,60.000000,46.000000
1298293.911541,-114.000000,7.000000,5.000000,75.000000,18.000000,-24.000000,9.000000,5.000000
1298293.912619,127.000000,75.000000,32.000000,-21.000000,-9.000000,3.000000,12.000000,94.000000
1298293.912673,-128.000000,-113.000000,-8.000000,-81.000000,-40.000000,-46.000000,-85.000000,-128.000000
1298293.926461,-73.000000,-128.000000,-93.000000,-27.000000,3.000000,10.000000,-8.000000,-16.000000
1298293.926515,127.000000,120.000000,9.000000,39.000000,42.000000,64.000000,81.000000,124.000000
1298293.934253,-27.000000,27.000000,29.000000,-10.000000,-4.000000,0.000000,28.000000,23.000000
1298293.934387,-64.000000,-36.000000,43.000000,41.000000,14.000000,-27.000000,-80.000000,-89.000000
1298293.949759,92.000000,54.000000,-94.000000,-57.000000,-24.000000,-2.000000,7.000000,6.000000
1298293.950231,123.000000,127.000000,120.000000,66.000000,44.000000,54.000000,52.000000,71.000000
1298293.950904,74.000000,127.000000,81.000000,98.000000,48.000000,33.000000,41.000000,62.000000
1298293.950932,-128.000000,-112.000000,-103.000000,-128.000000,-56.000000,-79.000000,-101.000000,-62.000000
1298293.951804,-118.000000,-23.000000,-35.000000,35.000000,-20.000000,-21.000000,-31.000000,-82.000000
1298293.951827,127.000000,127.000000,127.000000,76.000000,26.000000,29.000000,60.000000,104.000000
1298293.971963,-91.000000,-128.000000,-5.000000,2.000000,-2.000000,-30.000000,-61.000000,-88.000000
1298293.972331,-55.000000,-26.000000,34.000000,17.000000,-20.000000,-54.000000,-66.000000,-59.000000
1298293.973462,29.000000,-128.000000,-128.000000,-108.000000,4.000000,38.000000,26.000000,45.000000
1298293.973500,-39.000000,46.000000,47.000000,42.000000,23.000000,28.000000,29.000000,27.000000
1298293.979152,30.000000,71.000000,23.000000,6.000000,-4.000000,-17.000000,-52.000000,-52.000000
1298293.979188,127.000000,-95.000000,-5.000000,-53.000000,2.000000,35.000000,67.000000,105.000000
1298294.001482,-128.000000,26.000000,-42.000000,-35.000000,-28.000000,-35.000000,-68.000000,-128.000000
1298294.001828,127.000000,127.000000,88.000000,56.000000,68.000000,74.000000,102.000000,127.000000
1298294.002488,-128.000000,-128.000000,-116.000000,67.000000,-15.000000,-87.000000,-128.000000,-59.000000
1298294.002510,16.000000,-128.000000,-102.000000,-128.000000,-78.000000,-50.000000,-69.000000,-128.000000
1298294.016261,127.000000,104.000000,5.000000,1.000000,-24.000000,24.000000,11.000000,11.000000
1298294.016311,-52.000000,-33.000000,-1.000000,48.000000,48.000000,42.000000,110.000000,70.000000
1298294.023540,127.000000,127.000000,85.000000,58.000000,37.000000,-13.000000,-57.000000,39.000000
1298294.023588,-128.000000,-128.000000,-72.000000,-58.000000,-35.000000,-40.000000,-61.000000,-128.000000
1298294.046303,40.000000,-3.000000,-10.000000,-36.000000,-14.000000,45.000000,70.000000,70.000000
1298294.046352,-128.000000,13.000000,-35.000000,-79.000000,-69.000000,-83.000000,-111.000000,-109.000000
1298294.053753,127.000000,-20.000000,-70.000000,-16.000000,0.000000,-14.000000,-10.000000,12.000000
1298294.053804,83.000000,-8.000000,-57.000000,-22.000000,14.000000,47.000000,50.000000,43.000000
1298294.083948,120.000000,32.000000,61.000000,97.000000,38.000000,41.000000,58.000000,92.000000
1298294.083997,127.000000,55.000000,24.000000,-104.000000,-38.000000,-35.000000,-8.000000,50.000000
1298294.091920,-128.000000,-128.000000,-24.000000,53.000000,5.000000,-11.000000,-68.000000,-95.000000
1298294.091948,123.000000,97.000000,27.000000,19.000000,29.000000,48.000000,51.000000,42.000000
1298294.114506,127.000000,127.000000,66.000000,80.000000,46.000000,67.000000,127.000000,127.000000
1298294.114541,36.000000,-124.000000,-128.000000,-126.000000,-62.000000,-101.000000,-109.000000,-111.000000
1298294.114755,-128.000000,-71.000000,-40.000000,-27.000000,-13.000000,14.000000,12.000000,-107.000000
1298294.114826,127.000000,60.000000,3.000000,-54.000000,-10.000000,45.000000,73.000000,111.000000
1298294.122426,103.000000,125.000000,25.000000,57.000000,24.000000,27.000000,46.000000,45.000000
1298294.122745,-67.000000,22.000000,49.000000,79.000000,24.000000,38.000000,61.000000,82.000000
1298294.123035,83.000000,-48.000000,-99.000000,-41.000000,-35.000000,-67.000000,-117.000000,-85.000000
1298294.123257,-90.000000,42.000000,50.000000,-5.000000,0.000000,30.000000,59.000000,76.000000
1298294.124203,127.000000,15.000000,33.000000,127.000000,47.000000,53.000000,111.000000,127.000000
1298294.124460,127.000000,127.000000,15.000000,-75.000000,-2.000000,4.000000,33.000000,127.000000
1298294.125093,-1.000000,51.000000,17.000000,-6.000000,-7.000000,-19.000000,-89.000000,-128.000000
1298294.125144,28.000000,-123.000000,-86.000000,-10.000000,-10.000000,13.000000,27.000000,32.000000
1298294.129629,13.000000,-128.000000,-4.000000,96.000000,44.000000,43.000000,68.000000,72.000000
1298294.129675,127.000000,111.000000,50.000000,-45.000000,-41.000000,-57.000000,-21.000000,69.000000
1298294.166352,-128.000000,-128.000000,-92.000000,-128.000000,-57.000000,-35.000000,-128.000000,-128.000000
1298294.166401,127.000000,127.000000,127.000000,127.000000,57.000000,121.000000,127.000000,127.000000
1298294.189388,109.000000,-74.000000,-127.000000,-49.000000,15.000000,-33.000000,11.000000,70.000000
1298294.189413,-41.000000,68.000000,-12.000000,-110.000000,-50.000000,-31.000000,-13.000000,-50.000000
1298294.203986,126.000000,95.000000,42.000000,40.000000,9.000000,30.000000,17.000000,-13.000000
1298294.204042,84.000000,80.000000,70.000000,111.000000,48.000000,36.000000,30.000000,66.000000
1298294.205763,127.000000,-117.000000,-62.000000,-128.000000,-28.000000,10.000000,37.000000,55.000000
1298294.205953,-128.000000,-53.000000,-16.000000,13.000000,-24.000000,-31.000000,-33.000000,-31.000000
1298294.207984,-31.000000,64.000000,31.000000,38.000000,2.000000,-15.000000,-9.000000,-20.000000
1298294.208157,42.000000,74.000000,4.000000,-53.000000,9.000000,37.000000,-3.000000,73.000000
1298294.208601,127.000000,29.000000,54.000000,-37.000000,-31.000000,-61.000000,-96.000000,-65.000000
1298294.208647,-128.000000,-22.000000,-88.000000,-41.000000,15.000000,1.000000,0.000000,-27.000000
1298294.209087,127.000000,14.000000,-1.000000,-28.000000,-11.000000,30.000000,22.000000,90.000000
1298294.209132,-128.000000,-128.000000,43.000000,56.000000,11.000000,-7.000000,-5.000000,-2.000000
1298294.211413,-128.000000,-128.000000,-55.000000,-22.000000,-29.000000,-25.000000,-11.000000,-34.000000
1298294.211439,61.000000,-15.000000,5.000000,-32.000000,-1.000000,16.000000,20.000000,36.000000
1298294.218566,17.000000,127.000000,41.000000,25.000000,7.000000,10.000000,28.000000,29.000000
1298294.218614,127.000000,47.000000,44.000000,61.000000,51.000000,22.000000,40.000000,99.000000
1298294.241346,66.000000,-78.000000,-108.000000,-128.000000,-70.000000,-74.000000,-126.000000,-128.000000
1298294.241402,-5.000000,17.000000,21.000000,51.000000,7.000000,41.000000,37.000000,84.000000
1298294.248639,101.000000,88.000000,48.000000,75.000000,45.000000,43.000000,86.000000,105.000000
1298294.248689,127.000000,4.000000,-12.000000,-23.000000,-10.000000,-2.000000,-28.000000,56.000000
1298294.257838,26.000000,10.000000,-65.000000,-57.000000,-9.000000,-3.000000,-5.000000,-102.000000
1298294.257883,65.000000,-128.000000,14.000000,4.000000,6.000000,28.000000,59.000000,61.000000
1298294.263807,-114.000000,-4.000000,-34.000000,-30.000000,-24.000000,-71.000000,-128.000000,-128.000000
1298294.263832,69.000000,-74.000000,7.000000,71.000000,26.000000,6.000000,-16.000000,-5.000000
1298294.286462,119.000000,-62.000000,-119.000000,-128.000000,-28.000000,11.000000,57.000000,75.000000
1298294.286513,76.000000,127.000000,43.000000,3.000000,-3.000000,31.000000,28.000000,57.000000
1298294.294176,-128.000000,-128.000000,-75.000000,57.000000,6.000000,-32.000000,-51.000000,-96.000000
1298294.294239,-82.000000,36.000000,-11.000000,29.000000,24.000000,8.000000,6.000000,26.000000
1298294.323825,12.000000,-15.000000,-67.000000,-128.000000,-58.000000,-14.000000,0.000000,19.000000
1298294.323877,127.000000,127.000000,62.000000,34.000000,8.000000,35.000000,64.000000,80.000000
1298294.331446,-128.000000,-73.000000,-35.000000,20.000000,34.000000,2.000000,0.000000,-56.000000
1298294.331492,53.000000,5.000000,8.000000,-55.000000,-34.000000,-9.000000,-52.000000,-80.000000
1298294.354111,49.000000,-128.000000,-16.000000,-30.000000,-19.000000,-18.000000,18.000000,2.000000
1298294.354136,3.000000,-86.000000,-70.000000,-13.000000,-9.000000,0.000000,44.000000,65.000000
1298294.354260,40.000000,85.000000,65.000000,33.000000,27.000000,17.000000,26.000000,50.000000
1298294.354276,-16.000000,-42.000000,-26.000000,-14.000000,6.000000,18.000000,6.000000,-19.000000
1298294.361903,-64.000000,-14.000000,31.000000,34.000000,-7.000000,-2.000000,-3.000000,-14.000000
1298294.362216,12.000000,-29.000000,-48.000000,-46.000000,2.000000,8.000000,28.000000,18.000000
1298294.363018,-45.000000,13.000000,-10.000000,14.000000,-5.000000,53.000000,67.000000,53.000000
1298294.363068,84.000000,0.000000,-7.000000,-28.000000,1.000000,-47.000000,-31.000000,26.000000
1298294.364604,-38.000000,60.000000,102.000000,55.000000,5.000000,-1.000000,-22.000000,-16.000000
1298294.364625,29.000000,-73.000000,-46.000000,48.000000,5.000000,14.000000,43.000000,15.000000
1298294.364880,-32.000000,43.000000,0.000000,6.000000,27.000000,42.000000,76.000000,84.000000
1298294.364922,127.000000,11.000000,28.000000,-105.000000,-45.000000,-68.000000,-128.000000,-115.000000
1298294.376966,127.000000,105.000000,49.000000,-4.000000,5.000000,45.000000,35.000000,47.000000
1298294.377021,104.000000,50.000000,21.000000,73.000000,32.000000,21.000000,27.000000,46.000000
1298294.399232,127.000000,52.000000,-14.000000,-53.000000,24.000000,56.000000,56.000000,60.000000
1298294.399262,-110.000000,-55.000000,52.000000,25.000000,-30.000000,-92.000000,-128.000000,-128.000000
1298294.414288,-20.000000,103.000000,43.000000,47.000000,22.000000,44.000000,41.000000,-2.000000
1298294.414347,74.000000,88.000000,24.000000,27.000000,19.000000,-7.000000,-2.000000,35.000000
1298294.445317,-82.000000,-128.000000,19.000000,14.000000,6.000000,-8.000000,-50.000000,-110.000000
1298294.445373,-53.000000,24.000000,27.000000,21.000000,6.000000,19.000000,19.000000,-58.000000
1298294.446766,127.000000,-66.000000,-10.000000,-10.000000,10.000000,12.000000,48.000000,74.000000
1298294.447891,-128.000000,-9.000000,-11.000000,35.000000,10.000000,3.000000,11.000000,-37.000000
1298294.448351,23.000000,51.000000,-9.000000,-75.000000,-27.000000,-7.000000,11.000000,29.000000
1298294.448374,73.000000,-21.000000,-7.000000,98.000000,35.000000,46.000000,65.000000,42.000000
1298294.448635,5.000000,108.000000,82.000000,5.000000,-21.000000,-60.000000,-73.000000,-18.000000
1298294.448665,-128.000000,32.000000,9.000000,61.000000,31.000000,16.000000,23.000000,-28.000000
1298294.449037,77.000000,62.000000,41.000000,-11.000000,25.000000,52.000000,67.000000,68.000000
1298294.449083,104.000000,-14.000000,-49.000000,-100.000000,-21.000000,-3.000000,23.000000,40.000000
1298294.451338,46.000000,127.000000,73.000000,45.000000,17.000000,19.000000,19.000000,43.000000
1298294.451377,72.000000,22.000000,23.000000,32.000000,31.000000,17.000000,-9.000000,-31.000000
1298294.473854,127.000000,39.000000,86.000000,91.000000,31.000000,40.000000,91.000000,105.000000
1298294.473881,-128.000000,-38.000000,-101.000000,-106.000000,-54.000000,-65.000000,-111.000000,-83.000000
1298294.482289,-128.000000,-35.000000,-82.000000,-24.000000,-14.000000,-36.000000,-98.000000,-103.000000
1298294.482326,14.000000,20.000000,26.000000,-20.000000,-4.000000,25.000000,42.000000,27.000000
1298294.483089,110.000000,-38.000000,-12.000000,7.000000,4.000000,13.000000,56.000000,80.000000
1298294.483137,-7.000000,9.000000,23.000000,19.000000,11.000000,-19.000000,-27.000000,-28.000000
1298294.496260,37.000000,68.000000,32.000000,-9.000000,0.000000,2.000000,-39.000000,-68.000000
1298294.496311,-128.000000,-31.000000,-13.000000,9.000000,-12.000000,3.000000,4.000000,17.000000
1298294.503741,61.000000,102.000000,17.000000,-4.000000,24.000000,29.000000,36.000000,54.000000
1298294.503792,58.000000,-5.000000,-34.000000,-51.000000,-15.000000,-16.000000,-15.000000,-10.000000
1298294.526765,-128.000000,30.000000,22.000000,39.000000,14.000000,9.000000,11.000000,-9.000000
1298294.526795,82.000000,0.000000,-31.000000,-101.000000,-12.000000,23.000000,54.000000,87.000000
1298294.533692,127.000000,127.000000,123.000000,70.000000,22.000000,10.000000,5.000000,41.000000
1298294.533741,-128.000000,-128.000000,-66.000000,-28.000000,-19.000000,-43.000000,-64.000000,-128.000000
1298294.556768,92.000000,19.000000,3.000000,-47.000000,-12.000000,7.000000,19.000000,14.000000
1298294.556824,121.000000,-8.000000,10.000000,18.000000,-5.000000,-39.000000,-51.000000,4.000000
1298294.564432,-13.000000,-52.000000,-12.000000,19.000000,15.000000,17.000000,-5.000000,-38.000000
1298294.564462,-128.000000,-70.000000,-8.000000,-11.000000,-7.000000,0.000000,50.000000,38.000000
1298294.565950,127.000000,25.000000,3.000000,2.000000,3.000000,-4.000000,-23.000000,4.000000
1298294.566017,-128.000000,-47.000000,-25.000000,8.000000,0.000000,-3.000000,15.000000,7.000000
1298294.566670,-24.000000,5.000000,30.000000,8.000000,20.000000,3.000000,3.000000,-43.000000
1298294.566690,-128.000000,-70.000000,-34.000000,4.000000,-3.000000,-9.000000,-44.000000,-35.000000
1298294.571634,-15.000000,1.000000,18.000000,14.000000,-13.000000,-19.000000,-4.000000,14.000000
1298294.571672,39.000000,11.000000,17.000000,15.000000,9.000000,17.000000,51.000000,29.000000
1298294.593719,49.000000,48.000000,-13.000000,-12.000000,18.000000,5.000000,17.000000,50.000000
1298294.593767,-128.000000,-128.000000,53.000000,-30.000000,-38.000000,-43.000000,-128.000000,-128.000000
1298294.602767,32.000000,-120.000000,-128.000000,25.000000,14.000000,10.000000,44.000000,45.000000
1298294.602933,127.000000,127.000000,56.000000,18.000000,25.000000,28.000000,48.000000,74.000000
1298294.603215,-75.000000,-53.000000,-52.000000,-85.000000,-33.000000,-14.000000,-28.000000,-45.000000
1298294.603240,90.000000,85.000000,60.000000,10.000000,2.000000,19.000000,-7.000000,26.000000
1298294.631309,124.000000,83.000000,20.000000,119.000000,10.000000,-33.000000,-29.000000,40.000000
1298294.631336,109.000000,75.000000,-15.000000,-59.000000,-32.000000,-17.000000,-16.000000,-30.000000
1298294.638871,-98.000000,-69.000000,-12.000000,7.000000,-11.000000,9.000000,-12.000000,-53.000000
1298294.638897,127.000000,75.000000,46.000000,44.000000,28.000000,39.000000,71.000000,87.000000
1298294.676991,94.000000,13.000000,22.000000,-7.000000,0.000000,-43.000000,-94.000000,-41.000000
1298294.677021,-128.000000,11.000000,15.000000,11.000000,-9.000000,13.000000,27.000000,-30.000000
1298294.677177,48.000000,21.000000,-54.000000,-10.000000,8.000000,34.000000,51.000000,87.000000
1298294.677215,122.000000,119.000000,74.000000,27.000000,12.000000,-4.000000,-12.000000,20.000000
1298294.678785,-128.000000,-128.000000,-109.000000,-42.000000,-29.000000,-39.000000,-40.000000,-128.000000
1298294.678835,23.000000,71.000000,-10.000000,-61.000000,1.000000,17.000000,23.000000,9.000000
1298294.681265,-70.000000,31.000000,0.000000,-34.000000,-7.000000,8.000000,6.000000,24.000000
1298294.681290,34.000000,35.000000,115.000000,121.000000,60.000000,43.000000,85.000000,89.000000
1298294.681453,78.000000,62.000000,-48.000000,-109.000000,22.000000,-12.000000,-35.000000,-5.000000
1298294.681471,-128.000000,-128.000000,-63.000000,-9.000000,-22.000000,-13.000000,-8.000000,-68.000000
1298294.683809,47.000000,62.000000,45.000000,58.000000,10.000000,15.000000,21.000000,22.000000
1298294.683852,127.000000,-37.000000,-33.000000,106.000000,18.000000,-8.000000,9.000000,33.000000
1298294.691585,-46.000000,-22.000000,38.000000,-109.000000,-40.000000,-29.000000,-13.000000,-22.000000
1298294.691611,-128.000000,-77.000000,-20.000000,-24.000000,-9.000000,-16.000000,-50.000000,-89.000000
1298294.706238,72.000000,24.000000,52.000000,20.000000,5.000000,12.000000,39.000000,48.000000
1298294.706264,123.000000,37.000000,42.000000,23.000000,4.000000,-6.000000,-27.000000,59.000000
1298294.722251,127.000000,96.000000,-4.000000,-28.000000,-7.000000,-22.000000,-94.000000,-128.000000
1298294.722640,65.000000,59.000000,10.000000,11.000000,17.000000,61.000000,70.000000,57.000000
1298294.723226,127.000000,71.000000,27.000000,9.000000,8.000000,17.000000,44.000000,73.000000
1298294.723267,-128.000000,93.000000,-27.000000,-43.000000,-1.000000,-22.000000,-57.000000,-71.000000
1298294.744035,-128.000000,-107.000000,-26.000000,10.000000,4.000000,10.000000,20.000000,6.000000
1298294.744065,97.000000,83.000000,54.000000,26.000000,-1.000000,-11.000000,-5.000000,-14.000000
1298294.766709,83.000000,47.000000,54.000000,4.000000,32.000000,57.000000,95.000000,127.000000
1298294.766737,9.000000,-29.000000,-35.000000,-15.000000,-7.000000,-52.000000,-110.000000,-128.000000
1298294.796705,-128.000000,-37.000000,19.000000,27.000000,-24.000000,-17.000000,-32.000000,-73.000000
1298294.797103,127.000000,78.000000,4.000000,-3.000000,0.000000,14.000000,49.000000,52.000000
1298294.797730,-14.000000,-24.000000,57.000000,25.000000,7.000000,-3.000000,22.000000,38.000000
1298294.797779,4.000000,-17.000000,-13.000000,-23.000000,-5.000000,-1.000000,-10.000000,13.000000
1298294.799560,-9.000000,-26.000000,-14.000000,-30.000000,12.000000,22.000000,21.000000,31.000000
1298294.799608,-53.000000,-29.000000,-9.000000,3.000000,-12.000000,-17.000000,-41.000000,-62.000000
1298294.800594,13.000000,66.000000,40.000000,11.000000,-19.000000,-39.000000,-30.000000,-6.000000
1298294.800807,-19.000000,-5.000000,-21.000000,13.000000,5.000000,-1.000000,-13.000000,-13.000000
1298294.801237,113.000000,116.000000,-42.000000,-17.000000,3.000000,15.000000,78.000000,68.000000
1298294.801259,-128.000000,-63.000000,-25.000000,-50.000000,-31.000000,-57.000000,-90.000000,-107.000000
1298294.803978,96.000000,20.000000,11.000000,-2.000000,10.000000,24.000000,22.000000,19.000000
1298294.804035,-21.000000,-128.000000,-77.000000,-24.000000,-45.000000,-57.000000,-64.000000,-93.000000
1298294.811179,90.000000,90.000000,39.000000,57.000000,40.000000,67.000000,88.000000,86.000000
1298294.811225,-66.000000,24.000000,40.000000,-71.000000,-17.000000,-12.000000,-3.000000,-6.000000
1298294.834152,-34.000000,8.000000,-34.000000,2.000000,19.000000,-57.000000,-110.000000,-111.000000
1298294.834198,-105.000000,-24.000000,19.000000,16.000000,-7.000000,23.000000,58.000000,52.000000
1298294.835624,127.000000,42.000000,-11.000000,21.000000,20.000000,-11.000000,-10.000000,39.000000
1298294.835664,-128.000000,-57.000000,-78.000000,46.000000,-27.000000,-52.000000,-82.000000,-128.000000
1298294.841671,44.000000,-21.000000,-81.000000,-128.000000,-7.000000,28.000000,61.000000,77.000000
1298294.841719,89.000000,29.000000,83.000000,36.000000,-17.000000,-8.000000,0.000000,25.000000
1298294.856624,117.000000,127.000000,75.000000,127.000000,49.000000,33.000000,42.000000,25.000000
1298294.856650,-128.000000,-128.000000,-99.000000,-128.000000,-40.000000,-30.000000,-39.000000,-97.000000
1298294.879117,7.000000,8.000000,51.000000,57.000000,23.000000,57.000000,103.000000,98.000000
1298294.879168,41.000000,92.000000,8.000000,14.000000,-7.000000,-58.000000,-128.000000,-127.000000
1298294.894060,70.000000,56.000000,17.000000,16.000000,-1.000000,21.000000,29.000000,8.000000
1298294.894086,-88.000000,-128.000000,-48.000000,-8.000000,3.000000,13.000000,26.000000,-3.000000
1298294.908951,92.000000,91.000000,32.000000,-15.000000,-1.000000,11.000000,-12.000000,16.000000
1298294.908976,97.000000,127.000000,89.000000,107.000000,48.000000,39.000000,100.000000,127.000000
1298294.924033,14.000000,-30.000000,-51.000000,-128.000000,-54.000000,-72.000000,-128.000000,-128.000000
1298294.924088,-12.000000,-54.000000,-12.000000,-10.000000,-26.000000,-23.000000,-33.000000,-66.000000
1298294.931260,127.000000,127.000000,127.000000,127.000000,41.000000,86.000000,123.000000,125.000000
1298294.931311,-71.000000,-128.000000,-128.000000,-87.000000,-46.000000,-75.000000,-50.000000,-34.000000
1298294.947752,44.000000,75.000000,25.000000,12.000000,5.000000,-3.000000,-2.000000,0.000000
1298294.947816,-9.000000,70.000000,96.000000,120.000000,23.000000,12.000000,20.000000,11.000000
1298294.948817,49.000000,21.000000,-66.000000,-124.000000,-9.000000,10.000000,-9.000000,-28.000000
1298294.949255,-32.000000,-43.000000,-29.000000,-17.000000,-6.000000,8.000000,63.000000,61.000000
1298294.949948,-128.000000,-4.000000,34.000000,47.000000,-17.000000,-41.000000,-54.000000,-128.000000
1298294.950206,-37.000000,73.000000,75.000000,47.000000,14.000000,25.000000,5.000000,-1.000000
1298294.950642,5.000000,-80.000000,-128.000000,-62.000000,-21.000000,-13.000000,39.000000,58.000000
1298294.950684,107.000000,33.000000,62.000000,23.000000,8.000000,-9.000000,-17.000000,-1.000000
1298294.953778,84.000000,65.000000,-27.000000,-22.000000,-7.000000,15.000000,23.000000,55.000000
1298294.953802,90.000000,-9.000000,-10.000000,14.000000,12.000000,9.000000,22.000000,15.000000
1298294.968881,-103.000000,-49.000000,15.000000,1.000000,-4.000000,-7.000000,-32.000000,-65.000000
1298294.969085,-24.000000,7.000000,-17.000000,-19.000000,-6.000000,-16.000000,-57.000000,-37.000000
1298294.984141,71.000000,39.000000,40.000000,14.000000,-3.000000,16.000000,5.000000,14.000000
1298294.984185,113.000000,127.000000,-26.000000,45.000000,24.000000,8.000000,29.000000,43.000000
1298294.999056,-47.000000,32.000000,-71.000000,-66.000000,-57.000000,-66.000000,-90.000000,-63.000000
1298294.999112,116.000000,42.000000,-21.000000,-108.000000,-27.000000,13.000000,13.000000,11.000000
1298295.013719,-128.000000,-128.000000,-59.000000,40.000000,-16.000000,-39.000000,-46.000000,-85.000000
1298295.013768,127.000000,72.000000,46.000000,29.000000,31.000000,37.000000,34.000000,54.000000
1298295.021618,127.000000,99.000000,38.000000,11.000000,11.000000,35.000000,55.000000,68.000000
1298295.021645,-75.000000,-19.000000,-8.000000,-27.000000,-6.000000,-45.000000,-54.000000,-64.000000
1298295.043874,-17.000000,-50.000000,-26.000000,-44.000000,-14.000000,18.000000,41.000000,43.000000
1298295.043924,127.000000,89.000000,60.000000,76.000000,18.000000,36.000000,70.000000,106.000000
1298295.051671,-113.000000,-8.000000,31.000000,-20.000000,-35.000000,-42.000000,-74.000000,-37.000000
1298295.051726,-21.000000,40.000000,14.000000,12.000000,-5.000000,1.000000,6.000000,-43.000000
1298295.053034,45.000000,41.000000,35.000000,21.000000,24.000000,27.000000,52.000000,73.000000
1298295.053422,127.000000,-14.000000,26.000000,35.000000,9.000000,-10.000000,-4.000000,46.000000
1298295.053907,-128.000000,-84.000000,-11.000000,-14.000000,-19.000000,-26.000000,-48.000000,-76.000000
1298295.054151,39.000000,0.000000,57.000000,3.000000,5.000000,38.000000,51.000000,26.000000
1298295.055090,127.000000,40.000000,-35.000000,32.000000,12.000000,-4.000000,-40.000000,15.000000
1298295.055114,-69.000000,-47.000000,-59.000000,-26.000000,5.000000,-6.000000,30.000000,2.000000
1298295.075321,127.000000,27.000000,39.000000,-25.000000,-31.000000,-25.000000,-60.000000,-19.000000
1298295.075470,2.000000,25.000000,11.000000,18.000000,17.000000,32.000000,58.000000,17.000000
1298295.076197,16.000000,58.000000,-24.000000,26.000000,0.000000,-16.000000,-52.000000,-45.000000
1298295.076220,-128.000000,-128.000000,-20.000000,-105.000000,-30.000000,-32.000000,-20.000000,-39.000000
1298295.119163,73.000000,72.000000,-53.000000,-22.000000,9.000000,13.000000,20.000000,31.000000
1298295.119189,74.000000,27.000000,53.000000,75.000000,8.000000,0.000000,14.000000,51.000000
1298295.126231,78.000000,-83.000000,-15.000000,-67.000000,-21.000000,-30.000000,-59.000000,-71.000000
1298295.126281,-128.000000,73.000000,6.000000,20.000000,-3.000000,14.000000,37.000000,-5.000000
1298295.163985,127.000000,45.000000,31.000000,35.000000,28.000000,15.000000,5.000000,54.000000
1298295.164029,120.000000,27.000000,13.000000,15.000000,27.000000,13.000000,35.000000,90.000000
1298295.171374,-74.000000,-81.000000,-1.000000,-1.000000,-10.000000,-3.000000,-23.000000,-102.000000
1298295.171399,-93.000000,21.000000,34.000000,47.000000,17.000000,-11.000000,-15.000000,26.000000
1298295.194094,127.000000,14.000000,-74.000000,-55.000000,-32.000000,4.000000,13.000000,62.000000
1298295.194179,-128.000000,-89.000000,-38.000000,40.000000,7.000000,6.000000,0.000000,-109.000000
1298295.209069,120.000000,-36.000000,-26.000000,-27.000000,-12.000000,-11.000000,-42.000000,-51.000000
1298295.209110,89.000000,-51.000000,-19.000000,35.000000,25.000000,25.000000,33.000000,55.000000
1298295.231277,-128.000000,-19.000000,23.000000,25.000000,-8.000000,-5.000000,-7.000000,-30.000000
1298295.231303,64.000000,-75.000000,-21.000000,1.000000,4.000000,5.000000,27.000000,60.000000
1298295.277642,65.000000,55.000000,30.000000,43.000000,4.000000,0.000000,-18.000000,-63.000000
1298295.278182,-128.000000,-15.000000,-1.000000,-3.000000,15.000000,29.000000,34.000000,26.000000
1298295.279734,127.000000,127.000000,103.000000,40.000000,7.000000,4.000000,7.000000,36.000000
1298295.280280,53.000000,66.000000,-15.000000,-2.000000,36.000000,10.000000,2.000000,-8.000000
1298295.281413,118.000000,40.000000,-19.000000,-43.000000,-3.000000,-5.000000,7.000000,7.000000
1298295.281441,76.000000,-39.000000,-12.000000,8.000000,16.000000,31.000000,56.000000,45.000000
1298295.284685,-103.000000,-51.000000,-2.000000,58.000000,22.000000,-34.000000,-102.000000,-128.000000
1298295.284709,11.000000,21.000000,-91.000000,-92.000000,-32.000000,26.000000,25.000000,36.000000
1298295.299370,-128.000000,-60.000000,26.000000,73.000000,11.000000,2.000000,13.000000,-13.000000
1298295.299423,51.000000,73.000000,63.000000,73.000000,38.000000,24.000000,40.000000,61.000000
1298295.315150,127.000000,127.000000,-42.000000,-128.000000,-19.000000,26.000000,52.000000,96.000000
1298295.315197,-128.000000,-71.000000,6.000000,-34.000000,-15.000000,-33.000000,-46.000000,-56.000000
1298295.316008,28.000000,-128.000000,29.000000,44.000000,5.000000,8.000000,-17.000000,29.000000
1298295.316054,-115.000000,-31.000000,2.000000,4.000000,1.000000,-2.000000,16.000000,23.000000
1298295.359041,-25.000000,-28.000000,-1.000000,-24.000000,-20.000000,-39.000000,-47.000000,-48.000000
1298295.359066,127.000000,25.000000,19.000000,-8.000000,8.000000,13.000000,-9.000000,-6.000000
1298295.366208,52.000000,78.000000,40.000000,17.000000,19.000000,31.000000,45.000000,59.000000
1298295.366415,30.000000,55.000000,-2.000000,-16.000000,-5.000000,1.000000,16.000000,16.000000
1298295.397177,-47.000000,-20.000000,7.000000,21.000000,14.000000,-6.000000,-20.000000,-11.000000
1298295.397233,69.000000,85.000000,17.000000,-14.000000,0.000000,25.000000,20.000000,45.000000
1298295.397795,-67.000000,-52.000000,-62.000000,-58.000000,-15.000000,-8.000000,8.000000,-8.000000
1298295.397845,127.000000,67.000000,56.000000,20.000000,11.000000,13.000000,36.000000,66.000000
1298295.399549,-128.000000,-73.000000,6.000000,19.000000,35.000000,6.000000,25.000000,-77.000000
1298295.399610,-119.000000,-93.000000,-21.000000,-44.000000,-12.000000,7.000000,-55.000000,-44.000000
1298295.400025,101.000000,6.000000,9.000000,-46.000000,-24.000000,-16.000000,-20.000000,6.000000
1298295.400405,82.000000,56.000000,20.000000,34.000000,17.000000,44.000000,109.000000,113.000000
1298295.405187,-95.000000,-52.000000,-48.000000,-50.000000,-41.000000,-23.000000,-22.000000,-72.000000
1298295.405215,-12.000000,31.000000,23.000000,11.000000,4.000000,7.000000,2.000000,-13.000000
1298295.426539,-16.000000,84.000000,81.000000,45.000000,10.000000,2.000000,4.000000,-12.000000
1298295.426933,88.000000,-31.000000,25.000000,96.000000,68.000000,49.000000,73.000000,113.000000
1298295.433749,-99.000000,-98.000000,-39.000000,-113.000000,-77.000000,-111.000000,-128.000000,-128.000000
1298295.433798,38.000000,100.000000,20.000000,59.000000,29.000000,30.000000,27.000000,24.000000
1298295.434548,55.000000,-45.000000,28.000000,34.000000,-4.000000,7.000000,29.000000,29.000000
1298295.434631,-3.000000,-128.000000,-98.000000,-128.000000,-24.000000,-13.000000,2.000000,7.000000
1298295.463981,-45.000000,4.000000,7.000000,-1.000000,-2.000000,-16.000000,-41.000000,-47.000000
1298295.464007,18.000000,28.000000,-25.000000,-28.000000,2.000000,19.000000,21.000000,-1.000000
1298295.486420,31.000000,-8.000000,-12.000000,56.000000,42.000000,60.000000,37.000000,18.000000
1298295.486481,122.000000,66.000000,37.000000,-33.000000,-15.000000,-10.000000,-5.000000,90.000000
1298295.508978,-128.000000,27.000000,1.000000,41.000000,3.000000,5.000000,9.000000,-21.000000
1298295.509005,98.000000,6.000000,47.000000,-21.000000,-12.000000,-8.000000,-5.000000,19.000000
1298295.516385,-108.000000,-18.000000,21.000000,-11.000000,11.000000,36.000000,40.000000,29.000000
1298295.516430,89.000000,-70.000000,27.000000,19.000000,3.000000,-13.000000,12.000000,44.000000
1298295.554392,-12.000000,110.000000,-12.000000,8.000000,4.000000,19.000000,8.000000,-39.000000
1298295.554894,-19.000000,127.000000,16.000000,-54.000000,-14.000000,-38.000000,-118.000000,-83.000000
1298295.555955,-44.000000,39.000000,-31.000000,-14.000000,-14.000000,-15.000000,13.000000,-8.000000
1298295.556012,37.000000,109.000000,7.000000,87.000000,24.000000,16.000000,19.000000,19.000000
1298295.557043,84.000000,33.000000,22.000000,-20.000000,-3.000000,0.000000,31.000000,43.000000
1298295.557083,-114.000000,-20.000000,-106.000000,7.000000,3.000000,-20.000000,-43.000000,-67.000000
1298295.558009,54.000000,127.000000,40.000000,30.000000,8.000000,17.000000,28.000000,55.000000
1298295.558423,-37.000000,41.000000,2.000000,84.000000,33.000000,9.000000,15.000000,25.000000
1298295.606675,127.000000,111.000000,13.000000,-4.000000,18.000000,7.000000,-17.000000,37.000000
1298295.606828,127.000000,127.000000,96.000000,19.000000,3.000000,17.000000,22.000000,45.000000
1298295.613903,-19.000000,-128.000000,-112.000000,-19.000000,-14.000000,-35.000000,-18.000000,21.000000
1298295.613950,-128.000000,11.000000,7.000000,-47.000000,-15.000000,-6.000000,-39.000000,-56.000000
1298295.644540,127.000000,18.000000,-2.000000,85.000000,29.000000,29.000000,25.000000,6.000000
1298295.644587,-8.000000,1.000000,-11.000000,-61.000000,-12.000000,10.000000,48.000000,41.000000
1298295.651537,-128.000000,-64.000000,9.000000,-16.000000,-21.000000,-44.000000,-66.000000,-44.000000
1298295.651859,108.000000,45.000000,44.000000,72.000000,10.000000,-10.000000,-11.000000,4.000000
1298295.653383,-52.000000,-128.000000,-128.000000,-128.000000,-57.000000,-61.000000,-62.000000,-74.000000
1298295.653405,-128.000000,21.000000,87.000000,67.000000,22.000000,26.000000,36.000000,22.000000
1298295.667763,104.000000,81.000000,-21.000000,-11.000000,18.000000,36.000000,30.000000,43.000000
1298295.668207,-110.000000,22.000000,33.000000,-22.000000,-41.000000,-74.000000,-128.000000,-82.000000
1298295.668715,74.000000,-41.000000,1.000000,40.000000,9.000000,10.000000,7.000000,6.000000
1298295.668762,62.000000,66.000000,24.000000,37.000000,8.000000,16.000000,53.000000,78.000000
1298295.669913,-128.000000,-128.000000,-110.000000,-97.000000,-27.000000,-50.000000,-77.000000,-128.000000
1298295.669963,116.000000,127.000000,5.000000,5.000000,19.000000,34.000000,43.000000,36.000000
1298295.674137,-53.000000,-128.000000,-124.000000,-8.000000,-30.000000,-59.000000,-53.000000,-81.000000
1298295.674173,-62.000000,8.000000,-25.000000,-100.000000,-29.000000,2.000000,-3.000000,-7.000000
1298295.718680,22.000000,0.000000,40.000000,37.000000,23.000000,23.000000,25.000000,26.000000
1298295.718728,-11.000000,18.000000,-11.000000,16.000000,-14.000000,-26.000000,-52.000000,-77.000000
1298295.726717,126.000000,73.000000,31.000000,36.000000,7.000000,-5.000000,16.000000,77.000000
1298295.726770,-101.000000,-10.000000,3.000000,-14.000000,-8.000000,-31.000000,-85.000000,-128.000000
1298295.749067,48.000000,-1.000000,1.000000,-13.000000,-9.000000,15.000000,42.000000,63.000000
1298295.749102,-3.000000,-75.000000,-9.000000,-6.000000,1.000000,-20.000000,-30.000000,-61.000000
1298295.757397,-92.000000,19.000000,10.000000,6.000000,-6.000000,5.000000,-14.000000,11.000000
1298295.757595,103.000000,20.000000,-10.000000,-10.000000,-20.000000,-10.000000,-32.000000,-21.000000
1298295.758709,-50.000000,-61.000000,-35.000000,14.000000,10.000000,16.000000,48.000000,30.000000
1298295.758735,-49.000000,19.000000,-24.000000,-64.000000,-20.000000,-32.000000,-56.000000,-39.000000
1298295.759318,-128.000000,-24.000000,-23.000000,-32.000000,5.000000,13.000000,13.000000,-26.000000
1298295.759363,127.000000,88.000000,32.000000,25.000000,1.000000,21.000000,41.000000,65.000000
1298295.760763,83.000000,22.000000,-8.000000,32.000000,25.000000,27.000000,31.000000,54.000000
1298295.760822,98.000000,5.000000,80.000000,79.000000,11.000000,4.000000,8.000000,38.000000
1298295.764241,-56.000000,-41.000000,-42.000000,1.000000,15.000000,-3.000000,-23.000000,-18.000000
1298295.764288,100.000000,-75.000000,-76.000000,-63.000000,-16.000000,-5.000000,28.000000,25.000000
1298295.779287,-88.000000,18.000000,32.000000,-25.000000,-16.000000,-24.000000,-47.000000,-37.000000
1298295.779315,-18.000000,-128.000000,-52.000000,-13.000000,-20.000000,-15.000000,-23.000000,-63.000000
1298295.787619,-5.000000,-54.000000,11.000000,17.000000,9.000000,26.000000,35.000000,26.000000
1298295.787677,113.000000,127.000000,62.000000,14.000000,-6.000000,-33.000000,-54.000000,-18.000000
1298295.794051,-128.000000,-38.000000,-31.000000,30.000000,12.000000,-4.000000,17.000000,12.000000
1298295.794096,18.000000,-74.000000,-20.000000,-51.000000,-30.000000,-10.000000,-24.000000,-63.000000
1298295.839442,16.000000,41.000000,7.000000,38.000000,20.000000,9.000000,-12.000000,-19.000000
1298295.839497,16.000000,55.000000,-8.000000,-57.000000,-30.000000,-28.000000,-22.000000,-15.000000
1298295.869384,-12.000000,-15.000000,-54.000000,-13.000000,16.000000,18.000000,26.000000,30.000000
1298295.870169,78.000000,68.000000,115.000000,70.000000,16.000000,10.000000,16.000000,14.000000
1298295.871816,-23.000000,-128.000000,-103.000000,-70.000000,-12.000000,-19.000000,-31.000000,11.000000
1298295.871866,-51.000000,15.000000,-24.000000,-23.000000,-5.000000,-9.000000,-23.000000,-38.000000
1298295.872106,-22.000000,54.000000,10.000000,53.000000,15.000000,10.000000,38.000000,40.000000
1298295.872137,32.000000,-38.000000,56.000000,-16.000000,-11.000000,-15.000000,-17.000000,-12.000000
1298295.873387,-19.000000,-110.000000,-71.000000,-19.000000,-23.000000,-37.000000,-67.000000,-92.000000
1298295.873432,-68.000000,4.000000,-45.000000,-45.000000,-10.000000,22.000000,23.000000,-22.000000
1298295.874939,69.000000,-74.000000,31.000000,62.000000,41.000000,23.000000,35.000000,28.000000
1298295.874979,-128.000000,-46.000000,19.000000,-35.000000,-24.000000,-34.000000,-61.000000,-107.000000
1298295.876735,-60.000000,-128.000000,-128.000000,-62.000000,-40.000000,-57.000000,-9.000000,-59.000000
1298295.876782,-26.000000,2.000000,16.000000,-17.000000,-18.000000,-12.000000,-11.000000,-42.000000
1298295.892138,-14.000000,44.000000,43.000000,84.000000,35.000000,49.000000,72.000000,30.000000
1298295.892187,15.000000,-11.000000,-24.000000,2.000000,13.000000,-23.000000,-25.000000,36.000000
1298295.907115,50.000000,-128.000000,-62.000000,-5.000000,-15.000000,-35.000000,-7.000000,-28.000000
1298295.907171,-70.000000,-17.000000,56.000000,21.000000,-22.000000,-17.000000,-25.000000,-50.000000
1298295.908537,-79.000000,-73.000000,-86.000000,2.000000,26.000000,20.000000,23.000000,-1.000000
1298295.908584,127.000000,127.000000,18.000000,73.000000,14.000000,-49.000000,-62.000000,-42.000000
1298295.914211,-128.000000,-128.000000,-59.000000,-62.000000,-16.000000,0.000000,-19.000000,-78.000000
1298295.914257,114.000000,90.000000,56.000000,49.000000,23.000000,46.000000,53.000000,65.000000
1298295.951717,74.000000,-58.000000,-69.000000,-37.000000,-15.000000,-12.000000,61.000000,78.000000
1298295.951769,-106.000000,-10.000000,32.000000,-13.000000,-21.000000,-50.000000,-128.000000,-63.000000
1298295.958995,119.000000,103.000000,44.000000,29.000000,22.000000,58.000000,86.000000,38.000000
1298295.959020,-128.000000,1.000000,35.000000,0.000000,-1.000000,3.000000,39.000000,28.000000
1298295.996490,-74.000000,-128.000000,-3.000000,7.000000,-15.000000,-38.000000,-56.000000,-68.000000
1298295.996536,127.000000,60.000000,4.000000,13.000000,-4.000000,-4.000000,-62.000000,49.000000
1298296.018808,31.000000,-16.000000,35.000000,8.000000,5.000000,24.000000,65.000000,11.000000
1298296.018834,-63.000000,-26.000000,19.000000,0.000000,-11.000000,-15.000000,-40.000000,-40.000000
1298296.027625,127.000000,-1.000000,-71.000000,-12.000000,-10.000000,7.000000,54.000000,111.000000
1298296.027680,-100.000000,127.000000,52.000000,58.000000,32.000000,29.000000,12.000000,-24.000000
1298296.029985,73.000000,-59.000000,-78.000000,68.000000,-5.000000,-8.000000,20.000000,55.000000
1298296.030026,68.000000,2.000000,59.000000,23.000000,40.000000,-26.000000,-71.000000,-61.000000
1298296.031969,127.000000,68.000000,26.000000,29.000000,21.000000,4.000000,48.000000,127.000000
1298296.032019,-128.000000,-128.000000,-44.000000,-54.000000,-47.000000,-74.000000,-98.000000,-128.000000
1298296.034028,23.000000,49.000000,-104.000000,-32.000000,-11.000000,-6.000000,0.000000,-18.000000
1298296.034055,69.000000,29.000000,76.000000,48.000000,21.000000,-5.000000,1.000000,25.000000
1298296.064182,15.000000,45.000000,7.000000,-100.000000,-7.000000,26.000000,23.000000,2.000000
1298296.064253,22.000000,15.000000,62.000000,127.000000,41.000000,1.000000,-26.000000,-43.000000
1298296.071631,-103.000000,-7.000000,-78.000000,-128.000000,-2.000000,13.000000,7.000000,-6.000000
1298296.071671,19.000000,-18.000000,-11.000000,-15.000000,-1.000000,-3.000000,-30.000000,-12.000000
1298296.080493,127.000000,93.000000,45.000000,23.000000,-5.000000,1.000000,8.000000,20.000000
1298296.080611,-15.000000,17.000000,-6.000000,15.000000,5.000000,18.000000,1.000000,-10.000000
1298296.081213,127.000000,47.000000,13.000000,10.000000,-8.000000,7.000000,65.000000,78.000000
1298296.081248,-128.000000,-65.000000,-70.000000,-79.000000,-41.000000,-73.000000,-117.000000,-128.000000
1298296.101562,127.000000,-13.000000,1.000000,13.000000,-3.000000,24.000000,38.000000,34.000000
1298296.101666,-128.000000,-85.000000,-13.000000,-15.000000,-17.000000,-24.000000,-3.000000,-39.000000
1298296.109668,85.000000,68.000000,-13.000000,1.000000,-1.000000,-16.000000,-14.000000,16.000000
1298296.109704,127.000000,88.000000,39.000000,13.000000,5.000000,18.000000,41.000000,48.000000
1298296.111161,-128.000000,-112.000000,-26.000000,-33.000000,-6.000000,-9.000000,-55.000000,-30.000000
1298296.111300,24.000000,19.000000,6.000000,-9.000000,-5.000000,0.000000,12.000000,31.000000
1298296.116533,-24.000000,-73.000000,10.000000,50.000000,9.000000,25.000000,55.000000,21.000000
1298296.116557,-43.000000,30.000000,-72.000000,-25.000000,0.000000,-5.000000,-31.000000,-25.000000
1298296.132507,61.000000,64.000000,33.000000,-3.000000,31.000000,33.000000,41.000000,74.000000
1298296.132533,127.000000,-113.000000,-27.000000,-21.000000,-31.000000,-46.000000,-86.000000,-70.000000
1298296.139346,-128.000000,-85.000000,42.000000,23.000000,10.000000,8.000000,-20.000000,-43.000000
1298296.139379,81.000000,18.000000,24.000000,8.000000,-10.000000,14.000000,43.000000,57.000000
1298296.154122,24.000000,20.000000,-48.000000,18.000000,18.000000,-23.000000,-33.000000,-7.000000
1298296.154181,33.000000,14.000000,10.000000,-23.000000,-7.000000,13.000000,11.000000,5.000000
1298296.161840,-64.000000,36.000000,69.000000,36.000000,0.000000,-1.000000,20.000000,-8.000000
1298296.161884,-92.000000,-128.000000,-110.000000,25.000000,-10.000000,-18.000000,30.000000,5.000000
1298296.184692,62.000000,56.000000,17.000000,-110.000000,-49.000000,-49.000000,-128.000000,-101.000000
1298296.184727,-62.000000,-2.000000,9.000000,18.000000,27.000000,17.000000,21.000000,20.000000
1298296.191542,-50.000000,-44.000000,1.000000,13.000000,-1.000000,3.000000,1.000000,-20.000000
1298296.191697,-19.000000,-26.000000,-3.000000,4.000000,10.000000,17.000000,32.000000,32.000000
1298296.206419,-20.000000,-121.000000,-63.000000,-15.000000,-11.000000,-14.000000,-4.000000,9.000000
1298296.206469,30.000000,-29.000000,-36.000000,-18.000000,-5.000000,-5.000000,2.000000,-6.000000
1298296.222207,-82.000000,-112.000000,-51.000000,-18.000000,7.000000,2.000000,8.000000,-12.000000
1298296.222247,35.000000,72.000000,42.000000,20.000000,7.000000,7.000000,-12.000000,-7.000000
1298296.231040,53.000000,-20.000000,-14.000000,42.000000,25.000000,39.000000,81.000000,105.000000
1298296.231300,-13.000000,-52.000000,7.000000,-22.000000,-14.000000,-34.000000,-27.000000,-24.000000
1298296.231777,-10.000000,30.000000,-7.000000,-15.000000,-2.000000,-2.000000,-31.000000,-58.000000
1298296.231823,-33.000000,11.000000,20.000000,45.000000,17.000000,20.000000,37.000000,43.000000
1298296.232346,-11.000000,-61.000000,18.000000,-12.000000,-24.000000,-30.000000,-70.000000,-96.000000
1298296.232392,127.000000,85.000000,102.000000,96.000000,59.000000,42.000000,42.000000,90.000000
1298296.236968,-128.000000,-128.000000,-128.000000,-128.000000,-46.000000,-34.000000,-22.000000,-36.000000
1298296.237016,-1.000000,28.000000,-3.000000,-36.000000,-19.000000,9.000000,4.000000,-21.000000
1298296.260068,74.000000,-27.000000,44.000000,22.000000,2.000000,-8.000000,25.000000,67.000000
1298296.260121,-36.000000,25.000000,40.000000,27.000000,13.000000,-11.000000,-38.000000,-52.000000
1298296.267000,50.000000,7.000000,-4.000000,24.000000,29.000000,16.000000,0.000000,-24.000000
1298296.267061,-22.000000,-77.000000,-43.000000,-16.000000,-5.000000,-10.000000,-4.000000,-8.000000
1298296.268565,-61.000000,70.000000,-27.000000,-1.000000,8.000000,33.000000,43.000000,33.000000
1298296.268615,127.000000,23.000000,29.000000,-9.000000,-24.000000,-50.000000,-64.000000,-22.000000
1298296.281735,-128.000000,-115.000000,-92.000000,-66.000000,-26.000000,-35.000000,-42.000000,-82.000000
1298296.281770,35.000000,-107.000000,-61.000000,15.000000,-7.000000,1.000000,0.000000,-14.000000
1298296.311166,105.000000,74.000000,62.000000,70.000000,34.000000,32.000000,43.000000,47.000000
1298296.311216,89.000000,-37.000000,21.000000,7.000000,37.000000,7.000000,44.000000,66.000000
1298296.318812,-79.000000,-85.000000,-112.000000,-128.000000,-30.000000,-20.000000,-62.000000,-66.000000
1298296.318836,12.000000,42.000000,36.000000,27.000000,2.000000,13.000000,16.000000,1.000000
1298296.334579,16.000000,54.000000,17.000000,28.000000,12.000000,21.000000,44.000000,32.000000
1298296.334623,23.000000,-77.000000,-12.000000,2.000000,-5.000000,-63.000000,-69.000000,-38.000000
1298296.341079,-15.000000,22.000000,40.000000,-54.000000,-37.000000,-17.000000,-53.000000,-114.000000
1298296.341214,-10.000000,-8.000000,-41.000000,41.000000,92.000000,79.000000,88.000000,93.000000
1298296.342887,104.000000,-3.000000,21.000000,-7.000000,-17.000000,-35.000000,-21.000000,21.000000
1298296.342942,-101.000000,-128.000000,-128.000000,-73.000000,-27.000000,-51.000000,-66.000000,-128.000000
1298296.343663,-128.000000,109.000000,2.000000,0.000000,-2.000000,3.000000,-19.000000,-58.000000
1298296.343707,102.000000,62.000000,-5.000000,9.000000,0.000000,13.000000,52.000000,71.000000
1298296.349689,118.000000,62.000000,9.000000,-18.000000,-1.000000,-4.000000,-20.000000,11.000000
1298296.349741,-121.000000,-42.000000,43.000000,44.000000,6.000000,3.000000,-24.000000,-17.000000
1298296.356253,-61.000000,-128.000000,-87.000000,-61.000000,-13.000000,-38.000000,-53.000000,-102.000000
1298296.356304,112.000000,65.000000,16.000000,-29.000000,-33.000000,16.000000,38.000000,59.000000
1298296.388419,-29.000000,-16.000000,-43.000000,34.000000,26.000000,-1.000000,19.000000,-2.000000
1298296.388464,-128.000000,-109.000000,3.000000,-22.000000,-28.000000,-65.000000,-118.000000,-71.000000
1298296.390445,55.000000,74.000000,29.000000,-2.000000,-8.000000,14.000000,30.000000,40.000000
1298296.391020,80.000000,57.000000,43.000000,39.000000,19.000000,37.000000,65.000000,85.000000
1298296.391801,-42.000000,-69.000000,-24.000000,-53.000000,7.000000,-5.000000,-2.000000,-14.000000
1298296.391852,-50.000000,9.000000,21.000000,10.000000,2.000000,-10.000000,-13.000000,-1.000000
1298296.409041,6.000000,-2.000000,76.000000,30.000000,-1.000000,-14.000000,-23.000000,-45.000000
1298296.409091,99.000000,57.000000,24.000000,60.000000,50.000000,78.000000,102.000000,127.000000
1298296.432659,92.000000,7.000000,6.000000,-27.000000,-1.000000,-8.000000,-16.000000,-8.000000
1298296.432722,-128.000000,-66.000000,-4.000000,0.000000,-19.000000,-28.000000,-47.000000,-63.000000
1298296.433386,-35.000000,-75.000000,-92.000000,-27.000000,-14.000000,-2.000000,5.000000,-9.000000
1298296.433428,83.000000,55.000000,19.000000,20.000000,24.000000,5.000000,-27.000000,-17.000000
1298296.446448,40.000000,32.000000,36.000000,24.000000,11.000000,2.000000,33.000000,55.000000
1298296.446474,89.000000,127.000000,-29.000000,-76.000000,-4.000000,19.000000,18.000000,19.000000
1298296.461387,8.000000,94.000000,21.000000,31.000000,9.000000,22.000000,16.000000,-8.000000
1298296.461535,28.000000,-17.000000,17.000000,-3.000000,-16.000000,-12.000000,9.000000,29.000000
1298296.476468,88.000000,-27.000000,-13.000000,0.000000,12.000000,2.000000,1.000000,24.000000
1298296.476516,8.000000,-11.000000,-38.000000,-20.000000,27.000000,11.000000,-9.000000,-23.000000
1298296.499224,4.000000,17.000000,42.000000,35.000000,3.000000,9.000000,7.000000,7.000000
1298296.499275,87.000000,82.000000,53.000000,57.000000,42.000000,19.000000,28.000000,51.000000
1298296.507505,22.000000,-36.000000,-106.000000,-80.000000,-28.000000,-10.000000,10.000000,-16.000000
1298296.507551,-75.000000,34.000000,32.000000,-39.000000,-21.000000,-35.000000,-78.000000,-78.000000
1298296.507871,-12.000000,-21.000000,-7.000000,30.000000,2.000000,11.000000,50.000000,25.000000
1298296.507932,127.000000,35.000000,-35.000000,7.000000,9.000000,1.000000,-14.000000,66.000000
1298296.509533,-96.000000,-49.000000,-17.000000,-31.000000,-6.000000,-18.000000,-41.000000,-40.000000
1298296.509578,-128.000000,-41.000000,-12.000000,-4.000000,-15.000000,-10.000000,-13.000000,-42.000000
1298296.510800,127.000000,43.000000,24.000000,24.000000,14.000000,41.000000,74.000000,114.000000
1298296.510890,125.000000,100.000000,43.000000,19.000000,19.000000,34.000000,89.000000,119.000000
1298296.521378,-34.000000,-128.000000,-24.000000,-4.000000,15.000000,18.000000,30.000000,42.000000
1298296.521404,51.000000,81.000000,23.000000,27.000000,8.000000,-2.000000,-4.000000,-31.000000
1298296.544030,33.000000,-101.000000,39.000000,-50.000000,-6.000000,12.000000,8.000000,20.000000
1298296.544065,-82.000000,-47.000000,-45.000000,14.000000,-35.000000,-35.000000,-25.000000,-30.000000
1298296.551412,21.000000,103.000000,-21.000000,-23.000000,-5.000000,1.000000,-21.000000,-21.000000
1298296.551443,-128.000000,-10.000000,11.000000,13.000000,-3.000000,-9.000000,-21.000000,-68.000000
1298296.581500,-68.000000,-100.000000,-42.000000,38.000000,-3.000000,-16.000000,-17.000000,-21.000000
1298296.581526,127.000000,64.000000,10.000000,-19.000000,-2.000000,10.000000,-10.000000,33.000000
1298296.581863,-128.000000,-72.000000,10.000000,28.000000,19.000000,14.000000,4.000000,-101.000000
1298296.581926,3.000000,37.000000,-6.000000,-29.000000,-17.000000,-19.000000,-21.000000,15.000000
1298296.584159,127.000000,109.000000,25.000000,17.000000,3.000000,-20.000000,-70.000000,-33.000000
1298296.584365,-128.000000,-113.000000,-28.000000,-14.000000,-12.000000,-8.000000,0.000000,-60.000000
1298296.584603,108.000000,80.000000,2.000000,-1.000000,21.000000,55.000000,69.000000,77.000000
1298296.584658,39.000000,-30.000000,-23.000000,-4.000000,-7.000000,-33.000000,-32.000000,9.000000
1298296.589032,28.000000,7.000000,25.000000,-11.000000,-9.000000,-1.000000,7.000000,-6.000000
1298296.589082,-30.000000,26.000000,27.000000,91.000000,34.000000,3.000000,17.000000,-11.000000
1298296.596515,-91.000000,-79.000000,-77.000000,-96.000000,-22.000000,3.000000,-16.000000,-18.000000
1298296.596566,-2.000000,58.000000,52.000000,40.000000,33.000000,15.000000,7.000000,1.000000
1298296.618820,-120.000000,-128.000000,-56.000000,-28.000000,-31.000000,-26.000000,-10.000000,-49.000000
1298296.619156,34.000000,127.000000,71.000000,18.000000,9.000000,25.000000,41.000000,54.000000
1298296.619668,-63.000000,-128.000000,-86.000000,-22.000000,-17.000000,-71.000000,-105.000000,-124.000000
1298296.619698,-53.000000,38.000000,4.000000,-5.000000,-28.000000,-2.000000,8.000000,-16.000000
1298296.627438,28.000000,-6.000000,58.000000,51.000000,45.000000,37.000000,54.000000,64.000000
1298296.627488,96.000000,-35.000000,-52.000000,-40.000000,-16.000000,-22.000000,1.000000,39.000000
1298296.663818,-128.000000,-17.000000,17.000000,16.000000,-5.000000,-1.000000,-12.000000,-44.000000
1298296.663877,127.000000,-67.000000,62.000000,45.000000,17.000000,22.000000,49.000000,83.000000
1298296.679030,127.000000,74.000000,-12.000000,-14.000000,-3.000000,-28.000000,-87.000000,-28.000000
1298296.679089,-89.000000,-25.000000,-20.000000,-57.000000,-10.000000,30.000000,39.000000,40.000000
1298296.693793,-31.000000,-5.000000,59.000000,19.000000,-3.000000,-10.000000,-7.000000,23.000000
1298296.693840,127.000000,94.000000,64.000000,71.000000,22.000000,30.000000,55.000000,95.000000
1298296.702764,-128.000000,-95.000000,-47.000000,-44.000000,-6.000000,-30.000000,-48.000000,-115.000000
1298296.702793,-42.000000,9.000000,71.000000,33.000000,4.000000,3.000000,-8.000000,-19.000000
1298296.702978,92.000000,3.000000,-22.000000,-1.000000,-3.000000,4.000000,41.000000,72.000000
1298296.703044,76.000000,-69.000000,-22.000000,4.000000,-1.000000,-3.000000,3.000000,10.000000
1298296.710045,-115.000000,-22.000000,1.000000,11.000000,23.000000,-16.000000,-42.000000,-71.000000
1298296.710420,-9.000000,64.000000,-51.000000,-44.000000,-6.000000,6.000000,10.000000,12.000000
1298296.711213,80.000000,46.000000,53.000000,48.000000,19.000000,11.000000,14.000000,29.000000
1298296.711237,127.000000,51.000000,11.000000,-12.000000,-22.000000,-16.000000,-13.000000,46.000000
1298296.712226,-128.000000,-127.000000,-37.000000,-4.000000,-27.000000,-63.000000,-112.000000,-128.000000
1298296.712276,-128.000000,-128.000000,-69.000000,-23.000000,-11.000000,-3.000000,17.000000,-25.000000
1298296.716469,127.000000,121.000000,42.000000,35.000000,19.000000,34.000000,38.000000,71.000000
1298296.716512,-3.000000,126.000000,81.000000,8.000000,0.000000,-12.000000,-33.000000,-43.000000
1298296.738778,11.000000,-72.000000,-89.000000,-4.000000,-7.000000,-15.000000,24.000000,8.000000
1298296.738802,-84.000000,12.000000,-21.000000,-43.000000,-9.000000,12.000000,-3.000000,0.000000
1298296.739548,-91.000000,-20.000000,-7.000000,-3.000000,-7.000000,-27.000000,-19.000000,-4.000000
1298296.739598,88.000000,49.000000,53.000000,17.000000,-6.000000,-2.000000,-1.000000,-3.000000
1298296.746980,53.000000,0.000000,-32.000000,-45.000000,4.000000,3.000000,12.000000,14.000000
1298296.747101,-128.000000,-86.000000,-24.000000,16.000000,-17.000000,-14.000000,-29.000000,-59.000000
1298296.761671,84.000000,127.000000,20.000000,21.000000,16.000000,20.000000,36.000000,58.000000
1298296.761720,127.000000,102.000000,25.000000,6.000000,1.000000,4.000000,6.000000,32.000000
1298296.783874,-128.000000,-128.000000,-118.000000,-42.000000,-30.000000,-67.000000,-76.000000,-128.000000
1298296.783925,12.000000,89.000000,41.000000,23.000000,3.000000,8.000000,0.000000,-9.000000
1298296.791848,109.000000,81.000000,55.000000,24.000000,12.000000,21.000000,27.000000,46.000000
1298296.791979,117.000000,63.000000,15.000000,16.000000,15.000000,1.000000,-10.000000,22.000000
1298296.829186,-128.000000,-37.000000,-14.000000,-88.000000,-37.000000,-36.000000,-45.000000,-95.000000
1298296.829213,127.000000,127.000000,48.000000,39.000000,12.000000,44.000000,65.000000,120.000000
1298296.851616,-11.000000,31.000000,19.000000,29.000000,7.000000,-18.000000,-48.000000,-43.000000
1298296.851641,15.000000,-64.000000,-40.000000,-38.000000,-17.000000,-6.000000,-5.000000,-52.000000
1298296.859833,-48.000000,127.000000,-9.000000,-12.000000,-6.000000,11.000000,5.000000,7.000000
1298296.860151,-5.000000,-6.000000,4.000000,12.000000,16.000000,25.000000,42.000000,40.000000
1298296.860835,28.000000,28.000000,12.000000,8.000000,0.000000,-6.000000,6.000000,15.000000
1298296.860886,23.000000,60.000000,28.000000,21.000000,-2.000000,-28.000000,-59.000000,-77.000000
1298296.862392,-28.000000,-115.000000,-47.000000,-37.000000,-16.000000,-39.000000,-44.000000,-16.000000
1298296.862418,12.000000,-16.000000,46.000000,-15.000000,-6.000000,11.000000,17.000000,2.000000
1298296.867677,127.000000,97.000000,48.000000,-11.000000,11.000000,58.000000,98.000000,90.000000
1298296.867711,-77.000000,-42.000000,0.000000,47.000000,-11.000000,-68.000000,-91.000000,-62.000000
1298296.888943,-128.000000,-87.000000,-86.000000,-92.000000,-31.000000,-8.000000,-22.000000,-69.000000
1298296.888970,127.000000,-27.000000,30.000000,41.000000,30.000000,56.000000,72.000000,66.000000
1298296.904195,-128.000000,1.000000,18.000000,-9.000000,-17.000000,-47.000000,-85.000000,-53.000000
1298296.904245,127.000000,1.000000,-63.000000,40.000000,22.000000,3.000000,40.000000,73.000000
1298296.911461,-128.000000,-90.000000,-69.000000,-101.000000,-29.000000,-28.000000,-58.000000,-128.000000
1298296.911510,93.000000,-32.000000,26.000000,42.000000,-5.000000,13.000000,11.000000,21.000000
1298296.919918,78.000000,72.000000,33.000000,-3.000000,-5.000000,9.000000,40.000000,48.000000
1298296.919964,56.000000,5.000000,32.000000,-4.000000,0.000000,3.000000,12.000000,31.000000
1298296.926363,51.000000,79.000000,14.000000,44.000000,21.000000,11.000000,8.000000,5.000000
1298296.926405,-128.000000,-128.000000,-128.000000,-128.000000,-19.000000,-33.000000,-40.000000,-85.000000
1298296.942732,61.000000,127.000000,108.000000,64.000000,30.000000,59.000000,76.000000,47.000000
1298296.942758,-34.000000,9.000000,26.000000,62.000000,22.000000,-17.000000,-37.000000,-16.000000
1298296.943433,-128.000000,-128.000000,-101.000000,-111.000000,-55.000000,-50.000000,-68.000000,-128.000000
1298296.943458,127.000000,49.000000,16.000000,22.000000,12.000000,45.000000,100.000000,127.000000
1298296.948936,-128.000000,3.000000,-15.000000,13.000000,6.000000,20.000000,62.000000,56.000000
1298296.948983,-128.000000,-34.000000,1.000000,18.000000,-16.000000,-41.000000,-89.000000,-113.000000
1298296.963874,77.000000,4.000000,3.000000,-16.000000,-14.000000,3.000000,35.000000,66.000000
1298296.963936,-87.000000,-97.000000,-61.000000,-24.000000,-2.000000,-6.000000,3.000000,-66.000000
1298296.979919,127.000000,43.000000,8.000000,41.000000,18.000000,32.000000,35.000000,78.000000
1298296.980039,62.000000,40.000000,51.000000,47.000000,13.000000,6.000000,12.000000,28.000000
1298296.980447,63.000000,23.000000,-8.000000,-60.000000,10.000000,7.000000,-7.000000,-5.000000
1298296.980473,1.000000,42.000000,-11.000000,8.000000,5.000000,5.000000,14.000000,-1.000000
1298296.994132,65.000000,122.000000,127.000000,71.000000,23.000000,1.000000,-12.000000,-14.000000
1298296.994228,-77.000000,-128.000000,-128.000000,-125.000000,-42.000000,-22.000000,-1.000000,-35.000000
1298297.001313,-7.000000,30.000000,74.000000,-19.000000,-4.000000,5.000000,-3.000000,22.000000
1298297.001346,28.000000,13.000000,36.000000,25.000000,-4.000000,-8.000000,-17.000000,-20.000000
1298297.024226,-115.000000,-7.000000,-36.000000,-21.000000,-7.000000,-1.000000,16.000000,-13.000000
1298297.024282,-50.000000,-128.000000,-43.000000,-8.000000,-29.000000,-59.000000,-126.000000,-113.000000
1298297.031593,127.000000,105.000000,-4.000000,1.000000,20.000000,33.000000,46.000000,60.000000
1298297.031690,42.000000,14.000000,25.000000,-3.000000,28.000000,32.000000,60.000000,104.000000
1298297.055649,-18.000000,-35.000000,-26.000000,-8.000000,-11.000000,-44.000000,-76.000000,-71.000000
1298297.055884,27.000000,-12.000000,-14.000000,3.000000,-2.000000,16.000000,3.000000,0.000000
1298297.056278,18.000000,-15.000000,-7.000000,8.000000,6.000000,18.000000,43.000000,53.000000
1298297.056618,-28.000000,19.000000,35.000000,-6.000000,-7.000000,-3.000000,6.000000,-15.000000
1298297.057456,11.000000,33.000000,-51.000000,48.000000,12.000000,-14.000000,-25.000000,-3.000000
1298297.057498,127.000000,127.000000,19.000000,-53.000000,-19.000000,8.000000,9.000000,33.000000
1298297.061705,-128.000000,-68.000000,-14.000000,9.000000,-7.000000,-6.000000,-10.000000,-38.000000
1298297.062149,127.000000,-78.000000,-9.000000,14.000000,9.000000,11.000000,42.000000,59.000000
1298297.069197,-7.000000,-8.000000,8.000000,-26.000000,-9.000000,-33.000000,-46.000000,-38.000000
1298297.069227,-10.000000,-20.000000,-17.000000,9.000000,1.000000,10.000000,4.000000,-12.000000
1298297.076493,-81.000000,-35.000000,23.000000,-44.000000,-13.000000,8.000000,5.000000,-31.000000
1298297.076519,17.000000,-9.000000,7.000000,0.000000,-20.000000,-5.000000,-11.000000,-8.000000
1298297.098868,127.000000,127.000000,99.000000,89.000000,38.000000,31.000000,55.000000,84.000000
1298297.098906,-100.000000,-128.000000,-104.000000,-127.000000,-27.000000,-46.000000,-77.000000,-90.000000
1298297.099631,94.000000,51.000000,44.000000,32.000000,13.000000,30.000000,41.000000,52.000000
1298297.099655,-128.000000,-65.000000,-26.000000,-23.000000,-7.000000,14.000000,32.000000,23.000000
1298297.113858,-128.000000,-45.000000,-3.000000,-3.000000,-12.000000,-42.000000,-62.000000,-58.000000
1298297.113903,-100.000000,-128.000000,-21.000000,2.000000,-15.000000,-9.000000,16.000000,12.000000
1298297.128921,68.000000,38.000000,19.000000,4.000000,-4.000000,-7.000000,9.000000,24.000000
1298297.128971,34.000000,1.000000,8.000000,11.000000,9.000000,10.000000,12.000000,9.000000
1298297.144047,-128.000000,-72.000000,5.000000,-16.000000,-5.000000,-36.000000,-89.000000,-128.000000
1298297.144078,127.000000,35.000000,19.000000,36.000000,16.000000,34.000000,28.000000,17.000000
1298297.151433,127.000000,24.000000,-4.000000,-9.000000,-5.000000,4.000000,31.000000,65.000000
1298297.151483,-41.000000,25.000000,53.000000,-7.000000,1.000000,6.000000,7.000000,12.000000
1298297.166384,-102.000000,4.000000,20.000000,51.000000,8.000000,-9.000000,-7.000000,-12.000000
1298297.166410,-53.000000,-31.000000,-8.000000,-33.000000,-11.000000,7.000000,-9.000000,-35.000000
1298297.174239,58.000000,-128.000000,-51.000000,-41.000000,-12.000000,11.000000,34.000000,68.000000
1298297.174288,124.000000,5.000000,-26.000000,4.000000,1.000000,-21.000000,-38.000000,-46.000000
1298297.175224,-121.000000,108.000000,116.000000,50.000000,25.000000,49.000000,51.000000,54.000000
1298297.175272,83.000000,19.000000,14.000000,43.000000,7.000000,-8.000000,31.000000,37.000000
1298297.181572,-128.000000,-120.000000,-37.000000,-56.000000,-25.000000,-33.000000,-37.000000,-91.000000
1298297.181623,110.000000,73.000000,62.000000,38.000000,21.000000,49.000000,65.000000,66.000000
1298297.188818,91.000000,-72.000000,-22.000000,17.000000,25.000000,16.000000,38.000000,51.000000
1298297.188870,-128.000000,-30.000000,32.000000,-11.000000,-13.000000,-32.000000,-71.000000,-107.000000
1298297.203839,50.000000,1.000000,-20.000000,1.000000,0.000000,21.000000,27.000000,37.000000
1298297.203888,5.000000,3.000000,-11.000000,10.000000,3.000000,7.000000,18.000000,25.000000
1298297.218821,50.000000,-37.000000,-15.000000,-28.000000,-2.000000,-10.000000,-10.000000,11.000000
1298297.218867,-110.000000,-16.000000,27.000000,27.000000,-4.000000,-21.000000,-29.000000,-33.000000
1298297.219696,-17.000000,23.000000,-1.000000,0.000000,-1.000000,12.000000,17.000000,1.000000
1298297.219782,-128.000000,-125.000000,-88.000000,-51.000000,6.000000,3.000000,15.000000,9.000000
1298297.256527,-41.000000,12.000000,30.000000,2.000000,-16.000000,-23.000000,-48.000000,-83.000000
1298297.256574,-128.000000,1.000000,46.000000,33.000000,-1.000000,1.000000,1.000000,-12.000000
1298297.271389,127.000000,63.000000,29.000000,-1.000000,1.000000,12.000000,23.000000,44.000000
1298297.271415,-23.000000,-4.000000,2.000000,0.000000,-2.000000,14.000000,43.000000,22.000000
1298297.294085,-56.000000,9.000000,6.000000,1.000000,-22.000000,-80.000000,-128.000000,-122.000000
1298297.294112,-67.000000,-82.000000,-80.000000,-53.000000,-27.000000,-8.000000,-6.000000,-41.000000
1298297.301555,44.000000,55.000000,39.000000,23.000000,9.000000,23.000000,33.000000,53.000000
1298297.301904,127.000000,102.000000,52.000000,36.000000,18.000000,18.000000,30.000000,53.000000
1298297.303392,49.000000,68.000000,3.000000,8.000000,5.000000,2.000000,19.000000,57.000000
1298297.303418,-29.000000,53.000000,6.000000,12.000000,1.000000,-2.000000,-13.000000,-41.000000
1298297.304270,46.000000,-44.000000,11.000000,13.000000,11.000000,25.000000,24.000000,34.000000
1298297.304718,-19.000000,-27.000000,-36.000000,-13.000000,-4.000000,4.000000,-1.000000,-1.000000
1298297.305222,116.000000,97.000000,111.000000,74.000000,27.000000,39.000000,78.000000,88.000000
1298297.305265,0.000000,-76.000000,-97.000000,-44.000000,-5.000000,-59.000000,-96.000000,-49.000000
1298297.308921,127.000000,7.000000,79.000000,105.000000,57.000000,40.000000,44.000000,28.000000
1298297.308944,2.000000,-3.000000,-82.000000,-98.000000,-36.000000,-29.000000,-38.000000,-45.000000
1298297.324090,-128.000000,-42.000000,7.000000,1.000000,-14.000000,-9.000000,-36.000000,-55.000000
1298297.324135,127.000000,80.000000,72.000000,37.000000,18.000000,30.000000,42.000000,72.000000
1298297.332500,76.000000,-23.000000,-48.000000,-21.000000,-12.000000,-9.000000,11.000000,30.000000
1298297.332633,46.000000,-94.000000,21.000000,24.000000,18.000000,14.000000,35.000000,40.000000
1298297.339292,-128.000000,-38.000000,9.000000,-28.000000,-13.000000,-44.000000,-81.000000,-128.000000
1298297.339376,57.000000,19.000000,1.000000,-4.000000,-2.000000,24.000000,32.000000,39.000000
1298297.376914,127.000000,21.000000,6.000000,-15.000000,5.000000,18.000000,37.000000,63.000000
1298297.376967,127.000000,27.000000,-2.000000,5.000000,-9.000000,-24.000000,-25.000000,-27.000000
1298297.384090,-128.000000,-53.000000,18.000000,20.000000,-14.000000,-39.000000,-80.000000,-92.000000
1298297.384144,-97.000000,-72.000000,-65.000000,-65.000000,-1.000000,12.000000,24.000000,-12.000000
1298297.416009,90.000000,-11.000000,45.000000,48.000000,29.000000,36.000000,43.000000,71.000000
1298297.416400,127.000000,127.000000,38.000000,-22.000000,22.000000,32.000000,61.000000,69.000000
1298297.417200,-128.000000,-18.000000,-17.000000,-4.000000,-27.000000,-38.000000,-66.000000,-51.000000
1298297.417256,18.000000,-44.000000,-15.000000,39.000000,-7.000000,15.000000,11.000000,-1.000000
1298297.417817,73.000000,8.000000,-7.000000,-34.000000,-5.000000,18.000000,45.000000,70.000000
1298297.417840,127.000000,96.000000,39.000000,55.000000,26.000000,-6.000000,-15.000000,2.000000
1298297.421432,-128.000000,-58.000000,-52.000000,-77.000000,-35.000000,-22.000000,-45.000000,-79.000000
1298297.421489,69.000000,21.000000,25.000000,22.000000,12.000000,14.000000,16.000000,28.000000
1298297.451544,-128.000000,-51.000000,-6.000000,-56.000000,-27.000000,-10.000000,-32.000000,-81.000000
1298297.451571,34.000000,127.000000,-36.000000,-14.000000,0.000000,2.000000,-15.000000,13.000000
1298297.466394,127.000000,43.000000,11.000000,10.000000,-4.000000,-9.000000,-15.000000,14.000000
1298297.466443,-128.000000,-76.000000,16.000000,-4.000000,-24.000000,-36.000000,-94.000000,-128.000000
1298297.496481,127.000000,30.000000,-30.000000,-9.000000,22.000000,46.000000,65.000000,98.000000
1298297.496539,95.000000,41.000000,14.000000,16.000000,-2.000000,-26.000000,-34.000000,-18.000000
1298297.518672,-83.000000,-46.000000,-9.000000,-26.000000,-19.000000,9.000000,30.000000,38.000000
1298297.518716,-128.000000,-54.000000,8.000000,60.000000,20.000000,-5.000000,-26.000000,-47.000000
1298297.526355,-103.000000,36.000000,-22.000000,-45.000000,-26.000000,-16.000000,-20.000000,-50.000000
1298297.526380,32.000000,5.000000,-14.000000,-28.000000,-18.000000,3.000000,6.000000,7.000000
1298297.535076,4.000000,-8.000000,50.000000,79.000000,14.000000,8.000000,17.000000,14.000000
1298297.535120,13.000000,57.000000,56.000000,47.000000,18.000000,-5.000000,8.000000,26.000000
1298297.535350,37.000000,20.000000,-14.000000,-35.000000,3.000000,-3.000000,0.000000,9.000000
1298297.535391,-128.000000,-128.000000,-115.000000,-128.000000,-38.000000,-30.000000,-39.000000,-28.000000
1298297.537040,12.000000,-120.000000,-24.000000,0.000000,-5.000000,-19.000000,18.000000,15.000000
1298297.537409,-128.000000,36.000000,24.000000,-9.000000,-4.000000,-18.000000,-20.000000,-44.000000
1298297.537702,75.000000,56.000000,-45.000000,-20.000000,-12.000000,2.000000,-4.000000,4.000000
1298297.537746,-128.000000,-32.000000,-10.000000,0.000000,-4.000000,8.000000,32.000000,3.000000
1298297.539002,84.000000,-41.000000,-48.000000,-11.000000,-12.000000,-61.000000,-107.000000,-128.000000
1298297.539027,-47.000000,-19.000000,9.000000,1.000000,0.000000,17.000000,1.000000,-13.000000
1298297.541227,0.000000,-4.000000,40.000000,64.000000,25.000000,11.000000,23.000000,29.000000
1298297.541265,36.000000,18.000000,-10.000000,-87.000000,-9.000000,17.000000,42.000000,65.000000
1298297.548870,-7.000000,-4.000000,-19.000000,-10.000000,-9.000000,-7.000000,-37.000000,-17.000000
1298297.549041,56.000000,60.000000,32.000000,40.000000,-1.000000,0.000000,2.000000,3.000000
1298297.572513,-85.000000,-30.000000,-13.000000,4.000000,49.000000,7.000000,1.000000,-13.000000
1298297.572686,-117.000000,-55.000000,-17.000000,-77.000000,-39.000000,-12.000000,-13.000000,-34.000000
1298297.573290,93.000000,64.000000,24.000000,39.000000,-1.000000,-8.000000,-16.000000,-4.000000
1298297.573340,-3.000000,26.000000,-55.000000,-54.000000,-4.000000,24.000000,53.000000,38.000000
1298297.578843,127.000000,127.000000,94.000000,42.000000,2.000000,-6.000000,-22.000000,43.000000
1298297.578890,-128.000000,-98.000000,-20.000000,16.000000,10.000000,-14.000000,-70.000000,-128.000000
1298297.594097,-128.000000,-128.000000,-118.000000,-93.000000,0.000000,11.000000,10.000000,-7.000000
1298297.594147,-26.000000,-128.000000,58.000000,28.000000,14.000000,3.000000,4.000000,9.000000
1298297.609038,73.000000,31.000000,22.000000,10.000000,-16.000000,-32.000000,-55.000000,-17.000000
1298297.609080,-73.000000,11.000000,-10.000000,7.000000,8.000000,19.000000,40.000000,18.000000
1298297.623982,127.000000,13.000000,42.000000,19.000000,10.000000,8.000000,28.000000,56.000000
1298297.624008,-103.000000,39.000000,13.000000,9.000000,5.000000,-12.000000,-49.000000,-71.000000
1298297.638596,-36.000000,-81.000000,-50.000000,-44.000000,-3.000000,-2.000000,0.000000,-25.000000
1298297.638746,93.000000,-22.000000,-24.000000,-19.000000,-4.000000,10.000000,28.000000,35.000000
1298297.655319,-107.000000,-68.000000,-19.000000,-14.000000,-26.000000,-16.000000,-13.000000,-23.000000
1298297.655347,58.000000,38.000000,27.000000,71.000000,16.000000,-9.000000,-28.000000,-7.000000
1298297.655610,-128.000000,-128.000000,-53.000000,-53.000000,-23.000000,-15.000000,11.000000,-13.000000
1298297.655693,50.000000,-117.000000,-8.000000,5.000000,19.000000,18.000000,10.000000,12.000000
1298297.657801,-128.000000,127.000000,49.000000,38.000000,0.000000,9.000000,12.000000,6.000000
1298297.657844,-34.000000,113.000000,-29.000000,9.000000,-3.000000,-7.000000,7.000000,-41.000000
1298297.661217,-21.000000,30.000000,11.000000,-8.000000,-13.000000,-29.000000,-61.000000,-21.000000
1298297.661255,33.000000,0.000000,4.000000,14.000000,6.000000,1.000000,-39.000000,-55.000000
1298297.668838,-128.000000,-35.000000,37.000000,2.000000,8.000000,28.000000,40.000000,-6.000000
1298297.668891,127.000000,12.000000,-25.000000,0.000000,2.000000,-14.000000,-14.000000,9.000000
1298297.684070,-128.000000,-57.000000,-9.000000,-39.000000,-20.000000,-11.000000,18.000000,9.000000
1298297.684121,37.000000,-92.000000,21.000000,23.000000,15.000000,14.000000,13.000000,15.000000
1298297.692462,65.000000,23.000000,13.000000,-4.000000,-9.000000,-2.000000,3.000000,7.000000
1298297.692508,6.000000,66.000000,-34.000000,20.000000,18.000000,7.000000,20.000000,20.000000
1298297.698764,78.000000,20.000000,-51.000000,-26.000000,5.000000,-2.000000,-7.000000,23.000000
1298297.698815,-128.000000,-20.000000,38.000000,21.000000,-22.000000,-23.000000,-23.000000,-88.000000
1298297.721270,13.000000,-51.000000,-39.000000,-22.000000,-1.000000,-1.000000,-10.000000,-9.000000
1298297.721312,23.000000,1.000000,33.000000,10.000000,22.000000,22.000000,21.000000,29.000000
1298297.728752,95.000000,49.000000,28.000000,36.000000,11.000000,6.000000,16.000000,40.000000
1298297.728802,-99.000000,-83.000000,-14.000000,19.000000,-3.000000,-1.000000,20.000000,10.000000
1298297.744002,27.000000,-11.000000,-41.000000,-29.000000,-10.000000,-2.000000,-6.000000,5.000000
1298297.744027,-128.000000,7.000000,6.000000,17.000000,4.000000,11.000000,-4.000000,-51.000000
1298297.773915,127.000000,14.000000,37.000000,33.000000,22.000000,28.000000,39.000000,69.000000
1298297.774027,-128.000000,-48.000000,-44.000000,-60.000000,-41.000000,-50.000000,-45.000000,-68.000000
1298297.797004,-18.000000,0.000000,-10.000000,-11.000000,-1.000000,14.000000,5.000000,-1.000000
1298297.797148,-128.000000,-88.000000,-8.000000,4.000000,1.000000,-8.000000,12.000000,-31.000000
1298297.813239,120.000000,18.000000,16.000000,11.000000,5.000000,-14.000000,-38.000000,38.000000
1298297.813294,-93.000000,-34.000000,-59.000000,-25.000000,-44.000000,-41.000000,-36.000000,-65.000000
1298297.814430,49.000000,11.000000,34.000000,5.000000,21.000000,36.000000,27.000000,31.000000
1298297.814483,-25.000000,-24.000000,3.000000,14.000000,13.000000,15.000000,37.000000,40.000000
1298297.814994,25.000000,44.000000,36.000000,24.000000,12.000000,-23.000000,-62.000000,-46.000000
1298297.815043,-82.000000,-71.000000,-77.000000,-74.000000,-12.000000,-2.000000,0.000000,-24.000000
1298297.826895,-4.000000,28.000000,-14.000000,8.000000,7.000000,14.000000,23.000000,16.000000
1298297.826954,25.000000,5.000000,-20.000000,22.000000,6.000000,2.000000,20.000000,28.000000
1298297.834510,-15.000000,96.000000,81.000000,33.000000,10.000000,-1.000000,-29.000000,-19.000000
1298297.834564,33.000000,-65.000000,-128.000000,-74.000000,-16.000000,6.000000,42.000000,29.000000
1298297.856971,81.000000,8.000000,19.000000,14.000000,-11.000000,-22.000000,-45.000000,-25.000000
1298297.857012,31.000000,0.000000,9.000000,-9.000000,11.000000,18.000000,52.000000,49.000000
1298297.880101,41.000000,-36.000000,-18.000000,31.000000,-1.000000,-25.000000,-51.000000,-49.000000
1298297.880221,-128.000000,-34.000000,-4.000000,-54.000000,-21.000000,1.000000,-23.000000,-68.000000
1298297.887131,127.000000,9.000000,-32.000000,35.000000,13.000000,8.000000,24.000000,33.000000
1298297.887195,127.000000,79.000000,11.000000,-46.000000,-24.000000,3.000000,36.000000,83.000000
1298297.889862,-37.000000,22.000000,14.000000,89.000000,30.000000,-12.000000,0.000000,14.000000
1298297.890318,-128.000000,-72.000000,-85.000000,-128.000000,-77.000000,-31.000000,-46.000000,-71.000000
1298297.891174,85.000000,127.000000,71.000000,43.000000,12.000000,43.000000,37.000000,36.000000
1298297.891235,123.000000,-128.000000,-20.000000,26.000000,24.000000,11.000000,44.000000,110.000000
1298297.891593,-128.000000,-128.000000,-128.000000,-15.000000,-4.000000,-32.000000,-32.000000,-86.000000
1298297.891652,2.000000,104.000000,26.000000,16.000000,2.000000,2.000000,11.000000,26.000000
1298297.891995,-21.000000,-60.000000,-106.000000,-29.000000,-13.000000,-19.000000,-42.000000,-82.000000
1298297.892024,-63.000000,-78.000000,27.000000,11.000000,-5.000000,7.000000,-20.000000,-25.000000
1298297.894868,111.000000,21.000000,6.000000,-2.000000,17.000000,20.000000,69.000000,86.000000
1298297.894911,-83.000000,-25.000000,-43.000000,-19.000000,-9.000000,-28.000000,-55.000000,-87.000000
1298297.901479,-47.000000,-15.000000,-18.000000,9.000000,6.000000,14.000000,8.000000,-7.000000
1298297.901510,127.000000,47.000000,38.000000,13.000000,11.000000,11.000000,28.000000,56.000000
1298297.924271,88.000000,18.000000,63.000000,42.000000,18.000000,17.000000,38.000000,43.000000
1298297.924312,-118.000000,-62.000000,-64.000000,-16.000000,13.000000,-56.000000,-118.000000,-128.000000
1298297.931686,-128.000000,-71.000000,-38.000000,-9.000000,-17.000000,3.000000,-19.000000,-63.000000
1298297.931745,127.000000,67.000000,37.000000,8.000000,3.000000,28.000000,36.000000,62.000000
1298297.969336,69.000000,51.000000,11.000000,31.000000,11.000000,4.000000,14.000000,28.000000
1298297.969364,53.000000,108.000000,78.000000,60.000000,11.000000,-3.000000,-16.000000,-14.000000
1298297.977810,-10.000000,-11.000000,-27.000000,10.000000,27.000000,3.000000,8.000000,24.000000
1298297.977856,127.000000,-82.000000,-10.000000,-73.000000,-18.000000,35.000000,35.000000,81.000000
1298298.006566,-116.000000,21.000000,1.000000,18.000000,0.000000,9.000000,-2.000000,-56.000000
1298298.006621,-128.000000,-76.000000,2.000000,6.000000,-18.000000,3.000000,18.000000,-56.000000
1298298.014970,127.000000,20.000000,29.000000,9.000000,2.000000,-13.000000,-45.000000,-6.000000
1298298.015029,120.000000,50.000000,-17.000000,14.000000,1.000000,7.000000,12.000000,77.000000
1298298.018046,-52.000000,-7.000000,-62.000000,-22.000000,-10.000000,8.000000,9.000000,-3.000000
1298298.018419,74.000000,95.000000,54.000000,30.000000,14.000000,15.000000,-1.000000,11.000000
1298298.018712,127.000000,-42.000000,-36.000000,-14.000000,1.000000,-1.000000,32.000000,65.000000
1298298.018760,-128.000000,1.000000,60.000000,-24.000000,-18.000000,-55.000000,-69.000000,-128.000000
1298298.019321,-119.000000,-44.000000,-8.000000,3.000000,-8.000000,-21.000000,-37.000000,-56.000000
1298298.019358,-95.000000,-73.000000,19.000000,24.000000,5.000000,5.000000,6.000000,-22.000000
1298298.020041,58.000000,50.000000,-28.000000,-53.000000,-11.000000,17.000000,49.000000,48.000000
1298298.020089,-20.000000,4.000000,27.000000,11.000000,1.000000,-17.000000,-51.000000,-24.000000
1298298.021690,-4.000000,46.000000,-103.000000,-71.000000,-28.000000,-37.000000,-50.000000,-42.000000
1298298.021944,-47.000000,86.000000,18.000000,3.000000,-19.000000,-19.000000,7.000000,1.000000
1298298.029254,-78.000000,-20.000000,5.000000,25.000000,14.000000,8.000000,-15.000000,-39.000000
1298298.029297,34.000000,-10.000000,-39.000000,12.000000,4.000000,-3.000000,20.000000,-14.000000
1298298.051987,72.000000,-12.000000,-39.000000,-48.000000,-14.000000,-35.000000,-41.000000,-18.000000
1298298.052020,-101.000000,-12.000000,-3.000000,-16.000000,-21.000000,-20.000000,-22.000000,-61.000000
1298298.088814,-113.000000,-16.000000,11.000000,8.000000,6.000000,23.000000,28.000000,0.000000
1298298.088841,100.000000,41.000000,-4.000000,3.000000,-3.000000,-4.000000,40.000000,28.000000
1298298.096557,76.000000,20.000000,-3.000000,26.000000,8.000000,-5.000000,-23.000000,-11.000000
1298298.096610,-6.000000,16.000000,5.000000,-46.000000,-4.000000,13.000000,15.000000,-2.000000
1298298.126490,-128.000000,-121.000000,-34.000000,-58.000000,-20.000000,-18.000000,-10.000000,10.000000
1298298.126528,99.000000,21.000000,-1.000000,7.000000,-9.000000,-17.000000,-5.000000,-9.000000
1298298.133913,-12.000000,24.000000,54.000000,7.000000,6.000000,15.000000,21.000000,21.000000
1298298.133953,6.000000,14.000000,11.000000,25.000000,8.000000,6.000000,4.000000,9.000000
1298298.143201,-39.000000,-9.000000,-3.000000,-16.000000,0.000000,-4.000000,-27.000000,-38.000000
1298298.143246,32.000000,-18.000000,-16.000000,7.000000,5.000000,12.000000,32.000000,51.000000
1298298.143489,76.000000,16.000000,13.000000,17.000000,9.000000,17.000000,31.000000,31.000000
1298298.144197,-128.000000,-33.000000,-14.000000,-6.000000,-4.000000,-16.000000,-31.000000,-79.000000
1298298.145037,48.000000,-120.000000,-60.000000,0.000000,-7.000000,-42.000000,-56.000000,-15.000000
1298298.145061,-128.000000,-4.000000,1.000000,-33.000000,-22.000000,-15.000000,-24.000000,-80.000000
1298298.145243,118.000000,98.000000,-6.000000,-1.000000,7.000000,18.000000,32.000000,81.000000
1298298.145270,-74.000000,5.000000,13.000000,1.000000,-3.000000,-8.000000,-12.000000,-63.000000
1298298.145462,127.000000,-15.000000,-15.000000,12.000000,24.000000,6.000000,-26.000000,-1.000000
1298298.145519,-128.000000,-18.000000,6.000000,-26.000000,-25.000000,-29.000000,-60.000000,-98.000000
1298298.164862,44.000000,-44.000000,-30.000000,-20.000000,-18.000000,8.000000,24.000000,13.000000
1298298.164889,17.000000,37.000000,21.000000,4.000000,20.000000,7.000000,16.000000,29.000000
1298298.165076,37.000000,-29.000000,-20.000000,-19.000000,3.000000,2.000000,9.000000,29.000000
1298298.165121,127.000000,67.000000,1.000000,19.000000,12.000000,-6.000000,-28.000000,-3.000000
1298298.172340,-128.000000,-105.000000,-1.000000,38.000000,-4.000000,5.000000,12.000000,-38.000000
1298298.172444,22.000000,89.000000,-4.000000,-41.000000,-11.000000,-25.000000,-38.000000,-17.000000
1298298.202188,67.000000,9.000000,46.000000,29.000000,6.000000,19.000000,5.000000,-6.000000
1298298.202238,106.000000,8.000000,9.000000,40.000000,11.000000,6.000000,36.000000,76.000000
1298298.209661,-48.000000,-14.000000,-29.000000,-58.000000,-8.000000,-11.000000,-15.000000,11.000000
1298298.209720,52.000000,24.000000,4.000000,16.000000,1.000000,11.000000,14.000000,23.000000
1298298.247319,-15.000000,43.000000,34.000000,31.000000,12.000000,24.000000,55.000000,50.000000
1298298.247876,-95.000000,44.000000,-39.000000,-22.000000,4.000000,-7.000000,0.000000,-26.000000
1298298.249771,-128.000000,-44.000000,-12.000000,7.000000,-3.000000,-9.000000,-4.000000,-6.000000
1298298.250055,75.000000,22.000000,-11.000000,-81.000000,-31.000000,3.000000,-7.000000,1.000000
1298298.251086,-94.000000,42.000000,31.000000,22.000000,6.000000,3.000000,16.000000,7.000000
1298298.251144,41.000000,3.000000,-18.000000,5.000000,-3.000000,11.000000,34.000000,54.000000
1298298.252304,-89.000000,-27.000000,-2.000000,42.000000,0.000000,-8.000000,-17.000000,-35.000000
1298298.252347,44.000000,48.000000,-13.000000,-26.000000,10.000000,17.000000,31.000000,52.000000
1298298.252638,127.000000,13.000000,-54.000000,-60.000000,-7.000000,-3.000000,-1.000000,18.000000
1298298.252673,-128.000000,-120.000000,9.000000,9.000000,-10.000000,-28.000000,-54.000000,-93.000000
1298298.254108,123.000000,45.000000,-10.000000,-56.000000,-38.000000,-22.000000,-35.000000,11.000000
1298298.254135,-128.000000,-126.000000,57.000000,61.000000,5.000000,-14.000000,-44.000000,-128.000000
1298298.276062,93.000000,-4.000000,27.000000,9.000000,15.000000,31.000000,55.000000,65.000000
1298298.276130,127.000000,127.000000,53.000000,53.000000,47.000000,32.000000,55.000000,110.000000
1298298.283406,-97.000000,-30.000000,-1.000000,1.000000,-19.000000,-32.000000,-57.000000,-106.000000
1298298.283426,-128.000000,-40.000000,-63.000000,-22.000000,-9.000000,-10.000000,-24.000000,-104.000000
1298298.284904,127.000000,125.000000,36.000000,26.000000,12.000000,44.000000,66.000000,93.000000
1298298.284935,4.000000,-128.000000,32.000000,8.000000,8.000000,0.000000,17.000000,-24.000000
1298298.290979,18.000000,18.000000,51.000000,18.000000,-3.000000,-23.000000,-28.000000,-7.000000
1298298.290997,-82.000000,-74.000000,-39.000000,-6.000000,4.000000,6.000000,-1.000000,-6.000000
1298298.336251,-9.000000,11.000000,16.000000,-16.000000,-8.000000,15.000000,24.000000,25.000000
1298298.336287,-16.000000,-90.000000,-31.000000,-15.000000,-7.000000,-12.000000,-15.000000,-38.000000
1298298.351069,-17.000000,-5.000000,-8.000000,21.000000,10.000000,-3.000000,4.000000,14.000000
1298298.351099,88.000000,16.000000,7.000000,35.000000,22.000000,15.000000,0.000000,-3.000000
1298298.366119,-46.000000,45.000000,-34.000000,-87.000000,-43.000000,-28.000000,-24.000000,-17.000000
1298298.366214,-36.000000,-58.000000,-8.000000,-14.000000,-10.000000,-12.000000,-5.000000,-10.000000
1298298.367061,6.000000,-65.000000,-52.000000,11.000000,-13.000000,-18.000000,1.000000,22.000000
1298298.367098,-61.000000,-93.000000,-10.000000,-52.000000,-17.000000,-22.000000,-32.000000,-43.000000
1298298.368275,-10.000000,-8.000000,8.000000,5.000000,-3.000000,13.000000,34.000000,2.000000
1298298.368296,-8.000000,28.000000,27.000000,22.000000,6.000000,14.000000,42.000000,53.000000
1298298.369124,89.000000,48.000000,9.000000,28.000000,12.000000,9.000000,9.000000,43.000000
1298298.369150,-20.000000,22.000000,-13.000000,-14.000000,7.000000,-1.000000,-5.000000,-23.000000
1298298.374581,62.000000,-57.000000,-31.000000,-28.000000,-15.000000,2.000000,16.000000,24.000000
1298298.374649,-28.000000,26.000000,18.000000,18.000000,6.000000,5.000000,32.000000,44.000000
1298298.375683,72.000000,-37.000000,-60.000000,-64.000000,-12.000000,-6.000000,-23.000000,-33.000000
1298298.375709,-45.000000,-14.000000,-8.000000,13.000000,-9.000000,-6.000000,22.000000,13.000000
1298298.382091,-84.000000,-4.000000,25.000000,48.000000,18.000000,5.000000,-29.000000,-24.000000
1298298.382122,19.000000,21.000000,10.000000,-14.000000,4.000000,1.000000,2.000000,-9.000000
1298298.403499,98.000000,35.000000,-25.000000,-9.000000,3.000000,20.000000,32.000000,49.000000
1298298.403517,-93.000000,18.000000,17.000000,25.000000,12.000000,6.000000,-7.000000,-18.000000
1298298.418879,-77.000000,-19.000000,-51.000000,-24.000000,-21.000000,-18.000000,-10.000000,-29.000000
1298298.418898,49.000000,19.000000,37.000000,16.000000,13.000000,15.000000,19.000000,16.000000
1298298.426519,114.000000,37.000000,6.000000,-4.000000,0.000000,1.000000,23.000000,67.000000
1298298.426553,-30.000000,-36.000000,7.000000,0.000000,-19.000000,-33.000000,-106.000000,-100.000000
1298298.456149,2.000000,48.000000,42.000000,50.000000,36.000000,38.000000,61.000000,74.000000
1298298.456222,127.000000,-44.000000,38.000000,25.000000,7.000000,7.000000,22.000000,37.000000
1298298.487109,-128.000000,-56.000000,-45.000000,-26.000000,-6.000000,10.000000,16.000000,-4.000000
1298298.487346,75.000000,23.000000,12.000000,-21.000000,-7.000000,-7.000000,-15.000000,0.000000
1298298.488484,92.000000,-18.000000,-9.000000,-7.000000,-14.000000,-43.000000,-54.000000,-24.000000
1298298.488864,60.000000,80.000000,73.000000,55.000000,33.000000,41.000000,47.000000,48.000000
1298298.489131,-13.000000,-39.000000,-1.000000,8.000000,10.000000,18.000000,23.000000,33.000000
1298298.489150,14.000000,0.000000,-21.000000,-25.000000,-11.000000,-13.000000,-21.000000,-8.000000
1298298.489626,78.000000,34.000000,34.000000,47.000000,20.000000,21.000000,41.000000,51.000000
1298298.489644,-13.000000,-57.000000,-48.000000,-93.000000,-21.000000,-15.000000,-33.000000,-31.000000
1298298.490078,0.000000,-21.000000,2.000000,-11.000000,2.000000,7.000000,20.000000,18.000000
1298298.490104,12.000000,-40.000000,-5.000000,-7.000000,2.000000,11.000000,5.000000,3.000000
1298298.493596,-26.000000,-23.000000,7.000000,-5.000000,-4.000000,-15.000000,2.000000,-3.000000
1298298.493636,-128.000000,-5.000000,16.000000,-3.000000,-3.000000,10.000000,-14.000000,-47.000000
1298298.523773,-2.000000,-94.000000,-36.000000,17.000000,18.000000,12.000000,31.000000,18.000000
1298298.523821,83.000000,-33.000000,29.000000,-35.000000,-16.000000,-11.000000,-11.000000,23.000000
1298298.531270,-29.000000,-92.000000,-19.000000,-12.000000,-6.000000,-8.000000,3.000000,-15.000000
1298298.531287,-6.000000,21.000000,-2.000000,18.000000,-6.000000,-3.000000,-18.000000,-26.000000
1298298.553912,105.000000,17.000000,61.000000,33.000000,18.000000,16.000000,51.000000,84.000000
1298298.553936,-35.000000,-35.000000,-60.000000,-80.000000,-36.000000,-46.000000,-95.000000,-117.000000
1298298.561259,-47.000000,-8.000000,49.000000,15.000000,-13.000000,9.000000,-3.000000,-19.000000
1298298.561297,44.000000,22.000000,-5.000000,20.000000,3.000000,5.000000,27.000000,36.000000
1298298.576092,-22.000000,-6.000000,7.000000,-33.000000,-12.000000,0.000000,36.000000,56.000000
1298298.576299,107.000000,46.000000,-5.000000,19.000000,-1.000000,-5.000000,-27.000000,-6.000000
1298298.576858,-37.000000,-27.000000,21.000000,8.000000,-9.000000,-2.000000,-3.000000,-11.000000
1298298.576882,35.000000,-2.000000,-34.000000,-20.000000,-6.000000,1.000000,7.000000,11.000000
1298298.578106,-74.000000,41.000000,75.000000,46.000000,8.000000,-3.000000,-9.000000,-15.000000
1298298.578139,66.000000,15.000000,-23.000000,28.000000,8.000000,14.000000,18.000000,21.000000
1298298.578841,-25.000000,17.000000,-35.000000,-39.000000,-10.000000,-18.000000,-59.000000,-45.000000
1298298.578860,-2.000000,22.000000,48.000000,4.000000,-7.000000,20.000000,18.000000,10.000000
1298298.606051,62.000000,42.000000,3.000000,43.000000,9.000000,12.000000,2.000000,1.000000
1298298.606082,-3.000000,-19.000000,15.000000,6.000000,15.000000,42.000000,65.000000,63.000000
1298298.607098,59.000000,-19.000000,12.000000,-4.000000,6.000000,-12.000000,8.000000,34.000000
1298298.607122,-67.000000,104.000000,12.000000,16.000000,0.000000,-22.000000,-55.000000,-51.000000
1298298.608494,-61.000000,-21.000000,-4.000000,9.000000,-2.000000,5.000000,10.000000,-13.000000
1298298.608511,-88.000000,-14.000000,11.000000,-2.000000,-8.000000,-7.000000,15.000000,-3.000000
1298298.613457,43.000000,31.000000,1.000000,5.000000,0.000000,8.000000,-9.000000,-17.000000
1298298.613489,96.000000,26.000000,27.000000,16.000000,7.000000,2.000000,3.000000,12.000000
1298298.643864,-2.000000,39.000000,-8.000000,-63.000000,-9.000000,2.000000,7.000000,5.000000
1298298.643891,-17.000000,-15.000000,-2.000000,0.000000,-10.000000,-11.000000,23.000000,12.000000
1298298.651300,50.000000,-7.000000,-14.000000,-15.000000,-8.000000,-2.000000,-8.000000,-21.000000
1298298.651318,31.000000,17.000000,-13.000000,37.000000,15.000000,-16.000000,-32.000000,-4.000000
1298298.681160,61.000000,-4.000000,17.000000,-24.000000,-10.000000,14.000000,21.000000,10.000000
1298298.681196,-77.000000,-62.000000,-41.000000,-25.000000,-9.000000,-7.000000,12.000000,-14.000000
1298298.688358,62.000000,27.000000,68.000000,48.000000,35.000000,27.000000,19.000000,27.000000
1298298.688482,87.000000,-73.000000,4.000000,-1.000000,-2.000000,-20.000000,-25.000000,-2.000000
1298298.689894,-128.000000,-31.000000,4.000000,9.000000,-4.000000,-1.000000,-30.000000,-69.000000
1298298.690112,49.000000,38.000000,16.000000,18.000000,21.000000,44.000000,63.000000,79.000000
1298298.690478,88.000000,14.000000,30.000000,5.000000,-4.000000,-30.000000,-38.000000,1.000000
1298298.690666,-29.000000,-18.000000,5.000000,-5.000000,-7.000000,4.000000,-8.000000,-33.000000
1298298.691599,-15.000000,-17.000000,-39.000000,-8.000000,-5.000000,-2.000000,26.000000,2.000000
1298298.691615,-16.000000,114.000000,11.000000,23.000000,16.000000,-3.000000,-6.000000,17.000000
1298298.696043,1.000000,-86.000000,8.000000,-39.000000,-16.000000,-1.000000,1.000000,-4.000000
1298298.696134,68.000000,23.000000,-8.000000,-7.000000,2.000000,14.000000,32.000000,16.000000
1298298.718311,23.000000,40.000000,38.000000,9.000000,14.000000,-6.000000,-16.000000,23.000000
1298298.718336,37.000000,19.000000,3.000000,0.000000,-15.000000,-12.000000,5.000000,-28.000000
1298298.725940,-128.000000,-101.000000,-8.000000,-23.000000,-7.000000,-14.000000,-5.000000,-25.000000
1298298.725958,65.000000,-21.000000,17.000000,54.000000,6.000000,9.000000,40.000000,38.000000
1298298.734208,76.000000,12.000000,16.000000,-30.000000,-13.000000,1.000000,-13.000000,-17.000000
1298298.734262,-30.000000,127.000000,24.000000,38.000000,13.000000,6.000000,9.000000,11.000000
1298298.734864,25.000000,39.000000,62.000000,9.000000,7.000000,27.000000,35.000000,46.000000
1298298.734897,52.000000,30.000000,22.000000,8.000000,11.000000,-10.000000,-19.000000,11.000000
1298298.755761,30.000000,-37.000000,-32.000000,13.000000,5.000000,4.000000,5.000000,16.000000
1298298.755793,-128.000000,-36.000000,-27.000000,-33.000000,-8.000000,-7.000000,-27.000000,-65.000000
1298298.763447,51.000000,38.000000,30.000000,4.000000,-4.000000,5.000000,17.000000,17.000000
1298298.763477,127.000000,66.000000,36.000000,35.000000,14.000000,12.000000,0.000000,-10.000000
1298298.801064,-128.000000,-128.000000,-51.000000,-12.000000,-15.000000,-15.000000,-4.000000,-26.000000
1298298.801097,127.000000,23.000000,-12.000000,32.000000,2.000000,12.000000,18.000000,57.000000
1298298.808806,-63.000000,-101.000000,-69.000000,-40.000000,-23.000000,-39.000000,-70.000000,-32.000000
1298298.808825,17.000000,40.000000,-5.000000,26.000000,15.000000,19.000000,12.000000,-7.000000
1298298.816703,-13.000000,-3.000000,49.000000,16.000000,3.000000,19.000000,34.000000,39.000000
1298298.816899,4.000000,-49.000000,-31.000000,0.000000,3.000000,33.000000,55.000000,52.000000
1298298.817305,-128.000000,-121.000000,-39.000000,-15.000000,-13.000000,-35.000000,-50.000000,-76.000000
1298298.817327,-36.000000,-78.000000,9.000000,-14.000000,-14.000000,2.000000,-21.000000,-25.000000
1298298.818455,19.000000,-2.000000,7.000000,5.000000,8.000000,13.000000,21.000000,-1.000000
1298298.818484,-24.000000,-28.000000,-19.000000,9.000000,-7.000000,-9.000000,-5.000000,-2.000000
1298298.819134,16.000000,-1.000000,-7.000000,-8.000000,2.000000,0.000000,5.000000,14.000000
1298298.819166,-99.000000,-29.000000,-11.000000,-9.000000,-17.000000,-15.000000,-20.000000,-10.000000
1298298.831419,68.000000,-13.000000,6.000000,-19.000000,-12.000000,1.000000,25.000000,55.000000
1298298.831447,48.000000,-50.000000,-30.000000,-2.000000,-13.000000,-25.000000,-33.000000,-13.000000
1298298.839063,-115.000000,18.000000,-4.000000,-14.000000,-9.000000,-8.000000,1.000000,-12.000000
1298298.839090,35.000000,19.000000,-1.000000,35.000000,6.000000,14.000000,5.000000,31.000000
1298298.847310,-38.000000,114.000000,-2.000000,-30.000000,-22.000000,-13.000000,18.000000,5.000000
1298298.847333,-40.000000,17.000000,-15.000000,7.000000,2.000000,-7.000000,13.000000,18.000000
1298298.854709,59.000000,11.000000,-5.000000,-37.000000,-31.000000,-34.000000,-70.000000,-83.000000
1298298.854748,110.000000,-16.000000,20.000000,18.000000,8.000000,24.000000,46.000000,49.000000
1298298.890944,-38.000000,-15.000000,2.000000,-5.000000,-1.000000,1.000000,6.000000,4.000000
1298298.890962,-18.000000,21.000000,7.000000,28.000000,3.000000,5.000000,7.000000,12.000000
1298298.921120,-13.000000,-40.000000,-17.000000,12.000000,1.000000,-7.000000,10.000000,15.000000
1298298.921174,127.000000,20.000000,67.000000,-30.000000,-1.000000,-7.000000,17.000000,25.000000
1298298.928956,-101.000000,-64.000000,-57.000000,-14.000000,-5.000000,-5.000000,-31.000000,-31.000000
1298298.928975,-56.000000,-105.000000,60.000000,58.000000,29.000000,11.000000,-6.000000,-16.000000
1298298.929276,51.000000,27.000000,-8.000000,-50.000000,-9.000000,10.000000,43.000000,55.000000
1298298.929286,11.000000,-19.000000,-20.000000,-10.000000,-5.000000,-10.000000,-25.000000,-5.000000
1298298.930485,22.000000,13.000000,4.000000,-28.000000,-22.000000,-5.000000,16.000000,23.000000
1298298.930495,-59.000000,-71.000000,31.000000,20.000000,6.000000,-10.000000,-30.000000,-33.000000
1298298.931680,46.000000,24.000000,-1.000000,20.000000,18.000000,18.000000,63.000000,70.000000
1298298.931698,90.000000,17.000000,-13.000000,5.000000,4.000000,3.000000,-3.000000,-5.000000
1298298.935773,104.000000,23.000000,17.000000,57.000000,18.000000,8.000000,33.000000,45.000000
1298298.935789,-128.000000,-78.000000,-60.000000,-96.000000,-40.000000,-32.000000,-76.000000,-128.000000
1298298.958234,39.000000,13.000000,1.000000,11.000000,8.000000,18.000000,28.000000,31.000000
1298298.958248,64.000000,104.000000,45.000000,42.000000,13.000000,17.000000,24.000000,40.000000
1298298.958770,88.000000,-6.000000,16.000000,19.000000,12.000000,-4.000000,11.000000,5.000000
1298298.958789,-37.000000,-68.000000,-59.000000,-21.000000,-9.000000,-25.000000,-44.000000,-27.000000
1298298.966280,0.000000,19.000000,26.000000,7.000000,-1.000000,6.000000,-14.000000,-41.000000
1298298.966359,-14.000000,19.000000,-4.000000,0.000000,-2.000000,15.000000,21.000000,21.000000
1298298.973295,42.000000,-26.000000,9.000000,25.000000,22.000000,25.000000,42.000000,60.000000
1298298.973306,46.000000,27.000000,-15.000000,-31.000000,-19.000000,-17.000000,4.000000,35.000000
1298298.988242,-93.000000,-11.000000,-17.000000,-77.000000,-20.000000,-19.000000,-77.000000,-128.000000
1298298.988265,-49.000000,21.000000,-22.000000,1.000000,-7.000000,-2.000000,-20.000000,-44.000000
1298298.995549,71.000000,102.000000,86.000000,53.000000,26.000000,44.000000,63.000000,89.000000
1298298.995573,-128.000000,-128.000000,-82.000000,-17.000000,-12.000000,-30.000000,-13.000000,-39.000000
1298299.010493,-1.000000,23.000000,11.000000,8.000000,-3.000000,2.000000,-10.000000,-3.000000
1298299.010504,67.000000,40.000000,37.000000,23.000000,15.000000,22.000000,37.000000,39.000000
1298299.033072,110.000000,39.000000,16.000000,26.000000,13.000000,10.000000,0.000000,38.000000
1298299.033092,-99.000000,25.000000,-1.000000,-18.000000,-12.000000,-12.000000,-16.000000,-38.000000
1298299.047942,-86.000000,-10.000000,-11.000000,-20.000000,-4.000000,2.000000,8.000000,7.000000
1298299.047959,70.000000,52.000000,36.000000,23.000000,14.000000,24.000000,47.000000,72.000000
1298299.086325,47.000000,-28.000000,-29.000000,0.000000,6.000000,-9.000000,-30.000000,-31.000000
1298299.086342,-53.000000,65.000000,43.000000,6.000000,-24.000000,-15.000000,-27.000000,-47.000000
1298299.093881,39.000000,-81.000000,-76.000000,-17.000000,3.000000,1.000000,26.000000,26.000000
1298299.093989,-26.000000,56.000000,19.000000,-19.000000,-15.000000,-7.000000,-21.000000,-17.000000
1298299.094370,-18.000000,76.000000,-21.000000,21.000000,3.000000,-5.000000,0.000000,3.000000
1298299.094398,25.000000,8.000000,18.000000,8.000000,-12.000000,-19.000000,-15.000000,15.000000
1298299.095782,52.000000,37.000000,46.000000,67.000000,26.000000,5.000000,5.000000,-11.000000
1298299.095801,37.000000,56.000000,-72.000000,-124.000000,-17.000000,22.000000,33.000000,25.000000
1298299.096369,-118.000000,-128.000000,-99.000000,-46.000000,-26.000000,-41.000000,-42.000000,-6.000000
1298299.096405,-92.000000,-69.000000,22.000000,15.000000,-3.000000,-9.000000,-29.000000,-45.000000
1298299.116146,20.000000,37.000000,-14.000000,8.000000,2.000000,4.000000,11.000000,12.000000
1298299.116166,61.000000,27.000000,3.000000,-36.000000,-11.000000,-3.000000,2.000000,24.000000
1298299.130745,-33.000000,-44.000000,22.000000,8.000000,9.000000,5.000000,3.000000,-21.000000
1298299.130761,-55.000000,-116.000000,27.000000,72.000000,31.000000,11.000000,0.000000,-2.000000
1298299.160483,127.000000,-53.000000,-31.000000,-112.000000,-19.000000,20.000000,30.000000,43.000000
1298299.160500,-128.000000,-47.000000,-32.000000,-23.000000,-12.000000,-25.000000,-28.000000,-54.000000
1298299.168031,53.000000,45.000000,40.000000,32.000000,15.000000,17.000000,21.000000,36.000000
1298299.168041,15.000000,-6.000000,3.000000,6.000000,-6.000000,-13.000000,7.000000,0.000000
1298299.198215,-86.000000,-5.000000,-15.000000,31.000000,8.000000,-18.000000,-10.000000,-24.000000
1298299.198257,66.000000,26.000000,-26.000000,-102.000000,-24.000000,7.000000,8.000000,35.000000
1298299.198604,-58.000000,-57.000000,-33.000000,-9.000000,-22.000000,-25.000000,-46.000000,-86.000000
1298299.198633,21.000000,73.000000,31.000000,36.000000,20.000000,30.000000,29.000000,45.000000
1298299.199622,32.000000,-12.000000,9.000000,9.000000,6.000000,10.000000,21.000000,43.000000
1298299.199637,-19.000000,-12.000000,-29.000000,-6.000000,-16.000000,-32.000000,-46.000000,-38.000000
1298299.200327,-31.000000,-128.000000,-25.000000,-42.000000,0.000000,-10.000000,1.000000,-29.000000
1298299.200343,-9.000000,15.000000,9.000000,28.000000,2.000000,3.000000,3.000000,-8.000000
1298299.201971,-128.000000,-85.000000,-15.000000,-20.000000,-8.000000,-10.000000,-34.000000,-56.000000
1298299.202005,40.000000,51.000000,8.000000,28.000000,0.000000,6.000000,14.000000,17.000000
1298299.206172,115.000000,127.000000,44.000000,9.000000,-2.000000,16.000000,49.000000,92.000000
1298299.206188,64.000000,28.000000,-48.000000,-38.000000,16.000000,-1.000000,-4.000000,-14.000000
1298299.213496,-114.000000,-58.000000,-64.000000,-77.000000,-48.000000,-42.000000,-88.000000,-68.000000
1298299.213546,49.000000,70.000000,44.000000,38.000000,14.000000,19.000000,20.000000,17.000000
1298299.243291,105.000000,-53.000000,17.000000,39.000000,24.000000,25.000000,64.000000,90.000000
1298299.243352,-17.000000,9.000000,-60.000000,12.000000,-26.000000,-70.000000,-89.000000,-78.000000
1298299.250456,-50.000000,12.000000,-21.000000,-23.000000,-24.000000,-6.000000,-52.000000,-100.000000
1298299.250473,56.000000,36.000000,45.000000,44.000000,27.000000,51.000000,109.000000,127.000000
1298299.273239,127.000000,74.000000,61.000000,57.000000,26.000000,15.000000,35.000000,99.000000
1298299.273259,-74.000000,-18.000000,-29.000000,-78.000000,-25.000000,-21.000000,-37.000000,-72.000000
1298299.280948,-106.000000,-26.000000,6.000000,-5.000000,-10.000000,-9.000000,-19.000000,-39.000000
1298299.280967,127.000000,77.000000,20.000000,40.000000,16.000000,16.000000,-6.000000,15.000000
1298299.303142,126.000000,45.000000,33.000000,8.000000,16.000000,2.000000,2.000000,4.000000
1298299.303155,-128.000000,-77.000000,-56.000000,-31.000000,-23.000000,-34.000000,-60.000000,-111.000000
1298299.318062,7.000000,-33.000000,-7.000000,-32.000000,-7.000000,28.000000,49.000000,84.000000
1298299.318081,41.000000,66.000000,23.000000,41.000000,19.000000,4.000000,10.000000,41.000000
1298299.319644,72.000000,127.000000,39.000000,-31.000000,4.000000,18.000000,38.000000,52.000000
1298299.319666,-128.000000,-128.000000,-63.000000,28.000000,-22.000000,-54.000000,-105.000000,-128.000000
1298299.320052,121.000000,-1.000000,-1.000000,-87.000000,-21.000000,17.000000,33.000000,57.000000
1298299.320065,74.000000,39.000000,55.000000,44.000000,34.000000,41.000000,50.000000,70.000000
1298299.320972,33.000000,-30.000000,-16.000000,18.000000,5.000000,-6.000000,12.000000,8.000000
1298299.320981,-49.000000,-61.000000,-41.000000,-6.000000,-13.000000,-15.000000,-24.000000,-24.000000
1298299.321967,26.000000,43.000000,44.000000,45.000000,20.000000,16.000000,10.000000,23.000000
1298299.321978,46.000000,22.000000,-51.000000,-50.000000,-5.000000,-2.000000,6.000000,28.000000
1298299.326101,-128.000000,-40.000000,-73.000000,-56.000000,-29.000000,-12.000000,-24.000000,-69.000000
1298299.326166,-14.000000,-14.000000,9.000000,23.000000,7.000000,17.000000,10.000000,9.000000
1298299.333279,5.000000,24.000000,22.000000,19.000000,7.000000,-1.000000,1.000000,49.000000
1298299.333310,53.000000,-22.000000,-20.000000,-22.000000,5.000000,-14.000000,-15.000000,-1.000000
1298299.363387,-115.000000,-40.000000,-6.000000,3.000000,-9.000000,-17.000000,-23.000000,-36.000000
1298299.363443,-30.000000,-57.000000,7.000000,12.000000,5.000000,15.000000,18.000000,12.000000
1298299.370774,60.000000,11.000000,9.000000,6.000000,-11.000000,-2.000000,0.000000,14.000000
1298299.370793,-3.000000,-13.000000,-53.000000,-56.000000,-1.000000,-11.000000,-6.000000,-3.000000
1298299.400909,17.000000,31.000000,17.000000,17.000000,7.000000,14.000000,58.000000,73.000000
1298299.400920,-61.000000,-10.000000,-1.000000,47.000000,0.000000,-3.000000,-24.000000,-54.000000
1298299.408334,-56.000000,-49.000000,-34.000000,-35.000000,-13.000000,-15.000000,-51.000000,-49.000000
1298299.408354,47.000000,-26.000000,22.000000,22.000000,-6.000000,-12.000000,3.000000,33.000000
1298299.430700,40.000000,-3.000000,-23.000000,2.000000,-1.000000,-3.000000,10.000000,6.000000
1298299.430718,10.000000,-7.000000,32.000000,23.000000,-1.000000,-17.000000,-30.000000,-20.000000
1298299.437885,-96.000000,-70.000000,-73.000000,-61.000000,-7.000000,0.000000,18.000000,12.000000
1298299.437922,25.000000,56.000000,26.000000,26.000000,1.000000,-13.000000,-35.000000,-20.000000
1298299.438928,71.000000,-54.000000,-38.000000,-34.000000,-17.000000,1.000000,4.000000,-21.000000
1298299.438945,16.000000,-83.000000,-35.000000,-19.000000,1.000000,9.000000,19.000000,16.000000
1298299.439613,-76.000000,52.000000,27.000000,21.000000,10.000000,1.000000,-14.000000,-38.000000
1298299.439630,41.000000,23.000000,-40.000000,0.000000,17.000000,35.000000,31.000000,40.000000
1298299.441210,-117.000000,-96.000000,-75.000000,-71.000000,-25.000000,-12.000000,-18.000000,-31.000000
1298299.441220,38.000000,21.000000,29.000000,8.000000,4.000000,3.000000,4.000000,17.000000
1298299.446109,34.000000,42.000000,19.000000,2.000000,0.000000,9.000000,17.000000,27.000000
1298299.446125,30.000000,71.000000,-5.000000,33.000000,-1.000000,-2.000000,4.000000,23.000000
1298299.460904,-23.000000,-79.000000,0.000000,-42.000000,-22.000000,-28.000000,-33.000000,-60.000000
1298299.460918,31.000000,76.000000,8.000000,8.000000,14.000000,23.000000,43.000000,60.000000
1298299.475970,25.000000,-59.000000,-46.000000,-13.000000,-13.000000,-21.000000,-14.000000,21.000000
1298299.475990,-7.000000,71.000000,0.000000,16.000000,1.000000,-6.000000,-26.000000,-50.000000
1298299.483329,47.000000,-89.000000,14.000000,22.000000,4.000000,4.000000,1.000000,30.000000
1298299.483381,-72.000000,-43.000000,13.000000,-14.000000,13.000000,29.000000,41.000000,18.000000
1298299.513061,-22.000000,2.000000,-13.000000,33.000000,15.000000,-5.000000,-21.000000,-12.000000
1298299.513071,-64.000000,56.000000,21.000000,-58.000000,-21.000000,-13.000000,-14.000000,-22.000000
1298299.520558,27.000000,-96.000000,-29.000000,14.000000,15.000000,1.000000,5.000000,2.000000
1298299.520631,-91.000000,-43.000000,-14.000000,-6.000000,-8.000000,3.000000,5.000000,-9.000000
1298299.528462,65.000000,87.000000,25.000000,27.000000,7.000000,1.000000,-10.000000,3.000000
1298299.528495,68.000000,-22.000000,-8.000000,-10.000000,4.000000,3.000000,11.000000,26.000000
1298299.528964,-50.000000,-51.000000,-33.000000,-5.000000,-6.000000,-15.000000,-5.000000,-4.000000
1298299.528981,61.000000,127.000000,89.000000,44.000000,10.000000,16.000000,1.000000,7.000000
1298299.530522,-50.000000,-128.000000,-98.000000,-23.000000,-12.000000,-14.000000,23.000000,6.000000
1298299.530541,41.000000,121.000000,-4.000000,-19.000000,-2.000000,-11.000000,-31.000000,-20.000000
1298299.542853,-25.000000,-11.000000,19.000000,19.000000,-8.000000,-8.000000,-18.000000,-22.000000
1298299.542863,19.000000,-23.000000,-18.000000,-10.000000,-3.000000,1.000000,3.000000,6.000000
1298299.551407,-10.000000,41.000000,17.000000,3.000000,8.000000,-17.000000,-24.000000,-35.000000
1298299.551427,-32.000000,-6.000000,7.000000,2.000000,6.000000,20.000000,18.000000,17.000000
1298299.558316,64.000000,24.000000,40.000000,23.000000,8.000000,11.000000,51.000000,59.000000
1298299.558337,97.000000,10.000000,16.000000,15.000000,-1.000000,-21.000000,-36.000000,17.000000
1298299.566329,-122.000000,-74.000000,-35.000000,-32.000000,-20.000000,-23.000000,-31.000000,-66.000000
1298299.566344,-55.000000,77.000000,30.000000,-3.000000,-7.000000,1.000000,-4.000000,-31.000000
1298299.595876,76.000000,18.000000,24.000000,18.000000,13.000000,24.000000,29.000000,56.000000
1298299.595887,94.000000,18.000000,5.000000,41.000000,17.000000,7.000000,49.000000,52.000000
1298299.610517,-128.000000,-92.000000,-19.000000,-44.000000,-23.000000,-33.000000,-76.000000,-119.000000
1298299.610536,38.000000,96.000000,55.000000,28.000000,20.000000,24.000000,14.000000,25.000000
1298299.633655,110.000000,-20.000000,-75.000000,9.000000,8.000000,-6.000000,15.000000,28.000000
1298299.633673,-56.000000,54.000000,62.000000,3.000000,7.000000,27.000000,38.000000,26.000000
1298299.647874,-74.000000,-21.000000,-18.000000,0.000000,0.000000,0.000000,-26.000000,-15.000000
1298299.647893,24.000000,-19.000000,15.000000,27.000000,4.000000,-1.000000,8.000000,30.000000
1298299.648313,-70.000000,-45.000000,-2.000000,-13.000000,-12.000000,-8.000000,2.000000,-23.000000
1298299.648330,63.000000,18.000000,35.000000,44.000000,22.000000,22.000000,34.000000,44.000000
1298299.649823,-66.000000,-14.000000,-24.000000,-24.000000,-13.000000,-23.000000,-32.000000,-28.000000
1298299.649855,96.000000,31.000000,26.000000,18.000000,-1.000000,-6.000000,-14.000000,3.000000
1298299.650353,-25.000000,-31.000000,-13.000000,-5.000000,10.000000,19.000000,27.000000,17.000000
1298299.650403,126.000000,91.000000,29.000000,-5.000000,-4.000000,-3.000000,-17.000000,-20.000000
1298299.651473,-50.000000,-128.000000,-42.000000,-20.000000,-19.000000,-28.000000,-7.000000,-11.000000
1298299.651484,18.000000,95.000000,68.000000,39.000000,11.000000,5.000000,-6.000000,-20.000000
1298299.663117,-4.000000,-116.000000,-42.000000,8.000000,-1.000000,5.000000,42.000000,42.000000
1298299.663138,76.000000,30.000000,14.000000,6.000000,8.000000,-14.000000,-11.000000,2.000000
1298299.671288,71.000000,3.000000,-47.000000,-6.000000,-4.000000,-11.000000,-45.000000,-56.000000
1298299.671305,-63.000000,-32.000000,3.000000,0.000000,-5.000000,8.000000,24.000000,31.000000
1298299.678480,127.000000,44.000000,13.000000,13.000000,8.000000,21.000000,41.000000,72.000000
1298299.678520,-128.000000,1.000000,42.000000,16.000000,-5.000000,-14.000000,-24.000000,-50.000000
1298299.686635,-22.000000,18.000000,-59.000000,-47.000000,-3.000000,-11.000000,-7.000000,-23.000000
1298299.686650,69.000000,8.000000,16.000000,18.000000,10.000000,6.000000,20.000000,18.000000
1298299.715809,-128.000000,2.000000,-84.000000,-47.000000,-31.000000,-30.000000,-16.000000,-7.000000
1298299.715820,36.000000,-59.000000,4.000000,1.000000,-2.000000,14.000000,7.000000,3.000000
1298299.738261,100.000000,40.000000,53.000000,56.000000,22.000000,-12.000000,0.000000,24.000000
1298299.738272,-128.000000,-128.000000,-73.000000,-92.000000,-14.000000,-33.000000,-70.000000,-87.000000
1298299.753228,6.000000,-19.000000,-59.000000,-3.000000,-5.000000,16.000000,20.000000,24.000000
1298299.753262,60.000000,47.000000,4.000000,13.000000,9.000000,13.000000,39.000000,45.000000
1298299.754026,8.000000,8.000000,5.000000,-5.000000,-3.000000,-19.000000,-23.000000,-23.000000
1298299.754043,-72.000000,22.000000,43.000000,45.000000,16.000000,-6.000000,-3.000000,12.000000
1298299.754954,-109.000000,-128.000000,-52.000000,-69.000000,-42.000000,-18.000000,-29.000000,-60.000000
1298299.755030,82.000000,34.000000,12.000000,26.000000,5.000000,15.000000,26.000000,43.000000
1298299.756120,-29.000000,-15.000000,-1.000000,11.000000,7.000000,0.000000,7.000000,-1.000000
1298299.756140,-44.000000,-7.000000,-23.000000,-7.000000,-9.000000,-16.000000,-25.000000,-37.000000
1298299.756955,-18.000000,-71.000000,-16.000000,21.000000,8.000000,6.000000,13.000000,4.000000
1298299.756968,68.000000,94.000000,48.000000,22.000000,7.000000,1.000000,-4.000000,19.000000
1298299.768298,61.000000,-54.000000,12.000000,26.000000,10.000000,6.000000,7.000000,7.000000
1298299.768314,54.000000,-19.000000,1.000000,-6.000000,-3.000000,4.000000,12.000000,35.000000
1298299.790509,-127.000000,-68.000000,-26.000000,-52.000000,-9.000000,-19.000000,-46.000000,-128.000000
1298299.790538,-34.000000,-24.000000,-6.000000,3.000000,-15.000000,1.000000,1.000000,-5.000000
1298299.792004,127.000000,127.000000,62.000000,48.000000,30.000000,41.000000,48.000000,95.000000
1298299.792032,122.000000,17.000000,-7.000000,41.000000,31.000000,22.000000,48.000000,92.000000
1298299.798326,-57.000000,6.000000,-15.000000,-51.000000,-30.000000,-58.000000,-104.000000,-118.000000
1298299.798352,-26.000000,3.000000,-24.000000,22.000000,-14.000000,8.000000,18.000000,5.000000
1298299.806042,-24.000000,69.000000,-4.000000,-5.000000,-1.000000,0.000000,19.000000,-6.000000
1298299.806081,25.000000,-25.000000,-17.000000,-28.000000,0.000000,2.000000,-5.000000,4.000000
1298299.828100,56.000000,92.000000,85.000000,66.000000,17.000000,13.000000,22.000000,35.000000
1298299.828126,29.000000,-128.000000,-128.000000,-54.000000,-23.000000,-52.000000,-44.000000,-61.000000
1298299.843117,-44.000000,-10.000000,-9.000000,1.000000,-7.000000,-2.000000,-16.000000,-40.000000
1298299.843137,-64.000000,-44.000000,19.000000,3.000000,4.000000,20.000000,26.000000,29.000000
1298299.850856,47.000000,11.000000,-12.000000,8.000000,-4.000000,6.000000,21.000000,21.000000
1298299.850867,8.000000,-4.000000,-25.000000,-37.000000,-18.000000,-13.000000,7.000000,4.000000
1298299.873080,-61.000000,-70.000000,-3.000000,32.000000,18.000000,6.000000,4.000000,-1.000000
1298299.873104,19.000000,40.000000,43.000000,24.000000,-17.000000,-18.000000,-26.000000,-43.000000
1298299.873562,87.000000,50.000000,6.000000,8.000000,28.000000,45.000000,66.000000,94.000000
1298299.873583,-7.000000,-60.000000,-12.000000,-12.000000,-25.000000,-30.000000,-42.000000,-29.000000
1298299.874999,89.000000,113.000000,52.000000,-6.000000,7.000000,29.000000,51.000000,66.000000
1298299.875022,-12.000000,-56.000000,-39.000000,13.000000,1.000000,-14.000000,-29.000000,-26.000000
1298299.875495,-128.000000,-49.000000,35.000000,25.000000,3.000000,-17.000000,-19.000000,-46.000000
1298299.875517,75.000000,-3.000000,6.000000,-9.000000,-12.000000,9.000000,15.000000,34.000000
1298299.902914,127.000000,56.000000,40.000000,49.000000,31.000000,28.000000,51.000000,82.000000
1298299.902931,-83.000000,-82.000000,-68.000000,-19.000000,1.000000,-9.000000,-11.000000,-29.000000
1298299.911178,-5.000000,-49.000000,-58.000000,-44.000000,-23.000000,-24.000000,-25.000000,-65.000000
1298299.911198,2.000000,91.000000,56.000000,30.000000,0.000000,18.000000,12.000000,37.000000
1298299.911806,-58.000000,-128.000000,-15.000000,23.000000,-2.000000,-16.000000,-25.000000,-21.000000
1298299.911845,122.000000,33.000000,24.000000,-9.000000,-1.000000,10.000000,25.000000,10.000000
1298299.918226,-128.000000,-45.000000,12.000000,18.000000,-1.000000,8.000000,-20.000000,-46.000000
1298299.918247,109.000000,-11.000000,43.000000,6.000000,1.000000,-3.000000,16.000000,40.000000
1298299.926254,76.000000,84.000000,7.000000,2.000000,9.000000,15.000000,33.000000,65.000000
1298299.926274,-15.000000,21.000000,-4.000000,-28.000000,-14.000000,-26.000000,-44.000000,-79.000000
1298299.940620,-42.000000,62.000000,55.000000,36.000000,3.000000,1.000000,-2.000000,19.000000
1298299.940640,-32.000000,-23.000000,-33.000000,19.000000,8.000000,0.000000,9.000000,-7.000000
1298299.955774,-32.000000,5.000000,23.000000,1.000000,3.000000,3.000000,10.000000,7.000000
1298299.955811,-61.000000,-117.000000,-51.000000,2.000000,-3.000000,-5.000000,-10.000000,-32.000000
1298299.963299,-46.000000,38.000000,20.000000,3.000000,3.000000,13.000000,22.000000,42.000000
1298299.963319,-40.000000,9.000000,9.000000,3.000000,0.000000,-9.000000,-15.000000,-59.000000
1298300.001165,36.000000,34.000000,15.000000,9.000000,-3.000000,-6.000000,-4.000000,-12.000000
1298300.001196,16.000000,-30.000000,5.000000,3.000000,0.000000,5.000000,13.000000,8.000000
1298300.015889,-49.000000,1.000000,5.000000,-21.000000,-5.000000,-1.000000,-10.000000,-22.000000
1298300.015939,-29.000000,64.000000,14.000000,26.000000,3.000000,3.000000,-10.000000,-16.000000
1298300.031931,26.000000,4.000000,-19.000000,-47.000000,3.000000,14.000000,16.000000,30.000000
1298300.032237,25.000000,-26.000000,9.000000,28.000000,2.000000,-4.000000,-2.000000,4.000000
1298300.033050,4.000000,-18.000000,16.000000,21.000000,10.000000,8.000000,11.000000,12.000000
1298300.033083,-35.000000,-32.000000,-13.000000,-33.000000,-26.000000,-13.000000,-11.000000,-7.000000
1298300.034484,-50.000000,10.000000,-34.000000,30.000000,12.000000,4.000000,1.000000,-3.000000
1298300.034507,22.000000,15.000000,26.000000,-8.000000,-17.000000,-3.000000,2.000000,2.000000
1298300.035592,-69.000000,-8.000000,-8.000000,24.000000,29.000000,1.000000,-5.000000,-28.000000
1298300.035612,19.000000,-64.000000,-49.000000,-37.000000,-7.000000,9.000000,41.000000,36.000000
1298300.038450,-99.000000,109.000000,25.000000,20.000000,4.000000,19.000000,26.000000,-11.000000
1298300.038488,127.000000,9.000000,31.000000,15.000000,20.000000,25.000000,57.000000,104.000000
1298300.046408,82.000000,57.000000,41.000000,44.000000,27.000000,-4.000000,-41.000000,0.000000
1298300.046426,-92.000000,-75.000000,-46.000000,-85.000000,-10.000000,20.000000,22.000000,-10.000000
1298300.077181,-17.000000,5.000000,21.000000,53.000000,24.000000,27.000000,41.000000,91.000000
1298300.077209,102.000000,-95.000000,-11.000000,-26.000000,-19.000000,-49.000000,-76.000000,-29.000000
1298300.098865,-2.000000,12.000000,35.000000,13.000000,13.000000,19.000000,17.000000,-26.000000
1298300.098887,8.000000,-23.000000,3.000000,15.000000,2.000000,10.000000,22.000000,13.000000
1298300.106157,28.000000,6.000000,30.000000,14.000000,16.000000,22.000000,27.000000,40.000000
1298300.106262,127.000000,20.000000,27.000000,38.000000,2.000000,-10.000000,6.000000,67.000000
1298300.121053,-128.000000,-47.000000,-44.000000,-57.000000,-7.000000,-15.000000,-58.000000,-128.000000
1298300.121273,-128.000000,-24.000000,-3.000000,-42.000000,-15.000000,-3.000000,2.000000,-8.000000
1298300.121744,29.000000,-13.000000,2.000000,0.000000,-11.000000,-4.000000,5.000000,28.000000
1298300.121764,97.000000,112.000000,41.000000,42.000000,12.000000,-1.000000,8.000000,39.000000
1298300.136254,34.000000,-17.000000,-2.000000,-2.000000,7.000000,3.000000,0.000000,14.000000
1298300.136274,58.000000,41.000000,35.000000,-20.000000,-1.000000,18.000000,20.000000,23.000000
1298300.143518,22.000000,-39.000000,-23.000000,-5.000000,-4.000000,-21.000000,-34.000000,-39.000000
1298300.143801,-128.000000,58.000000,37.000000,15.000000,-7.000000,-15.000000,-3.000000,-11.000000
1298300.145196,8.000000,2.000000,-30.000000,-9.000000,2.000000,14.000000,23.000000,41.000000
1298300.145245,-75.000000,-4.000000,-9.000000,31.000000,3.000000,-9.000000,-22.000000,-65.000000
1298300.145573,3.000000,-1.000000,34.000000,-8.000000,-11.000000,11.000000,7.000000,6.000000
1298300.145614,78.000000,8.000000,47.000000,19.000000,27.000000,22.000000,35.000000,48.000000
1298300.151879,127.000000,52.000000,-2.000000,-8.000000,16.000000,14.000000,23.000000,40.000000
1298300.152019,-35.000000,69.000000,11.000000,-36.000000,-14.000000,-6.000000,-35.000000,-73.000000
1298300.158615,38.000000,28.000000,-3.000000,0.000000,-8.000000,-8.000000,-5.000000,8.000000
1298300.158653,74.000000,24.000000,20.000000,22.000000,7.000000,4.000000,3.000000,10.000000
1298300.166554,22.000000,49.000000,45.000000,52.000000,37.000000,35.000000,15.000000,14.000000
1298300.166571,-22.000000,-41.000000,-63.000000,-6.000000,6.000000,-24.000000,-11.000000,-32.000000
1298300.181010,-128.000000,-88.000000,-25.000000,-81.000000,-18.000000,1.000000,-9.000000,-11.000000
1298300.181031,26.000000,-9.000000,21.000000,19.000000,-3.000000,1.000000,2.000000,11.000000
1298300.195979,-2.000000,-6.000000,6.000000,22.000000,-3.000000,-16.000000,-10.000000,-11.000000
1298300.196014,6.000000,-26.000000,-16.000000,-20.000000,-9.000000,0.000000,7.000000,5.000000
1298300.203601,-33.000000,-99.000000,9.000000,-4.000000,-8.000000,0.000000,6.000000,2.000000
1298300.203639,-50.000000,1.000000,0.000000,9.000000,2.000000,-4.000000,2.000000,8.000000
1298300.226151,102.000000,5.000000,11.000000,10.000000,-4.000000,-11.000000,-27.000000,-44.000000
1298300.226206,-101.000000,-32.000000,-12.000000,-9.000000,4.000000,4.000000,-1.000000,-21.000000
1298300.233567,95.000000,0.000000,-4.000000,-6.000000,-8.000000,-4.000000,20.000000,22.000000
1298300.233607,-128.000000,-34.000000,22.000000,24.000000,-6.000000,-28.000000,-25.000000,-35.000000
1298300.248452,55.000000,-84.000000,-70.000000,-74.000000,-7.000000,0.000000,-22.000000,-80.000000
1298300.248493,-64.000000,55.000000,18.000000,-5.000000,-3.000000,22.000000,29.000000,32.000000
1298300.255914,127.000000,30.000000,20.000000,63.000000,10.000000,8.000000,53.000000,120.000000
1298300.256077,120.000000,76.000000,38.000000,31.000000,-10.000000,-31.000000,-36.000000,-16.000000
1298300.270772,-4.000000,-57.000000,-56.000000,-120.000000,-45.000000,-13.000000,-23.000000,-17.000000
1298300.270791,78.000000,27.000000,59.000000,60.000000,4.000000,24.000000,19.000000,34.000000
1298300.271545,127.000000,88.000000,63.000000,44.000000,24.000000,21.000000,37.000000,72.000000
1298300.271582,26.000000,4.000000,25.000000,51.000000,9.000000,-10.000000,10.000000,11.000000
1298300.272982,-40.000000,9.000000,-10.000000,-28.000000,-16.000000,-16.000000,-34.000000,-46.000000
1298300.273017,-82.000000,-128.000000,-59.000000,28.000000,17.000000,-10.000000,-4.000000,-18.000000
1298300.278469,29.000000,-20.000000,-47.000000,-127.000000,-23.000000,-7.000000,26.000000,70.000000
1298300.278505,-33.000000,2.000000,23.000000,5.000000,-7.000000,-9.000000,-37.000000,-69.000000
1298300.316417,-127.000000,-61.000000,0.000000,19.000000,-9.000000,-5.000000,-25.000000,-58.000000
1298300.316442,127.000000,19.000000,34.000000,33.000000,21.000000,29.000000,59.000000,74.000000
1298300.323664,33.000000,24.000000,-20.000000,-11.000000,16.000000,12.000000,16.000000,60.000000
1298300.323701,17.000000,-7.000000,22.000000,12.000000,12.000000,-16.000000,-51.000000,-94.000000
1298300.361294,-78.000000,-20.000000,-24.000000,-34.000000,-8.000000,4.000000,19.000000,9.000000
1298300.361337,57.000000,-94.000000,-25.000000,14.000000,4.000000,7.000000,21.000000,41.000000
1298300.384103,-79.000000,-9.000000,-62.000000,-24.000000,-5.000000,-11.000000,-39.000000,-69.000000
1298300.384144,-128.000000,-67.000000,17.000000,-43.000000,-15.000000,19.000000,27.000000,20.000000
1298300.385458,43.000000,-71.000000,16.000000,53.000000,30.000000,-5.000000,3.000000,13.000000
1298300.385630,85.000000,59.000000,6.000000,-33.000000,-15.000000,11.000000,11.000000,34.000000
1298300.386152,-26.000000,-2.000000,62.000000,42.000000,12.000000,-1.000000,-14.000000,3.000000
1298300.386320,-102.000000,39.000000,33.000000,18.000000,-3.000000,-9.000000,-8.000000,-45.000000
1298300.386913,127.000000,69.000000,11.000000,24.000000,6.000000,17.000000,24.000000,18.000000
1298300.386935,-7.000000,-39.000000,4.000000,2.000000,-10.000000,-13.000000,-50.000000,-79.000000
1298300.387534,84.000000,62.000000,18.000000,10.000000,-6.000000,8.000000,21.000000,32.000000
1298300.387564,79.000000,11.000000,-14.000000,19.000000,1.000000,-2.000000,-6.000000,21.000000
1298300.391479,121.000000,127.000000,-29.000000,-52.000000,-4.000000,12.000000,46.000000,52.000000
1298300.391516,58.000000,-36.000000,-13.000000,-13.000000,2.000000,-11.000000,-17.000000,2.000000
1298300.398878,-128.000000,-120.000000,-12.000000,25.000000,-8.000000,-20.000000,-68.000000,-126.000000
