# participant_id: P5
# gesture: hard
# trial_number: 2
# stream_name: Myo_EMG
# stream_type: emg
# timestamp: 20260420_140541
# samples: 5416
# duration_sec: 30.419
# nominal_sample_rate: 200.0
# effective_sample_rate: 178.01
#
timestamp,emg_1,emg_2,emg_3,emg_4,emg_5,emg_6,emg_7,emg_8
1298633.024706,55.000000,84.000000,59.000000,-43.000000,26.000000,44.000000,70.000000,64.000000
1298633.024757,-30.000000,-6.000000,14.000000,10.000000,-17.000000,-6.000000,-5.000000,-3.000000
1298633.025886,46.000000,-128.000000,-61.000000,48.000000,33.000000,21.000000,30.000000,38.000000
1298633.025933,67.000000,59.000000,32.000000,-72.000000,2.000000,16.000000,-8.000000,-21.000000
1298633.032074,-128.000000,-128.000000,-85.000000,-26.000000,-24.000000,-26.000000,-44.000000,-83.000000
1298633.032126,127.000000,-68.000000,57.000000,76.000000,10.000000,16.000000,17.000000,22.000000
1298633.062040,-128.000000,-58.000000,-38.000000,-55.000000,-28.000000,-26.000000,0.000000,-3.000000
1298633.062092,-51.000000,-51.000000,20.000000,3.000000,-5.000000,-49.000000,-128.000000,-128.000000
1298633.069401,106.000000,74.000000,33.000000,10.000000,-1.000000,20.000000,68.000000,104.000000
1298633.069453,127.000000,36.000000,27.000000,31.000000,21.000000,47.000000,106.000000,127.000000
1298633.092027,-128.000000,-128.000000,-59.000000,-25.000000,-11.000000,-61.000000,-128.000000,-128.000000
1298633.092090,127.000000,79.000000,31.000000,20.000000,-1.000000,21.000000,28.000000,38.000000
1298633.092841,-9.000000,40.000000,18.000000,35.000000,28.000000,12.000000,5.000000,23.000000
1298633.093182,19.000000,54.000000,-6.000000,-68.000000,-39.000000,11.000000,51.000000,43.000000
1298633.100300,-46.000000,-54.000000,27.000000,55.000000,30.000000,2.000000,-33.000000,-41.000000
1298633.100355,-41.000000,3.000000,41.000000,9.000000,-8.000000,11.000000,18.000000,18.000000
1298633.100585,127.000000,118.000000,21.000000,121.000000,37.000000,21.000000,37.000000,49.000000
1298633.100613,-47.000000,13.000000,-47.000000,-128.000000,-58.000000,-40.000000,-82.000000,-94.000000
1298633.102254,-128.000000,17.000000,-19.000000,-27.000000,-4.000000,-4.000000,-12.000000,-49.000000
1298633.102316,127.000000,127.000000,23.000000,70.000000,20.000000,43.000000,93.000000,82.000000
1298633.106745,-119.000000,66.000000,9.000000,-14.000000,-19.000000,-36.000000,1.000000,76.000000
1298633.106781,-115.000000,-17.000000,21.000000,-5.000000,-11.000000,-32.000000,-74.000000,-108.000000
1298633.114585,127.000000,55.000000,57.000000,31.000000,23.000000,59.000000,101.000000,123.000000
1298633.114613,73.000000,-47.000000,-49.000000,-18.000000,-5.000000,9.000000,22.000000,-6.000000
1298633.152103,-128.000000,111.000000,42.000000,66.000000,17.000000,-18.000000,-6.000000,19.000000
1298633.152130,-128.000000,-9.000000,-47.000000,-119.000000,-41.000000,-18.000000,-91.000000,-128.000000
1298633.175249,77.000000,-41.000000,-21.000000,55.000000,14.000000,13.000000,28.000000,34.000000
1298633.175288,127.000000,84.000000,59.000000,41.000000,29.000000,37.000000,76.000000,93.000000
1298633.182399,127.000000,-82.000000,-111.000000,-52.000000,-27.000000,-28.000000,-33.000000,-10.000000
1298633.182455,-25.000000,119.000000,57.000000,12.000000,3.000000,-14.000000,-48.000000,-43.000000
1298633.197200,127.000000,82.000000,44.000000,-75.000000,8.000000,56.000000,65.000000,91.000000
1298633.197255,-128.000000,-128.000000,-74.000000,67.000000,28.000000,-17.000000,-17.000000,-58.000000
1298633.204713,-128.000000,-84.000000,-29.000000,-76.000000,-35.000000,-51.000000,-128.000000,-128.000000
1298633.204762,127.000000,2.000000,34.000000,44.000000,14.000000,34.000000,56.000000,103.000000
1298633.221173,-128.000000,-21.000000,-1.000000,-60.000000,-36.000000,-8.000000,-13.000000,-57.000000
1298633.221806,71.000000,15.000000,17.000000,16.000000,19.000000,14.000000,39.000000,45.000000
1298633.222871,61.000000,20.000000,24.000000,29.000000,7.000000,-9.000000,-79.000000,-83.000000
1298633.222899,127.000000,22.000000,-9.000000,11.000000,4.000000,3.000000,3.000000,47.000000
1298633.224384,122.000000,-11.000000,-12.000000,-27.000000,8.000000,-4.000000,-10.000000,16.000000
1298633.224411,-128.000000,-22.000000,7.000000,38.000000,-12.000000,-13.000000,4.000000,-6.000000
1298633.224684,-128.000000,-56.000000,-19.000000,-27.000000,-22.000000,-7.000000,-2.000000,-10.000000
1298633.224709,101.000000,13.000000,-29.000000,42.000000,2.000000,21.000000,50.000000,54.000000
1298633.227081,-128.000000,-8.000000,-6.000000,35.000000,-15.000000,13.000000,16.000000,-52.000000
1298633.227147,72.000000,39.000000,-44.000000,-65.000000,17.000000,-4.000000,-18.000000,29.000000
1298633.234477,-7.000000,60.000000,30.000000,14.000000,-1.000000,-8.000000,-16.000000,-34.000000
1298633.234503,18.000000,47.000000,33.000000,-9.000000,2.000000,30.000000,58.000000,31.000000
1298633.256873,75.000000,51.000000,-1.000000,-19.000000,-13.000000,-38.000000,-48.000000,36.000000
1298633.256925,-43.000000,45.000000,19.000000,36.000000,0.000000,3.000000,15.000000,12.000000
1298633.287120,-110.000000,-52.000000,-38.000000,-28.000000,-10.000000,-40.000000,-63.000000,-87.000000
1298633.287164,-13.000000,-8.000000,22.000000,0.000000,7.000000,28.000000,56.000000,66.000000
1298633.294693,112.000000,-16.000000,-15.000000,12.000000,-17.000000,-36.000000,-64.000000,-63.000000
1298633.294719,-52.000000,53.000000,8.000000,0.000000,3.000000,0.000000,-2.000000,-41.000000
1298633.309257,-128.000000,-34.000000,-9.000000,-47.000000,-1.000000,16.000000,46.000000,19.000000
1298633.309287,51.000000,8.000000,-15.000000,112.000000,32.000000,-28.000000,-48.000000,-26.000000
1298633.324215,38.000000,-128.000000,-45.000000,-35.000000,-10.000000,19.000000,30.000000,11.000000
1298633.324542,-22.000000,62.000000,34.000000,-80.000000,-39.000000,-39.000000,-101.000000,-128.000000
1298633.326288,56.000000,-59.000000,-21.000000,93.000000,5.000000,5.000000,7.000000,-8.000000
1298633.326352,-26.000000,13.000000,35.000000,-31.000000,18.000000,15.000000,16.000000,27.000000
1298633.326641,127.000000,87.000000,33.000000,51.000000,24.000000,19.000000,35.000000,61.000000
1298633.326694,-87.000000,-16.000000,0.000000,83.000000,-9.000000,-54.000000,-110.000000,-104.000000
1298633.328946,12.000000,-128.000000,-128.000000,-128.000000,-53.000000,-12.000000,30.000000,38.000000
1298633.328969,127.000000,85.000000,1.000000,41.000000,18.000000,33.000000,54.000000,78.000000
1298633.329170,1.000000,72.000000,58.000000,70.000000,20.000000,1.000000,-38.000000,-89.000000
1298633.329231,-128.000000,-128.000000,-62.000000,-107.000000,-40.000000,-34.000000,-41.000000,-105.000000
1298633.339410,111.000000,33.000000,48.000000,46.000000,23.000000,49.000000,106.000000,85.000000
1298633.339461,127.000000,44.000000,5.000000,47.000000,24.000000,17.000000,32.000000,95.000000
1298633.346726,12.000000,-54.000000,-32.000000,-52.000000,-22.000000,-42.000000,-21.000000,-17.000000
1298633.346767,-22.000000,4.000000,31.000000,22.000000,19.000000,14.000000,14.000000,9.000000
1298633.354319,76.000000,71.000000,21.000000,5.000000,-8.000000,23.000000,41.000000,38.000000
1298633.354466,127.000000,56.000000,7.000000,38.000000,27.000000,14.000000,62.000000,122.000000
1298633.361875,-128.000000,77.000000,-67.000000,-70.000000,-13.000000,-12.000000,-102.000000,-128.000000
1298633.361900,25.000000,113.000000,-2.000000,-11.000000,-32.000000,-37.000000,-40.000000,17.000000
1298633.377768,127.000000,70.000000,80.000000,37.000000,25.000000,52.000000,107.000000,119.000000
1298633.377810,-8.000000,-72.000000,-76.000000,-96.000000,-18.000000,-16.000000,-73.000000,-63.000000
1298633.384570,113.000000,22.000000,-23.000000,-22.000000,-13.000000,-4.000000,12.000000,8.000000
1298633.384595,-128.000000,-72.000000,1.000000,23.000000,8.000000,16.000000,14.000000,-54.000000
1298633.407204,127.000000,127.000000,103.000000,63.000000,18.000000,-21.000000,-79.000000,-5.000000
1298633.407362,-128.000000,-90.000000,-105.000000,-128.000000,-48.000000,-22.000000,-23.000000,-86.000000
1298633.429555,56.000000,52.000000,5.000000,30.000000,20.000000,32.000000,69.000000,13.000000
1298633.429582,-26.000000,-18.000000,-27.000000,20.000000,-27.000000,-40.000000,-51.000000,5.000000
1298633.467304,112.000000,50.000000,-37.000000,-82.000000,-25.000000,-21.000000,-6.000000,22.000000
1298633.467364,-117.000000,-8.000000,-55.000000,32.000000,1.000000,-8.000000,-22.000000,-33.000000
1298633.474698,127.000000,-24.000000,-57.000000,-71.000000,-3.000000,15.000000,43.000000,56.000000
1298633.474749,-128.000000,-14.000000,64.000000,83.000000,5.000000,-4.000000,-31.000000,-71.000000
1298633.496904,-128.000000,-108.000000,-81.000000,-59.000000,-49.000000,-70.000000,-125.000000,-128.000000
1298633.497149,127.000000,98.000000,39.000000,-57.000000,-13.000000,25.000000,53.000000,40.000000
1298633.497588,-128.000000,-123.000000,-18.000000,68.000000,18.000000,-2.000000,-23.000000,-57.000000
1298633.497635,90.000000,0.000000,-36.000000,-15.000000,-9.000000,-23.000000,-42.000000,-23.000000
1298633.504256,127.000000,127.000000,54.000000,91.000000,53.000000,36.000000,50.000000,35.000000
1298633.504300,-128.000000,-120.000000,-66.000000,-12.000000,-29.000000,-26.000000,12.000000,10.000000
1298633.511928,86.000000,55.000000,22.000000,-44.000000,-44.000000,-81.000000,-118.000000,-62.000000
1298633.511955,8.000000,49.000000,34.000000,-39.000000,-18.000000,15.000000,25.000000,-49.000000
1298633.572207,61.000000,65.000000,58.000000,48.000000,50.000000,91.000000,127.000000,127.000000
1298633.572270,101.000000,94.000000,24.000000,-19.000000,-38.000000,-83.000000,-128.000000,-128.000000
1298633.580093,-128.000000,-120.000000,-88.000000,-20.000000,-9.000000,-15.000000,-21.000000,-86.000000
1298633.580204,54.000000,126.000000,91.000000,31.000000,22.000000,46.000000,80.000000,65.000000
1298633.580813,64.000000,-53.000000,-84.000000,20.000000,4.000000,-20.000000,-9.000000,41.000000
1298633.581049,-128.000000,-7.000000,25.000000,-32.000000,-38.000000,-42.000000,-66.000000,-73.000000
1298633.581937,-24.000000,17.000000,-49.000000,-16.000000,-27.000000,-20.000000,-41.000000,11.000000
1298633.582187,47.000000,127.000000,57.000000,88.000000,47.000000,36.000000,37.000000,42.000000
1298633.582777,64.000000,27.000000,10.000000,6.000000,6.000000,-8.000000,-60.000000,-99.000000
1298633.582823,-63.000000,19.000000,5.000000,-2.000000,-11.000000,-18.000000,-2.000000,-43.000000
1298633.586713,123.000000,127.000000,122.000000,89.000000,27.000000,34.000000,64.000000,50.000000
1298633.586746,44.000000,-48.000000,-72.000000,-55.000000,35.000000,13.000000,5.000000,24.000000
1298633.594742,-128.000000,-112.000000,-93.000000,-125.000000,-58.000000,-31.000000,-35.000000,-105.000000
1298633.594783,55.000000,72.000000,40.000000,69.000000,37.000000,40.000000,60.000000,47.000000
1298633.602231,84.000000,63.000000,87.000000,127.000000,44.000000,-1.000000,10.000000,80.000000
1298633.602272,3.000000,49.000000,-20.000000,-128.000000,-23.000000,-2.000000,-14.000000,-52.000000
1298633.632397,-52.000000,23.000000,-43.000000,-53.000000,-24.000000,4.000000,47.000000,29.000000
1298633.632424,127.000000,26.000000,16.000000,45.000000,5.000000,0.000000,4.000000,36.000000
1298633.639894,-128.000000,-81.000000,-47.000000,-14.000000,-29.000000,-63.000000,-128.000000,-128.000000
1298633.639932,63.000000,-94.000000,-2.000000,15.000000,7.000000,6.000000,15.000000,-17.000000
1298633.662202,56.000000,-114.000000,20.000000,15.000000,7.000000,25.000000,22.000000,-10.000000
1298633.662228,127.000000,53.000000,25.000000,15.000000,34.000000,64.000000,78.000000,118.000000
1298633.669478,-128.000000,-58.000000,41.000000,34.000000,-13.000000,-55.000000,-93.000000,-128.000000
1298633.669531,127.000000,26.000000,-13.000000,2.000000,-8.000000,3.000000,-1.000000,16.000000
1298633.708949,127.000000,27.000000,-32.000000,-98.000000,-4.000000,20.000000,70.000000,76.000000
1298633.708992,117.000000,54.000000,26.000000,94.000000,17.000000,12.000000,23.000000,44.000000
1298633.709540,-88.000000,-39.000000,1.000000,25.000000,8.000000,-15.000000,-26.000000,-20.000000
1298633.709819,-14.000000,-8.000000,-60.000000,-71.000000,-39.000000,-11.000000,-1.000000,-2.000000
1298633.710490,-114.000000,-128.000000,-111.000000,-25.000000,-24.000000,-38.000000,-54.000000,-87.000000
1298633.710539,-128.000000,-67.000000,-4.000000,10.000000,11.000000,0.000000,-33.000000,-91.000000
1298633.711129,81.000000,-55.000000,-14.000000,35.000000,-7.000000,24.000000,67.000000,86.000000
1298633.711156,110.000000,103.000000,41.000000,61.000000,25.000000,3.000000,-15.000000,40.000000
1298633.737186,127.000000,127.000000,30.000000,4.000000,12.000000,20.000000,19.000000,2.000000
1298633.737219,-89.000000,-90.000000,-80.000000,0.000000,5.000000,-1.000000,31.000000,21.000000
1298633.744551,6.000000,-7.000000,31.000000,0.000000,-2.000000,-26.000000,-59.000000,10.000000
1298633.744607,-67.000000,10.000000,0.000000,-24.000000,-24.000000,-2.000000,10.000000,-2.000000
1298633.759219,67.000000,72.000000,-14.000000,-17.000000,6.000000,22.000000,37.000000,29.000000
1298633.759285,-3.000000,-25.000000,11.000000,18.000000,-6.000000,11.000000,20.000000,50.000000
1298633.774503,15.000000,40.000000,-13.000000,27.000000,38.000000,28.000000,25.000000,4.000000
1298633.774559,25.000000,12.000000,3.000000,-17.000000,-25.000000,-26.000000,-42.000000,7.000000
1298633.828909,-12.000000,101.000000,40.000000,-11.000000,-17.000000,-14.000000,9.000000,8.000000
1298633.829208,-43.000000,4.000000,-11.000000,77.000000,46.000000,43.000000,71.000000,79.000000
1298633.830456,-128.000000,47.000000,-116.000000,-128.000000,-49.000000,-74.000000,-128.000000,-128.000000
1298633.830484,125.000000,39.000000,42.000000,31.000000,9.000000,27.000000,44.000000,56.000000
1298633.830651,-128.000000,-122.000000,-47.000000,12.000000,10.000000,47.000000,94.000000,21.000000
1298633.830699,87.000000,-44.000000,-30.000000,22.000000,-12.000000,-46.000000,-54.000000,-7.000000
1298633.831986,116.000000,-64.000000,-128.000000,-35.000000,26.000000,15.000000,26.000000,29.000000
1298633.832006,-128.000000,-55.000000,-8.000000,-10.000000,51.000000,12.000000,-24.000000,-41.000000
1298633.850056,-114.000000,-62.000000,-44.000000,-37.000000,-49.000000,-110.000000,-128.000000,-128.000000
1298633.850099,-84.000000,-72.000000,37.000000,70.000000,61.000000,52.000000,85.000000,11.000000
1298633.851176,53.000000,-128.000000,-96.000000,-34.000000,16.000000,43.000000,101.000000,118.000000
1298633.851198,-128.000000,-35.000000,-16.000000,-1.000000,-27.000000,-55.000000,-128.000000,-128.000000
1298633.856791,-128.000000,-41.000000,-26.000000,-25.000000,-5.000000,9.000000,40.000000,8.000000
1298633.856814,127.000000,127.000000,95.000000,-6.000000,-9.000000,28.000000,43.000000,46.000000
1298633.879958,17.000000,-128.000000,-26.000000,-26.000000,14.000000,2.000000,2.000000,30.000000
1298633.880074,127.000000,-9.000000,-18.000000,26.000000,21.000000,12.000000,7.000000,14.000000
1298633.887235,-128.000000,-128.000000,7.000000,-24.000000,-24.000000,2.000000,1.000000,-81.000000
1298633.887366,61.000000,-27.000000,-43.000000,-10.000000,-20.000000,-72.000000,-109.000000,-60.000000
1298633.901993,-2.000000,16.000000,-45.000000,-70.000000,-17.000000,11.000000,21.000000,34.000000
1298633.902018,58.000000,127.000000,51.000000,105.000000,33.000000,-21.000000,-17.000000,-32.000000
1298633.909520,-128.000000,-119.000000,-61.000000,49.000000,-4.000000,-5.000000,-24.000000,-65.000000
1298633.909572,127.000000,127.000000,83.000000,90.000000,53.000000,37.000000,51.000000,76.000000
1298633.924455,-71.000000,-81.000000,-66.000000,-46.000000,25.000000,10.000000,17.000000,6.000000
1298633.924479,-38.000000,11.000000,-16.000000,-34.000000,-24.000000,-18.000000,-13.000000,-29.000000
1298633.932243,96.000000,127.000000,20.000000,-17.000000,-40.000000,21.000000,51.000000,82.000000
1298633.932676,-35.000000,78.000000,-45.000000,-20.000000,-28.000000,-31.000000,-11.000000,5.000000
1298633.934072,-19.000000,-9.000000,78.000000,117.000000,73.000000,77.000000,127.000000,126.000000
1298633.934111,-76.000000,-58.000000,-16.000000,-44.000000,-22.000000,-3.000000,-14.000000,-8.000000
1298633.934656,-4.000000,-66.000000,3.000000,-21.000000,-8.000000,8.000000,25.000000,2.000000
1298633.934703,127.000000,29.000000,48.000000,76.000000,19.000000,13.000000,40.000000,94.000000
1298633.984505,-128.000000,-63.000000,-46.000000,-116.000000,-19.000000,-6.000000,-16.000000,-55.000000
1298633.984549,112.000000,66.000000,36.000000,-13.000000,-1.000000,11.000000,14.000000,75.000000
1298633.999503,40.000000,80.000000,36.000000,51.000000,39.000000,26.000000,56.000000,40.000000
1298633.999528,-57.000000,71.000000,127.000000,92.000000,49.000000,37.000000,60.000000,37.000000
1298634.022057,-72.000000,-128.000000,-128.000000,-75.000000,-41.000000,-53.000000,-77.000000,-95.000000
1298634.022116,28.000000,18.000000,38.000000,4.000000,-30.000000,24.000000,75.000000,79.000000
1298634.029731,16.000000,25.000000,58.000000,110.000000,60.000000,-23.000000,-83.000000,-63.000000
1298634.029861,-119.000000,41.000000,-76.000000,-35.000000,13.000000,38.000000,51.000000,14.000000
1298634.052763,58.000000,-35.000000,6.000000,-27.000000,-21.000000,-10.000000,13.000000,45.000000
1298634.053106,7.000000,-5.000000,22.000000,-46.000000,-40.000000,-38.000000,-79.000000,-82.000000
1298634.055351,-128.000000,-29.000000,-12.000000,-1.000000,-10.000000,-31.000000,-95.000000,-128.000000
1298634.055402,88.000000,-7.000000,-21.000000,19.000000,23.000000,31.000000,60.000000,50.000000
1298634.056047,82.000000,-50.000000,12.000000,31.000000,-13.000000,13.000000,41.000000,40.000000
1298634.056100,127.000000,31.000000,-5.000000,-72.000000,-12.000000,0.000000,36.000000,66.000000
1298634.059530,127.000000,93.000000,36.000000,-58.000000,-48.000000,10.000000,48.000000,47.000000
1298634.059568,-128.000000,-60.000000,-3.000000,99.000000,6.000000,-63.000000,-128.000000,-128.000000
1298634.074808,11.000000,-128.000000,-128.000000,-128.000000,-56.000000,-19.000000,30.000000,58.000000
1298634.074857,70.000000,-62.000000,-41.000000,20.000000,-24.000000,-46.000000,-42.000000,-15.000000
1298634.096931,-128.000000,-72.000000,15.000000,22.000000,18.000000,26.000000,18.000000,-62.000000
1298634.096976,66.000000,-28.000000,38.000000,12.000000,-8.000000,-28.000000,-42.000000,8.000000
1298634.111965,127.000000,64.000000,26.000000,9.000000,3.000000,21.000000,34.000000,44.000000
1298634.112033,-128.000000,-128.000000,-121.000000,-57.000000,-27.000000,-13.000000,2.000000,-46.000000
1298634.134697,51.000000,61.000000,-3.000000,32.000000,17.000000,11.000000,-5.000000,-19.000000
1298634.134723,69.000000,127.000000,61.000000,9.000000,5.000000,19.000000,26.000000,44.000000
1298634.157186,56.000000,84.000000,9.000000,47.000000,8.000000,21.000000,42.000000,42.000000
1298634.157229,1.000000,-15.000000,-79.000000,-71.000000,22.000000,-16.000000,-38.000000,-34.000000
1298634.172183,-11.000000,109.000000,46.000000,11.000000,5.000000,8.000000,1.000000,0.000000
1298634.172208,-1.000000,55.000000,18.000000,-34.000000,-17.000000,21.000000,56.000000,83.000000
1298634.194622,-99.000000,-55.000000,24.000000,32.000000,22.000000,6.000000,42.000000,16.000000
1298634.194648,-67.000000,42.000000,42.000000,54.000000,-4.000000,-44.000000,-117.000000,-122.000000
1298634.202057,127.000000,53.000000,32.000000,-20.000000,20.000000,63.000000,126.000000,116.000000
1298634.202086,-49.000000,125.000000,10.000000,23.000000,5.000000,-29.000000,-63.000000,-54.000000
1298634.218585,123.000000,-94.000000,-37.000000,17.000000,19.000000,55.000000,98.000000,122.000000
1298634.218830,-51.000000,-22.000000,21.000000,50.000000,16.000000,-42.000000,-75.000000,-28.000000
1298634.219410,7.000000,36.000000,-16.000000,-32.000000,-19.000000,-21.000000,-34.000000,-12.000000
1298634.219908,81.000000,127.000000,49.000000,75.000000,39.000000,18.000000,37.000000,54.000000
1298634.220676,-106.000000,97.000000,40.000000,51.000000,10.000000,12.000000,-20.000000,-109.000000
1298634.220716,-9.000000,12.000000,28.000000,21.000000,-6.000000,-24.000000,-50.000000,-42.000000
1298634.224858,1.000000,3.000000,-1.000000,-19.000000,0.000000,-5.000000,-1.000000,-2.000000
1298634.224903,16.000000,-60.000000,-3.000000,9.000000,5.000000,5.000000,-18.000000,-1.000000
1298634.239752,-18.000000,90.000000,0.000000,63.000000,14.000000,24.000000,69.000000,53.000000
1298634.239782,127.000000,61.000000,7.000000,-72.000000,-19.000000,-34.000000,-91.000000,-25.000000
1298634.263383,-71.000000,-6.000000,15.000000,48.000000,11.000000,-7.000000,-27.000000,-28.000000
1298634.263508,-3.000000,4.000000,18.000000,-21.000000,19.000000,30.000000,59.000000,35.000000
1298634.263962,-45.000000,-10.000000,3.000000,-41.000000,-51.000000,-6.000000,4.000000,-21.000000
1298634.263984,-124.000000,-37.000000,-30.000000,88.000000,8.000000,-82.000000,-128.000000,-128.000000
1298634.277974,35.000000,-23.000000,-34.000000,-82.000000,-31.000000,26.000000,98.000000,101.000000
1298634.278189,127.000000,70.000000,28.000000,103.000000,41.000000,37.000000,67.000000,75.000000
1298634.278819,-75.000000,23.000000,-18.000000,-106.000000,-2.000000,4.000000,2.000000,-10.000000
1298634.278878,71.000000,10.000000,1.000000,42.000000,15.000000,18.000000,23.000000,28.000000
1298634.292414,78.000000,94.000000,20.000000,-5.000000,-22.000000,-16.000000,-43.000000,-37.000000
1298634.292463,-62.000000,-26.000000,-38.000000,-22.000000,-15.000000,-16.000000,1.000000,-6.000000
1298634.299335,121.000000,51.000000,32.000000,17.000000,13.000000,32.000000,33.000000,33.000000
1298634.299385,76.000000,40.000000,19.000000,10.000000,19.000000,18.000000,51.000000,114.000000
1298634.307803,-54.000000,99.000000,3.000000,10.000000,-9.000000,-24.000000,-14.000000,-32.000000
1298634.307828,85.000000,-30.000000,-11.000000,-31.000000,4.000000,23.000000,50.000000,47.000000
1298634.314556,89.000000,-63.000000,17.000000,79.000000,32.000000,50.000000,77.000000,66.000000
1298634.314598,-128.000000,-17.000000,6.000000,-75.000000,-19.000000,-82.000000,-128.000000,-128.000000
1298634.337114,-71.000000,43.000000,-34.000000,-20.000000,-32.000000,-17.000000,-6.000000,-31.000000
1298634.337171,44.000000,-12.000000,42.000000,12.000000,-2.000000,34.000000,51.000000,57.000000
1298634.344694,86.000000,29.000000,-9.000000,100.000000,43.000000,24.000000,61.000000,81.000000
1298634.344759,127.000000,75.000000,-59.000000,-27.000000,-14.000000,-40.000000,-93.000000,-34.000000
1298634.382245,-103.000000,65.000000,38.000000,0.000000,-17.000000,-13.000000,-19.000000,-36.000000
1298634.382595,2.000000,0.000000,10.000000,4.000000,-6.000000,18.000000,28.000000,24.000000
1298634.383207,11.000000,40.000000,4.000000,4.000000,2.000000,-10.000000,-26.000000,-15.000000
1298634.383246,21.000000,71.000000,57.000000,13.000000,3.000000,5.000000,19.000000,44.000000
1298634.384820,-34.000000,-30.000000,-49.000000,-15.000000,-7.000000,-1.000000,-5.000000,-25.000000
1298634.384871,4.000000,36.000000,41.000000,-2.000000,0.000000,8.000000,-1.000000,15.000000
1298634.385284,127.000000,37.000000,18.000000,27.000000,20.000000,36.000000,76.000000,122.000000
1298634.385307,-128.000000,-48.000000,-4.000000,1.000000,-16.000000,-68.000000,-128.000000,-128.000000
1298634.390090,52.000000,11.000000,3.000000,-24.000000,-5.000000,-12.000000,-10.000000,20.000000
1298634.390115,-20.000000,-54.000000,-4.000000,-1.000000,-8.000000,2.000000,1.000000,-43.000000
1298634.404906,77.000000,127.000000,38.000000,-13.000000,-1.000000,23.000000,40.000000,75.000000
1298634.404941,12.000000,60.000000,-8.000000,59.000000,11.000000,3.000000,8.000000,3.000000
1298634.406150,77.000000,-17.000000,30.000000,-65.000000,-20.000000,-3.000000,-6.000000,2.000000
1298634.406200,-80.000000,-93.000000,-66.000000,-8.000000,-3.000000,-17.000000,-42.000000,-63.000000
1298634.419430,38.000000,35.000000,44.000000,21.000000,15.000000,22.000000,38.000000,29.000000
1298634.419489,2.000000,35.000000,38.000000,30.000000,-24.000000,-4.000000,6.000000,-5.000000
1298634.449461,52.000000,-14.000000,-55.000000,-1.000000,5.000000,-2.000000,18.000000,36.000000
1298634.449511,-128.000000,-74.000000,-44.000000,-31.000000,-42.000000,-45.000000,-70.000000,-93.000000
1298634.457019,-12.000000,-57.000000,31.000000,-4.000000,1.000000,12.000000,7.000000,7.000000
1298634.457070,14.000000,110.000000,71.000000,40.000000,16.000000,21.000000,29.000000,20.000000
1298634.471892,-17.000000,-56.000000,-68.000000,-7.000000,-14.000000,3.000000,54.000000,56.000000
1298634.471941,36.000000,-15.000000,-54.000000,2.000000,-10.000000,-61.000000,-123.000000,-94.000000
1298634.473273,-120.000000,-46.000000,12.000000,-66.000000,-7.000000,35.000000,55.000000,20.000000
1298634.473300,127.000000,127.000000,69.000000,41.000000,18.000000,38.000000,85.000000,127.000000
1298634.474577,-128.000000,5.000000,-41.000000,3.000000,-15.000000,-35.000000,-98.000000,-104.000000
1298634.474602,-102.000000,-15.000000,30.000000,-26.000000,-5.000000,-17.000000,-50.000000,-85.000000
1298634.479621,78.000000,70.000000,27.000000,16.000000,15.000000,43.000000,75.000000,89.000000
1298634.479646,54.000000,13.000000,78.000000,127.000000,28.000000,36.000000,54.000000,45.000000
1298634.488069,105.000000,31.000000,-26.000000,-120.000000,5.000000,-13.000000,-35.000000,-2.000000
1298634.488097,-50.000000,-33.000000,8.000000,-66.000000,-36.000000,-13.000000,-8.000000,-24.000000
1298634.494298,80.000000,82.000000,9.000000,114.000000,7.000000,16.000000,21.000000,24.000000
1298634.494349,4.000000,-3.000000,-11.000000,43.000000,25.000000,21.000000,35.000000,25.000000
1298634.532123,9.000000,23.000000,-23.000000,-113.000000,-41.000000,-37.000000,-58.000000,-65.000000
1298634.532160,-67.000000,-107.000000,-83.000000,-9.000000,-24.000000,-14.000000,-9.000000,-25.000000
1298634.539251,95.000000,127.000000,34.000000,-13.000000,-1.000000,3.000000,21.000000,60.000000
1298634.539295,29.000000,-5.000000,-9.000000,10.000000,-6.000000,7.000000,28.000000,-7.000000
1298634.541279,-55.000000,-29.000000,28.000000,19.000000,-7.000000,-34.000000,-79.000000,-57.000000
1298634.541329,81.000000,71.000000,31.000000,13.000000,6.000000,17.000000,61.000000,60.000000
1298634.541755,-49.000000,35.000000,-4.000000,3.000000,-8.000000,-35.000000,-85.000000,-66.000000
1298634.541784,1.000000,13.000000,17.000000,-2.000000,0.000000,2.000000,13.000000,-6.000000
1298634.577768,48.000000,-128.000000,-56.000000,-6.000000,10.000000,23.000000,21.000000,15.000000
1298634.577840,-128.000000,14.000000,58.000000,64.000000,9.000000,-19.000000,-65.000000,-70.000000
1298634.584757,48.000000,-14.000000,-35.000000,-77.000000,-20.000000,1.000000,4.000000,8.000000
1298634.584784,24.000000,-21.000000,-33.000000,-70.000000,-13.000000,14.000000,39.000000,33.000000
1298634.606957,55.000000,-36.000000,91.000000,69.000000,5.000000,25.000000,51.000000,86.000000
1298634.607008,125.000000,-124.000000,-68.000000,-13.000000,55.000000,22.000000,-13.000000,-24.000000
1298634.614583,-104.000000,-94.000000,-58.000000,-72.000000,-50.000000,-64.000000,-128.000000,-128.000000
1298634.614841,57.000000,94.000000,43.000000,9.000000,0.000000,10.000000,30.000000,38.000000
1298634.616539,67.000000,28.000000,22.000000,-14.000000,-23.000000,6.000000,33.000000,50.000000
1298634.616591,-7.000000,-128.000000,-111.000000,-19.000000,-4.000000,-4.000000,-3.000000,-30.000000
1298634.618064,-119.000000,-23.000000,19.000000,18.000000,-5.000000,-5.000000,3.000000,-36.000000
1298634.618107,5.000000,90.000000,83.000000,30.000000,14.000000,0.000000,-33.000000,-16.000000
1298634.618314,119.000000,43.000000,-19.000000,-20.000000,-14.000000,-15.000000,-11.000000,-4.000000
1298634.618348,-16.000000,-128.000000,-16.000000,-4.000000,11.000000,17.000000,35.000000,14.000000
1298634.629213,-128.000000,-105.000000,-75.000000,-38.000000,-9.000000,-43.000000,-72.000000,-112.000000
1298634.629262,52.000000,-1.000000,8.000000,-12.000000,16.000000,40.000000,48.000000,33.000000
1298634.659794,60.000000,29.000000,-15.000000,24.000000,3.000000,30.000000,57.000000,103.000000
1298634.659999,-61.000000,54.000000,-81.000000,-87.000000,-50.000000,-110.000000,-128.000000,-128.000000
1298634.661540,-70.000000,-7.000000,1.000000,10.000000,-7.000000,-5.000000,-2.000000,-38.000000
1298634.661650,28.000000,20.000000,45.000000,85.000000,22.000000,29.000000,56.000000,56.000000
1298634.661982,104.000000,62.000000,12.000000,-57.000000,1.000000,5.000000,-4.000000,11.000000
1298634.662002,-35.000000,-128.000000,-75.000000,-21.000000,9.000000,-4.000000,-4.000000,-11.000000
1298634.682230,-110.000000,46.000000,24.000000,10.000000,-2.000000,-7.000000,-31.000000,-33.000000
1298634.682281,87.000000,15.000000,-6.000000,-20.000000,-31.000000,-9.000000,4.000000,35.000000
1298634.689462,-106.000000,99.000000,22.000000,57.000000,5.000000,-5.000000,6.000000,7.000000
1298634.689493,-55.000000,-80.000000,-70.000000,-54.000000,-32.000000,-59.000000,-122.000000,-114.000000
1298634.711988,-70.000000,-24.000000,53.000000,37.000000,17.000000,31.000000,55.000000,10.000000
1298634.712015,127.000000,83.000000,82.000000,68.000000,34.000000,34.000000,39.000000,89.000000
1298634.719736,-128.000000,-128.000000,-96.000000,-117.000000,-40.000000,-61.000000,-81.000000,-111.000000
1298634.719786,-128.000000,-22.000000,12.000000,12.000000,0.000000,7.000000,9.000000,-35.000000
1298634.734652,81.000000,-59.000000,-12.000000,-11.000000,6.000000,31.000000,42.000000,61.000000
1298634.734717,38.000000,52.000000,26.000000,56.000000,26.000000,21.000000,39.000000,33.000000
1298634.741971,15.000000,87.000000,-6.000000,-75.000000,-44.000000,-35.000000,-44.000000,-10.000000
1298634.742015,-26.000000,53.000000,57.000000,69.000000,5.000000,-1.000000,11.000000,-1.000000
1298634.757256,-31.000000,-27.000000,-54.000000,-15.000000,21.000000,9.000000,11.000000,-1.000000
1298634.757283,-17.000000,61.000000,18.000000,2.000000,11.000000,6.000000,13.000000,13.000000
1298634.772900,101.000000,92.000000,57.000000,68.000000,2.000000,13.000000,20.000000,41.000000
1298634.773554,-54.000000,-70.000000,-63.000000,-76.000000,-9.000000,-7.000000,6.000000,-28.000000
1298634.774411,-122.000000,33.000000,15.000000,11.000000,2.000000,-8.000000,11.000000,13.000000
1298634.774649,-67.000000,100.000000,31.000000,21.000000,-1.000000,-11.000000,-34.000000,-32.000000
1298634.775401,19.000000,-72.000000,-57.000000,2.000000,2.000000,23.000000,26.000000,-6.000000
1298634.775442,34.000000,19.000000,9.000000,-25.000000,-3.000000,0.000000,5.000000,36.000000
1298634.776515,-35.000000,-94.000000,-31.000000,9.000000,-15.000000,-26.000000,-29.000000,-54.000000
1298634.776568,108.000000,26.000000,30.000000,15.000000,24.000000,16.000000,11.000000,69.000000
1298634.779742,-74.000000,-96.000000,-6.000000,-17.000000,-5.000000,1.000000,18.000000,2.000000
1298634.779769,-101.000000,-41.000000,32.000000,35.000000,7.000000,8.000000,15.000000,-4.000000
1298634.817347,1.000000,-10.000000,2.000000,5.000000,9.000000,-15.000000,-53.000000,-43.000000
1298634.817403,-128.000000,1.000000,-14.000000,-64.000000,-29.000000,-2.000000,5.000000,-26.000000
1298634.832060,37.000000,-16.000000,-14.000000,-24.000000,6.000000,6.000000,-2.000000,-9.000000
1298634.832110,127.000000,28.000000,-11.000000,53.000000,11.000000,13.000000,24.000000,55.000000
1298634.854632,-128.000000,-107.000000,-94.000000,-21.000000,-6.000000,-25.000000,-29.000000,-78.000000
1298634.854979,-57.000000,36.000000,23.000000,9.000000,-15.000000,-6.000000,5.000000,-5.000000
1298634.856231,77.000000,31.000000,5.000000,-33.000000,1.000000,12.000000,-19.000000,14.000000
1298634.856652,-75.000000,127.000000,-10.000000,10.000000,-17.000000,-16.000000,-3.000000,2.000000
1298634.858563,51.000000,59.000000,42.000000,24.000000,17.000000,19.000000,16.000000,-6.000000
1298634.858589,53.000000,-41.000000,-26.000000,0.000000,11.000000,33.000000,91.000000,127.000000
1298634.858854,64.000000,64.000000,53.000000,71.000000,7.000000,-21.000000,-34.000000,6.000000
1298634.858883,115.000000,-23.000000,-11.000000,-71.000000,-14.000000,-1.000000,6.000000,-49.000000
1298634.870296,-28.000000,-96.000000,-48.000000,4.000000,-8.000000,-14.000000,0.000000,21.000000
1298634.870342,-16.000000,-32.000000,-19.000000,22.000000,15.000000,-9.000000,-24.000000,-36.000000
1298634.885401,70.000000,127.000000,70.000000,59.000000,20.000000,43.000000,65.000000,68.000000
1298634.885706,105.000000,127.000000,31.000000,-25.000000,-3.000000,8.000000,-5.000000,5.000000
1298634.886939,-96.000000,-109.000000,-76.000000,-80.000000,-30.000000,-5.000000,-10.000000,-84.000000
1298634.887064,-128.000000,-35.000000,-3.000000,0.000000,-3.000000,-31.000000,-66.000000,-88.000000
1298634.899903,96.000000,56.000000,47.000000,33.000000,7.000000,3.000000,26.000000,72.000000
1298634.900042,75.000000,121.000000,36.000000,25.000000,7.000000,23.000000,40.000000,32.000000
1298634.937710,32.000000,-128.000000,-13.000000,27.000000,14.000000,23.000000,51.000000,52.000000
1298634.937743,-80.000000,-58.000000,-42.000000,-26.000000,-14.000000,-31.000000,-46.000000,-20.000000
1298634.967752,29.000000,3.000000,15.000000,-1.000000,-7.000000,-15.000000,-24.000000,0.000000
1298634.967805,78.000000,33.000000,6.000000,-3.000000,-1.000000,18.000000,30.000000,21.000000
1298634.970438,2.000000,20.000000,43.000000,49.000000,20.000000,29.000000,35.000000,58.000000
1298634.970944,-67.000000,-123.000000,-88.000000,-34.000000,-22.000000,-12.000000,5.000000,-19.000000
1298634.971243,4.000000,69.000000,-20.000000,-56.000000,-8.000000,-33.000000,-80.000000,-65.000000
1298634.971658,18.000000,11.000000,26.000000,5.000000,9.000000,25.000000,38.000000,66.000000
1298634.972983,92.000000,-128.000000,-19.000000,43.000000,-1.000000,7.000000,8.000000,3.000000
1298634.973034,-5.000000,91.000000,23.000000,-9.000000,5.000000,-16.000000,-13.000000,18.000000
1298634.973365,-84.000000,-128.000000,-100.000000,-45.000000,-21.000000,-14.000000,-24.000000,-57.000000
1298634.973412,-40.000000,48.000000,42.000000,2.000000,-4.000000,2.000000,2.000000,-4.000000
1298634.974931,42.000000,-39.000000,17.000000,18.000000,-3.000000,-1.000000,-6.000000,-22.000000
1298634.974996,-128.000000,-78.000000,-37.000000,-59.000000,-38.000000,-52.000000,-71.000000,-91.000000
1298635.005084,127.000000,106.000000,13.000000,15.000000,13.000000,28.000000,48.000000,55.000000
1298635.005148,-29.000000,0.000000,4.000000,52.000000,19.000000,-8.000000,11.000000,44.000000
1298635.005654,86.000000,11.000000,-62.000000,-68.000000,-15.000000,-44.000000,-65.000000,-71.000000
1298635.005689,-128.000000,-22.000000,4.000000,-47.000000,-28.000000,20.000000,54.000000,-17.000000
1298635.012662,-29.000000,21.000000,0.000000,-14.000000,-24.000000,-22.000000,-36.000000,15.000000
1298635.012765,18.000000,-13.000000,-52.000000,58.000000,5.000000,-6.000000,-7.000000,-9.000000
1298635.019527,-60.000000,69.000000,18.000000,1.000000,31.000000,25.000000,26.000000,9.000000
1298635.019553,88.000000,59.000000,61.000000,45.000000,8.000000,23.000000,40.000000,54.000000
1298635.034924,102.000000,0.000000,-81.000000,-22.000000,17.000000,18.000000,37.000000,41.000000
1298635.034953,-128.000000,-17.000000,32.000000,-25.000000,-14.000000,-42.000000,-58.000000,-63.000000
1298635.042242,-36.000000,33.000000,6.000000,6.000000,10.000000,16.000000,15.000000,11.000000
1298635.042290,79.000000,-100.000000,-72.000000,-8.000000,-19.000000,7.000000,32.000000,44.000000
1298635.094632,80.000000,100.000000,42.000000,40.000000,19.000000,26.000000,21.000000,36.000000
1298635.094689,-128.000000,-13.000000,-97.000000,-12.000000,-22.000000,-53.000000,-85.000000,-128.000000
1298635.102015,82.000000,-21.000000,-8.000000,-61.000000,-17.000000,-3.000000,-1.000000,16.000000
1298635.102070,9.000000,68.000000,46.000000,31.000000,26.000000,54.000000,82.000000,67.000000
1298635.117548,127.000000,24.000000,-9.000000,-4.000000,0.000000,-29.000000,-48.000000,1.000000
1298635.117570,-49.000000,20.000000,32.000000,51.000000,8.000000,10.000000,10.000000,-35.000000
1298635.124394,0.000000,-4.000000,-19.000000,-12.000000,1.000000,7.000000,8.000000,-7.000000
1298635.124671,71.000000,2.000000,-2.000000,-14.000000,18.000000,31.000000,47.000000,43.000000
1298635.126998,-59.000000,-33.000000,-75.000000,-76.000000,-9.000000,10.000000,10.000000,-2.000000
1298635.127036,127.000000,86.000000,66.000000,109.000000,29.000000,18.000000,25.000000,66.000000
1298635.128381,80.000000,122.000000,27.000000,2.000000,-8.000000,-10.000000,-6.000000,8.000000
1298635.128431,127.000000,-21.000000,-10.000000,9.000000,5.000000,21.000000,56.000000,108.000000
1298635.128845,-128.000000,-43.000000,-45.000000,-128.000000,-5.000000,9.000000,14.000000,3.000000
1298635.128884,-128.000000,-52.000000,-25.000000,19.000000,-19.000000,-43.000000,-106.000000,-128.000000
1298635.132496,-13.000000,29.000000,19.000000,11.000000,-16.000000,-52.000000,-78.000000,-104.000000
1298635.132527,-128.000000,-4.000000,18.000000,-3.000000,-9.000000,6.000000,-3.000000,-45.000000
1298635.139393,127.000000,44.000000,20.000000,24.000000,14.000000,38.000000,72.000000,64.000000
1298635.139418,127.000000,24.000000,-15.000000,-1.000000,4.000000,-3.000000,12.000000,81.000000
1298635.169447,-128.000000,0.000000,6.000000,-6.000000,-21.000000,-38.000000,-79.000000,-128.000000
1298635.169497,-7.000000,-82.000000,-32.000000,-3.000000,-26.000000,-25.000000,-3.000000,27.000000
1298635.177306,-69.000000,22.000000,-31.000000,-9.000000,28.000000,3.000000,11.000000,-4.000000
1298635.177361,-44.000000,53.000000,69.000000,32.000000,-8.000000,5.000000,16.000000,5.000000
1298635.199453,80.000000,21.000000,-16.000000,34.000000,2.000000,13.000000,33.000000,86.000000
1298635.199501,-128.000000,-128.000000,-128.000000,-128.000000,-34.000000,-43.000000,-114.000000,-128.000000
1298635.214416,48.000000,60.000000,25.000000,22.000000,-9.000000,-5.000000,16.000000,32.000000
1298635.214468,91.000000,18.000000,66.000000,65.000000,26.000000,40.000000,53.000000,72.000000
1298635.238323,127.000000,78.000000,16.000000,16.000000,7.000000,6.000000,40.000000,47.000000
1298635.238600,-93.000000,-62.000000,-11.000000,-12.000000,-26.000000,-64.000000,-128.000000,-128.000000
1298635.239194,-128.000000,-83.000000,-27.000000,-10.000000,-3.000000,6.000000,34.000000,9.000000
1298635.239223,127.000000,31.000000,-20.000000,-14.000000,17.000000,34.000000,85.000000,89.000000
1298635.240925,-31.000000,20.000000,10.000000,-46.000000,-27.000000,-31.000000,-45.000000,-42.000000
1298635.240952,-71.000000,-105.000000,-73.000000,-5.000000,-12.000000,0.000000,21.000000,-13.000000
1298635.241179,93.000000,84.000000,26.000000,-45.000000,13.000000,32.000000,36.000000,37.000000
1298635.241208,48.000000,55.000000,46.000000,58.000000,0.000000,-2.000000,21.000000,20.000000
1298635.244924,-52.000000,-128.000000,-55.000000,5.000000,29.000000,-1.000000,-28.000000,-47.000000
1298635.244974,101.000000,127.000000,60.000000,13.000000,3.000000,0.000000,-3.000000,-10.000000
1298635.251941,-3.000000,50.000000,-13.000000,-54.000000,-16.000000,-3.000000,-44.000000,-57.000000
1298635.251965,127.000000,14.000000,82.000000,112.000000,31.000000,27.000000,60.000000,98.000000
1298635.259373,-46.000000,69.000000,-15.000000,-23.000000,-30.000000,-14.000000,6.000000,26.000000
1298635.259429,44.000000,53.000000,-22.000000,-25.000000,11.000000,-1.000000,-23.000000,-42.000000
1298635.289134,-22.000000,-45.000000,-4.000000,-1.000000,1.000000,11.000000,12.000000,-3.000000
1298635.289160,65.000000,46.000000,31.000000,26.000000,10.000000,37.000000,104.000000,127.000000
1298635.296828,-5.000000,-15.000000,26.000000,17.000000,-1.000000,-14.000000,-45.000000,-31.000000
1298635.296870,74.000000,40.000000,-35.000000,-20.000000,-5.000000,-2.000000,1.000000,-11.000000
1298635.319723,50.000000,28.000000,19.000000,-26.000000,-2.000000,-6.000000,27.000000,70.000000
1298635.319752,101.000000,127.000000,-3.000000,-17.000000,-33.000000,-36.000000,-98.000000,-59.000000
1298635.320095,-45.000000,33.000000,90.000000,75.000000,38.000000,2.000000,15.000000,37.000000
1298635.320143,-32.000000,-128.000000,-92.000000,-127.000000,-41.000000,5.000000,41.000000,32.000000
1298635.322033,77.000000,-81.000000,3.000000,-18.000000,2.000000,-28.000000,-47.000000,-20.000000
1298635.322083,0.000000,-12.000000,28.000000,22.000000,10.000000,13.000000,5.000000,-2.000000
1298635.322312,102.000000,-6.000000,16.000000,31.000000,-3.000000,-2.000000,15.000000,20.000000
1298635.322339,2.000000,-26.000000,-15.000000,32.000000,1.000000,30.000000,60.000000,35.000000
1298635.327738,86.000000,109.000000,37.000000,-49.000000,-5.000000,-9.000000,27.000000,66.000000
1298635.327785,-117.000000,-21.000000,-60.000000,-48.000000,-22.000000,-27.000000,-52.000000,-48.000000
1298635.349636,89.000000,112.000000,44.000000,-3.000000,-26.000000,-35.000000,-41.000000,-33.000000
1298635.349662,-128.000000,-18.000000,14.000000,27.000000,0.000000,14.000000,-14.000000,-91.000000
1298635.372009,105.000000,60.000000,23.000000,37.000000,13.000000,7.000000,13.000000,70.000000
1298635.372035,38.000000,-128.000000,-57.000000,-54.000000,-5.000000,-23.000000,-25.000000,-86.000000
1298635.402625,52.000000,50.000000,63.000000,56.000000,19.000000,49.000000,68.000000,106.000000
1298635.402680,55.000000,-128.000000,-44.000000,-22.000000,13.000000,-9.000000,16.000000,-41.000000
1298635.416910,-122.000000,-48.000000,45.000000,18.000000,-7.000000,-15.000000,-45.000000,-57.000000
1298635.416936,88.000000,-51.000000,-21.000000,11.000000,17.000000,18.000000,27.000000,18.000000
1298635.424508,-7.000000,24.000000,21.000000,19.000000,3.000000,11.000000,28.000000,81.000000
1298635.424564,54.000000,15.000000,-16.000000,10.000000,-5.000000,0.000000,-4.000000,-14.000000
1298635.447322,-51.000000,-18.000000,7.000000,1.000000,-23.000000,-28.000000,-23.000000,-16.000000
1298635.447350,59.000000,8.000000,16.000000,66.000000,49.000000,27.000000,27.000000,71.000000
1298635.454799,81.000000,58.000000,10.000000,-84.000000,-17.000000,-16.000000,-37.000000,-73.000000
1298635.454826,-128.000000,-128.000000,-73.000000,-95.000000,-50.000000,-43.000000,-61.000000,-39.000000
1298635.492981,-68.000000,-61.000000,-67.000000,-24.000000,-12.000000,-31.000000,-64.000000,-118.000000
1298635.493306,-12.000000,75.000000,-30.000000,-33.000000,-5.000000,-1.000000,3.000000,10.000000
1298635.494551,-60.000000,-13.000000,-22.000000,-20.000000,0.000000,10.000000,39.000000,21.000000
1298635.494575,-17.000000,12.000000,35.000000,76.000000,12.000000,9.000000,43.000000,90.000000
1298635.494980,31.000000,28.000000,-28.000000,-74.000000,17.000000,-3.000000,-33.000000,-70.000000
1298635.495037,9.000000,29.000000,-1.000000,-4.000000,-16.000000,-5.000000,-20.000000,12.000000
1298635.521931,-64.000000,116.000000,61.000000,30.000000,-7.000000,11.000000,22.000000,9.000000
1298635.521980,-128.000000,-63.000000,-69.000000,-85.000000,-19.000000,-28.000000,-57.000000,-81.000000
1298635.544534,81.000000,7.000000,-58.000000,-54.000000,-1.000000,17.000000,14.000000,26.000000
1298635.544569,2.000000,38.000000,64.000000,50.000000,12.000000,12.000000,22.000000,0.000000
1298635.560625,-89.000000,54.000000,7.000000,-51.000000,-15.000000,-31.000000,-100.000000,-61.000000
1298635.560675,42.000000,-89.000000,-65.000000,-24.000000,-13.000000,-16.000000,-12.000000,-32.000000
1298635.561185,-4.000000,19.000000,25.000000,13.000000,-9.000000,-8.000000,-17.000000,-47.000000
1298635.561236,-32.000000,47.000000,3.000000,4.000000,0.000000,24.000000,48.000000,44.000000
1298635.562663,127.000000,127.000000,86.000000,96.000000,48.000000,38.000000,68.000000,85.000000
1298635.562913,-128.000000,-128.000000,-128.000000,-128.000000,-59.000000,-75.000000,-128.000000,-128.000000
1298635.563309,61.000000,1.000000,-18.000000,-19.000000,8.000000,2.000000,4.000000,21.000000
1298635.563335,65.000000,21.000000,10.000000,42.000000,48.000000,21.000000,34.000000,61.000000
1298635.564383,127.000000,127.000000,39.000000,19.000000,6.000000,18.000000,47.000000,61.000000
1298635.564458,-128.000000,-7.000000,15.000000,37.000000,10.000000,-18.000000,-54.000000,-57.000000
1298635.567849,57.000000,-17.000000,-128.000000,-78.000000,-23.000000,2.000000,38.000000,-3.000000
1298635.567874,-93.000000,-8.000000,1.000000,-21.000000,-11.000000,-25.000000,-52.000000,-63.000000
1298635.582350,60.000000,14.000000,56.000000,31.000000,25.000000,34.000000,59.000000,58.000000
1298635.582409,-88.000000,-21.000000,-23.000000,-8.000000,-7.000000,-2.000000,18.000000,6.000000
1298635.589511,94.000000,55.000000,31.000000,30.000000,12.000000,37.000000,86.000000,87.000000
1298635.589559,-31.000000,-30.000000,2.000000,36.000000,16.000000,-50.000000,-128.000000,-128.000000
1298635.596941,7.000000,61.000000,48.000000,-68.000000,-8.000000,16.000000,27.000000,7.000000
1298635.596966,-33.000000,-128.000000,-98.000000,-46.000000,-44.000000,-15.000000,16.000000,12.000000
1298635.612020,-16.000000,37.000000,-8.000000,-51.000000,10.000000,4.000000,13.000000,4.000000
1298635.612066,-48.000000,35.000000,34.000000,30.000000,-3.000000,-3.000000,-12.000000,-22.000000
1298635.642237,-6.000000,-83.000000,3.000000,57.000000,20.000000,-2.000000,-2.000000,-21.000000
1298635.642283,19.000000,-26.000000,15.000000,-28.000000,-8.000000,0.000000,-26.000000,-38.000000
1298635.687728,111.000000,-41.000000,-23.000000,-33.000000,-17.000000,-18.000000,-25.000000,-6.000000
1298635.687758,-68.000000,34.000000,16.000000,27.000000,7.000000,7.000000,-18.000000,1.000000
1298635.688011,-52.000000,-12.000000,14.000000,7.000000,-8.000000,-11.000000,5.000000,29.000000
1298635.688051,-69.000000,127.000000,23.000000,13.000000,-16.000000,-58.000000,-95.000000,-82.000000
1298635.689443,113.000000,36.000000,-36.000000,-58.000000,-1.000000,40.000000,74.000000,98.000000
1298635.689484,-103.000000,-42.000000,21.000000,21.000000,6.000000,14.000000,17.000000,9.000000
1298635.690754,97.000000,0.000000,7.000000,51.000000,2.000000,-15.000000,-7.000000,7.000000
1298635.690798,-41.000000,3.000000,0.000000,8.000000,6.000000,2.000000,-13.000000,-19.000000
1298635.691209,85.000000,-50.000000,-5.000000,-19.000000,-2.000000,-4.000000,5.000000,39.000000
1298635.691246,86.000000,100.000000,19.000000,35.000000,19.000000,4.000000,13.000000,6.000000
1298635.709478,-107.000000,37.000000,51.000000,42.000000,5.000000,-29.000000,-76.000000,-116.000000
1298635.709525,-108.000000,-93.000000,-3.000000,-9.000000,-24.000000,-32.000000,-44.000000,-20.000000
1298635.717932,-44.000000,-22.000000,-16.000000,21.000000,-6.000000,3.000000,-18.000000,-21.000000
1298635.717954,127.000000,109.000000,35.000000,7.000000,16.000000,29.000000,54.000000,121.000000
1298635.718732,-128.000000,-73.000000,-36.000000,-31.000000,-3.000000,-17.000000,-31.000000,-20.000000
1298635.718755,93.000000,62.000000,47.000000,19.000000,-6.000000,-11.000000,-39.000000,-52.000000
1298635.731662,-28.000000,-128.000000,-86.000000,-30.000000,3.000000,0.000000,11.000000,8.000000
1298635.731712,24.000000,25.000000,6.000000,3.000000,2.000000,-4.000000,-4.000000,22.000000
1298635.762223,-98.000000,-39.000000,-5.000000,-8.000000,12.000000,-5.000000,-1.000000,-16.000000
1298635.762267,-49.000000,18.000000,35.000000,0.000000,-24.000000,-24.000000,-72.000000,-109.000000
1298635.777269,-13.000000,-44.000000,5.000000,80.000000,-8.000000,-22.000000,-13.000000,-22.000000
1298635.777316,56.000000,-93.000000,-76.000000,-92.000000,-21.000000,-13.000000,18.000000,18.000000
1298635.799419,-52.000000,-56.000000,-7.000000,15.000000,-4.000000,-24.000000,-19.000000,-7.000000
1298635.799470,25.000000,29.000000,60.000000,65.000000,16.000000,6.000000,-4.000000,-44.000000
1298635.822777,29.000000,118.000000,-13.000000,-50.000000,-23.000000,-15.000000,-6.000000,19.000000
1298635.822842,-128.000000,81.000000,33.000000,12.000000,7.000000,0.000000,-33.000000,-66.000000
1298635.837682,118.000000,-28.000000,14.000000,53.000000,11.000000,18.000000,13.000000,5.000000
1298635.837795,-49.000000,127.000000,-14.000000,3.000000,22.000000,27.000000,51.000000,73.000000
1298635.852195,-93.000000,-28.000000,-6.000000,-46.000000,-32.000000,-37.000000,-36.000000,-29.000000
1298635.852248,48.000000,16.000000,30.000000,49.000000,1.000000,1.000000,-5.000000,2.000000
1298635.859838,82.000000,6.000000,-19.000000,-47.000000,8.000000,18.000000,3.000000,-38.000000
1298635.859889,-116.000000,-18.000000,-6.000000,10.000000,-4.000000,-21.000000,-57.000000,-62.000000
1298635.867825,127.000000,64.000000,63.000000,25.000000,19.000000,24.000000,31.000000,48.000000
1298635.867880,-128.000000,-52.000000,-60.000000,-43.000000,-29.000000,-42.000000,-89.000000,-124.000000
1298635.927049,-29.000000,61.000000,3.000000,55.000000,10.000000,-17.000000,-39.000000,4.000000
1298635.927473,-23.000000,-113.000000,-33.000000,-32.000000,-12.000000,-8.000000,-1.000000,13.000000
1298635.928833,-31.000000,14.000000,-11.000000,-29.000000,-19.000000,-4.000000,-2.000000,-44.000000
1298635.928891,-55.000000,-70.000000,-9.000000,25.000000,10.000000,16.000000,35.000000,6.000000
1298635.929213,-52.000000,8.000000,-6.000000,0.000000,6.000000,-21.000000,-49.000000,-13.000000
1298635.929619,38.000000,-56.000000,-10.000000,-50.000000,-41.000000,-35.000000,-41.000000,7.000000
1298635.930894,11.000000,68.000000,47.000000,37.000000,5.000000,-29.000000,-120.000000,-128.000000
1298635.930948,-10.000000,127.000000,-6.000000,-21.000000,2.000000,20.000000,35.000000,29.000000
1298635.931290,75.000000,17.000000,-15.000000,-32.000000,-13.000000,-3.000000,22.000000,25.000000
1298635.931321,-40.000000,24.000000,-1.000000,9.000000,9.000000,3.000000,-8.000000,4.000000
1298635.941823,127.000000,86.000000,19.000000,40.000000,12.000000,10.000000,22.000000,23.000000
1298635.941876,-128.000000,-34.000000,-33.000000,-37.000000,4.000000,-5.000000,-20.000000,-84.000000
1298635.957898,94.000000,-28.000000,7.000000,13.000000,1.000000,-9.000000,-31.000000,-20.000000
1298635.957923,-11.000000,9.000000,-32.000000,-6.000000,-7.000000,-5.000000,9.000000,20.000000
1298635.964172,48.000000,12.000000,30.000000,24.000000,-11.000000,5.000000,6.000000,4.000000
1298635.964225,35.000000,22.000000,30.000000,13.000000,22.000000,22.000000,25.000000,41.000000
1298635.971814,-77.000000,35.000000,-16.000000,-10.000000,-6.000000,-1.000000,-5.000000,-17.000000
1298635.971862,-8.000000,-28.000000,-6.000000,37.000000,16.000000,8.000000,13.000000,46.000000
1298635.979580,70.000000,51.000000,-9.000000,-53.000000,16.000000,-8.000000,-58.000000,-99.000000
1298635.979685,67.000000,74.000000,67.000000,15.000000,24.000000,64.000000,122.000000,125.000000
1298636.002197,-128.000000,-66.000000,-11.000000,-19.000000,-30.000000,-64.000000,-128.000000,-121.000000
1298636.002223,65.000000,-111.000000,-17.000000,26.000000,1.000000,-9.000000,11.000000,9.000000
1298636.009212,32.000000,69.000000,13.000000,-8.000000,5.000000,15.000000,47.000000,41.000000
1298636.009258,78.000000,-25.000000,32.000000,10.000000,-2.000000,6.000000,28.000000,56.000000
1298636.039595,63.000000,-10.000000,-17.000000,-20.000000,0.000000,-2.000000,-13.000000,-43.000000
1298636.039633,-59.000000,23.000000,-7.000000,3.000000,-3.000000,-10.000000,-48.000000,-39.000000
1298636.047298,65.000000,76.000000,12.000000,-34.000000,11.000000,15.000000,26.000000,26.000000
1298636.047351,47.000000,-128.000000,-34.000000,21.000000,16.000000,10.000000,2.000000,14.000000
1298636.078567,-16.000000,57.000000,58.000000,107.000000,-6.000000,-17.000000,-15.000000,-8.000000
1298636.079007,-17.000000,10.000000,-52.000000,-128.000000,-14.000000,2.000000,17.000000,33.000000
1298636.079346,123.000000,52.000000,56.000000,67.000000,15.000000,21.000000,53.000000,84.000000
1298636.079383,3.000000,86.000000,-4.000000,-12.000000,6.000000,7.000000,18.000000,-1.000000
1298636.080698,-51.000000,-85.000000,-43.000000,-69.000000,-28.000000,-20.000000,-39.000000,-25.000000
1298636.080738,-61.000000,14.000000,52.000000,39.000000,-2.000000,1.000000,9.000000,-52.000000
1298636.081161,-36.000000,20.000000,-17.000000,31.000000,-3.000000,-7.000000,-25.000000,-9.000000
1298636.081206,100.000000,101.000000,-41.000000,-28.000000,18.000000,20.000000,34.000000,43.000000
1298636.084542,60.000000,-25.000000,-59.000000,-55.000000,12.000000,33.000000,73.000000,67.000000
1298636.084587,127.000000,-82.000000,-46.000000,12.000000,-5.000000,-17.000000,-57.000000,-50.000000
1298636.114630,-128.000000,-116.000000,-53.000000,-111.000000,-60.000000,-84.000000,-128.000000,-128.000000
1298636.114657,102.000000,28.000000,34.000000,15.000000,10.000000,23.000000,58.000000,70.000000
1298636.121948,127.000000,43.000000,37.000000,41.000000,10.000000,27.000000,51.000000,49.000000
1298636.121975,-24.000000,48.000000,34.000000,51.000000,11.000000,-8.000000,-8.000000,3.000000
1298636.136858,-34.000000,-96.000000,-22.000000,-4.000000,-18.000000,-24.000000,-38.000000,-38.000000
1298636.136906,9.000000,11.000000,23.000000,-78.000000,-21.000000,20.000000,26.000000,27.000000
1298636.144394,127.000000,15.000000,51.000000,98.000000,17.000000,-4.000000,-14.000000,-4.000000
1298636.144443,-128.000000,54.000000,-10.000000,-67.000000,-30.000000,-21.000000,-30.000000,-31.000000
1298636.159042,-50.000000,18.000000,0.000000,19.000000,15.000000,3.000000,-3.000000,-8.000000
1298636.159092,80.000000,-1.000000,5.000000,6.000000,9.000000,12.000000,31.000000,60.000000
1298636.160183,-124.000000,-26.000000,-59.000000,23.000000,-7.000000,-67.000000,-128.000000,-128.000000
1298636.160233,127.000000,127.000000,3.000000,-77.000000,-24.000000,15.000000,37.000000,62.000000
1298636.161761,-34.000000,-119.000000,-56.000000,-28.000000,-4.000000,8.000000,20.000000,-1.000000
1298636.161794,-128.000000,-35.000000,72.000000,92.000000,10.000000,-7.000000,-2.000000,-25.000000
1298636.162824,44.000000,-53.000000,-57.000000,-94.000000,-42.000000,-38.000000,-51.000000,26.000000
1298636.162868,30.000000,-32.000000,17.000000,-33.000000,17.000000,13.000000,12.000000,-8.000000
1298636.174468,-36.000000,-64.000000,38.000000,62.000000,1.000000,-11.000000,-6.000000,-2.000000
1298636.174518,105.000000,70.000000,12.000000,30.000000,26.000000,25.000000,32.000000,20.000000
1298636.181953,-128.000000,-101.000000,-14.000000,-11.000000,-10.000000,-15.000000,-12.000000,-10.000000
1298636.181992,22.000000,121.000000,6.000000,2.000000,-7.000000,-8.000000,-3.000000,13.000000
1298636.204381,16.000000,23.000000,-15.000000,-25.000000,-9.000000,-3.000000,-6.000000,-10.000000
1298636.204436,80.000000,-11.000000,43.000000,-18.000000,5.000000,17.000000,33.000000,17.000000
1298636.219414,-128.000000,-113.000000,4.000000,28.000000,-14.000000,-45.000000,-82.000000,-128.000000
1298636.219440,71.000000,0.000000,-43.000000,-4.000000,12.000000,0.000000,-11.000000,-5.000000
1298636.242028,80.000000,23.000000,1.000000,-35.000000,14.000000,32.000000,56.000000,22.000000
1298636.242058,-18.000000,-70.000000,-48.000000,3.000000,-31.000000,-65.000000,-128.000000,-94.000000
1298636.249539,-21.000000,-46.000000,-34.000000,-18.000000,-10.000000,-17.000000,-8.000000,-32.000000
1298636.249590,18.000000,-2.000000,21.000000,23.000000,9.000000,21.000000,48.000000,66.000000
1298636.272629,-42.000000,53.000000,-28.000000,22.000000,7.000000,-23.000000,-66.000000,-69.000000
1298636.273154,20.000000,85.000000,54.000000,-27.000000,-4.000000,35.000000,56.000000,37.000000
1298636.273866,0.000000,-54.000000,-53.000000,-34.000000,-26.000000,-27.000000,-34.000000,-15.000000
1298636.273927,-91.000000,-36.000000,16.000000,40.000000,7.000000,0.000000,0.000000,-33.000000
1298636.275817,-34.000000,-25.000000,6.000000,5.000000,9.000000,11.000000,27.000000,46.000000
1298636.275873,-109.000000,-49.000000,-17.000000,-69.000000,-31.000000,-38.000000,-58.000000,-51.000000
1298636.276132,127.000000,19.000000,40.000000,79.000000,26.000000,15.000000,4.000000,-25.000000
1298636.276181,-128.000000,-35.000000,-49.000000,-85.000000,-6.000000,-6.000000,-37.000000,-67.000000
1298636.277296,5.000000,-61.000000,9.000000,28.000000,23.000000,22.000000,50.000000,65.000000
1298636.277343,-99.000000,-73.000000,0.000000,16.000000,-18.000000,-20.000000,-31.000000,-61.000000
1298636.279269,39.000000,11.000000,-28.000000,-39.000000,3.000000,7.000000,-11.000000,6.000000
1298636.279319,127.000000,57.000000,51.000000,37.000000,30.000000,51.000000,127.000000,127.000000
1298636.324492,-111.000000,-1.000000,-14.000000,-64.000000,-39.000000,-89.000000,-128.000000,-128.000000
1298636.324519,-10.000000,2.000000,13.000000,-5.000000,1.000000,15.000000,47.000000,26.000000
1298636.346880,24.000000,89.000000,31.000000,42.000000,20.000000,23.000000,48.000000,62.000000
1298636.346929,127.000000,-35.000000,-19.000000,49.000000,10.000000,-5.000000,20.000000,55.000000
1298636.362023,-69.000000,-31.000000,40.000000,-37.000000,11.000000,28.000000,47.000000,50.000000
1298636.362070,118.000000,-16.000000,23.000000,34.000000,9.000000,-29.000000,-77.000000,-54.000000
1298636.369287,-128.000000,-44.000000,-9.000000,-5.000000,-27.000000,-24.000000,-41.000000,-91.000000
1298636.369316,125.000000,-64.000000,-3.000000,-12.000000,11.000000,9.000000,21.000000,18.000000
1298636.392186,-53.000000,-19.000000,-38.000000,-17.000000,-11.000000,3.000000,8.000000,-23.000000
1298636.392217,69.000000,27.000000,19.000000,-15.000000,13.000000,5.000000,-25.000000,-1.000000
1298636.393336,85.000000,72.000000,108.000000,76.000000,19.000000,30.000000,50.000000,40.000000
1298636.393386,-128.000000,-113.000000,-128.000000,-120.000000,-8.000000,-21.000000,-46.000000,-73.000000
1298636.393614,-103.000000,-27.000000,-31.000000,-45.000000,-15.000000,-17.000000,-60.000000,-77.000000
1298636.393634,-102.000000,-39.000000,-61.000000,-24.000000,-9.000000,-20.000000,-21.000000,-44.000000
1298636.399548,89.000000,57.000000,23.000000,-10.000000,-10.000000,3.000000,6.000000,32.000000
1298636.400190,-128.000000,-72.000000,27.000000,14.000000,-7.000000,-4.000000,2.000000,-10.000000
1298636.400881,42.000000,41.000000,42.000000,59.000000,26.000000,31.000000,56.000000,41.000000
1298636.400933,-24.000000,36.000000,-81.000000,-65.000000,-25.000000,-13.000000,8.000000,23.000000
1298636.402655,-46.000000,20.000000,30.000000,7.000000,-4.000000,-28.000000,-30.000000,-20.000000
1298636.402773,53.000000,10.000000,-11.000000,15.000000,-3.000000,13.000000,39.000000,-8.000000
1298636.403235,77.000000,-19.000000,-5.000000,-25.000000,10.000000,11.000000,12.000000,20.000000
1298636.403280,-88.000000,-34.000000,20.000000,91.000000,16.000000,8.000000,5.000000,-38.000000
1298636.414650,0.000000,12.000000,-55.000000,-113.000000,-15.000000,2.000000,-4.000000,22.000000
1298636.414676,-2.000000,-31.000000,-3.000000,35.000000,-6.000000,-12.000000,-22.000000,-38.000000
1298636.421793,-38.000000,29.000000,26.000000,-15.000000,-23.000000,-7.000000,7.000000,4.000000
1298636.421911,46.000000,44.000000,0.000000,26.000000,23.000000,15.000000,15.000000,23.000000
1298636.429488,-40.000000,-128.000000,-94.000000,-47.000000,-18.000000,-22.000000,-35.000000,-38.000000
1298636.429552,83.000000,58.000000,52.000000,30.000000,-2.000000,-7.000000,-16.000000,-30.000000
1298636.482237,90.000000,61.000000,72.000000,94.000000,19.000000,9.000000,18.000000,-2.000000
1298636.482296,-69.000000,-13.000000,-73.000000,-99.000000,-40.000000,-35.000000,-39.000000,-49.000000
1298636.519415,-90.000000,-128.000000,-12.000000,-32.000000,-14.000000,-3.000000,-39.000000,-93.000000
1298636.519712,105.000000,42.000000,8.000000,23.000000,18.000000,35.000000,77.000000,113.000000
1298636.520446,93.000000,42.000000,38.000000,39.000000,12.000000,7.000000,14.000000,8.000000
1298636.520965,7.000000,23.000000,-17.000000,8.000000,6.000000,-15.000000,-31.000000,-18.000000
1298636.522181,-4.000000,12.000000,14.000000,-8.000000,-3.000000,9.000000,10.000000,4.000000
1298636.522232,30.000000,-21.000000,-4.000000,19.000000,6.000000,7.000000,10.000000,16.000000
1298636.523414,-38.000000,-64.000000,-7.000000,-13.000000,-7.000000,7.000000,27.000000,31.000000
1298636.523458,-49.000000,13.000000,-11.000000,39.000000,-2.000000,-19.000000,-33.000000,-68.000000
1298636.524070,-2.000000,39.000000,42.000000,67.000000,16.000000,13.000000,36.000000,41.000000
1298636.524136,-81.000000,-110.000000,-20.000000,16.000000,-6.000000,-19.000000,-83.000000,-11.000000
1298636.534591,-59.000000,5.000000,-43.000000,-23.000000,-26.000000,-32.000000,-67.000000,-63.000000
1298636.534630,-4.000000,-7.000000,23.000000,19.000000,12.000000,19.000000,50.000000,30.000000
1298636.549421,3.000000,50.000000,33.000000,2.000000,2.000000,-10.000000,-26.000000,6.000000
1298636.549448,47.000000,-80.000000,-18.000000,11.000000,17.000000,4.000000,-7.000000,14.000000
1298636.564637,-128.000000,-3.000000,-28.000000,-62.000000,-21.000000,-31.000000,-56.000000,-97.000000
1298636.564695,46.000000,23.000000,34.000000,-42.000000,-9.000000,23.000000,47.000000,61.000000
1298636.579766,41.000000,-34.000000,-13.000000,21.000000,7.000000,0.000000,9.000000,24.000000
1298636.579804,28.000000,22.000000,52.000000,33.000000,-7.000000,-18.000000,-16.000000,-4.000000
1298636.601956,5.000000,-14.000000,-15.000000,27.000000,7.000000,-6.000000,-10.000000,-12.000000
1298636.602007,-101.000000,4.000000,-47.000000,-24.000000,4.000000,3.000000,2.000000,7.000000
1298636.609859,-15.000000,-6.000000,19.000000,34.000000,-8.000000,-21.000000,-41.000000,-50.000000
1298636.609922,40.000000,25.000000,0.000000,-63.000000,-12.000000,-15.000000,-38.000000,-31.000000
1298636.632363,-5.000000,-71.000000,-28.000000,3.000000,-6.000000,-4.000000,-7.000000,-14.000000
1298636.632410,-51.000000,-7.000000,2.000000,30.000000,33.000000,32.000000,47.000000,34.000000
1298636.639722,-53.000000,62.000000,44.000000,31.000000,-8.000000,-49.000000,-80.000000,-78.000000
1298636.639766,51.000000,127.000000,-14.000000,-66.000000,-20.000000,-4.000000,-8.000000,-26.000000
1298636.661652,-24.000000,59.000000,13.000000,5.000000,9.000000,24.000000,40.000000,8.000000
1298636.661681,-20.000000,10.000000,19.000000,30.000000,11.000000,25.000000,0.000000,-35.000000
1298636.669248,127.000000,44.000000,24.000000,48.000000,9.000000,-3.000000,16.000000,67.000000
1298636.669298,-97.000000,-31.000000,-14.000000,-33.000000,-18.000000,-60.000000,-128.000000,-117.000000
1298636.684636,110.000000,70.000000,34.000000,99.000000,19.000000,23.000000,43.000000,63.000000
1298636.684662,-109.000000,-118.000000,-95.000000,-84.000000,-35.000000,-45.000000,-76.000000,-74.000000
1298636.699839,-85.000000,-55.000000,-41.000000,-63.000000,-12.000000,13.000000,19.000000,6.000000
1298636.699953,-63.000000,10.000000,44.000000,37.000000,-5.000000,-23.000000,-31.000000,-20.000000
1298636.707014,15.000000,14.000000,20.000000,-14.000000,-2.000000,4.000000,-12.000000,-17.000000
1298636.707064,-17.000000,-100.000000,13.000000,14.000000,5.000000,17.000000,25.000000,14.000000
1298636.714438,89.000000,42.000000,-4.000000,6.000000,-5.000000,-2.000000,6.000000,25.000000
1298636.714751,-128.000000,-26.000000,27.000000,7.000000,12.000000,26.000000,35.000000,-24.000000
1298636.715922,-68.000000,-24.000000,-22.000000,-44.000000,-29.000000,-45.000000,-74.000000,-52.000000
1298636.715963,73.000000,81.000000,7.000000,-19.000000,1.000000,14.000000,19.000000,28.000000
1298636.717133,-17.000000,-37.000000,5.000000,39.000000,11.000000,11.000000,10.000000,25.000000
1298636.717159,60.000000,38.000000,8.000000,-13.000000,2.000000,2.000000,13.000000,22.000000
1298636.718234,-8.000000,-12.000000,-5.000000,8.000000,-7.000000,-3.000000,-14.000000,-25.000000
1298636.718289,-26.000000,36.000000,16.000000,22.000000,20.000000,9.000000,25.000000,8.000000
1298636.721835,40.000000,-76.000000,-36.000000,-31.000000,-39.000000,-42.000000,-36.000000,-13.000000
1298636.721884,-40.000000,-3.000000,-13.000000,-2.000000,2.000000,-8.000000,-34.000000,-60.000000
1298636.752220,19.000000,40.000000,27.000000,-31.000000,-6.000000,8.000000,26.000000,24.000000
1298636.752248,-29.000000,15.000000,18.000000,50.000000,9.000000,22.000000,43.000000,38.000000
1298636.759326,75.000000,-65.000000,-48.000000,-37.000000,-14.000000,-8.000000,9.000000,-1.000000
1298636.759381,-35.000000,-38.000000,-45.000000,-24.000000,-3.000000,-22.000000,-56.000000,-11.000000
1298636.761491,-46.000000,12.000000,22.000000,3.000000,2.000000,14.000000,12.000000,-18.000000
1298636.761528,47.000000,-30.000000,10.000000,41.000000,8.000000,24.000000,54.000000,65.000000
1298636.761772,75.000000,-4.000000,-11.000000,-17.000000,3.000000,-21.000000,-58.000000,-62.000000
1298636.761811,-95.000000,-20.000000,-35.000000,-2.000000,1.000000,-3.000000,-7.000000,-28.000000
1298636.790764,16.000000,59.000000,12.000000,-8.000000,-5.000000,15.000000,35.000000,41.000000
1298636.791157,127.000000,55.000000,46.000000,52.000000,20.000000,18.000000,32.000000,46.000000
1298636.791603,-38.000000,-17.000000,-34.000000,-33.000000,-8.000000,-8.000000,-5.000000,6.000000
1298636.791984,-25.000000,13.000000,-18.000000,-26.000000,-4.000000,-24.000000,-34.000000,-13.000000
1298636.793197,28.000000,124.000000,42.000000,20.000000,10.000000,29.000000,25.000000,8.000000
1298636.793247,-4.000000,13.000000,3.000000,26.000000,-4.000000,-21.000000,-8.000000,28.000000
1298636.805021,-91.000000,-17.000000,-18.000000,13.000000,-9.000000,-26.000000,-39.000000,-72.000000
1298636.805073,-10.000000,31.000000,-18.000000,6.000000,5.000000,13.000000,17.000000,-3.000000
1298636.812119,112.000000,41.000000,26.000000,-4.000000,8.000000,22.000000,40.000000,75.000000
1298636.812145,-128.000000,-27.000000,23.000000,19.000000,-6.000000,-18.000000,-5.000000,-60.000000
1298636.826944,-128.000000,-100.000000,-116.000000,-77.000000,-6.000000,-32.000000,-92.000000,-128.000000
1298636.826994,65.000000,30.000000,14.000000,8.000000,-5.000000,5.000000,16.000000,13.000000
1298636.842284,51.000000,18.000000,31.000000,64.000000,15.000000,13.000000,18.000000,26.000000
1298636.842332,116.000000,46.000000,44.000000,63.000000,38.000000,46.000000,81.000000,91.000000
1298636.864461,26.000000,22.000000,-88.000000,-107.000000,-22.000000,-5.000000,-12.000000,30.000000
1298636.864512,-63.000000,-6.000000,-2.000000,-32.000000,-35.000000,-51.000000,-101.000000,-128.000000
1298636.879710,-52.000000,34.000000,4.000000,26.000000,0.000000,6.000000,26.000000,11.000000
1298636.879737,55.000000,111.000000,43.000000,27.000000,3.000000,13.000000,31.000000,56.000000
1298636.894956,127.000000,-20.000000,10.000000,53.000000,34.000000,17.000000,33.000000,62.000000
1298636.895103,-128.000000,-108.000000,-42.000000,-72.000000,-30.000000,-24.000000,-36.000000,-65.000000
1298636.904966,79.000000,39.000000,20.000000,25.000000,1.000000,23.000000,56.000000,48.000000
1298636.905032,12.000000,-45.000000,-47.000000,-33.000000,-14.000000,-39.000000,-101.000000,-46.000000
1298636.905998,3.000000,24.000000,17.000000,-46.000000,-13.000000,5.000000,-1.000000,-41.000000
1298636.906043,-1.000000,25.000000,38.000000,16.000000,-7.000000,2.000000,22.000000,52.000000
1298636.907004,-89.000000,-49.000000,-19.000000,88.000000,28.000000,27.000000,50.000000,21.000000
1298636.907032,102.000000,20.000000,-29.000000,-78.000000,-37.000000,-54.000000,-42.000000,10.000000
1298636.907855,-106.000000,-77.000000,-18.000000,-38.000000,-16.000000,-17.000000,-17.000000,-28.000000
1298636.907883,108.000000,-11.000000,-13.000000,11.000000,-3.000000,22.000000,49.000000,78.000000
1298636.917028,86.000000,76.000000,0.000000,14.000000,13.000000,13.000000,24.000000,28.000000
1298636.917070,-47.000000,16.000000,25.000000,44.000000,9.000000,2.000000,7.000000,-5.000000
1298636.947086,-28.000000,-36.000000,-7.000000,-38.000000,-24.000000,-14.000000,-9.000000,-8.000000
1298636.947139,61.000000,-12.000000,-34.000000,-10.000000,-22.000000,-20.000000,-6.000000,2.000000
1298636.954393,-116.000000,-13.000000,-20.000000,-60.000000,-24.000000,-23.000000,-57.000000,-85.000000
1298636.954417,-59.000000,-3.000000,3.000000,27.000000,6.000000,1.000000,-24.000000,-57.000000
1298636.969485,49.000000,60.000000,14.000000,31.000000,14.000000,16.000000,28.000000,14.000000
1298636.969535,54.000000,10.000000,21.000000,12.000000,9.000000,8.000000,2.000000,12.000000
1298636.976921,52.000000,126.000000,56.000000,43.000000,10.000000,-23.000000,-65.000000,-6.000000
1298636.977083,-128.000000,-128.000000,-128.000000,-128.000000,-68.000000,-35.000000,-40.000000,-91.000000
1298636.992508,-65.000000,-26.000000,26.000000,21.000000,13.000000,26.000000,42.000000,47.000000
1298636.992553,125.000000,109.000000,23.000000,53.000000,28.000000,23.000000,29.000000,19.000000
1298636.993019,-121.000000,-26.000000,-25.000000,-37.000000,-19.000000,-22.000000,-27.000000,-40.000000
1298636.993075,40.000000,13.000000,6.000000,-1.000000,-9.000000,11.000000,17.000000,28.000000
1298636.994400,-11.000000,-77.000000,-19.000000,6.000000,1.000000,-2.000000,14.000000,18.000000
1298636.994450,127.000000,127.000000,3.000000,-10.000000,30.000000,15.000000,19.000000,65.000000
1298636.995512,-128.000000,-90.000000,-48.000000,11.000000,-20.000000,-34.000000,-55.000000,-100.000000
1298636.995562,-78.000000,-36.000000,18.000000,-82.000000,-21.000000,-5.000000,-16.000000,-40.000000
1298637.037189,61.000000,-38.000000,3.000000,12.000000,2.000000,11.000000,19.000000,48.000000
1298637.037420,50.000000,10.000000,35.000000,40.000000,7.000000,1.000000,-9.000000,1.000000
1298637.038022,36.000000,34.000000,23.000000,-8.000000,1.000000,0.000000,0.000000,9.000000
1298637.038246,45.000000,27.000000,10.000000,33.000000,17.000000,33.000000,94.000000,99.000000
1298637.039257,-89.000000,-128.000000,-42.000000,-32.000000,-14.000000,-35.000000,-67.000000,-53.000000
1298637.039399,-51.000000,109.000000,9.000000,-14.000000,-16.000000,-12.000000,-21.000000,-47.000000
1298637.039823,-40.000000,-66.000000,-38.000000,-11.000000,-1.000000,14.000000,4.000000,-34.000000
1298637.039875,12.000000,40.000000,22.000000,18.000000,7.000000,26.000000,64.000000,56.000000
1298637.074440,34.000000,-12.000000,-54.000000,8.000000,-4.000000,-27.000000,-53.000000,-16.000000
1298637.074481,-128.000000,-37.000000,-5.000000,-49.000000,-20.000000,-38.000000,-41.000000,-72.000000
1298637.081724,-29.000000,-21.000000,10.000000,9.000000,-9.000000,3.000000,8.000000,0.000000
1298637.081750,57.000000,4.000000,13.000000,28.000000,4.000000,8.000000,28.000000,34.000000
1298637.104462,22.000000,35.000000,0.000000,56.000000,3.000000,4.000000,25.000000,26.000000
1298637.104489,16.000000,-9.000000,-24.000000,-36.000000,19.000000,-5.000000,-17.000000,22.000000
1298637.111906,-14.000000,-5.000000,-9.000000,-111.000000,-53.000000,-24.000000,-6.000000,-4.000000
1298637.112136,-19.000000,-6.000000,4.000000,30.000000,-5.000000,3.000000,15.000000,7.000000
1298637.114380,91.000000,10.000000,33.000000,64.000000,32.000000,56.000000,127.000000,127.000000
1298637.114660,-42.000000,-82.000000,-27.000000,17.000000,-10.000000,-81.000000,-128.000000,-128.000000
1298637.114914,5.000000,34.000000,18.000000,-14.000000,-3.000000,17.000000,45.000000,27.000000
1298637.114939,85.000000,-16.000000,15.000000,36.000000,12.000000,16.000000,30.000000,10.000000
1298637.115863,-32.000000,6.000000,22.000000,-8.000000,-4.000000,6.000000,-6.000000,3.000000
1298637.115914,-88.000000,72.000000,-20.000000,-39.000000,-18.000000,-21.000000,-47.000000,-72.000000
1298637.157622,73.000000,23.000000,11.000000,-18.000000,15.000000,14.000000,25.000000,28.000000
1298637.157684,26.000000,49.000000,-5.000000,-59.000000,-27.000000,-10.000000,-15.000000,-19.000000
1298637.159714,-51.000000,52.000000,13.000000,33.000000,-14.000000,-21.000000,-13.000000,3.000000
1298637.159772,12.000000,12.000000,35.000000,8.000000,4.000000,-2.000000,-28.000000,-40.000000
1298637.161190,92.000000,27.000000,38.000000,25.000000,19.000000,39.000000,62.000000,67.000000
1298637.161213,-83.000000,-4.000000,8.000000,46.000000,7.000000,-21.000000,-41.000000,-40.000000
1298637.161391,33.000000,43.000000,28.000000,38.000000,15.000000,27.000000,51.000000,72.000000
1298637.161410,32.000000,17.000000,-3.000000,-12.000000,-11.000000,-3.000000,5.000000,13.000000
1298637.187032,-128.000000,-108.000000,-93.000000,-106.000000,-49.000000,-38.000000,-56.000000,-63.000000
1298637.187080,9.000000,-15.000000,6.000000,13.000000,11.000000,20.000000,33.000000,19.000000
1298637.194649,78.000000,12.000000,19.000000,27.000000,9.000000,20.000000,42.000000,33.000000
1298637.194699,127.000000,-21.000000,32.000000,35.000000,14.000000,13.000000,20.000000,13.000000
1298637.209740,-27.000000,19.000000,-29.000000,0.000000,-11.000000,-11.000000,-20.000000,-15.000000
1298637.209767,-46.000000,95.000000,-39.000000,-45.000000,-8.000000,-26.000000,-52.000000,-37.000000
1298637.217199,-98.000000,-26.000000,46.000000,27.000000,10.000000,19.000000,17.000000,-27.000000
1298637.217245,127.000000,97.000000,26.000000,71.000000,28.000000,37.000000,88.000000,119.000000
1298637.231893,-128.000000,-22.000000,-55.000000,-128.000000,-51.000000,-55.000000,-111.000000,-128.000000
1298637.232123,17.000000,-24.000000,15.000000,14.000000,8.000000,11.000000,17.000000,8.000000
1298637.232899,127.000000,12.000000,48.000000,34.000000,38.000000,52.000000,95.000000,123.000000
1298637.232951,-128.000000,-56.000000,-6.000000,-15.000000,-18.000000,-26.000000,-59.000000,-95.000000
1298637.234384,76.000000,32.000000,9.000000,75.000000,39.000000,16.000000,15.000000,16.000000
1298637.234413,-32.000000,-91.000000,-85.000000,-128.000000,-66.000000,-50.000000,-103.000000,-128.000000
1298637.235473,-128.000000,6.000000,1.000000,6.000000,10.000000,6.000000,20.000000,32.000000
1298637.235499,127.000000,96.000000,22.000000,34.000000,19.000000,37.000000,62.000000,88.000000
1298637.247865,-128.000000,-126.000000,-18.000000,12.000000,-41.000000,-87.000000,-128.000000,-128.000000
1298637.247923,37.000000,-24.000000,-22.000000,-30.000000,3.000000,12.000000,25.000000,8.000000
1298637.254827,127.000000,15.000000,19.000000,46.000000,29.000000,24.000000,-3.000000,-12.000000
1298637.254878,-128.000000,-110.000000,-28.000000,-19.000000,-18.000000,-14.000000,11.000000,18.000000
1298637.269644,-29.000000,-128.000000,-101.000000,-101.000000,-25.000000,-34.000000,-88.000000,-119.000000
1298637.269696,41.000000,119.000000,32.000000,17.000000,3.000000,22.000000,20.000000,-16.000000
1298637.277129,98.000000,-39.000000,36.000000,102.000000,24.000000,38.000000,71.000000,119.000000
1298637.277159,-128.000000,-109.000000,-14.000000,-79.000000,-29.000000,-65.000000,-99.000000,-128.000000
1298637.314642,9.000000,22.000000,9.000000,-1.000000,15.000000,14.000000,35.000000,34.000000
1298637.314689,-14.000000,-53.000000,-12.000000,9.000000,-14.000000,-28.000000,-59.000000,-44.000000
1298637.330463,66.000000,127.000000,100.000000,67.000000,30.000000,31.000000,34.000000,27.000000
1298637.330507,-36.000000,-74.000000,-103.000000,-128.000000,-14.000000,7.000000,15.000000,-4.000000
1298637.331276,15.000000,109.000000,74.000000,38.000000,23.000000,26.000000,63.000000,58.000000
1298637.331383,83.000000,77.000000,31.000000,53.000000,13.000000,5.000000,-10.000000,53.000000
1298637.344890,106.000000,19.000000,7.000000,9.000000,8.000000,14.000000,-7.000000,2.000000
1298637.344943,-33.000000,-13.000000,-33.000000,-58.000000,-30.000000,-44.000000,-37.000000,5.000000
1298637.353218,127.000000,29.000000,-2.000000,4.000000,10.000000,15.000000,23.000000,18.000000
1298637.353265,-128.000000,-39.000000,14.000000,19.000000,-6.000000,-18.000000,-30.000000,-71.000000
1298637.354114,127.000000,67.000000,50.000000,52.000000,13.000000,9.000000,10.000000,5.000000
1298637.354436,-27.000000,-23.000000,-28.000000,-24.000000,-26.000000,-22.000000,22.000000,44.000000
1298637.355836,-128.000000,-48.000000,-89.000000,-48.000000,-14.000000,-40.000000,-61.000000,-32.000000
1298637.355950,65.000000,11.000000,43.000000,26.000000,20.000000,24.000000,13.000000,-25.000000
1298637.356192,8.000000,-128.000000,-5.000000,27.000000,11.000000,4.000000,21.000000,33.000000
1298637.356290,42.000000,90.000000,28.000000,25.000000,11.000000,10.000000,10.000000,17.000000
1298637.368036,39.000000,-45.000000,16.000000,-15.000000,5.000000,16.000000,22.000000,30.000000
1298637.368082,12.000000,16.000000,-25.000000,39.000000,11.000000,-3.000000,-6.000000,16.000000
1298637.382252,-46.000000,-46.000000,33.000000,-27.000000,-9.000000,-10.000000,-7.000000,-18.000000
1298637.382301,27.000000,-21.000000,-10.000000,-30.000000,-3.000000,-4.000000,-13.000000,-22.000000
1298637.384206,-17.000000,28.000000,14.000000,36.000000,9.000000,5.000000,-13.000000,-37.000000
1298637.384253,15.000000,71.000000,30.000000,3.000000,3.000000,24.000000,64.000000,43.000000
1298637.397888,42.000000,51.000000,-5.000000,-5.000000,-12.000000,-39.000000,-67.000000,-31.000000
1298637.397935,-97.000000,-44.000000,19.000000,10.000000,0.000000,-2.000000,-40.000000,-83.000000
1298637.449671,39.000000,-13.000000,-17.000000,3.000000,12.000000,31.000000,75.000000,96.000000
1298637.449721,-128.000000,-22.000000,-16.000000,-14.000000,-36.000000,-78.000000,-101.000000,-128.000000
1298637.464652,30.000000,11.000000,21.000000,-4.000000,6.000000,21.000000,40.000000,18.000000
1298637.465002,66.000000,-5.000000,9.000000,-11.000000,12.000000,43.000000,82.000000,74.000000
1298637.466715,31.000000,4.000000,40.000000,56.000000,15.000000,-8.000000,-11.000000,-7.000000
1298637.466754,58.000000,-9.000000,-26.000000,-40.000000,-8.000000,-22.000000,-55.000000,-66.000000
1298637.467340,34.000000,-23.000000,25.000000,29.000000,18.000000,21.000000,31.000000,50.000000
1298637.467600,-85.000000,-31.000000,-46.000000,-14.000000,-18.000000,-23.000000,-45.000000,-53.000000
1298637.472146,103.000000,78.000000,106.000000,124.000000,25.000000,28.000000,36.000000,26.000000
1298637.472195,-94.000000,-44.000000,-104.000000,-107.000000,-44.000000,-39.000000,-21.000000,-1.000000
1298637.473125,14.000000,-88.000000,-60.000000,-15.000000,-17.000000,-39.000000,-33.000000,-13.000000
1298637.473176,-128.000000,-1.000000,34.000000,-1.000000,-18.000000,-20.000000,-13.000000,-15.000000
1298637.488289,37.000000,37.000000,0.000000,6.000000,7.000000,10.000000,18.000000,30.000000
1298637.488342,66.000000,75.000000,16.000000,-26.000000,-14.000000,-27.000000,-54.000000,-44.000000
1298637.502176,55.000000,46.000000,3.000000,37.000000,17.000000,30.000000,52.000000,48.000000
1298637.502233,-33.000000,-44.000000,-36.000000,-68.000000,-23.000000,-37.000000,-86.000000,-43.000000
1298637.503385,-13.000000,-3.000000,15.000000,-6.000000,-7.000000,3.000000,-7.000000,-12.000000
1298637.503426,24.000000,-1.000000,6.000000,15.000000,4.000000,13.000000,27.000000,39.000000
1298637.517219,-29.000000,70.000000,43.000000,32.000000,23.000000,7.000000,1.000000,-11.000000
1298637.517259,-7.000000,-86.000000,-90.000000,-18.000000,-5.000000,-12.000000,-18.000000,-19.000000
1298637.547060,5.000000,0.000000,-68.000000,-106.000000,-19.000000,-3.000000,2.000000,3.000000
1298637.547100,-11.000000,43.000000,21.000000,34.000000,-2.000000,-2.000000,-13.000000,-22.000000
1298637.554880,8.000000,14.000000,14.000000,30.000000,7.000000,4.000000,3.000000,6.000000
1298637.554932,71.000000,38.000000,24.000000,20.000000,12.000000,6.000000,18.000000,26.000000
1298637.584242,124.000000,55.000000,25.000000,20.000000,13.000000,27.000000,36.000000,21.000000
1298637.584293,-9.000000,-20.000000,-43.000000,-9.000000,-4.000000,-23.000000,-46.000000,-51.000000
1298637.593156,-73.000000,23.000000,9.000000,17.000000,-5.000000,-16.000000,-18.000000,-11.000000
1298637.593459,91.000000,-34.000000,-5.000000,-59.000000,-7.000000,20.000000,39.000000,30.000000
1298637.594936,-8.000000,37.000000,17.000000,27.000000,8.000000,7.000000,38.000000,47.000000
1298637.594987,11.000000,-49.000000,-55.000000,-24.000000,-20.000000,-31.000000,-36.000000,-49.000000
1298637.595509,-124.000000,9.000000,0.000000,-19.000000,3.000000,8.000000,-2.000000,-11.000000
1298637.595566,-46.000000,-10.000000,-25.000000,-36.000000,6.000000,-6.000000,-13.000000,-22.000000
1298637.622150,-30.000000,6.000000,0.000000,82.000000,6.000000,-13.000000,-15.000000,-52.000000
1298637.622486,-127.000000,-66.000000,-64.000000,-128.000000,-45.000000,-41.000000,-88.000000,-79.000000
1298637.623483,46.000000,23.000000,16.000000,17.000000,1.000000,13.000000,35.000000,23.000000
1298637.623514,101.000000,51.000000,19.000000,40.000000,13.000000,20.000000,41.000000,60.000000
1298637.625302,-13.000000,-1.000000,16.000000,12.000000,-6.000000,6.000000,17.000000,-3.000000
1298637.625483,22.000000,3.000000,0.000000,22.000000,5.000000,19.000000,41.000000,86.000000
1298637.626077,-128.000000,-47.000000,-30.000000,12.000000,4.000000,-45.000000,-109.000000,-128.000000
1298637.626100,48.000000,33.000000,-52.000000,-128.000000,-60.000000,-22.000000,-35.000000,-14.000000
1298637.644312,74.000000,75.000000,26.000000,35.000000,17.000000,42.000000,74.000000,87.000000
1298637.644361,35.000000,21.000000,17.000000,66.000000,26.000000,16.000000,36.000000,23.000000
1298637.666946,38.000000,-21.000000,-20.000000,-40.000000,-10.000000,-8.000000,-15.000000,-44.000000
1298637.666998,-58.000000,29.000000,2.000000,-25.000000,-7.000000,-6.000000,-12.000000,-26.000000
1298637.674531,-64.000000,38.000000,9.000000,38.000000,11.000000,2.000000,-4.000000,-39.000000
1298637.674559,95.000000,16.000000,-25.000000,47.000000,9.000000,16.000000,23.000000,21.000000
1298637.689550,-43.000000,-86.000000,-26.000000,-69.000000,9.000000,22.000000,59.000000,65.000000
1298637.689601,-128.000000,-3.000000,19.000000,28.000000,-1.000000,-44.000000,-117.000000,-128.000000
1298637.712784,30.000000,5.000000,2.000000,-19.000000,-24.000000,6.000000,20.000000,-37.000000
1298637.712830,38.000000,25.000000,-10.000000,-39.000000,-4.000000,2.000000,5.000000,49.000000
1298637.715521,-1.000000,-30.000000,-8.000000,75.000000,10.000000,-56.000000,-118.000000,-128.000000
1298637.715888,-44.000000,-1.000000,-54.000000,-96.000000,-16.000000,7.000000,37.000000,17.000000
1298637.716291,123.000000,0.000000,26.000000,8.000000,12.000000,20.000000,4.000000,10.000000
1298637.716317,-37.000000,-7.000000,3.000000,21.000000,1.000000,-11.000000,-48.000000,-66.000000
1298637.716871,-56.000000,-45.000000,-4.000000,15.000000,-4.000000,-4.000000,-10.000000,-3.000000
1298637.716892,127.000000,42.000000,38.000000,31.000000,23.000000,36.000000,74.000000,127.000000
1298637.717138,38.000000,-10.000000,-8.000000,18.000000,-2.000000,-11.000000,-3.000000,-23.000000
1298637.717171,-11.000000,-22.000000,-18.000000,13.000000,-7.000000,-19.000000,-55.000000,-80.000000
1298637.736758,-40.000000,-17.000000,-3.000000,-52.000000,-12.000000,9.000000,16.000000,7.000000
1298637.736885,124.000000,7.000000,42.000000,68.000000,37.000000,42.000000,58.000000,56.000000
1298637.737364,-72.000000,7.000000,-19.000000,-91.000000,-36.000000,-16.000000,12.000000,34.000000
1298637.737430,26.000000,-39.000000,-5.000000,26.000000,-1.000000,-26.000000,-27.000000,-17.000000
1298637.742885,-30.000000,2.000000,11.000000,-23.000000,-26.000000,6.000000,-2.000000,-22.000000
1298637.742938,-36.000000,-10.000000,-19.000000,-6.000000,20.000000,15.000000,36.000000,12.000000
1298637.757074,66.000000,47.000000,3.000000,-5.000000,0.000000,5.000000,16.000000,36.000000
1298637.757120,-58.000000,16.000000,27.000000,57.000000,15.000000,6.000000,13.000000,2.000000
1298637.779407,-3.000000,-15.000000,-11.000000,-45.000000,15.000000,8.000000,-3.000000,20.000000
1298637.779454,-23.000000,42.000000,-27.000000,-65.000000,-27.000000,-24.000000,-34.000000,-29.000000
1298637.786760,117.000000,-94.000000,-10.000000,-5.000000,8.000000,21.000000,10.000000,14.000000
1298637.786785,-92.000000,83.000000,-56.000000,6.000000,-11.000000,-17.000000,-6.000000,29.000000
1298637.801972,-20.000000,-35.000000,-17.000000,15.000000,4.000000,-3.000000,0.000000,-14.000000
1298637.802021,124.000000,69.000000,33.000000,19.000000,9.000000,23.000000,83.000000,110.000000
1298637.809783,-128.000000,-56.000000,-39.000000,15.000000,-9.000000,-50.000000,-104.000000,-128.000000
1298637.809818,-39.000000,-57.000000,-2.000000,-71.000000,-20.000000,6.000000,-6.000000,-22.000000
1298637.817782,34.000000,-17.000000,24.000000,52.000000,10.000000,14.000000,29.000000,26.000000
1298637.817824,33.000000,29.000000,-4.000000,46.000000,44.000000,29.000000,50.000000,66.000000
1298637.818794,17.000000,-76.000000,-37.000000,-102.000000,-43.000000,-42.000000,-45.000000,-37.000000
1298637.818819,-65.000000,34.000000,15.000000,2.000000,-10.000000,-14.000000,-42.000000,-55.000000
1298637.825747,-17.000000,44.000000,23.000000,57.000000,18.000000,25.000000,42.000000,17.000000
1298637.825771,19.000000,-21.000000,-18.000000,-35.000000,-9.000000,-12.000000,-31.000000,13.000000
1298637.832151,-29.000000,27.000000,14.000000,35.000000,14.000000,6.000000,-10.000000,-49.000000
1298637.832190,80.000000,6.000000,-10.000000,-52.000000,-19.000000,4.000000,42.000000,47.000000
1298637.869438,-10.000000,-12.000000,-32.000000,-38.000000,8.000000,20.000000,22.000000,27.000000
1298637.869683,-53.000000,-24.000000,30.000000,60.000000,15.000000,-18.000000,-32.000000,-59.000000
1298637.870192,-60.000000,34.000000,26.000000,18.000000,-6.000000,-11.000000,-54.000000,-99.000000
1298637.870242,-41.000000,74.000000,21.000000,19.000000,19.000000,19.000000,36.000000,16.000000
1298637.871737,71.000000,68.000000,-24.000000,-7.000000,-5.000000,-17.000000,-7.000000,52.000000
1298637.871785,45.000000,8.000000,-1.000000,5.000000,1.000000,5.000000,13.000000,13.000000
1298637.899537,20.000000,-7.000000,-20.000000,-3.000000,3.000000,3.000000,1.000000,24.000000
1298637.899591,-44.000000,0.000000,6.000000,5.000000,8.000000,12.000000,21.000000,24.000000
1298637.914876,-10.000000,33.000000,60.000000,13.000000,-6.000000,-6.000000,-24.000000,-16.000000
1298637.914909,30.000000,72.000000,-69.000000,-21.000000,5.000000,5.000000,37.000000,23.000000
1298637.921957,50.000000,51.000000,13.000000,-29.000000,-14.000000,2.000000,21.000000,38.000000
1298637.921982,74.000000,48.000000,-43.000000,-1.000000,10.000000,-11.000000,-41.000000,-21.000000
1298637.944759,-67.000000,-78.000000,-1.000000,-55.000000,-29.000000,1.000000,18.000000,-18.000000
1298637.944785,-113.000000,-2.000000,18.000000,7.000000,-6.000000,-2.000000,-14.000000,-3.000000
1298637.952556,121.000000,-22.000000,27.000000,60.000000,22.000000,-1.000000,-48.000000,-32.000000
1298637.952593,-20.000000,-41.000000,-6.000000,-2.000000,-29.000000,-47.000000,-74.000000,-101.000000
1298637.953887,-57.000000,105.000000,-62.000000,-29.000000,16.000000,41.000000,82.000000,78.000000
1298637.953912,-39.000000,-105.000000,-31.000000,-7.000000,2.000000,-7.000000,-1.000000,-31.000000
1298637.989656,27.000000,-2.000000,12.000000,-24.000000,-10.000000,-10.000000,-9.000000,-13.000000
1298637.989683,-4.000000,0.000000,9.000000,29.000000,5.000000,10.000000,-2.000000,-17.000000
1298638.011989,114.000000,7.000000,20.000000,45.000000,41.000000,37.000000,50.000000,63.000000
1298638.012040,-25.000000,71.000000,48.000000,-26.000000,-7.000000,-16.000000,-52.000000,-39.000000
1298638.021460,-40.000000,-128.000000,-99.000000,-45.000000,-26.000000,-15.000000,-33.000000,-23.000000
1298638.021652,-47.000000,-23.000000,-20.000000,-23.000000,-15.000000,-5.000000,7.000000,-12.000000
1298638.022097,48.000000,-3.000000,1.000000,30.000000,3.000000,-1.000000,-15.000000,-1.000000
1298638.022125,84.000000,-87.000000,-35.000000,-3.000000,20.000000,42.000000,86.000000,77.000000
1298638.023980,18.000000,-58.000000,-24.000000,9.000000,18.000000,20.000000,-3.000000,-9.000000
1298638.024003,-49.000000,17.000000,15.000000,-19.000000,-9.000000,4.000000,52.000000,47.000000
1298638.027974,-105.000000,-65.000000,-26.000000,-19.000000,-6.000000,-36.000000,-84.000000,-62.000000
1298638.028019,-62.000000,-40.000000,23.000000,52.000000,23.000000,27.000000,44.000000,29.000000
1298638.042933,92.000000,37.000000,23.000000,55.000000,11.000000,28.000000,57.000000,46.000000
1298638.042991,-49.000000,-128.000000,-80.000000,-95.000000,-15.000000,-9.000000,-20.000000,-21.000000
1298638.056796,56.000000,20.000000,9.000000,3.000000,-4.000000,0.000000,-2.000000,-4.000000
1298638.056917,-128.000000,-1.000000,30.000000,54.000000,15.000000,5.000000,-9.000000,-18.000000
1298638.057824,122.000000,90.000000,17.000000,-2.000000,-9.000000,11.000000,26.000000,45.000000
1298638.057873,-25.000000,-13.000000,-32.000000,2.000000,3.000000,-13.000000,-16.000000,-16.000000
1298638.065498,-12.000000,21.000000,26.000000,-46.000000,-18.000000,-20.000000,-47.000000,-73.000000
1298638.065524,127.000000,102.000000,35.000000,32.000000,14.000000,7.000000,16.000000,17.000000
1298638.087948,-74.000000,-79.000000,-66.000000,50.000000,19.000000,11.000000,33.000000,30.000000
1298638.087989,-49.000000,-16.000000,-3.000000,-79.000000,-47.000000,-63.000000,-128.000000,-128.000000
1298638.089163,46.000000,28.000000,77.000000,46.000000,12.000000,20.000000,45.000000,59.000000
1298638.089195,127.000000,25.000000,18.000000,41.000000,27.000000,25.000000,50.000000,63.000000
1298638.094384,-114.000000,25.000000,-3.000000,-91.000000,-24.000000,-19.000000,-2.000000,-17.000000
1298638.094433,-7.000000,92.000000,-11.000000,13.000000,11.000000,7.000000,3.000000,2.000000
1298638.109274,127.000000,54.000000,38.000000,30.000000,-5.000000,1.000000,-15.000000,18.000000
1298638.109325,-37.000000,31.000000,42.000000,46.000000,14.000000,15.000000,21.000000,16.000000
1298638.124708,-31.000000,-27.000000,-52.000000,-49.000000,1.000000,-4.000000,18.000000,25.000000
1298638.124748,79.000000,42.000000,52.000000,116.000000,29.000000,8.000000,2.000000,10.000000
1298638.154554,-127.000000,-128.000000,-115.000000,-122.000000,-11.000000,0.000000,-3.000000,-24.000000
1298638.154581,61.000000,-4.000000,43.000000,90.000000,6.000000,8.000000,13.000000,27.000000
1298638.176953,43.000000,-6.000000,-57.000000,-46.000000,-18.000000,-24.000000,-17.000000,7.000000
1298638.176997,10.000000,-128.000000,-24.000000,7.000000,8.000000,-6.000000,-19.000000,-65.000000
1298638.178559,-128.000000,-41.000000,-16.000000,-70.000000,-59.000000,-37.000000,-52.000000,-47.000000
1298638.178935,-112.000000,26.000000,0.000000,24.000000,7.000000,-7.000000,-19.000000,-24.000000
1298638.179712,-26.000000,-72.000000,-29.000000,9.000000,-3.000000,-8.000000,-12.000000,-51.000000
1298638.179759,-17.000000,18.000000,40.000000,72.000000,33.000000,4.000000,-18.000000,16.000000
1298638.180942,97.000000,-10.000000,-39.000000,-91.000000,-27.000000,-17.000000,-4.000000,-9.000000
1298638.180992,-71.000000,10.000000,6.000000,-10.000000,-2.000000,8.000000,8.000000,-3.000000
1298638.181998,55.000000,-39.000000,7.000000,8.000000,2.000000,10.000000,20.000000,33.000000
1298638.182022,127.000000,46.000000,44.000000,73.000000,27.000000,-4.000000,1.000000,9.000000
1298638.191964,-128.000000,-30.000000,-71.000000,-110.000000,-51.000000,-16.000000,-19.000000,-38.000000
1298638.191988,120.000000,22.000000,13.000000,-14.000000,-2.000000,8.000000,14.000000,39.000000
1298638.199344,119.000000,61.000000,103.000000,127.000000,58.000000,44.000000,45.000000,59.000000
1298638.199371,36.000000,-34.000000,-54.000000,-58.000000,-24.000000,-38.000000,-13.000000,-3.000000
1298638.215857,-42.000000,-52.000000,-47.000000,-43.000000,-17.000000,-9.000000,-41.000000,-70.000000
1298638.215912,-99.000000,90.000000,14.000000,-59.000000,-13.000000,3.000000,5.000000,-45.000000
1298638.216334,-128.000000,-26.000000,24.000000,29.000000,-2.000000,-7.000000,-5.000000,-17.000000
1298638.216387,127.000000,-22.000000,-10.000000,38.000000,11.000000,12.000000,37.000000,90.000000
1298638.229418,127.000000,46.000000,20.000000,26.000000,20.000000,22.000000,47.000000,52.000000
1298638.229470,-128.000000,-25.000000,7.000000,-4.000000,-21.000000,-53.000000,-126.000000,-128.000000
1298638.267047,127.000000,-65.000000,-49.000000,-7.000000,4.000000,10.000000,19.000000,31.000000
1298638.267191,53.000000,8.000000,25.000000,11.000000,14.000000,20.000000,32.000000,20.000000
1298638.281834,57.000000,-31.000000,-12.000000,-12.000000,-15.000000,-2.000000,19.000000,44.000000
1298638.281883,-8.000000,54.000000,-16.000000,-34.000000,-10.000000,-17.000000,-46.000000,-46.000000
1298638.296993,-128.000000,-23.000000,-36.000000,-7.000000,-6.000000,-4.000000,6.000000,-17.000000
1298638.297046,-14.000000,0.000000,31.000000,0.000000,-2.000000,12.000000,2.000000,-7.000000
1298638.305322,-34.000000,-65.000000,-19.000000,-3.000000,13.000000,-6.000000,9.000000,0.000000
1298638.305566,-92.000000,-16.000000,-8.000000,-84.000000,-16.000000,-4.000000,4.000000,-22.000000
1298638.305866,-34.000000,21.000000,7.000000,33.000000,4.000000,5.000000,21.000000,7.000000
1298638.305904,-57.000000,-21.000000,-11.000000,-30.000000,-18.000000,-33.000000,-73.000000,-92.000000
1298638.307508,28.000000,11.000000,20.000000,-17.000000,-4.000000,13.000000,20.000000,14.000000
1298638.307549,127.000000,56.000000,44.000000,37.000000,15.000000,37.000000,80.000000,110.000000
1298638.308538,127.000000,-121.000000,14.000000,65.000000,24.000000,-9.000000,-46.000000,31.000000
1298638.308585,-128.000000,-36.000000,-29.000000,-94.000000,-54.000000,-51.000000,-45.000000,-39.000000
1298638.319336,-108.000000,-30.000000,28.000000,-48.000000,-12.000000,3.000000,4.000000,-15.000000
1298638.319387,2.000000,-88.000000,-50.000000,-3.000000,-8.000000,-8.000000,-5.000000,-2.000000
1298638.335201,-11.000000,-50.000000,30.000000,23.000000,4.000000,-9.000000,-30.000000,-45.000000
1298638.335252,-29.000000,-19.000000,5.000000,-3.000000,-1.000000,5.000000,9.000000,0.000000
1298638.336198,103.000000,69.000000,74.000000,77.000000,27.000000,25.000000,63.000000,78.000000
1298638.336248,-128.000000,-82.000000,-42.000000,-8.000000,-14.000000,-21.000000,-23.000000,-30.000000
1298638.349701,2.000000,-23.000000,-52.000000,-119.000000,-33.000000,-5.000000,-24.000000,-83.000000
1298638.349801,47.000000,-15.000000,-24.000000,-29.000000,-5.000000,3.000000,4.000000,13.000000
1298638.357404,54.000000,63.000000,68.000000,66.000000,29.000000,27.000000,55.000000,74.000000
1298638.357568,-52.000000,61.000000,25.000000,20.000000,-14.000000,-11.000000,-37.000000,-46.000000
1298638.387120,7.000000,-44.000000,-21.000000,-1.000000,-2.000000,4.000000,8.000000,15.000000
1298638.387165,82.000000,45.000000,15.000000,-18.000000,-3.000000,3.000000,7.000000,41.000000
1298638.425216,-4.000000,127.000000,75.000000,55.000000,8.000000,6.000000,-8.000000,-11.000000
1298638.425477,-30.000000,-17.000000,-28.000000,-17.000000,2.000000,11.000000,33.000000,16.000000
1298638.427680,-128.000000,-126.000000,-56.000000,-57.000000,-19.000000,-12.000000,1.000000,-40.000000
1298638.427728,19.000000,107.000000,-26.000000,9.000000,-2.000000,9.000000,14.000000,22.000000
1298638.428408,50.000000,34.000000,49.000000,38.000000,14.000000,10.000000,31.000000,51.000000
1298638.428462,-5.000000,18.000000,2.000000,-7.000000,10.000000,-7.000000,-33.000000,-46.000000
1298638.428978,-17.000000,-10.000000,18.000000,34.000000,18.000000,2.000000,-1.000000,1.000000
1298638.428997,25.000000,-35.000000,-48.000000,-99.000000,-21.000000,20.000000,48.000000,57.000000
1298638.429443,-46.000000,21.000000,21.000000,36.000000,11.000000,7.000000,5.000000,17.000000
1298638.429486,8.000000,42.000000,44.000000,4.000000,10.000000,14.000000,4.000000,-24.000000
1298638.439716,31.000000,55.000000,24.000000,31.000000,10.000000,13.000000,19.000000,21.000000
1298638.439772,61.000000,39.000000,16.000000,89.000000,37.000000,22.000000,34.000000,55.000000
1298638.455697,-45.000000,-55.000000,-50.000000,-128.000000,-33.000000,-5.000000,-4.000000,-27.000000
1298638.455749,56.000000,67.000000,55.000000,87.000000,16.000000,0.000000,-16.000000,-24.000000
1298638.456590,-56.000000,-26.000000,-38.000000,-50.000000,-18.000000,-20.000000,-31.000000,-55.000000
1298638.456626,-47.000000,-99.000000,12.000000,-1.000000,0.000000,8.000000,42.000000,45.000000
1298638.469568,45.000000,-8.000000,11.000000,18.000000,12.000000,-11.000000,-31.000000,-13.000000
1298638.469624,64.000000,115.000000,19.000000,-5.000000,-1.000000,6.000000,22.000000,24.000000
1298638.492077,-97.000000,-14.000000,-82.000000,-15.000000,-18.000000,-24.000000,-22.000000,-21.000000
1298638.492104,74.000000,-23.000000,23.000000,42.000000,16.000000,11.000000,34.000000,21.000000
1298638.506803,-56.000000,-12.000000,-34.000000,-98.000000,-23.000000,-15.000000,-45.000000,-19.000000
1298638.506844,60.000000,16.000000,53.000000,26.000000,-3.000000,2.000000,38.000000,87.000000
1298638.514340,-27.000000,8.000000,-1.000000,63.000000,18.000000,-22.000000,-78.000000,-111.000000
1298638.514364,55.000000,-55.000000,-46.000000,-72.000000,-26.000000,-3.000000,-17.000000,-95.000000
1298638.544561,70.000000,112.000000,38.000000,-19.000000,-3.000000,23.000000,54.000000,57.000000
1298638.544612,77.000000,-44.000000,-45.000000,20.000000,5.000000,12.000000,32.000000,52.000000
1298638.551969,-23.000000,-37.000000,12.000000,-5.000000,14.000000,-15.000000,-30.000000,-27.000000
1298638.552021,-76.000000,26.000000,-1.000000,-15.000000,-19.000000,-13.000000,-11.000000,-21.000000
1298638.574844,28.000000,20.000000,10.000000,17.000000,-2.000000,6.000000,15.000000,11.000000
1298638.574897,11.000000,12.000000,0.000000,26.000000,4.000000,-1.000000,5.000000,22.000000
1298638.576546,-84.000000,-10.000000,28.000000,33.000000,8.000000,6.000000,-14.000000,-29.000000
1298638.576575,39.000000,127.000000,-22.000000,-38.000000,-23.000000,-12.000000,-2.000000,20.000000
1298638.577585,-128.000000,-128.000000,-28.000000,-29.000000,-33.000000,-67.000000,-117.000000,-128.000000
1298638.577894,127.000000,-8.000000,-71.000000,-83.000000,-18.000000,19.000000,37.000000,56.000000
1298638.578203,127.000000,-7.000000,59.000000,68.000000,23.000000,7.000000,30.000000,51.000000
1298638.578249,-128.000000,-36.000000,1.000000,-39.000000,-13.000000,-5.000000,-10.000000,-25.000000
1298638.597229,-14.000000,29.000000,-50.000000,-51.000000,0.000000,7.000000,33.000000,2.000000
1298638.597281,-128.000000,-6.000000,4.000000,-4.000000,-4.000000,-12.000000,-41.000000,-103.000000
1298638.604432,-32.000000,-83.000000,52.000000,111.000000,26.000000,1.000000,-11.000000,-8.000000
1298638.604456,127.000000,-9.000000,-59.000000,-99.000000,-15.000000,7.000000,35.000000,77.000000
1298638.619217,106.000000,38.000000,47.000000,52.000000,21.000000,22.000000,35.000000,35.000000
1298638.619265,-128.000000,-128.000000,-66.000000,-105.000000,-40.000000,-43.000000,-43.000000,-3.000000
1298638.627036,-91.000000,122.000000,63.000000,106.000000,13.000000,-16.000000,-40.000000,-57.000000
1298638.627063,-128.000000,-124.000000,-43.000000,-34.000000,-15.000000,-17.000000,-14.000000,-59.000000
1298638.635040,127.000000,96.000000,-12.000000,-63.000000,-9.000000,26.000000,64.000000,118.000000
1298638.635243,-43.000000,12.000000,4.000000,23.000000,-1.000000,-14.000000,-27.000000,6.000000
1298638.635734,43.000000,30.000000,-36.000000,63.000000,12.000000,-1.000000,-14.000000,-47.000000
1298638.635780,-128.000000,-77.000000,-97.000000,-104.000000,-10.000000,-13.000000,-52.000000,-75.000000
1298638.650071,127.000000,80.000000,13.000000,-16.000000,4.000000,15.000000,26.000000,65.000000
1298638.650120,127.000000,36.000000,18.000000,43.000000,29.000000,29.000000,76.000000,102.000000
1298638.657115,-62.000000,-22.000000,12.000000,35.000000,31.000000,11.000000,-7.000000,7.000000
1298638.657164,-78.000000,67.000000,-4.000000,-41.000000,-33.000000,-13.000000,-32.000000,-93.000000
1298638.665665,34.000000,53.000000,13.000000,1.000000,2.000000,4.000000,9.000000,10.000000
1298638.665691,48.000000,25.000000,33.000000,89.000000,36.000000,28.000000,44.000000,92.000000
1298638.679715,11.000000,127.000000,-8.000000,-13.000000,7.000000,7.000000,5.000000,-19.000000
1298638.679775,-106.000000,-7.000000,-3.000000,-99.000000,-28.000000,-13.000000,2.000000,-21.000000
1298638.703521,4.000000,-28.000000,-3.000000,37.000000,13.000000,15.000000,38.000000,50.000000
1298638.703549,103.000000,-59.000000,-1.000000,39.000000,10.000000,-27.000000,-46.000000,-31.000000
1298638.704271,-26.000000,6.000000,-10.000000,13.000000,4.000000,11.000000,26.000000,17.000000
1298638.704297,-38.000000,2.000000,11.000000,-16.000000,-12.000000,-1.000000,-8.000000,-20.000000
1298638.731851,48.000000,89.000000,69.000000,44.000000,7.000000,10.000000,30.000000,40.000000
1298638.731876,6.000000,-102.000000,-75.000000,-9.000000,2.000000,2.000000,1.000000,-11.000000
1298638.739543,60.000000,62.000000,10.000000,-18.000000,0.000000,1.000000,-14.000000,-13.000000
1298638.739568,-75.000000,-43.000000,0.000000,9.000000,-3.000000,5.000000,-8.000000,-34.000000
1298638.754369,127.000000,39.000000,-28.000000,-24.000000,-3.000000,-7.000000,-8.000000,24.000000
1298638.754412,48.000000,47.000000,-19.000000,-7.000000,-6.000000,5.000000,22.000000,15.000000
1298638.761703,-66.000000,-109.000000,36.000000,9.000000,-5.000000,-5.000000,17.000000,5.000000
1298638.761760,73.000000,4.000000,5.000000,90.000000,21.000000,4.000000,-2.000000,51.000000
1298638.770796,-128.000000,-37.000000,-49.000000,-128.000000,-43.000000,-45.000000,-110.000000,-128.000000
1298638.770851,10.000000,-48.000000,-27.000000,-5.000000,1.000000,13.000000,40.000000,45.000000
1298638.771863,-36.000000,50.000000,14.000000,27.000000,7.000000,12.000000,21.000000,17.000000
1298638.771886,82.000000,64.000000,2.000000,20.000000,21.000000,22.000000,18.000000,19.000000
1298638.772300,86.000000,1.000000,15.000000,12.000000,14.000000,10.000000,7.000000,28.000000
1298638.772319,-93.000000,64.000000,2.000000,-51.000000,4.000000,2.000000,-2.000000,-8.000000
1298638.777174,9.000000,-8.000000,-38.000000,-31.000000,-20.000000,-20.000000,-29.000000,-34.000000
1298638.777236,35.000000,3.000000,11.000000,16.000000,-7.000000,4.000000,12.000000,6.000000
1298638.785044,87.000000,28.000000,3.000000,-18.000000,-9.000000,0.000000,28.000000,46.000000
1298638.785092,-97.000000,-21.000000,-26.000000,-14.000000,-7.000000,-25.000000,-79.000000,-95.000000
1298638.814737,127.000000,80.000000,63.000000,38.000000,12.000000,24.000000,81.000000,117.000000
1298638.814776,42.000000,17.000000,-2.000000,0.000000,-4.000000,-19.000000,-76.000000,-114.000000
1298638.829513,22.000000,-128.000000,-17.000000,-11.000000,-16.000000,-16.000000,15.000000,34.000000
1298638.829538,-89.000000,39.000000,39.000000,50.000000,12.000000,2.000000,7.000000,-15.000000
1298638.844853,42.000000,-26.000000,-29.000000,-80.000000,-20.000000,18.000000,37.000000,41.000000
1298638.844882,52.000000,-51.000000,-15.000000,10.000000,4.000000,6.000000,20.000000,42.000000
1298638.874717,12.000000,38.000000,56.000000,81.000000,26.000000,2.000000,-5.000000,5.000000
1298638.874772,-23.000000,-28.000000,-80.000000,-58.000000,-44.000000,-32.000000,-42.000000,-34.000000
1298638.881957,-27.000000,-57.000000,-6.000000,-8.000000,4.000000,-1.000000,-41.000000,-72.000000
1298638.882007,-14.000000,76.000000,68.000000,127.000000,21.000000,1.000000,-1.000000,-7.000000
1298638.891976,4.000000,-128.000000,-115.000000,-106.000000,-26.000000,-5.000000,-6.000000,-17.000000
1298638.892027,16.000000,57.000000,30.000000,22.000000,2.000000,8.000000,25.000000,34.000000
1298638.892276,5.000000,23.000000,26.000000,6.000000,3.000000,19.000000,27.000000,43.000000
1298638.892318,104.000000,33.000000,35.000000,32.000000,19.000000,18.000000,42.000000,55.000000
1298638.892536,40.000000,65.000000,-37.000000,-23.000000,4.000000,28.000000,28.000000,-6.000000
1298638.892562,-128.000000,-128.000000,-48.000000,-17.000000,-27.000000,-65.000000,-126.000000,-127.000000
1298638.894672,127.000000,107.000000,46.000000,34.000000,25.000000,23.000000,19.000000,40.000000
1298638.894710,-128.000000,34.000000,-20.000000,-19.000000,-17.000000,-11.000000,-28.000000,-75.000000
1298638.895216,127.000000,7.000000,9.000000,-7.000000,1.000000,1.000000,-1.000000,2.000000
1298638.895243,24.000000,53.000000,74.000000,98.000000,40.000000,15.000000,12.000000,57.000000
1298638.897137,27.000000,-45.000000,-93.000000,-64.000000,-52.000000,-34.000000,-47.000000,-61.000000
1298638.897201,-83.000000,-62.000000,-27.000000,-101.000000,-18.000000,7.000000,12.000000,3.000000
1298638.912677,105.000000,96.000000,69.000000,60.000000,13.000000,18.000000,22.000000,24.000000
1298638.912744,72.000000,-39.000000,4.000000,23.000000,11.000000,16.000000,40.000000,64.000000
1298638.919787,-74.000000,5.000000,-29.000000,-29.000000,-8.000000,-15.000000,-20.000000,-29.000000
1298638.920051,-128.000000,-4.000000,-10.000000,-22.000000,-7.000000,-9.000000,-12.000000,-29.000000
1298638.927217,94.000000,47.000000,26.000000,43.000000,8.000000,6.000000,-11.000000,35.000000
1298638.927247,31.000000,-93.000000,21.000000,4.000000,31.000000,33.000000,41.000000,40.000000
1298638.942152,107.000000,1.000000,-44.000000,-71.000000,-22.000000,3.000000,13.000000,23.000000
1298638.942182,-128.000000,-128.000000,-40.000000,-35.000000,-21.000000,-33.000000,-53.000000,-92.000000
1298638.972051,52.000000,-11.000000,1.000000,34.000000,1.000000,6.000000,23.000000,47.000000
1298638.972155,65.000000,0.000000,-18.000000,50.000000,22.000000,8.000000,15.000000,8.000000
1298638.979441,-128.000000,-128.000000,-22.000000,-77.000000,-36.000000,-25.000000,-37.000000,-79.000000
1298638.979466,87.000000,51.000000,24.000000,17.000000,7.000000,8.000000,17.000000,23.000000
1298638.994530,31.000000,-48.000000,-15.000000,18.000000,6.000000,5.000000,16.000000,15.000000
1298638.994586,12.000000,18.000000,15.000000,38.000000,21.000000,4.000000,10.000000,29.000000
1298639.009866,40.000000,-11.000000,4.000000,-14.000000,-5.000000,-6.000000,-15.000000,3.000000
1298639.010707,-3.000000,94.000000,6.000000,-20.000000,-2.000000,3.000000,20.000000,35.000000
1298639.011858,-6.000000,-128.000000,-66.000000,-11.000000,-7.000000,-12.000000,-23.000000,-37.000000
1298639.011889,-5.000000,41.000000,12.000000,-30.000000,-12.000000,5.000000,10.000000,13.000000
1298639.012114,106.000000,66.000000,104.000000,127.000000,50.000000,32.000000,40.000000,50.000000
1298639.012156,-128.000000,34.000000,-128.000000,-128.000000,-28.000000,-10.000000,-46.000000,-81.000000
1298639.013877,127.000000,-7.000000,16.000000,23.000000,-14.000000,-13.000000,15.000000,46.000000
1298639.013912,-128.000000,10.000000,23.000000,79.000000,7.000000,-11.000000,-42.000000,-93.000000
1298639.016804,-128.000000,-80.000000,-82.000000,-73.000000,-53.000000,-57.000000,-60.000000,-40.000000
1298639.016863,-27.000000,-22.000000,35.000000,14.000000,1.000000,2.000000,1.000000,-6.000000
1298639.031642,85.000000,25.000000,23.000000,30.000000,10.000000,19.000000,40.000000,50.000000
1298639.031688,90.000000,4.000000,26.000000,19.000000,4.000000,8.000000,26.000000,59.000000
1298639.047895,118.000000,-28.000000,-63.000000,-27.000000,-9.000000,-18.000000,-22.000000,-8.000000
1298639.048310,-128.000000,-128.000000,18.000000,33.000000,9.000000,-15.000000,-30.000000,-69.000000
1298639.049417,-10.000000,-8.000000,-36.000000,-69.000000,-39.000000,-7.000000,-6.000000,2.000000
1298639.049461,81.000000,69.000000,59.000000,-19.000000,-1.000000,12.000000,23.000000,38.000000
1298639.084601,2.000000,-14.000000,5.000000,23.000000,3.000000,-6.000000,-24.000000,-39.000000
1298639.084658,42.000000,30.000000,37.000000,25.000000,8.000000,12.000000,16.000000,16.000000
1298639.099341,-128.000000,-95.000000,-49.000000,13.000000,-11.000000,-17.000000,-6.000000,-40.000000
1298639.099391,0.000000,54.000000,-20.000000,-41.000000,-6.000000,0.000000,-5.000000,-21.000000
1298639.107524,-8.000000,26.000000,17.000000,-13.000000,8.000000,1.000000,27.000000,23.000000
1298639.107569,97.000000,15.000000,1.000000,45.000000,-2.000000,-2.000000,-21.000000,-19.000000
1298639.129942,-128.000000,-30.000000,6.000000,-9.000000,-7.000000,-7.000000,-1.000000,-26.000000
1298639.130062,82.000000,-24.000000,-16.000000,-18.000000,-16.000000,-4.000000,8.000000,15.000000
1298639.130634,53.000000,90.000000,-3.000000,16.000000,-3.000000,0.000000,7.000000,9.000000
1298639.130692,18.000000,10.000000,18.000000,4.000000,12.000000,12.000000,19.000000,24.000000
1298639.131969,-67.000000,-95.000000,1.000000,32.000000,-2.000000,-5.000000,-2.000000,0.000000
1298639.131994,8.000000,-23.000000,-49.000000,-61.000000,-21.000000,-13.000000,-10.000000,11.000000
1298639.133447,127.000000,87.000000,22.000000,15.000000,25.000000,16.000000,24.000000,36.000000
1298639.133478,-128.000000,-122.000000,-48.000000,-44.000000,-32.000000,-21.000000,-29.000000,-39.000000
1298639.137641,95.000000,34.000000,19.000000,16.000000,6.000000,5.000000,4.000000,52.000000
1298639.137693,127.000000,28.000000,20.000000,38.000000,9.000000,5.000000,-8.000000,23.000000
1298639.152745,-43.000000,127.000000,5.000000,8.000000,18.000000,2.000000,-5.000000,-8.000000
1298639.152793,-26.000000,2.000000,10.000000,25.000000,9.000000,10.000000,37.000000,52.000000
1298639.159234,28.000000,-1.000000,-12.000000,-20.000000,-8.000000,-8.000000,-40.000000,-45.000000
1298639.159290,29.000000,70.000000,15.000000,5.000000,5.000000,13.000000,43.000000,52.000000
1298639.168032,-39.000000,-38.000000,-1.000000,36.000000,12.000000,-7.000000,-20.000000,-29.000000
1298639.168057,66.000000,80.000000,13.000000,6.000000,-1.000000,6.000000,6.000000,-1.000000
1298639.196920,-93.000000,-72.000000,-108.000000,-105.000000,2.000000,-3.000000,-24.000000,-66.000000
1298639.196968,-33.000000,32.000000,51.000000,16.000000,7.000000,12.000000,17.000000,19.000000
1298639.219733,21.000000,-22.000000,-11.000000,22.000000,-7.000000,-11.000000,4.000000,7.000000
1298639.219782,-39.000000,-105.000000,-35.000000,52.000000,10.000000,-17.000000,-30.000000,-9.000000
1298639.249614,71.000000,-48.000000,-2.000000,-50.000000,3.000000,27.000000,36.000000,35.000000
1298639.249667,75.000000,27.000000,-30.000000,-15.000000,-16.000000,-14.000000,10.000000,57.000000
1298639.287551,-68.000000,-3.000000,7.000000,-8.000000,-5.000000,6.000000,12.000000,18.000000
1298639.287621,-14.000000,55.000000,63.000000,86.000000,25.000000,7.000000,-14.000000,-5.000000
1298639.294933,-128.000000,-22.000000,6.000000,-44.000000,-20.000000,-18.000000,-20.000000,-28.000000
1298639.294980,127.000000,-4.000000,12.000000,31.000000,11.000000,24.000000,44.000000,55.000000
1298639.309485,127.000000,26.000000,32.000000,35.000000,14.000000,28.000000,83.000000,109.000000
1298639.309536,-128.000000,-10.000000,30.000000,-10.000000,-16.000000,-48.000000,-85.000000,-116.000000
1298639.324921,-49.000000,-60.000000,-80.000000,-90.000000,-26.000000,-19.000000,-40.000000,-40.000000
1298639.324948,13.000000,32.000000,10.000000,20.000000,8.000000,13.000000,14.000000,9.000000
1298639.377423,80.000000,89.000000,25.000000,19.000000,-6.000000,-7.000000,-2.000000,17.000000
1298639.377740,-128.000000,4.000000,20.000000,28.000000,1.000000,4.000000,8.000000,7.000000
1298639.378554,-43.000000,-5.000000,10.000000,51.000000,16.000000,8.000000,18.000000,20.000000
1298639.379192,-20.000000,-24.000000,-31.000000,-50.000000,-26.000000,-14.000000,3.000000,-15.000000
1298639.380005,36.000000,25.000000,16.000000,6.000000,7.000000,12.000000,18.000000,25.000000
1298639.380028,41.000000,-12.000000,28.000000,3.000000,-8.000000,1.000000,3.000000,19.000000
1298639.380494,39.000000,-7.000000,-32.000000,44.000000,12.000000,1.000000,16.000000,15.000000
1298639.380545,-19.000000,-28.000000,-23.000000,-47.000000,-8.000000,-22.000000,-31.000000,-27.000000
1298639.380887,52.000000,34.000000,22.000000,18.000000,5.000000,25.000000,60.000000,80.000000
1298639.380934,13.000000,-116.000000,38.000000,24.000000,0.000000,-17.000000,-47.000000,-34.000000
1298639.381858,-128.000000,-94.000000,-9.000000,-8.000000,-16.000000,-17.000000,-26.000000,-59.000000
1298639.381907,82.000000,52.000000,39.000000,37.000000,10.000000,17.000000,40.000000,72.000000
1298639.400002,52.000000,-15.000000,23.000000,-47.000000,2.000000,17.000000,21.000000,28.000000
1298639.400066,63.000000,-17.000000,44.000000,44.000000,7.000000,4.000000,13.000000,15.000000
1298639.400930,-128.000000,-24.000000,-17.000000,49.000000,0.000000,-21.000000,-20.000000,-76.000000
1298639.400958,-62.000000,-29.000000,-12.000000,-27.000000,-6.000000,12.000000,15.000000,15.000000
1298639.406934,-84.000000,-42.000000,-27.000000,-61.000000,-11.000000,-28.000000,-43.000000,-33.000000
1298639.406983,-118.000000,37.000000,8.000000,39.000000,17.000000,5.000000,-2.000000,-26.000000
1298639.422522,127.000000,40.000000,22.000000,17.000000,2.000000,24.000000,40.000000,58.000000
1298639.422573,127.000000,127.000000,119.000000,77.000000,13.000000,-18.000000,-49.000000,5.000000
1298639.444477,0.000000,-70.000000,-66.000000,-30.000000,-1.000000,-23.000000,-32.000000,-48.000000
1298639.444526,-128.000000,-29.000000,-40.000000,-119.000000,-39.000000,1.000000,7.000000,-35.000000
1298639.451828,43.000000,55.000000,31.000000,31.000000,9.000000,15.000000,13.000000,16.000000
1298639.451853,56.000000,25.000000,32.000000,28.000000,5.000000,-14.000000,-21.000000,15.000000
1298639.466924,127.000000,127.000000,67.000000,100.000000,16.000000,10.000000,10.000000,29.000000
1298639.466948,-67.000000,-60.000000,-53.000000,-62.000000,-10.000000,-11.000000,2.000000,-17.000000
1298639.475056,-97.000000,-12.000000,22.000000,-3.000000,5.000000,5.000000,-6.000000,-13.000000
1298639.475114,93.000000,82.000000,49.000000,30.000000,16.000000,21.000000,38.000000,38.000000
1298639.476092,-76.000000,-76.000000,-39.000000,21.000000,-28.000000,-40.000000,-50.000000,-35.000000
1298639.476112,20.000000,7.000000,42.000000,-23.000000,16.000000,30.000000,22.000000,13.000000
1298639.481675,-128.000000,-102.000000,-43.000000,-10.000000,-13.000000,-8.000000,5.000000,-24.000000
1298639.481725,-35.000000,-40.000000,-10.000000,-14.000000,-15.000000,-44.000000,-110.000000,-67.000000
1298639.489378,-28.000000,-80.000000,-16.000000,-2.000000,-3.000000,7.000000,21.000000,-17.000000
1298639.489467,51.000000,3.000000,29.000000,22.000000,16.000000,25.000000,39.000000,33.000000
1298639.496919,-22.000000,-5.000000,-10.000000,23.000000,-3.000000,-6.000000,13.000000,10.000000
1298639.496958,-80.000000,9.000000,-10.000000,-58.000000,-15.000000,-21.000000,-34.000000,-48.000000
1298639.549788,34.000000,17.000000,28.000000,25.000000,12.000000,30.000000,44.000000,54.000000
1298639.549847,126.000000,25.000000,21.000000,64.000000,24.000000,10.000000,23.000000,33.000000
1298639.564931,-128.000000,-128.000000,-67.000000,-47.000000,0.000000,-8.000000,-12.000000,-35.000000
1298639.565029,93.000000,52.000000,7.000000,-52.000000,-32.000000,-16.000000,-34.000000,-6.000000
1298639.580064,-111.000000,-20.000000,-51.000000,-14.000000,-16.000000,-3.000000,-6.000000,-18.000000
1298639.580119,-19.000000,17.000000,18.000000,28.000000,20.000000,-4.000000,-9.000000,-16.000000
1298639.587174,96.000000,21.000000,23.000000,-4.000000,-3.000000,0.000000,11.000000,22.000000
1298639.587221,62.000000,77.000000,31.000000,13.000000,3.000000,8.000000,4.000000,3.000000
1298639.602584,-14.000000,-98.000000,-47.000000,-14.000000,-11.000000,-13.000000,-13.000000,-10.000000
1298639.602634,68.000000,22.000000,-9.000000,-2.000000,-4.000000,3.000000,15.000000,26.000000
1298639.605063,87.000000,12.000000,-18.000000,3.000000,2.000000,12.000000,48.000000,53.000000
1298639.605304,24.000000,1.000000,18.000000,14.000000,-6.000000,-5.000000,-5.000000,7.000000
1298639.605585,1.000000,-11.000000,-3.000000,20.000000,-4.000000,-19.000000,-23.000000,-47.000000
1298639.605626,-13.000000,30.000000,-32.000000,-34.000000,-7.000000,-15.000000,-42.000000,-59.000000
1298639.605874,22.000000,2.000000,11.000000,11.000000,13.000000,-3.000000,-6.000000,-30.000000
1298639.605909,-16.000000,-128.000000,-48.000000,-18.000000,0.000000,11.000000,2.000000,-23.000000
1298639.609675,127.000000,68.000000,31.000000,41.000000,21.000000,11.000000,30.000000,62.000000
1298639.609805,-128.000000,-53.000000,-60.000000,-98.000000,-27.000000,-35.000000,-62.000000,-104.000000
1298639.617001,67.000000,40.000000,26.000000,2.000000,1.000000,0.000000,-5.000000,-16.000000
1298639.617048,67.000000,2.000000,18.000000,35.000000,7.000000,21.000000,28.000000,32.000000
1298639.654698,125.000000,24.000000,27.000000,31.000000,11.000000,20.000000,44.000000,83.000000
1298639.654724,-60.000000,9.000000,8.000000,11.000000,-12.000000,-22.000000,-14.000000,-22.000000
1298639.677512,-6.000000,-58.000000,-30.000000,-27.000000,5.000000,-4.000000,-21.000000,6.000000
1298639.677576,-91.000000,-128.000000,-13.000000,-1.000000,0.000000,-11.000000,-37.000000,-47.000000
1298639.692287,43.000000,32.000000,-8.000000,49.000000,9.000000,28.000000,48.000000,46.000000
1298639.692338,43.000000,7.000000,-2.000000,-65.000000,-22.000000,-9.000000,1.000000,-2.000000
1298639.699376,28.000000,-36.000000,-21.000000,-6.000000,9.000000,-1.000000,0.000000,13.000000
1298639.699420,113.000000,40.000000,-8.000000,-15.000000,7.000000,15.000000,18.000000,6.000000
1298639.722477,-122.000000,-84.000000,-36.000000,12.000000,-12.000000,-14.000000,-10.000000,-7.000000
1298639.722828,90.000000,32.000000,20.000000,-8.000000,-14.000000,-25.000000,-51.000000,-39.000000
1298639.723458,-29.000000,-42.000000,13.000000,8.000000,-12.000000,12.000000,57.000000,47.000000
1298639.723706,35.000000,1.000000,-8.000000,2.000000,-3.000000,-23.000000,-59.000000,-63.000000
1298639.724749,-60.000000,-29.000000,2.000000,5.000000,-12.000000,0.000000,10.000000,-12.000000
1298639.724808,-73.000000,-53.000000,-12.000000,-10.000000,-3.000000,1.000000,0.000000,-2.000000
1298639.725643,58.000000,10.000000,23.000000,43.000000,15.000000,3.000000,12.000000,23.000000
1298639.725697,41.000000,40.000000,-2.000000,-28.000000,-6.000000,-1.000000,12.000000,40.000000
1298639.725964,73.000000,4.000000,19.000000,43.000000,16.000000,-5.000000,-19.000000,-30.000000
1298639.726006,-114.000000,-62.000000,-44.000000,-32.000000,-17.000000,-8.000000,-9.000000,-21.000000
1298639.726544,62.000000,7.000000,-49.000000,-7.000000,0.000000,7.000000,22.000000,26.000000
1298639.726583,-33.000000,-12.000000,-2.000000,-2.000000,-12.000000,-19.000000,-15.000000,7.000000
1298639.729429,127.000000,122.000000,48.000000,10.000000,11.000000,15.000000,23.000000,29.000000
1298639.729480,-116.000000,-84.000000,-59.000000,7.000000,-9.000000,-22.000000,-55.000000,-62.000000
1298639.737191,-104.000000,-6.000000,-30.000000,-44.000000,-5.000000,7.000000,-2.000000,-18.000000
1298639.737217,123.000000,49.000000,25.000000,9.000000,-1.000000,16.000000,33.000000,53.000000
1298639.752052,9.000000,68.000000,30.000000,16.000000,9.000000,6.000000,20.000000,7.000000
1298639.752079,-9.000000,-128.000000,-32.000000,-18.000000,8.000000,-10.000000,-33.000000,-5.000000
1298639.760143,-128.000000,-40.000000,-21.000000,-31.000000,-9.000000,-5.000000,-11.000000,-51.000000
1298639.760209,54.000000,6.000000,7.000000,3.000000,7.000000,9.000000,18.000000,21.000000
1298639.774884,92.000000,52.000000,39.000000,31.000000,21.000000,24.000000,41.000000,64.000000
1298639.774933,94.000000,-19.000000,-36.000000,23.000000,13.000000,12.000000,29.000000,29.000000
1298639.789742,-22.000000,-59.000000,-16.000000,-43.000000,-5.000000,-11.000000,-24.000000,-20.000000
1298639.789795,-28.000000,10.000000,-25.000000,-63.000000,-23.000000,-21.000000,-38.000000,-49.000000
1298639.813588,-69.000000,14.000000,25.000000,45.000000,7.000000,13.000000,34.000000,10.000000
1298639.814021,27.000000,113.000000,6.000000,15.000000,15.000000,13.000000,12.000000,16.000000
1298639.814841,-53.000000,43.000000,6.000000,-59.000000,-15.000000,-8.000000,-9.000000,-22.000000
1298639.814907,-19.000000,-19.000000,3.000000,10.000000,-4.000000,-3.000000,13.000000,7.000000
1298639.816041,-48.000000,-50.000000,-1.000000,4.000000,7.000000,13.000000,1.000000,-16.000000
1298639.816186,20.000000,-32.000000,0.000000,-5.000000,8.000000,5.000000,6.000000,-5.000000
1298639.842153,-128.000000,11.000000,-22.000000,-2.000000,-7.000000,-7.000000,-10.000000,-22.000000
1298639.842199,78.000000,-24.000000,6.000000,6.000000,2.000000,11.000000,24.000000,29.000000
1298639.857548,105.000000,25.000000,0.000000,4.000000,9.000000,15.000000,9.000000,13.000000
1298639.857645,-66.000000,-21.000000,16.000000,48.000000,23.000000,13.000000,25.000000,17.000000
1298639.864716,-39.000000,-15.000000,-37.000000,-61.000000,-28.000000,-24.000000,-34.000000,-19.000000
1298639.864842,93.000000,23.000000,16.000000,19.000000,7.000000,10.000000,-5.000000,2.000000
1298639.887880,73.000000,22.000000,16.000000,54.000000,27.000000,24.000000,62.000000,70.000000
1298639.887940,-63.000000,-51.000000,-36.000000,-64.000000,-25.000000,-31.000000,-63.000000,-73.000000
1298639.895482,-9.000000,114.000000,-6.000000,-18.000000,-1.000000,5.000000,-1.000000,-13.000000
1298639.895536,59.000000,-33.000000,4.000000,25.000000,-10.000000,4.000000,11.000000,1.000000
