# participant_id: P1
# gesture: soft
# trial_number: 1
# stream_name: Myo_EMG
# stream_type: emg
# timestamp: 20260420_130047
# samples: 4519
# duration_sec: 30.361
# nominal_sample_rate: 200.0
# effective_sample_rate: 148.81
#
timestamp,emg_1,emg_2,emg_3,emg_4,emg_5,emg_6,emg_7,emg_8
1294739.227926,1.000000,23.000000,13.000000,5.000000,-9.000000,14.000000,8.000000,5.000000
1294739.227937,-6.000000,-12.000000,-11.000000,-11.000000,-24.000000,-9.000000,2.000000,8.000000
1294739.242836,9.000000,9.000000,1.000000,-1.000000,4.000000,-5.000000,-14.000000,8.000000
1294739.242857,-3.000000,-14.000000,-2.000000,-12.000000,-5.000000,-6.000000,-12.000000,-1.000000
1294739.265514,-5.000000,-19.000000,-7.000000,10.000000,13.000000,7.000000,-4.000000,-10.000000
1294739.265527,5.000000,-2.000000,-5.000000,-19.000000,-37.000000,-4.000000,8.000000,-5.000000
1294739.295221,6.000000,-10.000000,3.000000,23.000000,32.000000,23.000000,45.000000,30.000000
1294739.295236,-2.000000,24.000000,13.000000,-14.000000,-25.000000,-12.000000,4.000000,-3.000000
1294739.303771,-9.000000,-8.000000,-2.000000,-6.000000,-2.000000,-15.000000,-46.000000,-15.000000
1294739.303792,5.000000,4.000000,9.000000,9.000000,26.000000,10.000000,37.000000,6.000000
1294739.304205,-5.000000,-2.000000,-6.000000,-5.000000,-19.000000,7.000000,-11.000000,-6.000000
1294739.304231,-7.000000,-4.000000,-4.000000,-19.000000,-35.000000,-13.000000,-2.000000,0.000000
1294739.305214,4.000000,1.000000,0.000000,-7.000000,-16.000000,-6.000000,-23.000000,-10.000000
1294739.305222,-6.000000,-4.000000,-6.000000,-11.000000,6.000000,-5.000000,-7.000000,-5.000000
1294739.306130,-1.000000,-8.000000,-20.000000,-23.000000,-9.000000,-7.000000,-19.000000,-12.000000
1294739.306139,0.000000,8.000000,16.000000,34.000000,13.000000,6.000000,2.000000,-3.000000
1294739.310633,7.000000,-7.000000,-4.000000,39.000000,41.000000,15.000000,12.000000,1.000000
1294739.310662,-5.000000,13.000000,8.000000,-4.000000,10.000000,-5.000000,-28.000000,-6.000000
1294739.318003,8.000000,8.000000,7.000000,-19.000000,-11.000000,-15.000000,2.000000,-5.000000
1294739.318012,-9.000000,-6.000000,-4.000000,-1.000000,-11.000000,5.000000,-28.000000,-4.000000
1294739.348047,5.000000,-5.000000,-5.000000,-9.000000,-24.000000,-12.000000,24.000000,1.000000
1294739.348076,-10.000000,-25.000000,-19.000000,8.000000,50.000000,27.000000,45.000000,-6.000000
1294739.355403,15.000000,-7.000000,32.000000,4.000000,-8.000000,-6.000000,-16.000000,20.000000
1294739.355432,4.000000,12.000000,-11.000000,7.000000,5.000000,-3.000000,-8.000000,3.000000
1294739.422909,-4.000000,6.000000,-15.000000,-13.000000,-10.000000,-19.000000,-14.000000,-20.000000
1294739.422924,2.000000,18.000000,46.000000,-6.000000,-25.000000,0.000000,17.000000,3.000000
1294739.430097,4.000000,5.000000,-2.000000,-17.000000,-28.000000,-6.000000,-11.000000,-2.000000
1294739.430157,-8.000000,-16.000000,-14.000000,-14.000000,-9.000000,-5.000000,-17.000000,-7.000000
1294739.452763,1.000000,4.000000,16.000000,18.000000,37.000000,6.000000,4.000000,-9.000000
1294739.452792,-4.000000,-9.000000,-16.000000,-34.000000,-49.000000,-14.000000,11.000000,16.000000
1294739.467609,7.000000,1.000000,21.000000,39.000000,33.000000,13.000000,3.000000,3.000000
1294739.467620,-3.000000,-4.000000,-1.000000,-8.000000,-27.000000,5.000000,8.000000,2.000000
1294739.497933,1.000000,4.000000,16.000000,15.000000,18.000000,-8.000000,-13.000000,-3.000000
1294739.497944,4.000000,2.000000,-9.000000,-20.000000,-22.000000,-7.000000,3.000000,-9.000000
1294739.505449,-6.000000,-7.000000,4.000000,10.000000,37.000000,0.000000,-24.000000,1.000000
1294739.505461,2.000000,41.000000,28.000000,-2.000000,-4.000000,-5.000000,18.000000,12.000000
1294739.535029,-8.000000,-19.000000,-32.000000,-22.000000,-8.000000,-13.000000,-17.000000,-16.000000
1294739.535053,0.000000,-13.000000,1.000000,-11.000000,-36.000000,7.000000,31.000000,14.000000
1294739.543011,-2.000000,-19.000000,-16.000000,-13.000000,-32.000000,-8.000000,-19.000000,0.000000
1294739.543056,-5.000000,2.000000,0.000000,-26.000000,-19.000000,-6.000000,8.000000,-3.000000
1294739.543553,-2.000000,4.000000,-3.000000,6.000000,17.000000,0.000000,-14.000000,-7.000000
1294739.543592,-12.000000,-32.000000,-28.000000,-20.000000,-19.000000,-3.000000,-7.000000,-12.000000
1294739.544412,-1.000000,-1.000000,-2.000000,7.000000,-3.000000,10.000000,-3.000000,-4.000000
1294739.544420,-4.000000,-6.000000,-6.000000,-4.000000,7.000000,9.000000,20.000000,3.000000
1294739.545031,3.000000,-6.000000,-5.000000,-6.000000,-6.000000,-7.000000,-6.000000,16.000000
1294739.545039,-7.000000,5.000000,9.000000,0.000000,-3.000000,-4.000000,-20.000000,-9.000000
1294739.545665,-4.000000,-1.000000,-1.000000,-8.000000,7.000000,7.000000,-2.000000,-10.000000
1294739.545673,8.000000,10.000000,3.000000,10.000000,-9.000000,11.000000,-2.000000,18.000000
1294739.573729,8.000000,-2.000000,10.000000,-14.000000,-16.000000,3.000000,22.000000,8.000000
1294739.573741,6.000000,-10.000000,0.000000,41.000000,55.000000,-11.000000,-19.000000,0.000000
1294739.580086,0.000000,16.000000,23.000000,-18.000000,8.000000,-9.000000,-17.000000,-2.000000
1294739.580109,-3.000000,-12.000000,-14.000000,-21.000000,-8.000000,8.000000,24.000000,5.000000
1294739.595412,-5.000000,-8.000000,-10.000000,-4.000000,-5.000000,-16.000000,-33.000000,-16.000000
1294739.595423,-4.000000,-6.000000,1.000000,0.000000,-5.000000,-3.000000,-3.000000,-9.000000
1294739.617733,-5.000000,-1.000000,-5.000000,-18.000000,-12.000000,-25.000000,-33.000000,-15.000000
1294739.617755,13.000000,11.000000,22.000000,40.000000,39.000000,23.000000,20.000000,14.000000
1294739.633052,4.000000,-6.000000,-5.000000,-2.000000,-6.000000,-7.000000,33.000000,10.000000
1294739.633081,-6.000000,-2.000000,0.000000,-12.000000,-3.000000,5.000000,-3.000000,-9.000000
1294739.655541,-12.000000,-22.000000,-23.000000,-14.000000,-20.000000,-20.000000,-6.000000,-10.000000
1294739.655570,11.000000,42.000000,42.000000,24.000000,23.000000,6.000000,-1.000000,0.000000
1294739.663095,-9.000000,-14.000000,-17.000000,-11.000000,-20.000000,-12.000000,-20.000000,-12.000000
1294739.663103,4.000000,13.000000,13.000000,24.000000,65.000000,33.000000,22.000000,14.000000
1294739.663666,-9.000000,-23.000000,-33.000000,-17.000000,-12.000000,-25.000000,-22.000000,-8.000000
1294739.663675,2.000000,6.000000,14.000000,5.000000,-13.000000,16.000000,12.000000,5.000000
1294739.664238,-3.000000,-4.000000,-5.000000,15.000000,32.000000,1.000000,3.000000,-10.000000
1294739.664247,0.000000,-3.000000,6.000000,12.000000,-2.000000,0.000000,2.000000,3.000000
1294739.665046,-3.000000,4.000000,0.000000,-15.000000,-56.000000,-19.000000,-4.000000,-16.000000
1294739.665064,5.000000,12.000000,-8.000000,21.000000,34.000000,6.000000,7.000000,10.000000
1294739.665620,-10.000000,-27.000000,-31.000000,-4.000000,23.000000,4.000000,-6.000000,-7.000000
1294739.665636,3.000000,-1.000000,-2.000000,-12.000000,-9.000000,-4.000000,26.000000,15.000000
1294739.666499,-3.000000,-8.000000,-5.000000,-5.000000,0.000000,9.000000,-6.000000,-8.000000
1294739.666532,2.000000,11.000000,6.000000,8.000000,-19.000000,-5.000000,-66.000000,-4.000000
1294739.700475,1.000000,-1.000000,3.000000,46.000000,33.000000,43.000000,77.000000,3.000000
1294739.700485,9.000000,-3.000000,-8.000000,-1.000000,4.000000,-3.000000,0.000000,18.000000
1294739.707897,-6.000000,-11.000000,-17.000000,-6.000000,4.000000,-7.000000,-39.000000,-10.000000
1294739.707920,-13.000000,0.000000,-2.000000,-29.000000,-47.000000,-15.000000,5.000000,-11.000000
1294739.745837,14.000000,8.000000,42.000000,-13.000000,-10.000000,12.000000,22.000000,9.000000
1294739.745861,1.000000,13.000000,28.000000,0.000000,-13.000000,-7.000000,-16.000000,-5.000000
1294739.752523,-12.000000,-21.000000,-21.000000,-12.000000,-7.000000,-20.000000,-43.000000,-14.000000
1294739.752533,8.000000,1.000000,7.000000,11.000000,-54.000000,-10.000000,1.000000,13.000000
1294739.775488,-3.000000,-13.000000,-1.000000,-8.000000,-23.000000,12.000000,-15.000000,1.000000
1294739.775500,0.000000,12.000000,7.000000,22.000000,33.000000,12.000000,38.000000,20.000000
1294739.775868,-7.000000,-21.000000,-14.000000,-19.000000,-11.000000,-14.000000,-5.000000,-2.000000
1294739.775878,12.000000,20.000000,15.000000,38.000000,-9.000000,17.000000,10.000000,9.000000
1294739.776839,18.000000,14.000000,13.000000,26.000000,33.000000,16.000000,14.000000,24.000000
1294739.776848,-12.000000,-11.000000,-21.000000,-9.000000,-5.000000,-13.000000,-24.000000,-11.000000
1294739.777556,2.000000,-9.000000,-6.000000,8.000000,24.000000,-1.000000,-32.000000,-25.000000
1294739.777566,2.000000,9.000000,5.000000,16.000000,8.000000,-3.000000,6.000000,2.000000
1294739.778406,3.000000,-11.000000,-11.000000,-14.000000,-6.000000,-31.000000,-14.000000,14.000000
1294739.778417,-23.000000,-22.000000,-22.000000,-30.000000,-34.000000,-1.000000,-7.000000,-8.000000
1294739.782378,19.000000,36.000000,57.000000,7.000000,20.000000,20.000000,6.000000,7.000000
1294739.782388,-13.000000,-13.000000,-5.000000,-13.000000,19.000000,-3.000000,-35.000000,-19.000000
1294739.835294,-2.000000,-3.000000,-11.000000,21.000000,23.000000,17.000000,15.000000,2.000000
1294739.835304,-6.000000,-6.000000,1.000000,30.000000,38.000000,1.000000,-8.000000,-3.000000
1294739.850115,11.000000,12.000000,19.000000,18.000000,26.000000,14.000000,24.000000,6.000000
1294739.850126,-1.000000,-2.000000,-13.000000,11.000000,2.000000,-4.000000,-10.000000,-5.000000
1294739.865739,-5.000000,0.000000,6.000000,-7.000000,-20.000000,-19.000000,-13.000000,-6.000000
1294739.865768,-1.000000,1.000000,-4.000000,-11.000000,-9.000000,0.000000,-5.000000,-3.000000
1294739.873226,-3.000000,-5.000000,4.000000,18.000000,18.000000,4.000000,-8.000000,1.000000
1294739.873236,-14.000000,-9.000000,-23.000000,-3.000000,0.000000,-26.000000,-53.000000,-31.000000
1294739.895611,-1.000000,5.000000,1.000000,33.000000,34.000000,-1.000000,-18.000000,-8.000000
1294739.895633,-27.000000,-26.000000,-30.000000,5.000000,22.000000,-14.000000,-73.000000,-34.000000
1294739.896190,1.000000,2.000000,-8.000000,-11.000000,-8.000000,-11.000000,0.000000,7.000000
1294739.896211,-13.000000,-12.000000,-11.000000,-6.000000,4.000000,-7.000000,-23.000000,-8.000000
1294739.897574,-6.000000,-12.000000,-5.000000,-4.000000,-35.000000,2.000000,-41.000000,-4.000000
1294739.897664,7.000000,26.000000,4.000000,1.000000,-14.000000,12.000000,56.000000,7.000000
1294739.898183,-4.000000,-9.000000,13.000000,18.000000,26.000000,-10.000000,-22.000000,-5.000000
1294739.898191,7.000000,15.000000,25.000000,-4.000000,-12.000000,0.000000,-8.000000,-3.000000
1294739.898958,-7.000000,-12.000000,-7.000000,-4.000000,6.000000,-2.000000,-9.000000,-5.000000
1294739.898966,-5.000000,6.000000,7.000000,-9.000000,-17.000000,7.000000,-8.000000,0.000000
1294739.902315,21.000000,9.000000,14.000000,27.000000,27.000000,18.000000,10.000000,6.000000
1294739.902325,-13.000000,-18.000000,-16.000000,3.000000,-1.000000,-14.000000,-31.000000,-12.000000
1294739.910300,4.000000,22.000000,15.000000,-18.000000,-12.000000,-3.000000,-4.000000,-9.000000
1294739.910310,7.000000,-3.000000,-2.000000,-13.000000,-11.000000,6.000000,24.000000,22.000000
1294739.917864,-14.000000,-10.000000,-9.000000,15.000000,26.000000,-10.000000,-29.000000,-5.000000
1294739.917874,-8.000000,-21.000000,-14.000000,-8.000000,-4.000000,0.000000,-15.000000,-29.000000
1294739.962871,5.000000,2.000000,13.000000,-10.000000,-35.000000,23.000000,48.000000,8.000000
1294739.962881,20.000000,24.000000,11.000000,58.000000,69.000000,14.000000,12.000000,26.000000
1294739.977613,-15.000000,-24.000000,-20.000000,-11.000000,-9.000000,-19.000000,-30.000000,-17.000000
1294739.977623,-6.000000,-7.000000,-1.000000,-12.000000,-6.000000,-4.000000,-12.000000,-7.000000
1294740.023353,-10.000000,-1.000000,-9.000000,-14.000000,-8.000000,-14.000000,3.000000,-6.000000
1294740.023380,2.000000,-14.000000,-19.000000,3.000000,19.000000,5.000000,1.000000,-1.000000
1294740.030136,-9.000000,-6.000000,-3.000000,9.000000,7.000000,-7.000000,-68.000000,-14.000000
1294740.030146,1.000000,9.000000,16.000000,-12.000000,-8.000000,2.000000,35.000000,-3.000000
1294740.052684,-9.000000,-13.000000,0.000000,20.000000,31.000000,-3.000000,-12.000000,-1.000000
1294740.052693,14.000000,-1.000000,-11.000000,-25.000000,-24.000000,12.000000,-6.000000,2.000000
1294740.075337,17.000000,24.000000,23.000000,17.000000,22.000000,-4.000000,71.000000,33.000000
1294740.075347,-17.000000,-19.000000,-9.000000,-4.000000,1.000000,-11.000000,-14.000000,-16.000000
1294740.097870,-1.000000,-7.000000,-12.000000,-4.000000,17.000000,20.000000,23.000000,20.000000
1294740.097881,-4.000000,9.000000,-5.000000,-14.000000,-9.000000,-7.000000,-28.000000,-24.000000
1294740.127727,-9.000000,-14.000000,5.000000,29.000000,54.000000,0.000000,-41.000000,-14.000000
1294740.127737,-3.000000,11.000000,7.000000,-19.000000,-42.000000,-4.000000,12.000000,-1.000000
1294740.134900,0.000000,-11.000000,-19.000000,6.000000,23.000000,6.000000,53.000000,19.000000
1294740.134909,-6.000000,20.000000,25.000000,-10.000000,-21.000000,-3.000000,-31.000000,-9.000000
1294740.137438,4.000000,-7.000000,-9.000000,-1.000000,30.000000,5.000000,18.000000,23.000000
1294740.137446,-9.000000,15.000000,21.000000,3.000000,-9.000000,-10.000000,-25.000000,-13.000000
1294740.150362,-3.000000,15.000000,23.000000,-11.000000,4.000000,-3.000000,-7.000000,-3.000000
1294740.150394,2.000000,3.000000,-13.000000,20.000000,33.000000,1.000000,9.000000,8.000000
1294740.151198,-13.000000,-13.000000,-5.000000,20.000000,35.000000,7.000000,-33.000000,-15.000000
1294740.151205,6.000000,7.000000,16.000000,-3.000000,-24.000000,0.000000,33.000000,6.000000
1294740.180181,3.000000,-6.000000,-16.000000,-10.000000,-7.000000,-6.000000,10.000000,16.000000
1294740.180205,1.000000,8.000000,-2.000000,-6.000000,-7.000000,-6.000000,-14.000000,-1.000000
1294740.217809,-3.000000,-13.000000,-9.000000,-5.000000,0.000000,-16.000000,-10.000000,-3.000000
1294740.217831,1.000000,10.000000,7.000000,-14.000000,-45.000000,4.000000,14.000000,-8.000000
1294740.240712,10.000000,14.000000,11.000000,17.000000,13.000000,11.000000,10.000000,13.000000
1294740.240722,-3.000000,3.000000,-3.000000,-1.000000,9.000000,-8.000000,13.000000,0.000000
1294740.255197,-12.000000,-27.000000,-25.000000,-20.000000,-19.000000,-20.000000,-2.000000,-4.000000
1294740.255209,-4.000000,44.000000,51.000000,-20.000000,-36.000000,-2.000000,-16.000000,-9.000000
1294740.256340,4.000000,5.000000,2.000000,8.000000,4.000000,1.000000,-45.000000,-15.000000
1294740.256354,9.000000,1.000000,3.000000,-8.000000,-8.000000,4.000000,42.000000,13.000000
1294740.257214,-4.000000,-13.000000,-12.000000,-15.000000,-7.000000,-9.000000,-16.000000,3.000000
1294740.257225,-15.000000,-5.000000,-9.000000,-5.000000,7.000000,-6.000000,-40.000000,-21.000000
1294740.258603,-10.000000,-7.000000,8.000000,17.000000,30.000000,5.000000,1.000000,-5.000000
1294740.258614,-6.000000,-2.000000,-7.000000,-2.000000,20.000000,-12.000000,-32.000000,-7.000000
1294740.263312,8.000000,-4.000000,3.000000,-17.000000,-15.000000,23.000000,36.000000,7.000000
1294740.263327,1.000000,2.000000,-11.000000,5.000000,23.000000,6.000000,18.000000,8.000000
1294740.277559,-12.000000,-3.000000,26.000000,13.000000,13.000000,-10.000000,-20.000000,-12.000000
1294740.277569,1.000000,7.000000,4.000000,17.000000,15.000000,10.000000,5.000000,4.000000
1294740.308074,1.000000,2.000000,-5.000000,-9.000000,5.000000,-6.000000,0.000000,-1.000000
1294740.308103,-8.000000,-19.000000,-8.000000,-4.000000,-9.000000,-8.000000,-14.000000,-12.000000
1294740.315364,-3.000000,13.000000,13.000000,26.000000,34.000000,11.000000,-15.000000,-9.000000
1294740.315383,0.000000,-7.000000,-8.000000,-21.000000,-47.000000,-13.000000,-15.000000,-3.000000
1294740.337652,10.000000,8.000000,16.000000,50.000000,84.000000,45.000000,44.000000,20.000000
1294740.337661,-10.000000,-24.000000,-20.000000,23.000000,36.000000,-3.000000,-24.000000,-9.000000
1294740.353073,-4.000000,22.000000,10.000000,-20.000000,-11.000000,-21.000000,24.000000,-7.000000
1294740.353103,3.000000,-6.000000,11.000000,-3.000000,-59.000000,-27.000000,-9.000000,2.000000
1294740.375212,-18.000000,-26.000000,-34.000000,-3.000000,3.000000,-9.000000,-42.000000,-27.000000
1294740.375265,16.000000,32.000000,35.000000,-11.000000,-32.000000,19.000000,73.000000,44.000000
1294740.375641,12.000000,3.000000,-15.000000,7.000000,-14.000000,-19.000000,-18.000000,10.000000
1294740.375649,-6.000000,-3.000000,17.000000,29.000000,45.000000,23.000000,-16.000000,-4.000000
1294740.377138,20.000000,15.000000,7.000000,24.000000,13.000000,26.000000,81.000000,28.000000
1294740.377166,-3.000000,-4.000000,-5.000000,-16.000000,-7.000000,-11.000000,-56.000000,-18.000000
1294740.378285,17.000000,17.000000,-1.000000,9.000000,-37.000000,-1.000000,48.000000,14.000000
1294740.378309,-14.000000,-22.000000,-4.000000,11.000000,6.000000,-15.000000,-28.000000,-20.000000
1294740.379076,-7.000000,-15.000000,2.000000,-17.000000,-23.000000,-9.000000,-33.000000,-12.000000
1294740.379085,2.000000,-11.000000,-12.000000,50.000000,99.000000,36.000000,49.000000,-6.000000
1294740.405252,14.000000,23.000000,4.000000,-1.000000,1.000000,1.000000,18.000000,13.000000
1294740.405281,-9.000000,-9.000000,-12.000000,-5.000000,-2.000000,-14.000000,-8.000000,4.000000
1294740.412695,-7.000000,-17.000000,-6.000000,-12.000000,-12.000000,8.000000,-5.000000,-10.000000
1294740.412706,-10.000000,-15.000000,-8.000000,-11.000000,-16.000000,-7.000000,-10.000000,-10.000000
1294740.427594,-2.000000,11.000000,15.000000,11.000000,18.000000,-3.000000,-17.000000,-10.000000
1294740.427605,-22.000000,-27.000000,-28.000000,-12.000000,-29.000000,-14.000000,-50.000000,-15.000000
1294740.428046,25.000000,15.000000,11.000000,-21.000000,-36.000000,8.000000,31.000000,17.000000
1294740.428055,7.000000,-12.000000,1.000000,40.000000,63.000000,25.000000,13.000000,10.000000
1294740.429759,9.000000,15.000000,5.000000,-4.000000,4.000000,-1.000000,32.000000,9.000000
1294740.429768,-10.000000,-7.000000,-13.000000,-9.000000,-20.000000,-29.000000,-40.000000,-11.000000
1294740.457971,-25.000000,-19.000000,-15.000000,-23.000000,-28.000000,-13.000000,-36.000000,-28.000000
1294740.457981,17.000000,4.000000,18.000000,-12.000000,-35.000000,9.000000,53.000000,14.000000
1294740.495409,11.000000,19.000000,3.000000,15.000000,7.000000,8.000000,-12.000000,9.000000
1294740.495423,4.000000,-9.000000,-10.000000,-9.000000,-1.000000,-3.000000,35.000000,13.000000
1294740.495945,-3.000000,-4.000000,1.000000,-3.000000,-15.000000,-20.000000,-6.000000,8.000000
1294740.495955,-11.000000,-5.000000,-11.000000,4.000000,20.000000,-1.000000,-6.000000,-14.000000
1294740.497023,-10.000000,-6.000000,-6.000000,-2.000000,2.000000,3.000000,-33.000000,-15.000000
1294740.497033,17.000000,31.000000,27.000000,72.000000,80.000000,36.000000,39.000000,11.000000
1294740.497535,4.000000,5.000000,-3.000000,17.000000,46.000000,10.000000,10.000000,15.000000
1294740.497546,-1.000000,-10.000000,-15.000000,-3.000000,-14.000000,-5.000000,-4.000000,-7.000000
1294740.499098,-5.000000,2.000000,12.000000,-28.000000,-20.000000,-6.000000,-3.000000,-2.000000
1294740.499109,-13.000000,-8.000000,-5.000000,-5.000000,1.000000,-13.000000,-32.000000,-11.000000
1294740.555360,-6.000000,-1.000000,-2.000000,6.000000,5.000000,0.000000,-6.000000,-5.000000
1294740.555389,5.000000,5.000000,0.000000,-6.000000,-12.000000,-10.000000,-9.000000,7.000000
1294740.577997,-8.000000,13.000000,1.000000,-8.000000,-6.000000,-14.000000,-29.000000,-12.000000
1294740.578010,-12.000000,-31.000000,3.000000,-24.000000,-20.000000,-3.000000,13.000000,-8.000000
1294740.585913,12.000000,35.000000,-8.000000,-6.000000,-29.000000,0.000000,-5.000000,5.000000
1294740.585925,-4.000000,-4.000000,7.000000,-8.000000,10.000000,2.000000,18.000000,-8.000000
1294740.586361,1.000000,13.000000,15.000000,10.000000,24.000000,-8.000000,-13.000000,10.000000
1294740.586377,1.000000,9.000000,18.000000,-23.000000,-30.000000,-4.000000,20.000000,-6.000000
1294740.588223,-1.000000,-25.000000,-20.000000,-13.000000,-7.000000,-19.000000,-22.000000,-11.000000
1294740.588236,-8.000000,-3.000000,0.000000,2.000000,14.000000,3.000000,-8.000000,-3.000000
1294740.607800,-4.000000,-2.000000,-2.000000,-7.000000,-4.000000,-1.000000,16.000000,3.000000
1294740.607821,-15.000000,-27.000000,-27.000000,-9.000000,-1.000000,-20.000000,-46.000000,-14.000000
1294740.615299,-8.000000,-6.000000,-11.000000,21.000000,3.000000,-5.000000,-9.000000,0.000000
1294740.615308,-5.000000,-11.000000,0.000000,-48.000000,-69.000000,-11.000000,-10.000000,-9.000000
1294740.630793,8.000000,-1.000000,3.000000,19.000000,31.000000,18.000000,5.000000,6.000000
1294740.630827,-3.000000,-17.000000,-13.000000,-9.000000,-3.000000,-7.000000,1.000000,-1.000000
1294740.631366,-2.000000,11.000000,-2.000000,-1.000000,2.000000,-8.000000,-25.000000,-12.000000
1294740.631374,0.000000,-4.000000,-10.000000,-17.000000,-25.000000,-5.000000,34.000000,14.000000
1294740.652574,-9.000000,-19.000000,6.000000,18.000000,15.000000,-3.000000,-24.000000,-3.000000
1294740.652584,16.000000,20.000000,-3.000000,7.000000,16.000000,1.000000,-9.000000,4.000000
1294740.682932,-3.000000,19.000000,35.000000,-14.000000,-18.000000,0.000000,41.000000,-16.000000
1294740.682942,12.000000,2.000000,9.000000,13.000000,-23.000000,0.000000,7.000000,27.000000
1294740.697523,-6.000000,0.000000,-4.000000,34.000000,51.000000,15.000000,-11.000000,-7.000000
1294740.697532,-2.000000,-13.000000,-10.000000,4.000000,12.000000,1.000000,-6.000000,7.000000
1294740.705130,-6.000000,21.000000,7.000000,-18.000000,-11.000000,-20.000000,-41.000000,-8.000000
1294740.705146,3.000000,5.000000,4.000000,-9.000000,13.000000,-3.000000,-3.000000,1.000000
1294740.735339,6.000000,10.000000,3.000000,1.000000,-29.000000,0.000000,3.000000,4.000000
1294740.735360,-8.000000,5.000000,-15.000000,-18.000000,-10.000000,-10.000000,-9.000000,-7.000000
1294740.742851,0.000000,3.000000,5.000000,13.000000,13.000000,-1.000000,-2.000000,-4.000000
1294740.742871,-11.000000,-16.000000,-12.000000,-13.000000,-8.000000,-4.000000,17.000000,-12.000000
1294740.743717,-2.000000,7.000000,5.000000,-1.000000,18.000000,-3.000000,-1.000000,-11.000000
1294740.743737,1.000000,-5.000000,-1.000000,-3.000000,-1.000000,4.000000,-3.000000,11.000000
1294740.744351,5.000000,6.000000,13.000000,16.000000,31.000000,0.000000,-8.000000,-5.000000
1294740.744372,2.000000,-5.000000,-1.000000,21.000000,5.000000,3.000000,4.000000,6.000000
1294740.772853,-25.000000,-32.000000,-31.000000,-18.000000,-6.000000,-17.000000,-48.000000,-21.000000
1294740.772865,5.000000,14.000000,9.000000,-18.000000,-20.000000,-5.000000,18.000000,-5.000000
1294740.817999,11.000000,2.000000,6.000000,15.000000,16.000000,6.000000,19.000000,6.000000
1294740.818011,-17.000000,-6.000000,21.000000,3.000000,13.000000,-11.000000,-31.000000,-23.000000
1294740.832630,4.000000,4.000000,-4.000000,-21.000000,-29.000000,-10.000000,-14.000000,1.000000
1294740.832640,7.000000,12.000000,9.000000,16.000000,46.000000,17.000000,50.000000,17.000000
1294740.855608,7.000000,-9.000000,-11.000000,-3.000000,1.000000,-5.000000,-9.000000,4.000000
1294740.855620,-18.000000,-3.000000,-8.000000,-4.000000,7.000000,-21.000000,-71.000000,-33.000000
1294740.856435,13.000000,10.000000,23.000000,21.000000,13.000000,21.000000,42.000000,9.000000
1294740.856446,4.000000,-1.000000,-5.000000,20.000000,24.000000,8.000000,9.000000,2.000000
1294740.857503,2.000000,-4.000000,3.000000,-3.000000,3.000000,-15.000000,-12.000000,-1.000000
1294740.857513,-1.000000,-3.000000,-7.000000,-8.000000,-25.000000,-2.000000,-6.000000,0.000000
1294740.858208,-15.000000,-5.000000,-14.000000,-13.000000,-13.000000,-9.000000,-12.000000,-8.000000
1294740.858218,-11.000000,-8.000000,-8.000000,-15.000000,-27.000000,-12.000000,-17.000000,-16.000000
1294740.863306,1.000000,5.000000,6.000000,10.000000,17.000000,-2.000000,-6.000000,9.000000
1294740.863317,0.000000,-17.000000,-33.000000,-12.000000,-23.000000,0.000000,7.000000,0.000000
1294740.885270,8.000000,14.000000,31.000000,3.000000,-31.000000,-1.000000,-10.000000,3.000000
1294740.885281,-7.000000,-4.000000,-14.000000,0.000000,-8.000000,0.000000,33.000000,5.000000
1294740.907911,-1.000000,-14.000000,-7.000000,3.000000,14.000000,-7.000000,-12.000000,1.000000
1294740.907922,5.000000,-15.000000,-2.000000,-5.000000,8.000000,19.000000,33.000000,15.000000
1294740.945069,-1.000000,-4.000000,-16.000000,-4.000000,13.000000,11.000000,-2.000000,-6.000000
1294740.945084,-7.000000,-3.000000,9.000000,4.000000,1.000000,0.000000,0.000000,-7.000000
1294740.946117,-5.000000,-10.000000,-14.000000,-9.000000,-21.000000,-19.000000,-20.000000,-5.000000
1294740.946126,-7.000000,-12.000000,-6.000000,-14.000000,-28.000000,12.000000,-22.000000,-11.000000
1294740.946696,12.000000,7.000000,3.000000,3.000000,2.000000,13.000000,65.000000,26.000000
1294740.946704,4.000000,-12.000000,-4.000000,-4.000000,-12.000000,-15.000000,-19.000000,-5.000000
1294740.948013,-5.000000,-10.000000,-14.000000,-20.000000,-19.000000,-12.000000,-8.000000,-11.000000
1294740.948022,4.000000,4.000000,8.000000,26.000000,58.000000,24.000000,-2.000000,13.000000
1294740.967748,-5.000000,-1.000000,-9.000000,-1.000000,-16.000000,-2.000000,-8.000000,-10.000000
1294740.967760,-6.000000,1.000000,21.000000,-10.000000,-12.000000,-22.000000,24.000000,-2.000000
1294740.975314,-2.000000,13.000000,6.000000,-11.000000,-9.000000,0.000000,-6.000000,-18.000000
1294740.975332,4.000000,3.000000,11.000000,28.000000,56.000000,15.000000,20.000000,10.000000
1294740.983074,-8.000000,-21.000000,-26.000000,-26.000000,-49.000000,-20.000000,-15.000000,-3.000000
1294740.983084,-4.000000,17.000000,21.000000,7.000000,-6.000000,-9.000000,-12.000000,-9.000000
1294740.983636,-3.000000,15.000000,5.000000,7.000000,-5.000000,2.000000,5.000000,-4.000000
1294740.983646,10.000000,1.000000,-6.000000,13.000000,-7.000000,24.000000,41.000000,33.000000
1294740.985129,2.000000,3.000000,3.000000,4.000000,12.000000,-7.000000,8.000000,-8.000000
1294740.985138,0.000000,-7.000000,4.000000,7.000000,34.000000,2.000000,-30.000000,-4.000000
1294741.005453,-3.000000,-12.000000,-19.000000,-18.000000,-20.000000,-6.000000,0.000000,-6.000000
1294741.005464,-4.000000,-6.000000,1.000000,-6.000000,-4.000000,0.000000,-4.000000,-8.000000
1294741.020062,-9.000000,7.000000,3.000000,10.000000,14.000000,1.000000,-5.000000,-4.000000
1294741.020073,-3.000000,-8.000000,7.000000,-10.000000,-35.000000,-3.000000,-17.000000,-10.000000
1294741.035251,11.000000,11.000000,-8.000000,-17.000000,-11.000000,1.000000,10.000000,11.000000
1294741.035261,-7.000000,-13.000000,-23.000000,13.000000,41.000000,5.000000,-17.000000,-7.000000
1294741.088014,-9.000000,1.000000,-7.000000,1.000000,10.000000,-8.000000,6.000000,-5.000000
1294741.088070,-3.000000,1.000000,0.000000,-14.000000,-11.000000,5.000000,-14.000000,-11.000000
1294741.088489,-4.000000,-8.000000,-3.000000,12.000000,27.000000,12.000000,30.000000,3.000000
1294741.088497,-7.000000,-15.000000,-15.000000,1.000000,28.000000,10.000000,-3.000000,0.000000
1294741.089734,12.000000,14.000000,-3.000000,-5.000000,-28.000000,-23.000000,-22.000000,4.000000
1294741.089765,-5.000000,-2.000000,-11.000000,-2.000000,8.000000,6.000000,-13.000000,-4.000000
1294741.090374,-8.000000,-12.000000,2.000000,13.000000,24.000000,-10.000000,-4.000000,2.000000
1294741.090382,20.000000,16.000000,25.000000,4.000000,-55.000000,25.000000,31.000000,9.000000
1294741.091879,-9.000000,16.000000,4.000000,-11.000000,-18.000000,-5.000000,-49.000000,-14.000000
1294741.091890,4.000000,-2.000000,-8.000000,12.000000,33.000000,19.000000,26.000000,6.000000
1294741.110723,-4.000000,-7.000000,-19.000000,-6.000000,4.000000,-6.000000,-19.000000,-10.000000
1294741.110733,5.000000,8.000000,20.000000,11.000000,2.000000,3.000000,37.000000,8.000000
1294741.140381,-18.000000,-6.000000,7.000000,-2.000000,5.000000,-14.000000,-54.000000,-17.000000
1294741.140392,7.000000,-18.000000,-2.000000,-8.000000,-27.000000,12.000000,-1.000000,-5.000000
1294741.162605,14.000000,21.000000,21.000000,27.000000,22.000000,21.000000,44.000000,9.000000
1294741.162616,-6.000000,-14.000000,-8.000000,-6.000000,-1.000000,-8.000000,-30.000000,-9.000000
1294741.200178,-13.000000,-16.000000,-8.000000,-3.000000,-12.000000,-11.000000,-7.000000,-10.000000
1294741.200202,-3.000000,12.000000,3.000000,7.000000,-5.000000,1.000000,-28.000000,0.000000
1294741.207807,-8.000000,-17.000000,-11.000000,-13.000000,-13.000000,-8.000000,-41.000000,-17.000000
1294741.207914,9.000000,6.000000,12.000000,9.000000,19.000000,6.000000,48.000000,13.000000
1294741.208674,-3.000000,4.000000,17.000000,16.000000,11.000000,1.000000,-25.000000,-13.000000
1294741.208682,-23.000000,-26.000000,-32.000000,-15.000000,-24.000000,-12.000000,-61.000000,-29.000000
1294741.210928,-5.000000,-9.000000,-24.000000,-21.000000,-21.000000,-27.000000,-23.000000,-11.000000
1294741.210937,8.000000,-1.000000,-1.000000,5.000000,-9.000000,14.000000,34.000000,18.000000
1294741.222832,2.000000,-1.000000,1.000000,5.000000,-19.000000,4.000000,27.000000,7.000000
1294741.222847,-6.000000,-10.000000,-19.000000,-9.000000,3.000000,-9.000000,-25.000000,-12.000000
1294741.252552,-13.000000,-7.000000,-3.000000,1.000000,-2.000000,-7.000000,-11.000000,-18.000000
1294741.252562,-17.000000,-21.000000,-17.000000,-12.000000,-26.000000,-5.000000,-7.000000,-13.000000
1294741.260325,23.000000,23.000000,32.000000,24.000000,28.000000,31.000000,51.000000,37.000000
1294741.260361,-4.000000,-3.000000,-3.000000,-6.000000,-10.000000,1.000000,-11.000000,-9.000000
1294741.290239,1.000000,15.000000,-1.000000,-9.000000,-48.000000,-8.000000,14.000000,13.000000
1294741.290249,-2.000000,7.000000,15.000000,-15.000000,-10.000000,-7.000000,-14.000000,-3.000000
1294741.297741,-8.000000,-9.000000,-6.000000,6.000000,15.000000,5.000000,-30.000000,-5.000000
1294741.297757,-10.000000,7.000000,6.000000,-16.000000,-9.000000,-10.000000,-6.000000,-5.000000
1294741.312664,0.000000,-7.000000,-9.000000,8.000000,3.000000,-1.000000,-8.000000,-9.000000
1294741.312681,-4.000000,-21.000000,-3.000000,-2.000000,0.000000,-16.000000,1.000000,-6.000000
1294741.327925,10.000000,12.000000,23.000000,-48.000000,-71.000000,-8.000000,9.000000,13.000000
1294741.327935,-16.000000,-10.000000,-4.000000,7.000000,12.000000,-12.000000,-19.000000,-17.000000
1294741.387692,3.000000,-7.000000,1.000000,35.000000,44.000000,9.000000,30.000000,9.000000
1294741.387703,2.000000,-4.000000,-4.000000,3.000000,-7.000000,-5.000000,-22.000000,-5.000000
1294741.410233,-16.000000,-10.000000,-16.000000,-5.000000,-4.000000,-16.000000,-79.000000,-35.000000
1294741.410259,-4.000000,9.000000,25.000000,-7.000000,8.000000,8.000000,21.000000,1.000000
1294741.440114,-10.000000,-6.000000,-4.000000,-13.000000,-7.000000,-10.000000,16.000000,-3.000000
1294741.440194,-10.000000,-25.000000,-7.000000,-8.000000,-4.000000,-7.000000,-20.000000,-6.000000
1294741.440695,-1.000000,-20.000000,-7.000000,-10.000000,3.000000,-10.000000,-11.000000,0.000000
1294741.440703,2.000000,21.000000,18.000000,24.000000,33.000000,17.000000,3.000000,-12.000000
1294741.441875,-4.000000,-7.000000,1.000000,13.000000,22.000000,3.000000,27.000000,2.000000
1294741.441885,-2.000000,1.000000,4.000000,17.000000,17.000000,-3.000000,-19.000000,-15.000000
1294741.443251,0.000000,0.000000,4.000000,19.000000,-6.000000,6.000000,14.000000,10.000000
1294741.443260,0.000000,-11.000000,-10.000000,-21.000000,-35.000000,-13.000000,-12.000000,6.000000
1294741.447759,13.000000,14.000000,-20.000000,-9.000000,-8.000000,1.000000,30.000000,25.000000
1294741.447778,-8.000000,-6.000000,-6.000000,-16.000000,-18.000000,-10.000000,-3.000000,-3.000000
1294741.462689,-2.000000,-14.000000,1.000000,-8.000000,-43.000000,4.000000,0.000000,3.000000
1294741.462717,-7.000000,16.000000,16.000000,-1.000000,-8.000000,0.000000,5.000000,-6.000000
1294741.485153,-2.000000,-14.000000,0.000000,-7.000000,4.000000,-5.000000,-13.000000,-5.000000
1294741.485176,-5.000000,-6.000000,-6.000000,0.000000,-5.000000,-11.000000,-39.000000,-16.000000
1294741.500367,-6.000000,-12.000000,-5.000000,-18.000000,-28.000000,-10.000000,19.000000,2.000000
1294741.500384,7.000000,6.000000,2.000000,15.000000,7.000000,16.000000,44.000000,15.000000
1294741.530295,9.000000,46.000000,40.000000,-8.000000,-14.000000,-7.000000,3.000000,7.000000
1294741.530307,-5.000000,-1.000000,-1.000000,-22.000000,-36.000000,-18.000000,-37.000000,-11.000000
1294741.530839,-15.000000,-11.000000,-14.000000,-8.000000,8.000000,-12.000000,20.000000,-15.000000
1294741.530849,5.000000,12.000000,-13.000000,3.000000,-45.000000,9.000000,3.000000,12.000000
1294741.531889,15.000000,15.000000,23.000000,-5.000000,-16.000000,3.000000,6.000000,1.000000
1294741.531899,-10.000000,-20.000000,-4.000000,-4.000000,-5.000000,-10.000000,0.000000,2.000000
1294741.532580,-11.000000,-24.000000,-15.000000,-8.000000,-6.000000,-23.000000,-40.000000,-22.000000
1294741.532590,-8.000000,-7.000000,2.000000,-20.000000,-61.000000,-6.000000,7.000000,3.000000
1294741.537538,-15.000000,-21.000000,-11.000000,-13.000000,-4.000000,-6.000000,-23.000000,-21.000000
1294741.537555,-5.000000,17.000000,9.000000,15.000000,21.000000,10.000000,-4.000000,1.000000
1294741.560189,6.000000,-24.000000,-14.000000,-8.000000,2.000000,8.000000,32.000000,1.000000
1294741.560198,-10.000000,-14.000000,-5.000000,10.000000,18.000000,-9.000000,-21.000000,4.000000
1294741.560648,-15.000000,-11.000000,-7.000000,-17.000000,-24.000000,-15.000000,17.000000,-6.000000
1294741.560656,6.000000,7.000000,5.000000,14.000000,55.000000,19.000000,-21.000000,6.000000
1294741.567924,20.000000,26.000000,29.000000,29.000000,-10.000000,18.000000,50.000000,15.000000
1294741.567934,-9.000000,-17.000000,-25.000000,-8.000000,-7.000000,-14.000000,-16.000000,-20.000000
1294741.575517,-5.000000,-10.000000,-1.000000,-1.000000,6.000000,3.000000,-24.000000,-8.000000
1294741.575544,2.000000,11.000000,10.000000,-6.000000,-11.000000,10.000000,15.000000,6.000000
1294741.627696,-1.000000,-7.000000,1.000000,12.000000,18.000000,12.000000,-7.000000,-4.000000
1294741.627709,-4.000000,-8.000000,-14.000000,-7.000000,-3.000000,-16.000000,-25.000000,-6.000000
1294741.650335,7.000000,25.000000,36.000000,2.000000,-1.000000,5.000000,31.000000,16.000000
1294741.650346,7.000000,-15.000000,-3.000000,11.000000,9.000000,3.000000,-16.000000,4.000000
1294741.651254,-2.000000,-15.000000,0.000000,-6.000000,-12.000000,-16.000000,-11.000000,-2.000000
1294741.651262,-3.000000,27.000000,18.000000,15.000000,12.000000,8.000000,-17.000000,-7.000000
1294741.651804,-9.000000,-20.000000,-12.000000,-2.000000,-7.000000,-8.000000,-10.000000,-12.000000
1294741.651812,1.000000,10.000000,7.000000,-9.000000,4.000000,30.000000,-4.000000,-2.000000
1294741.653148,6.000000,4.000000,-10.000000,-4.000000,2.000000,1.000000,37.000000,19.000000
1294741.653156,3.000000,1.000000,25.000000,3.000000,-17.000000,-17.000000,-8.000000,1.000000
1294741.665194,6.000000,-3.000000,23.000000,8.000000,19.000000,-4.000000,-14.000000,13.000000
1294741.665223,3.000000,2.000000,-10.000000,-10.000000,-23.000000,-3.000000,-9.000000,-10.000000
1294741.687549,-8.000000,-9.000000,-2.000000,-1.000000,2.000000,-1.000000,-22.000000,-12.000000
1294741.687560,-7.000000,-12.000000,-18.000000,-12.000000,-14.000000,-11.000000,-23.000000,-6.000000
1294741.688022,-3.000000,1.000000,-4.000000,-12.000000,-15.000000,-10.000000,-5.000000,-7.000000
1294741.688031,-6.000000,-1.000000,-3.000000,0.000000,-2.000000,-17.000000,-37.000000,-14.000000
1294741.689512,-9.000000,-9.000000,-4.000000,-2.000000,2.000000,2.000000,-21.000000,-18.000000
1294741.689565,22.000000,19.000000,16.000000,63.000000,55.000000,33.000000,40.000000,20.000000
1294741.695413,-6.000000,-4.000000,-6.000000,-2.000000,-18.000000,-8.000000,-11.000000,-6.000000
1294741.695424,-3.000000,0.000000,-1.000000,-7.000000,9.000000,-7.000000,-21.000000,-1.000000
1294741.763210,-8.000000,15.000000,5.000000,1.000000,-2.000000,-1.000000,7.000000,-22.000000
1294741.763220,12.000000,23.000000,9.000000,0.000000,2.000000,1.000000,-3.000000,7.000000
1294741.777849,5.000000,4.000000,1.000000,3.000000,7.000000,5.000000,11.000000,10.000000
1294741.777868,-6.000000,-11.000000,3.000000,-11.000000,-25.000000,-5.000000,-28.000000,4.000000
1294741.793047,14.000000,8.000000,-8.000000,-17.000000,-12.000000,9.000000,70.000000,19.000000
1294741.793057,-6.000000,-11.000000,9.000000,-4.000000,-27.000000,14.000000,11.000000,1.000000
1294741.800389,0.000000,23.000000,1.000000,2.000000,13.000000,-11.000000,-4.000000,-1.000000
1294741.800401,-16.000000,-24.000000,-29.000000,-21.000000,-6.000000,-22.000000,-46.000000,-28.000000
1294741.801249,2.000000,7.000000,1.000000,-2.000000,-16.000000,10.000000,-3.000000,-6.000000
1294741.801257,8.000000,-16.000000,-9.000000,-6.000000,-5.000000,5.000000,31.000000,16.000000
1294741.801782,-10.000000,-13.000000,-10.000000,-6.000000,20.000000,-7.000000,-28.000000,-7.000000
1294741.801790,-15.000000,-24.000000,-22.000000,-19.000000,-15.000000,-7.000000,-63.000000,-26.000000
1294741.802486,23.000000,29.000000,14.000000,23.000000,-20.000000,39.000000,93.000000,14.000000
1294741.802494,-5.000000,-12.000000,-11.000000,-2.000000,5.000000,-10.000000,-10.000000,7.000000
1294741.807705,-7.000000,2.000000,33.000000,-2.000000,-1.000000,-18.000000,-26.000000,-13.000000
1294741.807715,-2.000000,-8.000000,-18.000000,0.000000,-6.000000,-8.000000,-22.000000,-3.000000
1294741.815014,-5.000000,9.000000,9.000000,19.000000,13.000000,20.000000,-5.000000,-3.000000
1294741.815023,6.000000,12.000000,8.000000,-10.000000,-4.000000,-8.000000,14.000000,2.000000
1294741.845554,-4.000000,-7.000000,-3.000000,-1.000000,-12.000000,-9.000000,-3.000000,0.000000
1294741.845583,2.000000,26.000000,3.000000,0.000000,-13.000000,-2.000000,12.000000,-3.000000
1294741.852683,-6.000000,-2.000000,1.000000,-20.000000,-19.000000,-4.000000,-10.000000,-3.000000
1294741.852694,3.000000,-29.000000,-18.000000,9.000000,-1.000000,6.000000,-10.000000,-6.000000
1294741.853687,-3.000000,34.000000,29.000000,-15.000000,-8.000000,-8.000000,1.000000,-3.000000
1294741.853696,-8.000000,-14.000000,-10.000000,2.000000,7.000000,-8.000000,-28.000000,-4.000000
1294741.854713,-13.000000,-43.000000,-28.000000,12.000000,42.000000,7.000000,7.000000,-13.000000
1294741.854722,27.000000,46.000000,41.000000,-14.000000,-40.000000,23.000000,45.000000,37.000000
1294741.905570,3.000000,-9.000000,-15.000000,-11.000000,20.000000,-7.000000,4.000000,9.000000
1294741.905582,-13.000000,-14.000000,-13.000000,-5.000000,1.000000,-25.000000,-33.000000,-14.000000
1294741.920221,-10.000000,-25.000000,-9.000000,-12.000000,-24.000000,5.000000,-12.000000,-10.000000
1294741.920231,1.000000,22.000000,-2.000000,11.000000,20.000000,4.000000,-3.000000,-5.000000
1294741.950924,-3.000000,-28.000000,-16.000000,-21.000000,-20.000000,-11.000000,-12.000000,-1.000000
1294741.950955,-6.000000,-12.000000,-10.000000,13.000000,34.000000,21.000000,25.000000,-3.000000
1294741.972794,3.000000,14.000000,18.000000,35.000000,33.000000,6.000000,-5.000000,2.000000
1294741.972817,3.000000,-7.000000,0.000000,-3.000000,-2.000000,-4.000000,-29.000000,0.000000
1294741.980472,-7.000000,-12.000000,-12.000000,-20.000000,-12.000000,-18.000000,-11.000000,3.000000
1294741.980481,3.000000,5.000000,-2.000000,-14.000000,-49.000000,9.000000,44.000000,12.000000
1294741.995897,7.000000,17.000000,2.000000,14.000000,22.000000,3.000000,-15.000000,-8.000000
1294741.995926,-9.000000,-7.000000,-9.000000,-18.000000,-21.000000,-16.000000,-26.000000,-12.000000
1294741.996918,7.000000,-14.000000,-13.000000,24.000000,18.000000,18.000000,-1.000000,14.000000
1294741.996992,-14.000000,-9.000000,-2.000000,-25.000000,-21.000000,-9.000000,-19.000000,-4.000000
1294741.997907,9.000000,-8.000000,-6.000000,17.000000,31.000000,11.000000,42.000000,11.000000
1294741.997958,-3.000000,-3.000000,8.000000,2.000000,15.000000,2.000000,-12.000000,-8.000000
1294742.003281,-12.000000,-23.000000,-10.000000,-14.000000,-23.000000,-6.000000,-25.000000,-14.000000
1294742.003323,2.000000,14.000000,11.000000,-10.000000,-15.000000,6.000000,4.000000,-3.000000
1294742.025500,-9.000000,-23.000000,-40.000000,-10.000000,-11.000000,-8.000000,-6.000000,-8.000000
1294742.025513,6.000000,-11.000000,22.000000,24.000000,11.000000,19.000000,-5.000000,5.000000
1294742.033404,3.000000,-10.000000,-5.000000,7.000000,-29.000000,1.000000,-42.000000,-16.000000
1294742.033415,3.000000,-12.000000,-18.000000,2.000000,-15.000000,6.000000,0.000000,9.000000
1294742.040418,-16.000000,-19.000000,-11.000000,-12.000000,5.000000,-9.000000,-5.000000,-9.000000
1294742.040476,0.000000,28.000000,17.000000,0.000000,-7.000000,-15.000000,-35.000000,-8.000000
1294742.062600,4.000000,0.000000,-8.000000,-35.000000,-41.000000,-21.000000,11.000000,-2.000000
1294742.062610,7.000000,-18.000000,-18.000000,9.000000,21.000000,17.000000,36.000000,24.000000
1294742.077857,-5.000000,18.000000,13.000000,-2.000000,4.000000,-16.000000,-18.000000,-5.000000
1294742.077868,-13.000000,-21.000000,-21.000000,0.000000,-10.000000,-14.000000,-36.000000,-15.000000
1294742.092831,-17.000000,-17.000000,-18.000000,-18.000000,-14.000000,-8.000000,-43.000000,-20.000000
1294742.092842,24.000000,46.000000,32.000000,39.000000,2.000000,51.000000,82.000000,32.000000
1294742.100509,5.000000,-12.000000,-21.000000,-19.000000,-12.000000,-3.000000,19.000000,18.000000
1294742.100540,-13.000000,-21.000000,-13.000000,1.000000,15.000000,-13.000000,-33.000000,-16.000000
1294742.130228,-12.000000,-1.000000,0.000000,-10.000000,-25.000000,-3.000000,-13.000000,-11.000000
1294742.130238,9.000000,-1.000000,9.000000,8.000000,6.000000,1.000000,-9.000000,6.000000
1294742.160343,1.000000,2.000000,-5.000000,-12.000000,-10.000000,-6.000000,-16.000000,-3.000000
1294742.160401,1.000000,-4.000000,5.000000,-1.000000,-16.000000,-4.000000,6.000000,10.000000
1294742.161265,4.000000,-2.000000,-10.000000,34.000000,67.000000,18.000000,0.000000,5.000000
1294742.161279,-6.000000,11.000000,10.000000,-17.000000,-39.000000,-9.000000,-12.000000,5.000000
1294742.161845,-11.000000,-16.000000,-16.000000,24.000000,51.000000,2.000000,8.000000,-14.000000
1294742.161855,3.000000,17.000000,11.000000,-36.000000,-47.000000,-6.000000,5.000000,-10.000000
1294742.163134,-5.000000,-7.000000,13.000000,-5.000000,-6.000000,-10.000000,7.000000,-6.000000
1294742.163143,-18.000000,-9.000000,-14.000000,-9.000000,-6.000000,-17.000000,-18.000000,-2.000000
1294742.164000,-5.000000,-8.000000,-8.000000,-13.000000,-22.000000,2.000000,-19.000000,-4.000000
1294742.164009,22.000000,29.000000,27.000000,33.000000,45.000000,31.000000,31.000000,14.000000
1294742.182698,-11.000000,-11.000000,-4.000000,-19.000000,3.000000,1.000000,-33.000000,-25.000000
1294742.182723,1.000000,4.000000,14.000000,25.000000,53.000000,33.000000,34.000000,11.000000
1294742.183118,26.000000,20.000000,-4.000000,-10.000000,-18.000000,-3.000000,9.000000,27.000000
1294742.183127,4.000000,1.000000,12.000000,-10.000000,-24.000000,-6.000000,4.000000,8.000000
1294742.184588,-13.000000,-16.000000,-6.000000,-4.000000,7.000000,-5.000000,-47.000000,-17.000000
1294742.184610,5.000000,7.000000,12.000000,29.000000,2.000000,11.000000,61.000000,7.000000
1294742.197632,11.000000,-5.000000,-9.000000,-2.000000,3.000000,-2.000000,10.000000,25.000000
1294742.197642,-1.000000,5.000000,-4.000000,-3.000000,0.000000,-11.000000,-28.000000,-12.000000
1294742.220238,-7.000000,-7.000000,1.000000,3.000000,17.000000,12.000000,-24.000000,-9.000000
1294742.220249,-4.000000,5.000000,7.000000,-23.000000,-61.000000,3.000000,25.000000,2.000000
1294742.242790,5.000000,-3.000000,5.000000,22.000000,42.000000,3.000000,-20.000000,-4.000000
1294742.242800,3.000000,-3.000000,-7.000000,-26.000000,-31.000000,-9.000000,-15.000000,-1.000000
1294742.272777,-6.000000,-22.000000,-8.000000,-14.000000,-17.000000,-2.000000,0.000000,-5.000000
1294742.272788,0.000000,-7.000000,-6.000000,-11.000000,-9.000000,-1.000000,6.000000,1.000000
1294742.280566,-15.000000,-14.000000,-4.000000,5.000000,14.000000,-9.000000,-50.000000,-7.000000
1294742.280580,7.000000,8.000000,16.000000,-42.000000,-107.000000,6.000000,69.000000,13.000000
1294742.310564,17.000000,21.000000,-9.000000,20.000000,48.000000,7.000000,27.000000,30.000000
1294742.310600,-1.000000,8.000000,29.000000,-1.000000,1.000000,-16.000000,-42.000000,-13.000000
1294742.317958,-2.000000,11.000000,-13.000000,-3.000000,0.000000,2.000000,5.000000,-3.000000
1294742.317969,6.000000,16.000000,16.000000,-5.000000,-5.000000,-2.000000,-2.000000,8.000000
1294742.370381,-6.000000,-6.000000,-4.000000,-2.000000,-22.000000,-9.000000,-30.000000,-10.000000
1294742.370392,-4.000000,3.000000,1.000000,-3.000000,-17.000000,7.000000,5.000000,-1.000000
1294742.392810,17.000000,9.000000,11.000000,-3.000000,-15.000000,-10.000000,18.000000,32.000000
1294742.392821,-8.000000,-4.000000,-9.000000,-3.000000,7.000000,-5.000000,-7.000000,-5.000000
1294742.407877,23.000000,57.000000,55.000000,-9.000000,-14.000000,27.000000,29.000000,6.000000
1294742.407888,2.000000,-8.000000,-18.000000,-8.000000,-10.000000,-10.000000,-5.000000,9.000000
1294742.415450,18.000000,19.000000,23.000000,-7.000000,-52.000000,9.000000,8.000000,8.000000
1294742.415460,1.000000,-2.000000,-20.000000,17.000000,30.000000,14.000000,7.000000,4.000000
1294742.438115,-2.000000,-6.000000,-1.000000,14.000000,40.000000,-10.000000,2.000000,-1.000000
1294742.438130,-7.000000,-5.000000,0.000000,-9.000000,-7.000000,-12.000000,-23.000000,-14.000000
1294742.475110,-14.000000,-17.000000,-14.000000,-22.000000,-27.000000,-11.000000,3.000000,-10.000000
1294742.475121,11.000000,12.000000,28.000000,21.000000,9.000000,29.000000,43.000000,3.000000
1294742.475707,-1.000000,3.000000,33.000000,52.000000,101.000000,25.000000,-9.000000,-1.000000
1294742.475742,-4.000000,-7.000000,-10.000000,2.000000,-24.000000,5.000000,4.000000,-5.000000
1294742.476357,2.000000,-32.000000,-26.000000,16.000000,28.000000,18.000000,31.000000,10.000000
1294742.476368,5.000000,1.000000,16.000000,9.000000,-4.000000,-11.000000,-12.000000,5.000000
1294742.477137,-2.000000,1.000000,-4.000000,-7.000000,-15.000000,-12.000000,-12.000000,-6.000000
1294742.477185,-6.000000,-22.000000,-17.000000,-29.000000,-15.000000,-5.000000,-16.000000,4.000000
1294742.478077,1.000000,2.000000,-8.000000,6.000000,2.000000,2.000000,34.000000,-1.000000
1294742.478086,-15.000000,-9.000000,-1.000000,-21.000000,-12.000000,-14.000000,-34.000000,-23.000000
1294742.478882,-9.000000,-10.000000,-14.000000,-21.000000,-38.000000,-9.000000,-12.000000,-11.000000
1294742.478910,11.000000,33.000000,11.000000,16.000000,22.000000,13.000000,36.000000,7.000000
1294742.497799,-15.000000,-13.000000,-8.000000,-16.000000,-14.000000,-9.000000,-19.000000,-12.000000
1294742.497812,2.000000,8.000000,1.000000,3.000000,13.000000,7.000000,13.000000,-11.000000
1294742.498164,7.000000,0.000000,-2.000000,5.000000,-1.000000,9.000000,20.000000,22.000000
1294742.498185,-11.000000,26.000000,21.000000,5.000000,14.000000,5.000000,17.000000,-12.000000
1294742.527816,-1.000000,-15.000000,-11.000000,-22.000000,-45.000000,-9.000000,2.000000,3.000000
1294742.527845,-5.000000,1.000000,-14.000000,12.000000,26.000000,-5.000000,-38.000000,-5.000000
1294742.535419,-4.000000,3.000000,1.000000,-5.000000,-2.000000,-5.000000,-38.000000,-15.000000
1294742.535439,-7.000000,-11.000000,6.000000,52.000000,67.000000,33.000000,53.000000,0.000000
1294742.557887,6.000000,-3.000000,-9.000000,4.000000,-19.000000,0.000000,-1.000000,8.000000
1294742.557924,4.000000,9.000000,19.000000,-18.000000,-22.000000,-10.000000,-10.000000,4.000000
1294742.580216,-5.000000,-17.000000,-10.000000,-15.000000,-13.000000,-10.000000,-9.000000,-5.000000
1294742.580243,-11.000000,2.000000,-3.000000,4.000000,1.000000,-11.000000,-15.000000,-19.000000
1294742.595388,6.000000,3.000000,0.000000,-28.000000,-29.000000,-9.000000,-5.000000,-1.000000
1294742.595398,-1.000000,10.000000,14.000000,14.000000,5.000000,5.000000,16.000000,-6.000000
1294742.625121,3.000000,-1.000000,-3.000000,-8.000000,4.000000,-7.000000,-13.000000,3.000000
1294742.625132,-7.000000,-21.000000,-21.000000,-7.000000,0.000000,-4.000000,27.000000,0.000000
1294742.633010,7.000000,11.000000,-4.000000,-15.000000,-1.000000,4.000000,-21.000000,-5.000000
1294742.633031,4.000000,3.000000,13.000000,6.000000,6.000000,-2.000000,7.000000,2.000000
1294742.633572,-6.000000,-10.000000,-17.000000,-10.000000,-18.000000,-13.000000,-3.000000,-1.000000
1294742.633580,-7.000000,-1.000000,-8.000000,8.000000,33.000000,2.000000,3.000000,-9.000000
1294742.634253,0.000000,-10.000000,-4.000000,21.000000,45.000000,2.000000,-3.000000,7.000000
1294742.634274,-9.000000,-17.000000,-12.000000,-21.000000,-22.000000,-18.000000,-13.000000,-8.000000
1294742.635768,-2.000000,-11.000000,-8.000000,-18.000000,-32.000000,-17.000000,-13.000000,3.000000
1294742.635788,-4.000000,2.000000,1.000000,1.000000,12.000000,-8.000000,-14.000000,-6.000000
1294742.640024,2.000000,-4.000000,3.000000,0.000000,10.000000,1.000000,2.000000,3.000000
1294742.640035,-1.000000,3.000000,2.000000,-3.000000,-3.000000,-15.000000,-13.000000,-4.000000
1294742.647880,-8.000000,-5.000000,-11.000000,-12.000000,-21.000000,-6.000000,-36.000000,-10.000000
1294742.647891,-9.000000,-9.000000,-6.000000,13.000000,9.000000,9.000000,10.000000,-10.000000
1294742.670360,17.000000,-11.000000,-17.000000,6.000000,5.000000,5.000000,27.000000,23.000000
1294742.670378,-1.000000,10.000000,-17.000000,-9.000000,-6.000000,-10.000000,-35.000000,-15.000000
1294742.685194,-1.000000,-12.000000,-9.000000,-17.000000,-56.000000,4.000000,21.000000,6.000000
1294742.685203,4.000000,-12.000000,-19.000000,2.000000,5.000000,2.000000,-5.000000,8.000000
1294742.700294,-9.000000,4.000000,15.000000,-8.000000,-13.000000,-12.000000,-6.000000,-9.000000
1294742.700305,1.000000,-9.000000,-25.000000,-9.000000,-13.000000,7.000000,17.000000,0.000000
1294742.737790,-11.000000,1.000000,2.000000,-3.000000,1.000000,-12.000000,-30.000000,-9.000000
1294742.737800,8.000000,1.000000,10.000000,-9.000000,-13.000000,15.000000,20.000000,4.000000
1294742.738428,6.000000,-13.000000,-18.000000,2.000000,7.000000,3.000000,6.000000,3.000000
1294742.738436,-3.000000,-3.000000,2.000000,-3.000000,0.000000,-9.000000,-13.000000,-2.000000
1294742.752696,-17.000000,-29.000000,-16.000000,-2.000000,11.000000,6.000000,0.000000,-9.000000
1294742.752707,5.000000,61.000000,10.000000,-1.000000,8.000000,-3.000000,-11.000000,-10.000000
1294742.760035,0.000000,-10.000000,1.000000,9.000000,14.000000,3.000000,18.000000,4.000000
1294742.760050,-6.000000,-4.000000,-15.000000,5.000000,-5.000000,-6.000000,3.000000,-5.000000
1294742.761211,1.000000,19.000000,18.000000,31.000000,82.000000,4.000000,-2.000000,3.000000
1294742.761220,1.000000,-6.000000,-6.000000,-30.000000,-47.000000,0.000000,-5.000000,-3.000000
1294742.761790,3.000000,6.000000,-7.000000,-4.000000,-7.000000,9.000000,54.000000,5.000000
1294742.761798,1.000000,6.000000,22.000000,-7.000000,-14.000000,-22.000000,-25.000000,6.000000
1294742.762375,-4.000000,-9.000000,-12.000000,18.000000,45.000000,2.000000,-5.000000,-6.000000
1294742.762384,-7.000000,-5.000000,-10.000000,-21.000000,-17.000000,-4.000000,-11.000000,-17.000000
1294742.797919,12.000000,-3.000000,7.000000,18.000000,39.000000,7.000000,25.000000,18.000000
1294742.797960,-10.000000,3.000000,-7.000000,-3.000000,2.000000,-9.000000,-5.000000,-4.000000
1294742.805085,-7.000000,-6.000000,-3.000000,-13.000000,-17.000000,-12.000000,-29.000000,-8.000000
1294742.805113,4.000000,9.000000,0.000000,4.000000,9.000000,5.000000,6.000000,0.000000
1294742.835469,-7.000000,-13.000000,0.000000,4.000000,15.000000,1.000000,6.000000,-8.000000
1294742.835480,-5.000000,1.000000,-7.000000,15.000000,3.000000,0.000000,0.000000,-2.000000
1294742.857695,-27.000000,-20.000000,-15.000000,-13.000000,-12.000000,-34.000000,-3.000000,-23.000000
1294742.857707,33.000000,24.000000,18.000000,32.000000,26.000000,26.000000,-9.000000,10.000000
1294742.873331,-6.000000,0.000000,7.000000,0.000000,-7.000000,0.000000,30.000000,7.000000
1294742.873342,-1.000000,-3.000000,-8.000000,-11.000000,-9.000000,-8.000000,-16.000000,-7.000000
1294742.873863,-14.000000,-14.000000,-21.000000,-1.000000,-8.000000,-21.000000,16.000000,-9.000000
1294742.873874,2.000000,2.000000,14.000000,-34.000000,-62.000000,-5.000000,33.000000,12.000000
1294742.876314,-5.000000,-29.000000,-25.000000,-10.000000,-22.000000,9.000000,39.000000,14.000000
1294742.876327,7.000000,7.000000,-3.000000,-9.000000,3.000000,6.000000,18.000000,9.000000
1294742.910194,-7.000000,-3.000000,2.000000,-6.000000,-16.000000,-2.000000,-12.000000,-10.000000
1294742.910217,7.000000,11.000000,7.000000,38.000000,34.000000,22.000000,48.000000,19.000000
1294742.947747,3.000000,-7.000000,-4.000000,-7.000000,4.000000,-2.000000,0.000000,4.000000
1294742.947776,-8.000000,-10.000000,-17.000000,-7.000000,-9.000000,-6.000000,-1.000000,-4.000000
1294742.955377,-2.000000,2.000000,-2.000000,1.000000,-11.000000,-8.000000,-12.000000,-1.000000
1294742.955390,1.000000,10.000000,-5.000000,-5.000000,-11.000000,6.000000,35.000000,11.000000
1294742.992775,9.000000,17.000000,6.000000,3.000000,3.000000,-1.000000,-7.000000,3.000000
1294742.992876,0.000000,-2.000000,3.000000,-2.000000,-4.000000,-10.000000,-25.000000,-3.000000
1294742.993068,-12.000000,-9.000000,0.000000,-20.000000,-22.000000,-4.000000,18.000000,-12.000000
1294742.993095,10.000000,-2.000000,1.000000,5.000000,4.000000,5.000000,-17.000000,19.000000
1294742.993635,8.000000,6.000000,7.000000,6.000000,-5.000000,-10.000000,-5.000000,10.000000
1294742.993642,-2.000000,0.000000,-1.000000,10.000000,20.000000,6.000000,-30.000000,-10.000000
1294742.995588,-4.000000,-28.000000,-23.000000,-29.000000,-43.000000,-8.000000,-5.000000,-2.000000
1294742.995604,-8.000000,55.000000,37.000000,39.000000,59.000000,1.000000,-44.000000,-15.000000
1294742.996421,5.000000,13.000000,13.000000,-3.000000,-19.000000,2.000000,-6.000000,6.000000
1294742.996430,-9.000000,-21.000000,-14.000000,-4.000000,-9.000000,-6.000000,-9.000000,-1.000000
1294743.022770,0.000000,14.000000,14.000000,-5.000000,-12.000000,-4.000000,-13.000000,-2.000000
1294743.022781,-5.000000,-11.000000,0.000000,-5.000000,-11.000000,-13.000000,-26.000000,-7.000000
1294743.052806,-6.000000,-17.000000,-12.000000,-15.000000,-13.000000,6.000000,14.000000,-9.000000
1294743.052818,8.000000,7.000000,6.000000,0.000000,26.000000,9.000000,9.000000,11.000000
1294743.075308,3.000000,-8.000000,-4.000000,-10.000000,-32.000000,0.000000,22.000000,9.000000
1294743.075317,-17.000000,-8.000000,-3.000000,3.000000,-2.000000,-14.000000,-33.000000,-19.000000
1294743.105176,4.000000,10.000000,11.000000,1.000000,-10.000000,17.000000,4.000000,2.000000
1294743.105186,-7.000000,-5.000000,-6.000000,11.000000,31.000000,2.000000,-1.000000,-11.000000
1294743.105690,-16.000000,-15.000000,-6.000000,-9.000000,-8.000000,-12.000000,-13.000000,-11.000000
1294743.105698,19.000000,10.000000,13.000000,15.000000,-39.000000,27.000000,11.000000,16.000000
1294743.106148,1.000000,-2.000000,-3.000000,4.000000,21.000000,-4.000000,28.000000,3.000000
1294743.106156,-9.000000,-12.000000,-2.000000,-8.000000,-8.000000,-14.000000,-17.000000,-9.000000
1294743.106804,6.000000,3.000000,-2.000000,7.000000,4.000000,-4.000000,-25.000000,-5.000000
1294743.106812,-4.000000,-2.000000,0.000000,9.000000,21.000000,2.000000,-21.000000,-3.000000
1294743.107463,-3.000000,-3.000000,-4.000000,-1.000000,9.000000,9.000000,50.000000,0.000000
1294743.107471,1.000000,-3.000000,6.000000,19.000000,33.000000,20.000000,36.000000,6.000000
1294743.108104,7.000000,-2.000000,-1.000000,-5.000000,8.000000,5.000000,25.000000,8.000000
1294743.108112,-8.000000,-5.000000,-8.000000,-14.000000,-2.000000,-16.000000,-12.000000,-7.000000
1294743.150584,0.000000,-10.000000,-1.000000,38.000000,88.000000,13.000000,-4.000000,1.000000
1294743.150613,-11.000000,-10.000000,-15.000000,-8.000000,10.000000,-9.000000,-20.000000,-7.000000
1294743.165718,0.000000,-17.000000,-24.000000,-10.000000,-34.000000,11.000000,6.000000,2.000000
1294743.165728,1.000000,36.000000,49.000000,11.000000,22.000000,-6.000000,-18.000000,-16.000000
1294743.180070,-17.000000,-14.000000,-11.000000,-9.000000,-7.000000,-16.000000,-28.000000,-5.000000
1294743.180079,-6.000000,-4.000000,-22.000000,-15.000000,-11.000000,19.000000,5.000000,-11.000000
1294743.187767,7.000000,-5.000000,-6.000000,-7.000000,-23.000000,11.000000,95.000000,21.000000
1294743.187786,-4.000000,-12.000000,-5.000000,3.000000,8.000000,-5.000000,-9.000000,7.000000
1294743.202933,-11.000000,-1.000000,4.000000,-6.000000,-6.000000,-15.000000,-31.000000,-13.000000
1294743.202944,-1.000000,2.000000,-16.000000,-5.000000,15.000000,7.000000,-7.000000,-3.000000
1294743.232702,3.000000,-11.000000,-14.000000,21.000000,32.000000,4.000000,0.000000,-5.000000
1294743.232718,-5.000000,-7.000000,-6.000000,-8.000000,15.000000,1.000000,-12.000000,1.000000
1294743.240203,4.000000,26.000000,-6.000000,-7.000000,-9.000000,-15.000000,6.000000,4.000000
1294743.240212,-7.000000,-2.000000,-8.000000,-3.000000,-7.000000,-2.000000,-17.000000,-13.000000
1294743.241113,-5.000000,-4.000000,3.000000,-24.000000,-60.000000,-17.000000,0.000000,4.000000
1294743.241121,-7.000000,-21.000000,-1.000000,26.000000,37.000000,12.000000,-1.000000,-6.000000
1294743.241764,0.000000,-13.000000,-34.000000,-4.000000,1.000000,8.000000,6.000000,-6.000000
1294743.241772,20.000000,30.000000,45.000000,24.000000,35.000000,12.000000,31.000000,30.000000
1294743.255205,1.000000,2.000000,-3.000000,-5.000000,5.000000,-7.000000,-11.000000,-6.000000
1294743.255215,-8.000000,-20.000000,-16.000000,-7.000000,-4.000000,-18.000000,-28.000000,-20.000000
1294743.285320,2.000000,15.000000,24.000000,-14.000000,5.000000,5.000000,-4.000000,2.000000
1294743.285331,3.000000,0.000000,5.000000,14.000000,0.000000,5.000000,37.000000,7.000000
1294743.292955,-5.000000,-7.000000,-11.000000,-15.000000,-35.000000,-21.000000,6.000000,-9.000000
1294743.292965,7.000000,24.000000,32.000000,6.000000,-12.000000,2.000000,25.000000,21.000000
1294743.315116,7.000000,13.000000,-11.000000,22.000000,36.000000,17.000000,22.000000,13.000000
1294743.315127,-21.000000,-26.000000,-14.000000,-14.000000,0.000000,-14.000000,-18.000000,-17.000000
1294743.353020,10.000000,7.000000,4.000000,11.000000,-27.000000,8.000000,-12.000000,-6.000000
1294743.353142,4.000000,3.000000,-14.000000,2.000000,-6.000000,0.000000,21.000000,10.000000
1294743.354187,-3.000000,18.000000,-5.000000,-8.000000,8.000000,-1.000000,-15.000000,-13.000000
1294743.354242,-18.000000,-21.000000,2.000000,-13.000000,-16.000000,-6.000000,-12.000000,-9.000000
1294743.360136,4.000000,3.000000,-3.000000,6.000000,2.000000,12.000000,3.000000,-6.000000
1294743.360177,1.000000,36.000000,19.000000,-8.000000,-14.000000,-12.000000,-15.000000,-5.000000
1294743.361282,-2.000000,-8.000000,-2.000000,-8.000000,-27.000000,0.000000,7.000000,-1.000000
1294743.361292,-4.000000,-4.000000,-4.000000,-14.000000,-8.000000,-5.000000,-14.000000,6.000000
1294743.361789,8.000000,10.000000,7.000000,2.000000,-1.000000,9.000000,13.000000,-2.000000
1294743.361797,2.000000,-9.000000,-23.000000,-2.000000,9.000000,-4.000000,16.000000,10.000000
1294743.363496,-2.000000,-8.000000,-14.000000,-3.000000,-6.000000,-6.000000,-12.000000,-7.000000
1294743.363511,-2.000000,-4.000000,-4.000000,1.000000,2.000000,5.000000,4.000000,11.000000
1294743.390495,-1.000000,-6.000000,-1.000000,-16.000000,-17.000000,-10.000000,-3.000000,2.000000
1294743.390508,2.000000,3.000000,5.000000,-6.000000,-32.000000,-9.000000,-25.000000,-6.000000
1294743.427890,-8.000000,-3.000000,-7.000000,2.000000,5.000000,8.000000,4.000000,-3.000000
1294743.427900,1.000000,-5.000000,0.000000,-10.000000,-1.000000,-6.000000,2.000000,7.000000
1294743.465203,-10.000000,-8.000000,-8.000000,6.000000,11.000000,-8.000000,-32.000000,-25.000000
1294743.465213,-2.000000,8.000000,-1.000000,-11.000000,-12.000000,5.000000,15.000000,15.000000
1294743.466237,-1.000000,-8.000000,-1.000000,-5.000000,-6.000000,-5.000000,-72.000000,-22.000000
1294743.466253,-7.000000,-2.000000,-2.000000,-9.000000,-41.000000,-16.000000,-26.000000,-19.000000
1294743.466849,7.000000,12.000000,13.000000,5.000000,3.000000,7.000000,58.000000,17.000000
1294743.466858,11.000000,4.000000,4.000000,3.000000,12.000000,-2.000000,-10.000000,-8.000000
1294743.468189,5.000000,-6.000000,-3.000000,28.000000,16.000000,-3.000000,8.000000,16.000000
1294743.468210,-15.000000,-15.000000,-5.000000,-13.000000,-33.000000,-8.000000,-14.000000,-13.000000
1294743.469026,15.000000,5.000000,-11.000000,13.000000,9.000000,9.000000,4.000000,20.000000
1294743.469050,1.000000,5.000000,24.000000,9.000000,21.000000,0.000000,0.000000,-3.000000
1294743.472642,-1.000000,-13.000000,-21.000000,-19.000000,-19.000000,-2.000000,3.000000,0.000000
1294743.472652,6.000000,7.000000,11.000000,37.000000,48.000000,22.000000,21.000000,-4.000000
1294743.480946,-11.000000,-12.000000,-10.000000,-20.000000,-32.000000,-19.000000,-29.000000,-14.000000
1294743.480956,3.000000,-1.000000,15.000000,10.000000,8.000000,-8.000000,-15.000000,8.000000
1294743.502636,-5.000000,-10.000000,-18.000000,1.000000,25.000000,4.000000,-2.000000,0.000000
1294743.502649,5.000000,14.000000,6.000000,37.000000,67.000000,28.000000,14.000000,4.000000
1294743.510569,-3.000000,-11.000000,-10.000000,-10.000000,-14.000000,-10.000000,-6.000000,-13.000000
1294743.510580,-11.000000,-15.000000,-5.000000,-9.000000,-12.000000,-9.000000,11.000000,-2.000000
1294743.511381,3.000000,0.000000,-5.000000,-3.000000,14.000000,1.000000,-22.000000,0.000000
1294743.511390,-5.000000,-8.000000,-16.000000,-10.000000,-25.000000,4.000000,10.000000,0.000000
1294743.525573,12.000000,7.000000,19.000000,15.000000,-1.000000,12.000000,37.000000,14.000000
1294743.525602,0.000000,1.000000,10.000000,-4.000000,8.000000,0.000000,-8.000000,-2.000000
1294743.547767,0.000000,0.000000,-7.000000,-6.000000,-6.000000,-9.000000,1.000000,3.000000
1294743.547777,-8.000000,-1.000000,5.000000,8.000000,14.000000,3.000000,18.000000,2.000000
1294743.570752,3.000000,-6.000000,0.000000,-17.000000,-9.000000,0.000000,-21.000000,0.000000
1294743.570762,7.000000,12.000000,-7.000000,28.000000,49.000000,21.000000,24.000000,8.000000
1294743.577838,-7.000000,-19.000000,-11.000000,-2.000000,-11.000000,-9.000000,-1.000000,-5.000000
1294743.577848,-13.000000,-1.000000,-6.000000,-5.000000,21.000000,-4.000000,-6.000000,-13.000000
1294743.586006,8.000000,5.000000,-7.000000,-5.000000,-30.000000,0.000000,9.000000,9.000000
1294743.586020,-3.000000,-5.000000,4.000000,-19.000000,-15.000000,5.000000,-8.000000,2.000000
1294743.586313,-9.000000,-18.000000,-23.000000,-3.000000,12.000000,-8.000000,3.000000,-5.000000
1294743.586324,-1.000000,15.000000,6.000000,-10.000000,0.000000,-9.000000,-36.000000,-9.000000
1294743.588227,11.000000,1.000000,1.000000,36.000000,49.000000,28.000000,49.000000,15.000000
1294743.588250,-9.000000,13.000000,0.000000,-7.000000,-7.000000,-14.000000,-15.000000,-4.000000
1294743.592628,-6.000000,-6.000000,6.000000,2.000000,24.000000,2.000000,-1.000000,5.000000
1294743.592648,-13.000000,-10.000000,-21.000000,-7.000000,-6.000000,-5.000000,-2.000000,-10.000000
1294743.630567,10.000000,26.000000,20.000000,-11.000000,-35.000000,8.000000,12.000000,10.000000
1294743.630596,6.000000,1.000000,3.000000,-1.000000,-7.000000,1.000000,11.000000,4.000000
1294743.637855,-13.000000,-6.000000,-9.000000,-15.000000,-8.000000,-20.000000,-24.000000,-8.000000
1294743.637877,0.000000,-8.000000,-13.000000,-3.000000,-4.000000,20.000000,16.000000,0.000000
1294743.667860,7.000000,10.000000,35.000000,6.000000,2.000000,0.000000,8.000000,7.000000
1294743.667871,-2.000000,-12.000000,-11.000000,1.000000,15.000000,-7.000000,-13.000000,-4.000000
1294743.682912,-1.000000,14.000000,11.000000,-8.000000,-34.000000,-8.000000,4.000000,-4.000000
1294743.682999,1.000000,-3.000000,0.000000,3.000000,-19.000000,3.000000,39.000000,7.000000
1294743.697559,-5.000000,-17.000000,-18.000000,1.000000,2.000000,4.000000,-24.000000,-2.000000
1294743.697569,-11.000000,0.000000,-22.000000,-14.000000,-10.000000,-17.000000,-27.000000,-18.000000
1294743.705424,5.000000,-4.000000,10.000000,7.000000,-24.000000,17.000000,20.000000,14.000000
1294743.705436,-5.000000,-6.000000,-26.000000,5.000000,3.000000,-16.000000,-16.000000,3.000000
1294743.706785,24.000000,46.000000,71.000000,27.000000,-49.000000,25.000000,19.000000,11.000000
1294743.706793,-4.000000,-2.000000,-10.000000,-9.000000,2.000000,-7.000000,-15.000000,3.000000
1294743.708807,-3.000000,-12.000000,-10.000000,-20.000000,-14.000000,-5.000000,5.000000,-4.000000
1294743.708817,-12.000000,-4.000000,2.000000,-8.000000,-2.000000,-3.000000,-9.000000,-7.000000
1294743.720392,2.000000,16.000000,26.000000,14.000000,8.000000,4.000000,-4.000000,-2.000000
1294743.720407,-7.000000,-4.000000,-6.000000,-30.000000,-36.000000,-11.000000,-40.000000,-14.000000
1294743.742695,0.000000,-3.000000,8.000000,19.000000,18.000000,16.000000,32.000000,-8.000000
1294743.742715,9.000000,-3.000000,-13.000000,-1.000000,22.000000,-3.000000,-25.000000,17.000000
1294743.750278,8.000000,10.000000,-3.000000,6.000000,-13.000000,2.000000,39.000000,9.000000
1294743.750295,7.000000,-11.000000,8.000000,-20.000000,-56.000000,17.000000,23.000000,22.000000
1294743.780012,-2.000000,-8.000000,0.000000,17.000000,44.000000,-15.000000,-15.000000,-7.000000
1294743.780027,-15.000000,-9.000000,-15.000000,-24.000000,-36.000000,-14.000000,-57.000000,-21.000000
1294743.780593,0.000000,-4.000000,2.000000,-11.000000,-19.000000,-24.000000,-6.000000,-15.000000
1294743.780613,8.000000,7.000000,-7.000000,20.000000,21.000000,8.000000,-5.000000,-5.000000
1294743.781900,-3.000000,2.000000,-4.000000,-3.000000,12.000000,7.000000,12.000000,-3.000000
1294743.781979,-7.000000,-5.000000,7.000000,-7.000000,-32.000000,-13.000000,-36.000000,0.000000
1294743.782537,-6.000000,-12.000000,-14.000000,-23.000000,-33.000000,7.000000,7.000000,-12.000000
1294743.782559,16.000000,12.000000,13.000000,29.000000,37.000000,35.000000,48.000000,12.000000
1294743.784124,0.000000,-4.000000,-4.000000,-17.000000,-34.000000,-20.000000,-9.000000,5.000000
1294743.784132,3.000000,-7.000000,-12.000000,5.000000,-9.000000,-9.000000,-20.000000,-3.000000
1294743.787621,-10.000000,-13.000000,-14.000000,-15.000000,-2.000000,-6.000000,-32.000000,-22.000000
1294743.787641,-1.000000,1.000000,-2.000000,20.000000,50.000000,20.000000,89.000000,4.000000
1294743.825246,7.000000,14.000000,13.000000,11.000000,12.000000,-12.000000,-35.000000,-9.000000
1294743.825257,-13.000000,-38.000000,-35.000000,-3.000000,5.000000,-4.000000,-22.000000,-17.000000
1294743.840127,6.000000,19.000000,6.000000,1.000000,8.000000,17.000000,9.000000,12.000000
1294743.840155,0.000000,-1.000000,6.000000,10.000000,6.000000,-4.000000,-14.000000,-7.000000
1294743.863486,-8.000000,-9.000000,-7.000000,-11.000000,-2.000000,3.000000,-4.000000,-5.000000
1294743.863514,-10.000000,-1.000000,3.000000,-28.000000,-27.000000,-10.000000,-8.000000,-3.000000
1294743.863913,0.000000,2.000000,-3.000000,2.000000,-7.000000,-9.000000,-24.000000,-7.000000
1294743.863940,6.000000,-11.000000,-5.000000,7.000000,9.000000,8.000000,-41.000000,8.000000
1294743.865316,-5.000000,-4.000000,-2.000000,-27.000000,-29.000000,-13.000000,36.000000,-1.000000
1294743.865363,1.000000,6.000000,5.000000,6.000000,9.000000,-8.000000,-11.000000,9.000000
1294743.865916,0.000000,-5.000000,-10.000000,4.000000,18.000000,-2.000000,-11.000000,-7.000000
1294743.865932,-11.000000,-23.000000,-16.000000,-9.000000,-21.000000,0.000000,3.000000,-14.000000
1294743.907826,-17.000000,-33.000000,-30.000000,-5.000000,-26.000000,-22.000000,-17.000000,-12.000000
1294743.907854,13.000000,56.000000,47.000000,-9.000000,-25.000000,-9.000000,-15.000000,-1.000000
1294743.908742,-7.000000,-8.000000,-8.000000,-3.000000,-5.000000,-8.000000,-10.000000,-14.000000
1294743.908768,-1.000000,-12.000000,-5.000000,-15.000000,5.000000,-1.000000,18.000000,6.000000
1294743.909361,1.000000,9.000000,2.000000,22.000000,41.000000,24.000000,8.000000,10.000000
1294743.909387,30.000000,19.000000,16.000000,56.000000,63.000000,18.000000,42.000000,21.000000
1294743.910626,-11.000000,-14.000000,-5.000000,-19.000000,-11.000000,-12.000000,-20.000000,-3.000000
1294743.910634,-6.000000,-16.000000,-13.000000,-12.000000,-21.000000,-13.000000,-9.000000,-6.000000
1294743.911509,-9.000000,5.000000,-7.000000,-4.000000,-1.000000,-4.000000,-17.000000,-12.000000
1294743.911518,-2.000000,-3.000000,18.000000,7.000000,6.000000,-8.000000,-20.000000,2.000000
1294743.940409,2.000000,9.000000,10.000000,8.000000,-4.000000,7.000000,25.000000,-15.000000
1294743.940438,15.000000,33.000000,47.000000,-14.000000,-30.000000,22.000000,37.000000,19.000000
1294743.941239,1.000000,-15.000000,-21.000000,-2.000000,17.000000,-6.000000,6.000000,1.000000
1294743.941271,-11.000000,-16.000000,-12.000000,-16.000000,-13.000000,-21.000000,-10.000000,-8.000000
1294743.941793,-2.000000,-2.000000,7.000000,5.000000,-6.000000,8.000000,-15.000000,-3.000000
1294743.941821,-4.000000,1.000000,-6.000000,-15.000000,-27.000000,-5.000000,8.000000,0.000000
1294743.975726,-3.000000,-18.000000,-8.000000,6.000000,28.000000,9.000000,-6.000000,4.000000
1294743.975779,5.000000,4.000000,4.000000,-2.000000,-2.000000,7.000000,17.000000,10.000000
1294743.997650,0.000000,12.000000,-8.000000,-25.000000,-26.000000,-2.000000,35.000000,5.000000
1294743.997661,-5.000000,11.000000,4.000000,0.000000,2.000000,-7.000000,-25.000000,0.000000
1294744.020377,-12.000000,0.000000,8.000000,13.000000,28.000000,-5.000000,-14.000000,-13.000000
1294744.020394,-7.000000,-21.000000,-23.000000,-2.000000,2.000000,4.000000,-7.000000,2.000000
1294744.035100,7.000000,22.000000,12.000000,9.000000,36.000000,14.000000,-5.000000,0.000000
1294744.035109,-5.000000,5.000000,1.000000,-8.000000,-3.000000,-13.000000,8.000000,-1.000000
1294744.057870,-3.000000,-12.000000,-26.000000,1.000000,33.000000,8.000000,-1.000000,-6.000000
1294744.057883,-15.000000,-6.000000,-2.000000,-15.000000,-25.000000,-18.000000,11.000000,-7.000000
1294744.059030,-7.000000,-4.000000,-9.000000,-12.000000,-13.000000,0.000000,-4.000000,-11.000000
1294744.059040,1.000000,-3.000000,-10.000000,6.000000,1.000000,-12.000000,-6.000000,-2.000000
1294744.103049,3.000000,-12.000000,-8.000000,-5.000000,-2.000000,-5.000000,-4.000000,-1.000000
1294744.103081,-2.000000,-2.000000,-7.000000,-3.000000,5.000000,-1.000000,-5.000000,-6.000000
1294744.117675,-7.000000,0.000000,6.000000,2.000000,-21.000000,-2.000000,3.000000,1.000000
1294744.117686,-5.000000,-8.000000,4.000000,16.000000,34.000000,5.000000,-3.000000,-7.000000
1294744.140405,15.000000,12.000000,21.000000,11.000000,12.000000,23.000000,33.000000,21.000000
1294744.140416,3.000000,2.000000,2.000000,10.000000,32.000000,0.000000,37.000000,-5.000000
1294744.185157,-7.000000,-10.000000,-10.000000,-36.000000,-17.000000,-6.000000,-23.000000,5.000000
1294744.185180,-1.000000,9.000000,-1.000000,-1.000000,-5.000000,-7.000000,-9.000000,-12.000000
1294744.192882,3.000000,-7.000000,0.000000,3.000000,-49.000000,-10.000000,16.000000,10.000000
1294744.192901,7.000000,24.000000,-2.000000,20.000000,39.000000,2.000000,-1.000000,5.000000
1294744.215125,-7.000000,-14.000000,-4.000000,-1.000000,2.000000,-4.000000,-42.000000,-7.000000
1294744.215149,2.000000,3.000000,10.000000,5.000000,-3.000000,-2.000000,-8.000000,5.000000
1294744.260279,-5.000000,-21.000000,-24.000000,-16.000000,-15.000000,-8.000000,33.000000,2.000000
1294744.260295,-10.000000,23.000000,25.000000,5.000000,11.000000,-32.000000,-74.000000,-20.000000
1294744.261126,-4.000000,-8.000000,-28.000000,-9.000000,-22.000000,3.000000,1.000000,-11.000000
1294744.261135,-8.000000,-11.000000,-11.000000,-10.000000,-1.000000,-8.000000,-31.000000,-1.000000
1294744.261836,-6.000000,-3.000000,2.000000,13.000000,9.000000,16.000000,0.000000,-18.000000
1294744.261858,26.000000,62.000000,60.000000,36.000000,-26.000000,36.000000,99.000000,51.000000
1294744.262365,6.000000,-5.000000,-7.000000,0.000000,10.000000,-5.000000,-9.000000,11.000000
1294744.262387,-11.000000,-11.000000,1.000000,-4.000000,0.000000,-27.000000,-36.000000,-9.000000
1294744.262989,-6.000000,-3.000000,-1.000000,-9.000000,5.000000,-5.000000,-18.000000,-7.000000
1294744.262996,-6.000000,-7.000000,-19.000000,2.000000,-8.000000,-4.000000,-2.000000,-4.000000
1294744.263884,-4.000000,-12.000000,2.000000,44.000000,82.000000,29.000000,-7.000000,1.000000
1294744.263906,13.000000,32.000000,9.000000,-5.000000,1.000000,2.000000,18.000000,5.000000
1294744.290235,1.000000,-2.000000,10.000000,-14.000000,-16.000000,-20.000000,-16.000000,-5.000000
1294744.290246,-6.000000,-5.000000,-11.000000,6.000000,31.000000,11.000000,2.000000,-6.000000
1294744.305235,3.000000,-6.000000,-9.000000,3.000000,8.000000,4.000000,-5.000000,-1.000000
1294744.305250,-1.000000,-7.000000,-3.000000,-5.000000,1.000000,-5.000000,-7.000000,1.000000
1294744.312846,1.000000,1.000000,2.000000,-4.000000,-2.000000,-3.000000,17.000000,-8.000000
1294744.312857,-1.000000,2.000000,-1.000000,0.000000,-6.000000,-5.000000,-8.000000,9.000000
1294744.342837,-20.000000,-20.000000,-7.000000,-4.000000,2.000000,-4.000000,-39.000000,-21.000000
1294744.342961,-3.000000,-12.000000,-14.000000,-23.000000,-15.000000,1.000000,40.000000,5.000000
1294744.343173,38.000000,59.000000,33.000000,79.000000,81.000000,46.000000,32.000000,34.000000
1294744.343185,-15.000000,-17.000000,-11.000000,-19.000000,-17.000000,-28.000000,-32.000000,-17.000000
1294744.344217,-4.000000,-11.000000,-3.000000,9.000000,24.000000,1.000000,-13.000000,1.000000
1294744.344226,2.000000,18.000000,0.000000,-7.000000,-23.000000,8.000000,9.000000,2.000000
1294744.344950,-7.000000,-9.000000,5.000000,-3.000000,28.000000,3.000000,3.000000,-16.000000
1294744.344959,0.000000,-4.000000,12.000000,-10.000000,-27.000000,-14.000000,41.000000,8.000000
1294744.349929,-1.000000,-16.000000,0.000000,3.000000,-6.000000,-7.000000,-14.000000,-7.000000
1294744.349951,12.000000,6.000000,-4.000000,-20.000000,2.000000,17.000000,21.000000,15.000000
1294744.380475,1.000000,8.000000,5.000000,22.000000,30.000000,0.000000,16.000000,3.000000
1294744.380485,-17.000000,-19.000000,-12.000000,-15.000000,-14.000000,-8.000000,-16.000000,-11.000000
1294744.417805,12.000000,18.000000,7.000000,5.000000,9.000000,1.000000,8.000000,8.000000
1294744.417817,16.000000,5.000000,-5.000000,2.000000,15.000000,12.000000,7.000000,2.000000
1294744.462744,4.000000,-23.000000,6.000000,-7.000000,-24.000000,0.000000,22.000000,15.000000
1294744.462768,-9.000000,9.000000,6.000000,14.000000,-6.000000,-13.000000,-29.000000,-14.000000
1294744.470101,-1.000000,5.000000,9.000000,-2.000000,-26.000000,21.000000,33.000000,4.000000
1294744.470111,1.000000,-8.000000,-17.000000,17.000000,30.000000,-4.000000,9.000000,11.000000
1294744.537967,-8.000000,0.000000,4.000000,-25.000000,-2.000000,-17.000000,-41.000000,-15.000000
1294744.537980,13.000000,11.000000,7.000000,82.000000,127.000000,46.000000,16.000000,22.000000
1294744.567711,-3.000000,-3.000000,5.000000,-6.000000,-1.000000,-16.000000,12.000000,-10.000000
1294744.567723,-4.000000,-4.000000,-16.000000,-4.000000,-12.000000,-12.000000,-14.000000,-7.000000
1294744.575635,-11.000000,-15.000000,-7.000000,5.000000,34.000000,-2.000000,3.000000,4.000000
1294744.575650,21.000000,24.000000,31.000000,5.000000,-26.000000,0.000000,-16.000000,16.000000
1294744.620217,0.000000,-11.000000,-6.000000,-8.000000,-14.000000,-16.000000,0.000000,-4.000000
1294744.620275,-6.000000,4.000000,9.000000,5.000000,16.000000,7.000000,1.000000,-3.000000
1294744.620720,-4.000000,-5.000000,-6.000000,4.000000,12.000000,-3.000000,13.000000,2.000000
1294744.620737,0.000000,12.000000,1.000000,-24.000000,-51.000000,-11.000000,0.000000,-11.000000
1294744.621799,17.000000,3.000000,9.000000,34.000000,57.000000,34.000000,53.000000,26.000000
1294744.621808,1.000000,-11.000000,-15.000000,-12.000000,-16.000000,-10.000000,-8.000000,7.000000
1294744.622723,3.000000,5.000000,-3.000000,0.000000,-4.000000,-7.000000,-10.000000,-3.000000
1294744.622737,-11.000000,-12.000000,-17.000000,-12.000000,-13.000000,-9.000000,-22.000000,-12.000000
1294744.636290,-8.000000,-15.000000,-3.000000,-3.000000,-1.000000,-6.000000,-16.000000,-9.000000
1294744.636311,-13.000000,-17.000000,-8.000000,-14.000000,-7.000000,-4.000000,-17.000000,-2.000000
1294744.643561,-7.000000,-26.000000,-14.000000,-4.000000,2.000000,-2.000000,-47.000000,-15.000000
1294744.643590,2.000000,32.000000,36.000000,13.000000,2.000000,-2.000000,10.000000,-4.000000
1294744.657920,22.000000,4.000000,8.000000,6.000000,-2.000000,19.000000,40.000000,33.000000
1294744.657937,-4.000000,-12.000000,-10.000000,0.000000,8.000000,-9.000000,-19.000000,-8.000000
1294744.695357,-6.000000,11.000000,-2.000000,-5.000000,-10.000000,-14.000000,-33.000000,-12.000000
1294744.695366,-6.000000,-16.000000,-11.000000,-7.000000,-19.000000,4.000000,13.000000,4.000000
1294744.740598,14.000000,2.000000,3.000000,34.000000,71.000000,17.000000,15.000000,22.000000
1294744.740615,-1.000000,5.000000,10.000000,-27.000000,-32.000000,-5.000000,-11.000000,0.000000
1294744.748040,2.000000,8.000000,7.000000,10.000000,-36.000000,-4.000000,-21.000000,-5.000000
1294744.748055,0.000000,-6.000000,5.000000,-2.000000,0.000000,-5.000000,-4.000000,0.000000
1294744.748596,-14.000000,-13.000000,-21.000000,15.000000,44.000000,8.000000,-26.000000,-13.000000
1294744.748605,7.000000,2.000000,-1.000000,-14.000000,-19.000000,7.000000,44.000000,9.000000
1294744.750127,0.000000,10.000000,-8.000000,-11.000000,-5.000000,-16.000000,-37.000000,-4.000000
1294744.750175,-11.000000,-17.000000,-14.000000,-4.000000,-6.000000,-20.000000,5.000000,-8.000000
1294744.750884,24.000000,22.000000,15.000000,46.000000,58.000000,33.000000,27.000000,20.000000
1294744.750902,-10.000000,-14.000000,-6.000000,5.000000,3.000000,-8.000000,0.000000,-13.000000
1294744.754857,11.000000,-3.000000,14.000000,7.000000,7.000000,3.000000,-19.000000,4.000000
1294744.754866,-7.000000,-13.000000,-10.000000,-9.000000,0.000000,-10.000000,-30.000000,-2.000000
1294744.792628,-5.000000,7.000000,-1.000000,-25.000000,-47.000000,-5.000000,2.000000,-12.000000
1294744.792638,14.000000,-2.000000,-4.000000,22.000000,47.000000,17.000000,11.000000,17.000000
1294744.807688,-10.000000,-21.000000,-9.000000,-8.000000,-7.000000,-24.000000,-43.000000,-17.000000
1294744.807697,-7.000000,-2.000000,-28.000000,-10.000000,-4.000000,-4.000000,-14.000000,-8.000000
1294744.830699,12.000000,19.000000,19.000000,-2.000000,-16.000000,7.000000,33.000000,28.000000
1294744.830723,-6.000000,-10.000000,-4.000000,-10.000000,0.000000,-9.000000,-6.000000,-12.000000
1294744.845109,-8.000000,-13.000000,-18.000000,-1.000000,-6.000000,-1.000000,-24.000000,-9.000000
1294744.845127,2.000000,-16.000000,-10.000000,8.000000,35.000000,11.000000,40.000000,11.000000
1294744.853421,5.000000,27.000000,28.000000,-15.000000,-3.000000,-14.000000,-16.000000,-7.000000
1294744.853448,-17.000000,-11.000000,-10.000000,7.000000,-5.000000,-5.000000,-38.000000,-15.000000
1294744.853831,7.000000,-8.000000,-4.000000,-2.000000,-2.000000,3.000000,52.000000,14.000000
1294744.853857,7.000000,13.000000,8.000000,34.000000,29.000000,21.000000,8.000000,10.000000
1294744.855743,-6.000000,-3.000000,-11.000000,-8.000000,9.000000,11.000000,-6.000000,0.000000
1294744.855769,1.000000,-11.000000,-19.000000,11.000000,22.000000,-5.000000,-22.000000,-5.000000
1294744.856574,-2.000000,-5.000000,12.000000,16.000000,6.000000,0.000000,7.000000,3.000000
1294744.856600,-9.000000,-6.000000,-7.000000,-8.000000,-6.000000,-7.000000,-6.000000,-7.000000
1294744.861079,-13.000000,-15.000000,-7.000000,-8.000000,-6.000000,-5.000000,3.000000,-13.000000
1294744.861106,2.000000,-5.000000,-5.000000,-10.000000,5.000000,2.000000,-3.000000,-1.000000
1294744.890172,21.000000,21.000000,25.000000,4.000000,13.000000,5.000000,6.000000,4.000000
1294744.890184,-3.000000,0.000000,7.000000,-13.000000,-19.000000,-8.000000,-19.000000,-9.000000
1294744.905439,-4.000000,-8.000000,-17.000000,-19.000000,-19.000000,-6.000000,-2.000000,1.000000
1294744.905450,-7.000000,0.000000,1.000000,3.000000,11.000000,-2.000000,10.000000,-2.000000
1294744.912955,-5.000000,-3.000000,1.000000,4.000000,11.000000,1.000000,-3.000000,0.000000
1294744.912966,-8.000000,-10.000000,-15.000000,-26.000000,-22.000000,-7.000000,-37.000000,-16.000000
1294744.972745,7.000000,9.000000,5.000000,6.000000,-5.000000,4.000000,41.000000,15.000000
1294744.972818,1.000000,-2.000000,3.000000,11.000000,34.000000,5.000000,7.000000,1.000000
1294744.973079,-8.000000,8.000000,8.000000,-28.000000,-64.000000,-18.000000,-27.000000,-13.000000
1294744.973106,9.000000,-3.000000,7.000000,-6.000000,-3.000000,20.000000,17.000000,9.000000
1294744.974316,-12.000000,-10.000000,3.000000,5.000000,8.000000,-15.000000,-6.000000,-9.000000
1294744.974332,4.000000,-1.000000,-13.000000,14.000000,7.000000,7.000000,-11.000000,-13.000000
1294744.975000,13.000000,2.000000,8.000000,-3.000000,19.000000,20.000000,39.000000,18.000000
1294744.975009,-6.000000,-18.000000,-10.000000,-12.000000,-21.000000,-16.000000,-17.000000,-5.000000
1294744.995392,-16.000000,-12.000000,-10.000000,0.000000,-12.000000,-19.000000,-27.000000,-23.000000
1294744.995612,-1.000000,-11.000000,-9.000000,-1.000000,14.000000,4.000000,23.000000,3.000000
1294744.995822,3.000000,25.000000,0.000000,-14.000000,-29.000000,-6.000000,5.000000,4.000000
1294744.995828,-2.000000,-19.000000,-2.000000,7.000000,8.000000,1.000000,-23.000000,-2.000000
1294745.017794,3.000000,4.000000,2.000000,-16.000000,-32.000000,-9.000000,-9.000000,1.000000
1294745.017804,1.000000,-5.000000,-4.000000,11.000000,12.000000,10.000000,39.000000,-4.000000
1294745.025244,0.000000,-8.000000,-13.000000,-9.000000,-10.000000,-3.000000,1.000000,4.000000
1294745.025269,3.000000,22.000000,28.000000,22.000000,-3.000000,1.000000,-21.000000,-7.000000
1294745.055537,6.000000,-2.000000,5.000000,23.000000,62.000000,16.000000,15.000000,11.000000
1294745.055549,-5.000000,-8.000000,-16.000000,-18.000000,-14.000000,-14.000000,-7.000000,-5.000000
1294745.070220,-5.000000,-10.000000,-2.000000,11.000000,23.000000,-3.000000,8.000000,4.000000
1294745.070235,7.000000,7.000000,2.000000,-35.000000,-19.000000,-2.000000,9.000000,3.000000
1294745.108085,-12.000000,-5.000000,-13.000000,7.000000,5.000000,4.000000,-8.000000,-12.000000
1294745.108140,-7.000000,6.000000,-2.000000,5.000000,20.000000,3.000000,-21.000000,-9.000000
1294745.130246,35.000000,26.000000,29.000000,-17.000000,-75.000000,19.000000,86.000000,34.000000
1294745.130258,0.000000,-8.000000,6.000000,-3.000000,6.000000,-1.000000,-30.000000,3.000000
1294745.167778,-7.000000,-6.000000,1.000000,0.000000,-6.000000,-12.000000,-5.000000,-13.000000
1294745.167788,-3.000000,-1.000000,-4.000000,0.000000,1.000000,-9.000000,-23.000000,1.000000
1294745.182742,-2.000000,9.000000,4.000000,3.000000,-11.000000,0.000000,-10.000000,-5.000000
1294745.182767,-7.000000,-3.000000,-2.000000,-10.000000,-29.000000,-15.000000,-21.000000,-9.000000
1294745.212866,1.000000,1.000000,7.000000,-1.000000,-15.000000,8.000000,45.000000,10.000000
1294745.212970,1.000000,-11.000000,-6.000000,-16.000000,-15.000000,-7.000000,14.000000,7.000000
1294745.213165,-3.000000,-2.000000,-7.000000,-3.000000,13.000000,10.000000,17.000000,0.000000
1294745.213178,-3.000000,2.000000,-15.000000,-33.000000,-23.000000,-9.000000,-11.000000,0.000000
1294745.213625,9.000000,9.000000,-2.000000,-7.000000,3.000000,2.000000,11.000000,5.000000
1294745.213633,-4.000000,-5.000000,-1.000000,-5.000000,1.000000,-4.000000,28.000000,19.000000
1294745.214963,-4.000000,-13.000000,-15.000000,-23.000000,-6.000000,8.000000,16.000000,-10.000000
1294745.214971,2.000000,0.000000,6.000000,0.000000,-10.000000,-14.000000,-10.000000,1.000000
1294745.215555,-1.000000,-5.000000,-16.000000,-8.000000,-5.000000,9.000000,12.000000,5.000000
1294745.215568,-8.000000,-4.000000,3.000000,-3.000000,6.000000,-9.000000,-18.000000,-13.000000
1294745.295436,-4.000000,-1.000000,-3.000000,10.000000,18.000000,-4.000000,-26.000000,-8.000000
1294745.295449,13.000000,48.000000,28.000000,-8.000000,-5.000000,5.000000,19.000000,15.000000
1294745.325621,-2.000000,-10.000000,-1.000000,37.000000,53.000000,12.000000,-1.000000,5.000000
1294745.325631,-9.000000,-13.000000,-17.000000,-11.000000,1.000000,-5.000000,-13.000000,-5.000000
1294745.326496,-4.000000,-9.000000,-9.000000,-2.000000,-10.000000,8.000000,12.000000,-5.000000
1294745.326523,-6.000000,-5.000000,-13.000000,-7.000000,21.000000,4.000000,4.000000,-5.000000
1294745.326910,6.000000,6.000000,1.000000,-7.000000,-13.000000,7.000000,29.000000,15.000000
1294745.326918,13.000000,10.000000,8.000000,-5.000000,-16.000000,-2.000000,47.000000,15.000000
1294745.328160,-12.000000,-30.000000,-24.000000,-16.000000,-12.000000,-15.000000,-29.000000,-16.000000
1294745.328167,-10.000000,3.000000,11.000000,39.000000,50.000000,5.000000,-15.000000,-9.000000
1294745.329008,9.000000,11.000000,1.000000,17.000000,22.000000,6.000000,30.000000,20.000000
1294745.329016,-12.000000,-12.000000,-2.000000,-4.000000,9.000000,-13.000000,-40.000000,-19.000000
1294745.332951,0.000000,-5.000000,-8.000000,-15.000000,-18.000000,-4.000000,-8.000000,4.000000
1294745.332962,-12.000000,-15.000000,0.000000,4.000000,7.000000,0.000000,-16.000000,-18.000000
1294745.362720,21.000000,55.000000,32.000000,8.000000,4.000000,-6.000000,-4.000000,-5.000000
1294745.362733,3.000000,15.000000,13.000000,1.000000,-19.000000,-9.000000,0.000000,5.000000
1294745.370476,-8.000000,-10.000000,-3.000000,4.000000,0.000000,15.000000,-21.000000,-8.000000
1294745.370488,7.000000,8.000000,5.000000,22.000000,27.000000,9.000000,24.000000,5.000000
1294745.407769,-2.000000,-10.000000,-7.000000,-24.000000,-14.000000,-11.000000,-7.000000,3.000000
1294745.407794,-11.000000,-17.000000,-13.000000,-8.000000,-3.000000,-14.000000,-15.000000,-9.000000
1294745.415519,1.000000,4.000000,4.000000,3.000000,7.000000,12.000000,-31.000000,-8.000000
1294745.415532,5.000000,23.000000,28.000000,-16.000000,-21.000000,4.000000,35.000000,-6.000000
1294745.445130,7.000000,-2.000000,-4.000000,25.000000,30.000000,21.000000,52.000000,32.000000
1294745.445148,-15.000000,-15.000000,-8.000000,-1.000000,-10.000000,-20.000000,-38.000000,-17.000000
1294745.445686,6.000000,3.000000,9.000000,-60.000000,-42.000000,-7.000000,1.000000,-7.000000
1294745.445708,17.000000,10.000000,4.000000,11.000000,-16.000000,7.000000,27.000000,16.000000
1294745.447018,-9.000000,-21.000000,-9.000000,-11.000000,-4.000000,-18.000000,-7.000000,-1.000000
1294745.447089,-14.000000,-7.000000,4.000000,-12.000000,0.000000,-12.000000,-49.000000,-22.000000
1294745.447674,-9.000000,-16.000000,-18.000000,-9.000000,-5.000000,-11.000000,-20.000000,-12.000000
1294745.447718,-6.000000,1.000000,3.000000,-14.000000,-12.000000,-15.000000,-26.000000,-8.000000
1294745.448260,-1.000000,19.000000,3.000000,-6.000000,-24.000000,8.000000,-30.000000,-3.000000
1294745.448290,3.000000,0.000000,13.000000,6.000000,2.000000,11.000000,41.000000,3.000000
1294745.452895,13.000000,57.000000,50.000000,5.000000,3.000000,-11.000000,-25.000000,-1.000000
1294745.452905,1.000000,-9.000000,-22.000000,4.000000,39.000000,-3.000000,-1.000000,-5.000000
1294745.475492,2.000000,9.000000,16.000000,-7.000000,-67.000000,0.000000,11.000000,0.000000
1294745.475507,-10.000000,-7.000000,-14.000000,4.000000,14.000000,1.000000,13.000000,3.000000
1294745.490334,2.000000,29.000000,26.000000,-1.000000,-21.000000,-2.000000,-31.000000,-18.000000
1294745.490344,3.000000,-6.000000,5.000000,-9.000000,-14.000000,2.000000,18.000000,1.000000
1294745.527974,6.000000,-6.000000,-18.000000,31.000000,41.000000,19.000000,27.000000,10.000000
1294745.528018,-1.000000,8.000000,26.000000,-6.000000,-2.000000,-13.000000,-12.000000,-3.000000
1294745.572970,-3.000000,-22.000000,-23.000000,8.000000,28.000000,18.000000,0.000000,1.000000
1294745.573094,-9.000000,17.000000,-5.000000,4.000000,59.000000,0.000000,-28.000000,-13.000000
1294745.574003,-2.000000,9.000000,15.000000,7.000000,3.000000,23.000000,16.000000,-8.000000
1294745.574021,23.000000,4.000000,-9.000000,27.000000,56.000000,31.000000,16.000000,26.000000
1294745.574504,-10.000000,-8.000000,-4.000000,-8.000000,-13.000000,-15.000000,-30.000000,-7.000000
1294745.574534,-3.000000,-8.000000,4.000000,12.000000,9.000000,-15.000000,-11.000000,-10.000000
1294745.575703,-3.000000,-4.000000,0.000000,30.000000,35.000000,-6.000000,-9.000000,-2.000000
1294745.575731,2.000000,-5.000000,4.000000,-1.000000,12.000000,-6.000000,-7.000000,-2.000000
1294745.576860,-10.000000,-7.000000,-6.000000,19.000000,51.000000,-4.000000,-10.000000,-12.000000
1294745.576903,0.000000,8.000000,-5.000000,-19.000000,-26.000000,-2.000000,3.000000,-13.000000
1294745.602717,-8.000000,-5.000000,6.000000,-1.000000,3.000000,-4.000000,-16.000000,-11.000000
1294745.602742,18.000000,17.000000,1.000000,6.000000,-34.000000,9.000000,61.000000,13.000000
1294745.610515,-10.000000,-22.000000,-22.000000,-14.000000,-12.000000,-6.000000,-5.000000,-2.000000
1294745.610527,-1.000000,5.000000,18.000000,-1.000000,-2.000000,-12.000000,-29.000000,-18.000000
1294745.632756,7.000000,1.000000,12.000000,54.000000,46.000000,36.000000,24.000000,8.000000
1294745.632766,-4.000000,-11.000000,-15.000000,-19.000000,-18.000000,-14.000000,-16.000000,0.000000
1294745.647877,-7.000000,-6.000000,0.000000,-11.000000,-3.000000,-11.000000,-8.000000,-7.000000
1294745.647887,-4.000000,-21.000000,-12.000000,9.000000,-5.000000,8.000000,0.000000,-4.000000
1294745.663201,10.000000,24.000000,12.000000,7.000000,11.000000,8.000000,16.000000,13.000000
1294745.663211,-9.000000,-12.000000,-10.000000,-11.000000,-15.000000,-16.000000,-5.000000,-2.000000
1294745.663824,-3.000000,-12.000000,-16.000000,-10.000000,-36.000000,-5.000000,-8.000000,-7.000000
1294745.663832,15.000000,3.000000,14.000000,2.000000,-29.000000,7.000000,51.000000,12.000000
1294745.684966,7.000000,24.000000,11.000000,6.000000,18.000000,1.000000,-11.000000,2.000000
1294745.684979,-6.000000,-9.000000,-11.000000,-3.000000,-9.000000,-8.000000,-27.000000,-17.000000
1294745.685676,-16.000000,-15.000000,-7.000000,-10.000000,5.000000,-10.000000,-19.000000,-19.000000
1294745.685692,0.000000,-7.000000,-13.000000,17.000000,15.000000,8.000000,-2.000000,2.000000
1294745.686275,-2.000000,5.000000,25.000000,-7.000000,-6.000000,-10.000000,-4.000000,8.000000
1294745.686283,1.000000,3.000000,-13.000000,-26.000000,-43.000000,-8.000000,-2.000000,0.000000
1294745.687700,6.000000,0.000000,3.000000,16.000000,34.000000,13.000000,51.000000,23.000000
1294745.687709,1.000000,10.000000,6.000000,-3.000000,-2.000000,-20.000000,-8.000000,0.000000
1294745.692927,-14.000000,3.000000,0.000000,-15.000000,-23.000000,-3.000000,-27.000000,-17.000000
1294745.692938,4.000000,-4.000000,-6.000000,16.000000,39.000000,7.000000,11.000000,-6.000000
1294745.722819,5.000000,0.000000,16.000000,21.000000,16.000000,-1.000000,-37.000000,-1.000000
1294745.722830,0.000000,28.000000,18.000000,1.000000,-28.000000,8.000000,32.000000,-1.000000
1294745.730154,3.000000,2.000000,-3.000000,4.000000,15.000000,5.000000,37.000000,18.000000
1294745.730176,-3.000000,-22.000000,-20.000000,-29.000000,-47.000000,-16.000000,-14.000000,2.000000
1294745.760159,-2.000000,31.000000,42.000000,33.000000,58.000000,-8.000000,-2.000000,-2.000000
1294745.760183,-3.000000,-19.000000,0.000000,2.000000,-7.000000,1.000000,-3.000000,-6.000000
1294745.805439,8.000000,23.000000,7.000000,6.000000,20.000000,4.000000,18.000000,9.000000
1294745.805451,-11.000000,-13.000000,-10.000000,-1.000000,-3.000000,-8.000000,-34.000000,-25.000000
1294745.827616,2.000000,7.000000,-12.000000,-4.000000,7.000000,10.000000,36.000000,9.000000
1294745.827629,0.000000,-4.000000,-5.000000,-8.000000,-12.000000,-11.000000,-8.000000,-1.000000
1294745.857787,12.000000,19.000000,28.000000,34.000000,8.000000,23.000000,30.000000,22.000000
1294745.857815,-6.000000,-11.000000,-12.000000,4.000000,12.000000,4.000000,-17.000000,-16.000000
1294745.925523,-4.000000,-2.000000,-10.000000,-33.000000,-39.000000,-5.000000,-14.000000,-16.000000
1294745.925536,-8.000000,-7.000000,3.000000,2.000000,4.000000,-6.000000,-6.000000,-3.000000
1294745.925792,-5.000000,-8.000000,-6.000000,-8.000000,-12.000000,-7.000000,-10.000000,-6.000000
1294745.925800,-18.000000,-20.000000,-9.000000,-19.000000,-20.000000,-20.000000,-35.000000,-14.000000
1294745.926846,-9.000000,-5.000000,-7.000000,-10.000000,-11.000000,-5.000000,-10.000000,-24.000000
1294745.926856,5.000000,16.000000,21.000000,49.000000,58.000000,20.000000,8.000000,13.000000
1294745.927523,10.000000,23.000000,1.000000,8.000000,22.000000,8.000000,11.000000,6.000000
1294745.927533,-3.000000,-16.000000,-14.000000,-16.000000,-51.000000,-11.000000,3.000000,0.000000
1294745.928133,-6.000000,0.000000,-1.000000,6.000000,3.000000,1.000000,-17.000000,-29.000000
1294745.928143,-6.000000,-23.000000,-11.000000,-24.000000,-53.000000,-22.000000,-38.000000,-13.000000
1294745.928970,4.000000,12.000000,12.000000,2.000000,7.000000,5.000000,11.000000,2.000000
1294745.928979,-3.000000,-17.000000,-4.000000,-11.000000,-5.000000,-9.000000,-13.000000,7.000000
1294745.947591,2.000000,-5.000000,-6.000000,-4.000000,-19.000000,-15.000000,-9.000000,-1.000000
1294745.947615,-18.000000,-16.000000,-20.000000,-1.000000,10.000000,1.000000,-56.000000,-14.000000
1294745.970169,10.000000,-7.000000,8.000000,6.000000,2.000000,26.000000,65.000000,10.000000
1294745.970223,6.000000,23.000000,22.000000,3.000000,17.000000,-6.000000,-6.000000,-7.000000
1294745.977906,-1.000000,-7.000000,-11.000000,6.000000,17.000000,-1.000000,0.000000,9.000000
1294745.977916,1.000000,-10.000000,-14.000000,-5.000000,6.000000,-5.000000,19.000000,0.000000
1294746.007789,-7.000000,20.000000,23.000000,-15.000000,-14.000000,-10.000000,-19.000000,-13.000000
1294746.007806,3.000000,8.000000,2.000000,-13.000000,-18.000000,-11.000000,-35.000000,-7.000000
1294746.008155,-6.000000,-1.000000,-3.000000,1.000000,11.000000,9.000000,38.000000,8.000000
1294746.008164,-1.000000,-6.000000,-8.000000,33.000000,52.000000,8.000000,3.000000,11.000000
1294746.009379,-2.000000,-12.000000,-1.000000,-45.000000,-30.000000,5.000000,-15.000000,-6.000000
1294746.009388,14.000000,18.000000,20.000000,36.000000,34.000000,20.000000,48.000000,15.000000
1294746.009910,-8.000000,-6.000000,-12.000000,-7.000000,-8.000000,-12.000000,-5.000000,-1.000000
1294746.009918,-11.000000,-15.000000,-7.000000,-5.000000,-12.000000,-4.000000,-8.000000,-15.000000
1294746.014896,2.000000,-6.000000,-7.000000,3.000000,18.000000,-13.000000,-13.000000,6.000000
1294746.014904,2.000000,-7.000000,1.000000,-5.000000,-53.000000,17.000000,23.000000,7.000000
1294746.045233,4.000000,11.000000,-8.000000,7.000000,17.000000,7.000000,16.000000,3.000000
1294746.045255,-2.000000,-2.000000,2.000000,8.000000,18.000000,-12.000000,-31.000000,-4.000000
1294746.045648,-13.000000,-17.000000,-16.000000,6.000000,22.000000,-3.000000,-15.000000,-16.000000
1294746.045666,9.000000,-7.000000,0.000000,-28.000000,-48.000000,2.000000,39.000000,6.000000
1294746.047001,-3.000000,-4.000000,-13.000000,11.000000,29.000000,9.000000,-11.000000,-2.000000
1294746.047010,-12.000000,-12.000000,-4.000000,0.000000,3.000000,-3.000000,-23.000000,-13.000000
1294746.067904,15.000000,24.000000,19.000000,5.000000,3.000000,5.000000,68.000000,40.000000
1294746.067916,2.000000,11.000000,-9.000000,11.000000,44.000000,7.000000,-3.000000,-1.000000
1294746.090473,-9.000000,-3.000000,-2.000000,-13.000000,-41.000000,-19.000000,-30.000000,-21.000000
1294746.090484,5.000000,0.000000,-1.000000,15.000000,32.000000,17.000000,6.000000,2.000000
1294746.127723,1.000000,20.000000,14.000000,7.000000,-1.000000,-3.000000,-3.000000,1.000000
1294746.127733,1.000000,-11.000000,-4.000000,-6.000000,-3.000000,-4.000000,10.000000,-1.000000
1294746.157795,-15.000000,-4.000000,5.000000,17.000000,4.000000,-3.000000,-39.000000,-9.000000
1294746.157814,10.000000,-1.000000,1.000000,17.000000,57.000000,16.000000,55.000000,5.000000
1294746.158077,5.000000,0.000000,-1.000000,17.000000,9.000000,19.000000,10.000000,22.000000
1294746.158104,0.000000,-17.000000,-16.000000,-8.000000,6.000000,-8.000000,-1.000000,3.000000
1294746.159455,-8.000000,0.000000,7.000000,-16.000000,-23.000000,-17.000000,-7.000000,-2.000000
1294746.159483,1.000000,4.000000,2.000000,8.000000,14.000000,13.000000,1.000000,-9.000000
1294746.159983,-2.000000,-11.000000,-18.000000,-19.000000,-50.000000,-23.000000,19.000000,2.000000
1294746.159991,-14.000000,-20.000000,-4.000000,-12.000000,-23.000000,-21.000000,-33.000000,-6.000000
1294746.160576,-9.000000,-26.000000,-13.000000,5.000000,10.000000,-9.000000,-2.000000,4.000000
1294746.160595,5.000000,0.000000,2.000000,-22.000000,-18.000000,-4.000000,3.000000,3.000000
1294746.202847,4.000000,-31.000000,-24.000000,20.000000,8.000000,7.000000,-6.000000,-3.000000
1294746.202859,-5.000000,-6.000000,-13.000000,-6.000000,2.000000,-14.000000,-7.000000,-10.000000
1294746.240580,1.000000,32.000000,19.000000,5.000000,30.000000,5.000000,-2.000000,-2.000000
1294746.240609,8.000000,9.000000,3.000000,15.000000,26.000000,7.000000,24.000000,18.000000
1294746.248300,-4.000000,-4.000000,-1.000000,-4.000000,4.000000,-12.000000,-15.000000,-10.000000
1294746.248328,-12.000000,-10.000000,-7.000000,-2.000000,-4.000000,-15.000000,-27.000000,-16.000000
1294746.255826,-11.000000,-4.000000,-9.000000,3.000000,24.000000,5.000000,-27.000000,-17.000000
1294746.255846,5.000000,-9.000000,-15.000000,-5.000000,-15.000000,10.000000,43.000000,0.000000
1294746.256121,15.000000,34.000000,8.000000,-2.000000,-3.000000,5.000000,10.000000,18.000000
1294746.256143,5.000000,1.000000,-1.000000,-20.000000,-4.000000,13.000000,5.000000,3.000000
1294746.256878,-5.000000,-6.000000,-6.000000,11.000000,35.000000,-3.000000,-8.000000,-7.000000
1294746.256900,-14.000000,-24.000000,-14.000000,-14.000000,-22.000000,-27.000000,-30.000000,-17.000000
1294746.277623,7.000000,4.000000,7.000000,-3.000000,0.000000,0.000000,17.000000,8.000000
1294746.277647,6.000000,-2.000000,0.000000,23.000000,48.000000,8.000000,5.000000,17.000000
1294746.278809,-6.000000,-11.000000,-19.000000,2.000000,8.000000,3.000000,-9.000000,-7.000000
1294746.278831,-3.000000,2.000000,5.000000,1.000000,0.000000,-8.000000,12.000000,2.000000
1294746.285323,-8.000000,-7.000000,-1.000000,-10.000000,-22.000000,-17.000000,-18.000000,-2.000000
1294746.285333,-10.000000,-13.000000,-17.000000,1.000000,39.000000,11.000000,-6.000000,-12.000000
1294746.360214,12.000000,16.000000,10.000000,0.000000,-26.000000,-1.000000,37.000000,10.000000
1294746.360224,5.000000,-8.000000,5.000000,6.000000,27.000000,-6.000000,-10.000000,5.000000
1294746.367601,-13.000000,-16.000000,-11.000000,0.000000,-2.000000,0.000000,-3.000000,-8.000000
1294746.367612,6.000000,27.000000,9.000000,28.000000,38.000000,14.000000,13.000000,4.000000
1294746.405271,-16.000000,-34.000000,-19.000000,-1.000000,5.000000,-15.000000,-32.000000,-8.000000
1294746.405287,20.000000,50.000000,21.000000,-8.000000,7.000000,-1.000000,-25.000000,-15.000000
1294746.412679,4.000000,6.000000,-1.000000,16.000000,19.000000,13.000000,22.000000,13.000000
1294746.412689,0.000000,-1.000000,1.000000,7.000000,-10.000000,-7.000000,-7.000000,10.000000
1294746.420673,-2.000000,-25.000000,-8.000000,16.000000,35.000000,15.000000,43.000000,20.000000
1294746.420682,2.000000,4.000000,-5.000000,-11.000000,-9.000000,-6.000000,-6.000000,-5.000000
1294746.435457,-4.000000,-16.000000,-9.000000,-7.000000,0.000000,-11.000000,-3.000000,-7.000000
1294746.435468,-7.000000,-8.000000,-3.000000,-6.000000,-12.000000,-10.000000,-18.000000,-10.000000
1294746.472993,18.000000,9.000000,-14.000000,13.000000,14.000000,3.000000,2.000000,10.000000
1294746.473020,3.000000,2.000000,8.000000,-17.000000,-19.000000,-6.000000,-10.000000,-3.000000
1294746.495489,-11.000000,-26.000000,-14.000000,-6.000000,-7.000000,-6.000000,-20.000000,-3.000000
1294746.495504,7.000000,31.000000,34.000000,28.000000,-7.000000,21.000000,13.000000,1.000000
1294746.510280,5.000000,21.000000,-2.000000,-4.000000,-12.000000,-13.000000,24.000000,21.000000
1294746.510290,-10.000000,-2.000000,7.000000,11.000000,12.000000,6.000000,-18.000000,-4.000000
1294746.518437,-10.000000,-7.000000,-21.000000,-15.000000,-10.000000,-1.000000,11.000000,-3.000000
1294746.518451,-4.000000,-12.000000,3.000000,14.000000,11.000000,-8.000000,-29.000000,-10.000000
1294746.519428,-4.000000,-6.000000,4.000000,7.000000,13.000000,3.000000,-19.000000,12.000000
1294746.519437,2.000000,32.000000,5.000000,-12.000000,-20.000000,-16.000000,-14.000000,-2.000000
1294746.520094,4.000000,-6.000000,-1.000000,-10.000000,-23.000000,-13.000000,26.000000,19.000000
1294746.520120,-17.000000,7.000000,1.000000,-2.000000,2.000000,-16.000000,-59.000000,-26.000000
1294746.525184,1.000000,2.000000,4.000000,9.000000,-1.000000,0.000000,-4.000000,5.000000
1294746.525203,-5.000000,-11.000000,-21.000000,-36.000000,-35.000000,-16.000000,-9.000000,-10.000000
1294746.562845,0.000000,-6.000000,5.000000,16.000000,0.000000,-1.000000,-18.000000,13.000000
1294746.562855,7.000000,31.000000,16.000000,18.000000,6.000000,7.000000,48.000000,6.000000
1294746.570418,0.000000,-6.000000,0.000000,18.000000,33.000000,5.000000,-2.000000,4.000000
1294746.570429,-7.000000,-9.000000,10.000000,15.000000,36.000000,11.000000,-20.000000,-14.000000
1294746.600346,-10.000000,-23.000000,-19.000000,-15.000000,-22.000000,-21.000000,-26.000000,1.000000
1294746.600362,2.000000,9.000000,3.000000,5.000000,10.000000,-1.000000,-16.000000,-8.000000
1294746.637816,20.000000,-5.000000,2.000000,-20.000000,-26.000000,17.000000,57.000000,33.000000
1294746.637944,-1.000000,0.000000,-18.000000,-10.000000,-15.000000,-8.000000,-1.000000,-4.000000
1294746.638707,-14.000000,-4.000000,-2.000000,11.000000,11.000000,-10.000000,-9.000000,-14.000000
1294746.638725,-12.000000,-21.000000,-31.000000,-5.000000,28.000000,4.000000,-38.000000,-16.000000
1294746.639391,3.000000,-3.000000,18.000000,28.000000,39.000000,5.000000,14.000000,12.000000
1294746.639410,-8.000000,12.000000,-14.000000,2.000000,3.000000,-5.000000,-32.000000,-11.000000
1294746.640605,-9.000000,-3.000000,-3.000000,-13.000000,-11.000000,-10.000000,-20.000000,-22.000000
1294746.640618,21.000000,-2.000000,4.000000,38.000000,33.000000,28.000000,58.000000,38.000000
1294746.641581,-3.000000,-6.000000,-15.000000,-10.000000,-3.000000,11.000000,-1.000000,4.000000
1294746.641601,8.000000,34.000000,44.000000,-1.000000,7.000000,6.000000,-17.000000,2.000000
1294746.644984,12.000000,15.000000,10.000000,11.000000,24.000000,19.000000,42.000000,-1.000000
1294746.644992,-3.000000,-8.000000,-3.000000,-13.000000,-3.000000,-11.000000,-8.000000,2.000000
1294746.690188,-13.000000,-19.000000,-24.000000,-8.000000,-14.000000,-20.000000,-33.000000,-9.000000
1294746.690207,-5.000000,10.000000,0.000000,14.000000,46.000000,4.000000,-13.000000,-13.000000
1294746.720371,9.000000,1.000000,-7.000000,7.000000,4.000000,6.000000,-2.000000,-3.000000
1294746.720382,8.000000,16.000000,12.000000,13.000000,33.000000,10.000000,27.000000,18.000000
1294746.750346,-1.000000,8.000000,-5.000000,-6.000000,9.000000,-10.000000,-20.000000,-5.000000
1294746.750365,-4.000000,-8.000000,7.000000,3.000000,-15.000000,0.000000,-8.000000,-7.000000
1294746.750804,7.000000,18.000000,7.000000,-1.000000,-10.000000,4.000000,35.000000,10.000000
1294746.750836,2.000000,6.000000,-4.000000,14.000000,30.000000,10.000000,-9.000000,4.000000
1294746.757574,0.000000,-3.000000,3.000000,7.000000,-8.000000,-6.000000,-8.000000,-1.000000
1294746.757602,0.000000,-8.000000,-8.000000,6.000000,8.000000,3.000000,-1.000000,-2.000000
1294746.758101,-1.000000,-11.000000,-7.000000,-6.000000,14.000000,3.000000,25.000000,9.000000
1294746.758109,-1.000000,11.000000,1.000000,-26.000000,-42.000000,2.000000,-5.000000,0.000000
1294746.758698,4.000000,28.000000,21.000000,17.000000,-9.000000,3.000000,-2.000000,-7.000000
1294746.758708,0.000000,-19.000000,-9.000000,-13.000000,-11.000000,-6.000000,-14.000000,9.000000
1294746.760239,-12.000000,-17.000000,-13.000000,1.000000,10.000000,-5.000000,-12.000000,-19.000000
1294746.760265,2.000000,-2.000000,-1.000000,-13.000000,3.000000,-6.000000,-30.000000,0.000000
1294746.773222,-11.000000,-34.000000,-26.000000,2.000000,26.000000,9.000000,43.000000,0.000000
1294746.773244,12.000000,65.000000,46.000000,9.000000,-11.000000,-5.000000,-11.000000,1.000000
1294746.795199,-1.000000,-4.000000,2.000000,35.000000,90.000000,22.000000,21.000000,9.000000
1294746.795209,0.000000,4.000000,0.000000,-19.000000,-14.000000,-7.000000,-31.000000,-12.000000
1294746.802748,-9.000000,-23.000000,-16.000000,-3.000000,-8.000000,-6.000000,-5.000000,-10.000000
1294746.802758,13.000000,33.000000,-1.000000,-7.000000,-10.000000,11.000000,30.000000,18.000000
1294746.833047,5.000000,14.000000,18.000000,-4.000000,-8.000000,-2.000000,-12.000000,-1.000000
1294746.833068,-6.000000,-4.000000,-8.000000,8.000000,14.000000,4.000000,16.000000,2.000000
1294746.840235,-10.000000,-6.000000,-1.000000,-25.000000,-27.000000,-12.000000,-19.000000,-16.000000
1294746.840246,1.000000,0.000000,-16.000000,26.000000,51.000000,30.000000,11.000000,17.000000
1294746.863344,-12.000000,-20.000000,0.000000,-14.000000,-33.000000,-21.000000,3.000000,-7.000000
1294746.863378,9.000000,29.000000,7.000000,-3.000000,-12.000000,-8.000000,-4.000000,14.000000
1294746.863909,-5.000000,-4.000000,5.000000,18.000000,23.000000,3.000000,9.000000,-13.000000
1294746.863934,-4.000000,-12.000000,-12.000000,-8.000000,-10.000000,-12.000000,-38.000000,-7.000000
1294746.877700,-6.000000,-16.000000,9.000000,1.000000,22.000000,-6.000000,-7.000000,-6.000000
1294746.877752,14.000000,40.000000,6.000000,5.000000,0.000000,7.000000,6.000000,22.000000
1294746.878150,0.000000,-4.000000,-4.000000,4.000000,-25.000000,1.000000,20.000000,10.000000
1294746.878159,-7.000000,-7.000000,-13.000000,0.000000,5.000000,2.000000,-36.000000,-16.000000
1294746.878595,14.000000,6.000000,10.000000,3.000000,4.000000,-6.000000,-2.000000,11.000000
1294746.878603,-5.000000,3.000000,-3.000000,13.000000,15.000000,0.000000,-18.000000,-7.000000
1294746.880231,0.000000,4.000000,-2.000000,8.000000,7.000000,4.000000,19.000000,12.000000
1294746.880280,-3.000000,-22.000000,-23.000000,7.000000,20.000000,24.000000,-10.000000,-4.000000
1294746.900453,-1.000000,11.000000,11.000000,12.000000,32.000000,2.000000,2.000000,-5.000000
1294746.900464,-8.000000,-12.000000,-18.000000,-7.000000,4.000000,-11.000000,-26.000000,-5.000000
1294746.922595,13.000000,6.000000,-5.000000,-21.000000,-20.000000,-6.000000,-3.000000,-1.000000
1294746.922605,3.000000,7.000000,25.000000,37.000000,69.000000,20.000000,19.000000,6.000000
1294746.960173,-2.000000,-3.000000,-1.000000,-6.000000,-17.000000,-7.000000,-6.000000,0.000000
1294746.960197,-3.000000,-6.000000,-12.000000,-6.000000,-6.000000,-1.000000,13.000000,0.000000
1294746.968134,4.000000,13.000000,0.000000,0.000000,2.000000,-3.000000,-12.000000,4.000000
1294746.968153,-8.000000,-6.000000,0.000000,22.000000,51.000000,12.000000,-3.000000,-12.000000
1294746.968852,-9.000000,-18.000000,-23.000000,-21.000000,-11.000000,-13.000000,-11.000000,7.000000
1294746.968866,5.000000,3.000000,19.000000,-9.000000,-53.000000,17.000000,44.000000,8.000000
1294746.969984,-2.000000,-4.000000,-5.000000,8.000000,9.000000,-1.000000,-14.000000,-7.000000
1294746.969994,-12.000000,-15.000000,-20.000000,-8.000000,-11.000000,-9.000000,-1.000000,-9.000000
1294746.971340,-14.000000,0.000000,-11.000000,-7.000000,6.000000,-5.000000,1.000000,-14.000000
1294746.971351,14.000000,5.000000,12.000000,-14.000000,-42.000000,6.000000,6.000000,14.000000
1294746.990415,-1.000000,0.000000,0.000000,-14.000000,-18.000000,-4.000000,36.000000,-10.000000
1294746.990426,-6.000000,-31.000000,-13.000000,30.000000,33.000000,-2.000000,-36.000000,-3.000000
1294746.997749,0.000000,42.000000,24.000000,-15.000000,-38.000000,-14.000000,-8.000000,6.000000
1294746.997760,-2.000000,-10.000000,-18.000000,-7.000000,-3.000000,-5.000000,22.000000,7.000000
1294747.050201,13.000000,0.000000,-6.000000,-9.000000,-28.000000,-16.000000,-17.000000,2.000000
1294747.050212,-19.000000,-35.000000,-17.000000,-4.000000,16.000000,-5.000000,-13.000000,-17.000000
1294747.057893,14.000000,43.000000,32.000000,1.000000,-3.000000,-6.000000,-12.000000,-7.000000
1294747.057915,-10.000000,-7.000000,-4.000000,-22.000000,-33.000000,-1.000000,-4.000000,-11.000000
1294747.087817,-2.000000,-6.000000,-1.000000,16.000000,42.000000,10.000000,51.000000,10.000000
1294747.087828,8.000000,34.000000,14.000000,14.000000,15.000000,0.000000,-4.000000,-4.000000
1294747.110262,-3.000000,-6.000000,-6.000000,-11.000000,-19.000000,0.000000,0.000000,11.000000
1294747.110272,-3.000000,-7.000000,4.000000,-1.000000,-12.000000,-9.000000,9.000000,-2.000000
1294747.125849,5.000000,-7.000000,2.000000,-11.000000,-21.000000,-10.000000,-15.000000,-5.000000
1294747.125860,-14.000000,-19.000000,-17.000000,1.000000,8.000000,-11.000000,-32.000000,-13.000000
1294747.128264,-12.000000,-6.000000,3.000000,-8.000000,-8.000000,-5.000000,-10.000000,-8.000000
1294747.128276,-3.000000,9.000000,2.000000,-3.000000,-4.000000,-6.000000,-4.000000,-1.000000
1294747.140295,13.000000,1.000000,-4.000000,30.000000,76.000000,10.000000,20.000000,15.000000
1294747.140307,-7.000000,13.000000,5.000000,2.000000,3.000000,-9.000000,-17.000000,-7.000000
1294747.185326,-10.000000,-23.000000,-25.000000,-13.000000,-9.000000,-10.000000,-18.000000,-7.000000
1294747.185336,-2.000000,1.000000,0.000000,-11.000000,-21.000000,-10.000000,4.000000,-4.000000
1294747.192735,-6.000000,-10.000000,-3.000000,1.000000,23.000000,2.000000,-4.000000,-9.000000
1294747.192758,0.000000,-4.000000,0.000000,0.000000,-3.000000,2.000000,-1.000000,5.000000
1294747.222822,-7.000000,-8.000000,-10.000000,-4.000000,-4.000000,-10.000000,-14.000000,-6.000000
1294747.222832,-12.000000,-3.000000,8.000000,0.000000,3.000000,-11.000000,-11.000000,-8.000000
1294747.237788,7.000000,5.000000,20.000000,-3.000000,-1.000000,8.000000,18.000000,-1.000000
1294747.237829,3.000000,8.000000,16.000000,-41.000000,-41.000000,7.000000,35.000000,5.000000
1294747.244986,-11.000000,-23.000000,-17.000000,-14.000000,-10.000000,-13.000000,-27.000000,-17.000000
1294747.245003,-5.000000,0.000000,-5.000000,-22.000000,-37.000000,-7.000000,-7.000000,1.000000
1294747.246126,-6.000000,2.000000,3.000000,1.000000,-13.000000,1.000000,1.000000,0.000000
1294747.246146,-1.000000,-1.000000,-11.000000,-9.000000,3.000000,1.000000,6.000000,-1.000000
1294747.247777,8.000000,15.000000,4.000000,7.000000,7.000000,3.000000,-10.000000,2.000000
1294747.247796,-2.000000,-23.000000,-31.000000,-13.000000,0.000000,2.000000,51.000000,9.000000
1294747.252658,-10.000000,-7.000000,4.000000,9.000000,28.000000,-1.000000,-20.000000,0.000000
1294747.252686,-9.000000,-20.000000,-13.000000,-6.000000,-6.000000,-10.000000,-22.000000,-13.000000
1294747.297637,-11.000000,-7.000000,-9.000000,-10.000000,-11.000000,-10.000000,-15.000000,-12.000000
1294747.297647,10.000000,-20.000000,-23.000000,-10.000000,-22.000000,4.000000,-4.000000,9.000000
1294747.313070,-9.000000,-10.000000,6.000000,-1.000000,-13.000000,-7.000000,-28.000000,-14.000000
1294747.313099,-7.000000,-10.000000,-10.000000,-10.000000,-7.000000,-1.000000,0.000000,1.000000
1294747.350046,15.000000,15.000000,14.000000,15.000000,-32.000000,16.000000,28.000000,11.000000
1294747.350061,2.000000,-19.000000,-1.000000,9.000000,10.000000,-2.000000,-10.000000,-2.000000
1294747.351461,-12.000000,-6.000000,-10.000000,6.000000,29.000000,1.000000,-6.000000,-4.000000
1294747.351470,12.000000,17.000000,26.000000,7.000000,-8.000000,2.000000,18.000000,18.000000
1294747.351918,1.000000,-1.000000,-4.000000,-5.000000,-10.000000,1.000000,28.000000,-1.000000
1294747.351926,-5.000000,-3.000000,-2.000000,24.000000,40.000000,-1.000000,-9.000000,-10.000000
1294747.358147,-6.000000,-10.000000,-5.000000,-4.000000,-4.000000,-9.000000,-15.000000,0.000000
1294747.358156,-7.000000,-3.000000,18.000000,25.000000,46.000000,6.000000,-9.000000,-6.000000
1294747.360026,-11.000000,-2.000000,-19.000000,-7.000000,-7.000000,-14.000000,-30.000000,-12.000000
1294747.360037,-13.000000,-16.000000,-16.000000,-11.000000,-14.000000,-20.000000,-15.000000,-11.000000
1294747.387823,12.000000,0.000000,-2.000000,-16.000000,-19.000000,9.000000,40.000000,3.000000
1294747.387840,-8.000000,18.000000,14.000000,28.000000,37.000000,13.000000,-9.000000,5.000000
1294747.402935,-4.000000,-13.000000,-5.000000,-5.000000,-5.000000,-10.000000,-20.000000,-2.000000
1294747.402946,-8.000000,-6.000000,-8.000000,-9.000000,-6.000000,-9.000000,-23.000000,-6.000000
1294747.432841,23.000000,21.000000,24.000000,-19.000000,-73.000000,7.000000,51.000000,34.000000
1294747.432859,-2.000000,-20.000000,-28.000000,5.000000,37.000000,10.000000,10.000000,10.000000
1294747.470653,-7.000000,18.000000,2.000000,-6.000000,-21.000000,-16.000000,-10.000000,-4.000000
1294747.470671,-11.000000,-23.000000,-16.000000,-3.000000,-6.000000,-4.000000,-39.000000,-17.000000
1294747.471265,3.000000,4.000000,4.000000,1.000000,7.000000,1.000000,14.000000,2.000000
1294747.471417,-1.000000,18.000000,24.000000,5.000000,-1.000000,1.000000,-17.000000,10.000000
1294747.472411,5.000000,-6.000000,1.000000,9.000000,-18.000000,3.000000,15.000000,-1.000000
1294747.472420,4.000000,0.000000,-3.000000,11.000000,40.000000,-4.000000,4.000000,10.000000
1294747.473193,3.000000,3.000000,1.000000,-19.000000,-24.000000,1.000000,27.000000,1.000000
1294747.473212,-14.000000,-9.000000,4.000000,-13.000000,-21.000000,-2.000000,-1.000000,-9.000000
1294747.478270,12.000000,11.000000,-6.000000,13.000000,24.000000,-1.000000,-2.000000,14.000000
1294747.478292,-7.000000,-6.000000,3.000000,18.000000,-9.000000,15.000000,38.000000,0.000000
1294747.492805,6.000000,-22.000000,-6.000000,4.000000,7.000000,3.000000,4.000000,7.000000
1294747.492816,2.000000,21.000000,12.000000,4.000000,-3.000000,-3.000000,-25.000000,-4.000000
1294747.522959,2.000000,16.000000,5.000000,-18.000000,-50.000000,-7.000000,1.000000,-1.000000
1294747.522984,5.000000,-9.000000,0.000000,-4.000000,28.000000,15.000000,16.000000,9.000000
1294747.530241,-4.000000,-6.000000,-12.000000,-13.000000,-17.000000,-7.000000,-11.000000,-19.000000
1294747.530250,7.000000,1.000000,16.000000,8.000000,5.000000,2.000000,6.000000,13.000000
1294747.552851,-1.000000,-16.000000,-15.000000,-2.000000,14.000000,-6.000000,-9.000000,3.000000
1294747.552864,-4.000000,-12.000000,8.000000,13.000000,-5.000000,-2.000000,-20.000000,-15.000000
1294747.567741,-4.000000,-8.000000,-25.000000,-14.000000,-10.000000,-17.000000,-33.000000,-10.000000
1294747.567751,5.000000,-6.000000,0.000000,31.000000,54.000000,15.000000,56.000000,26.000000
1294747.583322,-9.000000,-4.000000,11.000000,-15.000000,-13.000000,-10.000000,-17.000000,-21.000000
1294747.583355,1.000000,11.000000,-13.000000,-4.000000,-3.000000,-5.000000,-22.000000,-9.000000
1294747.590469,-4.000000,-9.000000,-16.000000,-19.000000,-12.000000,0.000000,21.000000,-1.000000
1294747.590523,2.000000,-7.000000,10.000000,-3.000000,-56.000000,6.000000,7.000000,10.000000
1294747.591531,-1.000000,-6.000000,-12.000000,-6.000000,12.000000,-16.000000,-6.000000,-5.000000
1294747.591558,-5.000000,-17.000000,-18.000000,6.000000,22.000000,6.000000,-4.000000,-1.000000
1294747.592541,18.000000,10.000000,11.000000,-21.000000,-19.000000,-4.000000,0.000000,10.000000
1294747.592567,-13.000000,-5.000000,7.000000,-10.000000,-4.000000,-2.000000,-4.000000,-14.000000
1294747.593446,-10.000000,-13.000000,-21.000000,-10.000000,-10.000000,-10.000000,-10.000000,-5.000000
1294747.593453,-4.000000,11.000000,-5.000000,-3.000000,-10.000000,-3.000000,-4.000000,-8.000000
1294747.612601,-11.000000,-18.000000,-4.000000,-19.000000,-16.000000,-11.000000,26.000000,-11.000000
1294747.612620,14.000000,19.000000,6.000000,27.000000,38.000000,22.000000,-6.000000,22.000000
1294747.627968,-1.000000,0.000000,-12.000000,-6.000000,6.000000,11.000000,32.000000,4.000000
1294747.627980,-6.000000,-11.000000,-5.000000,-5.000000,-15.000000,-9.000000,-18.000000,-10.000000
1294747.642966,-2.000000,-9.000000,-3.000000,29.000000,17.000000,4.000000,2.000000,-5.000000
1294747.642979,8.000000,5.000000,-4.000000,-2.000000,9.000000,-1.000000,23.000000,12.000000
1294747.665109,-6.000000,-2.000000,2.000000,-17.000000,-24.000000,-15.000000,-20.000000,-5.000000
1294747.665119,-10.000000,-8.000000,0.000000,2.000000,11.000000,-3.000000,-38.000000,-20.000000
1294747.680476,8.000000,27.000000,20.000000,-20.000000,-13.000000,11.000000,56.000000,14.000000
1294747.680489,2.000000,-7.000000,-6.000000,2.000000,0.000000,-3.000000,-18.000000,-1.000000
1294747.710215,-10.000000,-13.000000,-12.000000,-15.000000,-4.000000,-12.000000,-9.000000,-1.000000
1294747.710229,4.000000,14.000000,1.000000,40.000000,87.000000,19.000000,2.000000,-8.000000
1294747.793149,9.000000,13.000000,11.000000,27.000000,7.000000,11.000000,35.000000,3.000000
1294747.793175,-14.000000,-10.000000,-17.000000,-15.000000,-7.000000,-15.000000,-32.000000,-7.000000
1294747.793914,1.000000,-5.000000,-11.000000,1.000000,22.000000,1.000000,-11.000000,-7.000000
1294747.794222,3.000000,6.000000,18.000000,5.000000,-7.000000,4.000000,10.000000,5.000000
1294747.795291,-5.000000,-10.000000,-5.000000,-3.000000,-10.000000,-8.000000,-7.000000,-8.000000
1294747.795312,-3.000000,0.000000,-9.000000,5.000000,7.000000,3.000000,-11.000000,-9.000000
1294747.797393,-1.000000,5.000000,1.000000,20.000000,32.000000,13.000000,15.000000,1.000000
1294747.797411,-1.000000,-3.000000,1.000000,-5.000000,-32.000000,-10.000000,-13.000000,-3.000000
1294747.801529,-9.000000,-16.000000,-19.000000,-15.000000,-6.000000,-6.000000,6.000000,-4.000000
1294747.801637,1.000000,3.000000,-3.000000,-3.000000,-10.000000,0.000000,7.000000,-1.000000
1294747.808425,3.000000,21.000000,18.000000,-25.000000,-58.000000,-10.000000,3.000000,-1.000000
1294747.808464,11.000000,0.000000,4.000000,13.000000,18.000000,11.000000,28.000000,19.000000
1294747.823454,0.000000,-9.000000,-11.000000,-1.000000,10.000000,-1.000000,-7.000000,-1.000000
1294747.823508,-5.000000,1.000000,13.000000,15.000000,17.000000,-6.000000,-18.000000,-7.000000
1294747.830187,-4.000000,-4.000000,-14.000000,-4.000000,-9.000000,-1.000000,-10.000000,-1.000000
1294747.830200,0.000000,-11.000000,-8.000000,2.000000,-19.000000,4.000000,3.000000,-8.000000
1294747.860280,7.000000,-4.000000,-2.000000,-16.000000,-14.000000,-4.000000,17.000000,14.000000
1294747.860311,6.000000,-9.000000,-11.000000,-9.000000,-26.000000,-5.000000,-3.000000,8.000000
1294747.867812,-10.000000,10.000000,-1.000000,-8.000000,-19.000000,-19.000000,-29.000000,-20.000000
1294747.867823,3.000000,4.000000,13.000000,-6.000000,-8.000000,10.000000,-3.000000,2.000000
1294747.897821,-2.000000,-28.000000,-30.000000,-4.000000,-4.000000,-7.000000,-2.000000,-10.000000
1294747.897851,11.000000,15.000000,5.000000,3.000000,-15.000000,-7.000000,-14.000000,-2.000000
1294747.905103,-3.000000,8.000000,4.000000,-5.000000,-9.000000,-25.000000,-26.000000,-6.000000
1294747.905125,12.000000,15.000000,19.000000,9.000000,13.000000,18.000000,24.000000,18.000000
1294747.913333,-6.000000,-8.000000,-10.000000,-13.000000,-9.000000,-7.000000,23.000000,-4.000000
1294747.913344,-2.000000,-6.000000,0.000000,9.000000,-1.000000,-5.000000,-27.000000,-7.000000
1294747.913873,-1.000000,-10.000000,-14.000000,6.000000,-7.000000,9.000000,7.000000,3.000000
1294747.913883,3.000000,1.000000,12.000000,2.000000,3.000000,-4.000000,13.000000,4.000000
1294747.915673,5.000000,-5.000000,-14.000000,15.000000,4.000000,10.000000,14.000000,1.000000
1294747.915686,-1.000000,4.000000,7.000000,16.000000,27.000000,-8.000000,1.000000,-4.000000
1294747.921007,-10.000000,-23.000000,-18.000000,1.000000,8.000000,-10.000000,-31.000000,-16.000000
1294747.921018,10.000000,24.000000,14.000000,0.000000,-1.000000,4.000000,0.000000,19.000000
1294747.942766,-8.000000,-9.000000,-9.000000,-3.000000,5.000000,-3.000000,19.000000,-4.000000
1294747.942777,-6.000000,-5.000000,4.000000,0.000000,5.000000,5.000000,-19.000000,-9.000000
1294747.943871,-6.000000,-4.000000,-9.000000,6.000000,27.000000,7.000000,22.000000,3.000000
1294747.943881,-3.000000,-9.000000,-12.000000,6.000000,34.000000,15.000000,-22.000000,-11.000000
1294747.950229,0.000000,-14.000000,6.000000,-31.000000,-58.000000,0.000000,19.000000,6.000000
