# participant_id: P1
# gesture: soft
# trial_number: 2
# stream_name: Myo_EMG
# stream_type: emg
# timestamp: 20260420_130546
# samples: 4594
# duration_sec: 30.330
# nominal_sample_rate: 200.0
# effective_sample_rate: 151.43
#
timestamp,emg_1,emg_2,emg_3,emg_4,emg_5,emg_6,emg_7,emg_8
1295038.215850,-1.000000,12.000000,1.000000,40.000000,65.000000,19.000000,-5.000000,-3.000000
1295038.215860,-5.000000,-6.000000,3.000000,4.000000,4.000000,-11.000000,-42.000000,-8.000000
1295038.223353,5.000000,5.000000,2.000000,-21.000000,-41.000000,3.000000,-4.000000,0.000000
1295038.223363,3.000000,0.000000,7.000000,15.000000,25.000000,19.000000,41.000000,17.000000
1295038.290647,-2.000000,22.000000,9.000000,14.000000,1.000000,2.000000,-13.000000,-9.000000
1295038.290709,-7.000000,-16.000000,-11.000000,12.000000,40.000000,-1.000000,10.000000,-2.000000
1295038.291136,-1.000000,-3.000000,2.000000,-24.000000,-26.000000,-2.000000,-20.000000,-8.000000
1295038.291146,-8.000000,-3.000000,-10.000000,-10.000000,-8.000000,-8.000000,-23.000000,-3.000000
1295038.292263,-7.000000,-8.000000,-5.000000,-3.000000,11.000000,-6.000000,-19.000000,-1.000000
1295038.292272,10.000000,-23.000000,-8.000000,46.000000,76.000000,35.000000,30.000000,12.000000
1295038.292923,-1.000000,7.000000,8.000000,-1.000000,-6.000000,14.000000,24.000000,6.000000
1295038.292931,-8.000000,-12.000000,-23.000000,-9.000000,7.000000,-9.000000,-16.000000,-1.000000
1295038.313734,17.000000,17.000000,20.000000,40.000000,18.000000,15.000000,13.000000,-1.000000
1295038.313745,0.000000,-5.000000,-8.000000,-6.000000,-4.000000,-10.000000,6.000000,6.000000
1295038.336126,-13.000000,-14.000000,-15.000000,-16.000000,-13.000000,-22.000000,-54.000000,-25.000000
1295038.336149,-3.000000,-3.000000,-8.000000,32.000000,53.000000,12.000000,16.000000,0.000000
1295038.336728,-1.000000,-5.000000,5.000000,-8.000000,-1.000000,-8.000000,11.000000,-7.000000
1295038.336753,1.000000,9.000000,2.000000,9.000000,22.000000,15.000000,3.000000,6.000000
1295038.338176,-10.000000,-8.000000,-9.000000,1.000000,4.000000,-8.000000,-19.000000,-10.000000
1295038.338191,-3.000000,-9.000000,-7.000000,-19.000000,-2.000000,4.000000,8.000000,-27.000000
1295038.343029,4.000000,-11.000000,-5.000000,2.000000,-11.000000,1.000000,36.000000,52.000000
1295038.343038,2.000000,7.000000,-11.000000,-8.000000,12.000000,10.000000,-12.000000,-4.000000
1295038.366055,-2.000000,-6.000000,3.000000,20.000000,3.000000,-2.000000,12.000000,-4.000000
1295038.366087,-7.000000,-13.000000,-10.000000,-13.000000,-21.000000,-18.000000,-12.000000,-5.000000
1295038.366554,0.000000,16.000000,-3.000000,-15.000000,-31.000000,-11.000000,-19.000000,-5.000000
1295038.366580,-6.000000,5.000000,-2.000000,-6.000000,-6.000000,2.000000,-7.000000,-9.000000
1295038.410855,7.000000,0.000000,2.000000,16.000000,23.000000,27.000000,79.000000,18.000000
1295038.410866,-4.000000,1.000000,-2.000000,-1.000000,-1.000000,-3.000000,-6.000000,0.000000
1295038.425825,2.000000,9.000000,1.000000,2.000000,10.000000,-9.000000,-11.000000,-4.000000
1295038.425853,-6.000000,-14.000000,-23.000000,-18.000000,-13.000000,-16.000000,-20.000000,-4.000000
1295038.448744,0.000000,2.000000,3.000000,-11.000000,-5.000000,-2.000000,-8.000000,-6.000000
1295038.448754,0.000000,-4.000000,0.000000,-15.000000,-26.000000,-12.000000,-31.000000,-5.000000
1295038.449247,-1.000000,8.000000,12.000000,33.000000,20.000000,15.000000,43.000000,6.000000
1295038.449256,6.000000,20.000000,4.000000,15.000000,6.000000,4.000000,11.000000,7.000000
1295038.450540,-2.000000,-12.000000,-6.000000,-7.000000,-5.000000,-6.000000,-3.000000,-5.000000
1295038.450548,-8.000000,-3.000000,-3.000000,-34.000000,-51.000000,-11.000000,-11.000000,-8.000000
1295038.452330,22.000000,0.000000,-8.000000,10.000000,15.000000,3.000000,-1.000000,29.000000
1295038.452341,-11.000000,-4.000000,-14.000000,-13.000000,-12.000000,-13.000000,-23.000000,-12.000000
1295038.463800,0.000000,-7.000000,0.000000,2.000000,-9.000000,2.000000,7.000000,0.000000
1295038.463814,-4.000000,6.000000,9.000000,1.000000,-9.000000,-5.000000,2.000000,-7.000000
1295038.464587,8.000000,-3.000000,6.000000,6.000000,7.000000,9.000000,-14.000000,25.000000
1295038.464595,11.000000,16.000000,17.000000,18.000000,8.000000,15.000000,29.000000,3.000000
1295038.486027,2.000000,1.000000,0.000000,4.000000,18.000000,-9.000000,-11.000000,-3.000000
1295038.486050,-13.000000,-2.000000,-13.000000,-22.000000,-14.000000,-20.000000,-63.000000,-26.000000
1295038.486826,8.000000,6.000000,2.000000,21.000000,15.000000,16.000000,41.000000,8.000000
1295038.486848,8.000000,16.000000,18.000000,35.000000,49.000000,14.000000,5.000000,7.000000
1295038.500910,-9.000000,-11.000000,-9.000000,-13.000000,-20.000000,-9.000000,-10.000000,-1.000000
1295038.500920,-3.000000,19.000000,23.000000,-3.000000,-12.000000,-15.000000,-30.000000,-11.000000
1295038.508228,-2.000000,-15.000000,1.000000,0.000000,-4.000000,0.000000,-1.000000,-2.000000
1295038.508238,-2.000000,-3.000000,-17.000000,0.000000,1.000000,0.000000,8.000000,1.000000
1295038.530551,-13.000000,-19.000000,-6.000000,-19.000000,-4.000000,-17.000000,-27.000000,-11.000000
1295038.530562,-1.000000,23.000000,4.000000,-16.000000,-36.000000,10.000000,-11.000000,-1.000000
1295038.568320,5.000000,5.000000,6.000000,-1.000000,-10.000000,-4.000000,21.000000,11.000000
1295038.568349,5.000000,3.000000,-6.000000,-14.000000,-27.000000,-14.000000,7.000000,10.000000
1295038.575965,-9.000000,-14.000000,-5.000000,-13.000000,-9.000000,-29.000000,-31.000000,-11.000000
1295038.575984,0.000000,14.000000,19.000000,6.000000,-40.000000,1.000000,-1.000000,-6.000000
1295038.576720,2.000000,-7.000000,-2.000000,33.000000,73.000000,8.000000,-9.000000,8.000000
1295038.576735,4.000000,9.000000,8.000000,-7.000000,-16.000000,10.000000,7.000000,-1.000000
1295038.577956,-3.000000,-18.000000,-6.000000,-2.000000,-7.000000,-11.000000,4.000000,8.000000
1295038.577979,-9.000000,-6.000000,9.000000,-2.000000,3.000000,-2.000000,-17.000000,-6.000000
1295038.578783,-6.000000,3.000000,-3.000000,-8.000000,1.000000,-4.000000,-31.000000,-7.000000
1295038.578809,-2.000000,-2.000000,14.000000,-21.000000,-28.000000,4.000000,13.000000,-8.000000
1295038.590741,-2.000000,0.000000,3.000000,-3.000000,-64.000000,-5.000000,-9.000000,-10.000000
1295038.590752,-6.000000,-8.000000,-2.000000,-17.000000,-1.000000,-15.000000,-8.000000,-15.000000
1295038.620555,2.000000,13.000000,11.000000,13.000000,8.000000,-3.000000,26.000000,32.000000
1295038.620578,-8.000000,-9.000000,-2.000000,-17.000000,-9.000000,8.000000,-33.000000,-15.000000
1295038.643150,11.000000,16.000000,-1.000000,10.000000,16.000000,2.000000,50.000000,9.000000
1295038.643161,0.000000,-16.000000,1.000000,-9.000000,-32.000000,6.000000,9.000000,0.000000
1295038.665790,-9.000000,-6.000000,-7.000000,-9.000000,4.000000,-18.000000,-47.000000,-17.000000
1295038.665801,-10.000000,-4.000000,-8.000000,-13.000000,-8.000000,-13.000000,19.000000,-3.000000
1295038.673308,10.000000,21.000000,18.000000,30.000000,-41.000000,15.000000,43.000000,14.000000
1295038.673318,-2.000000,-8.000000,-12.000000,-6.000000,-2.000000,-2.000000,3.000000,4.000000
1295038.688960,-11.000000,-2.000000,-1.000000,-16.000000,-24.000000,-8.000000,-11.000000,-9.000000
1295038.688991,-5.000000,-2.000000,18.000000,19.000000,34.000000,11.000000,-18.000000,-7.000000
1295038.689498,-4.000000,-20.000000,-24.000000,-18.000000,1.000000,-13.000000,4.000000,5.000000
1295038.689524,-8.000000,8.000000,-3.000000,-30.000000,-67.000000,-25.000000,-17.000000,-10.000000
1295038.689957,3.000000,10.000000,11.000000,21.000000,44.000000,11.000000,29.000000,1.000000
1295038.689986,-9.000000,-17.000000,-10.000000,-3.000000,3.000000,-13.000000,-5.000000,0.000000
1295038.691335,-9.000000,-7.000000,-6.000000,10.000000,26.000000,10.000000,-11.000000,-22.000000
1295038.691342,-5.000000,8.000000,6.000000,23.000000,43.000000,-5.000000,-6.000000,9.000000
1295038.725947,-8.000000,-10.000000,-7.000000,-27.000000,-37.000000,-12.000000,-21.000000,-22.000000
1295038.725959,17.000000,10.000000,5.000000,38.000000,8.000000,19.000000,33.000000,20.000000
1295038.733415,-4.000000,-1.000000,-17.000000,-15.000000,-8.000000,-9.000000,-11.000000,-6.000000
1295038.733427,-11.000000,-10.000000,-2.000000,0.000000,5.000000,-7.000000,-13.000000,-12.000000
1295038.763218,-12.000000,-14.000000,-15.000000,-21.000000,-6.000000,-10.000000,-8.000000,-8.000000
1295038.763233,1.000000,-4.000000,0.000000,17.000000,18.000000,11.000000,13.000000,-1.000000
1295038.770964,-3.000000,-1.000000,-4.000000,-5.000000,8.000000,4.000000,-33.000000,-3.000000
1295038.770976,-7.000000,11.000000,3.000000,6.000000,5.000000,9.000000,34.000000,-7.000000
1295038.778825,3.000000,1.000000,11.000000,41.000000,75.000000,28.000000,34.000000,10.000000
1295038.778836,-10.000000,-21.000000,-23.000000,7.000000,-10.000000,-2.000000,-17.000000,-9.000000
1295038.779433,-13.000000,-7.000000,-1.000000,-11.000000,-12.000000,-18.000000,-41.000000,-12.000000
1295038.779445,-1.000000,-1.000000,-3.000000,-8.000000,-15.000000,-2.000000,-4.000000,-12.000000
1295038.781768,0.000000,-5.000000,1.000000,42.000000,44.000000,27.000000,9.000000,1.000000
1295038.781781,16.000000,39.000000,4.000000,-15.000000,-22.000000,4.000000,40.000000,20.000000
1295038.808145,3.000000,0.000000,-6.000000,3.000000,29.000000,6.000000,-10.000000,3.000000
1295038.808164,1.000000,-5.000000,12.000000,19.000000,16.000000,7.000000,7.000000,5.000000
1295038.809070,-6.000000,-3.000000,-3.000000,-9.000000,-8.000000,-7.000000,-20.000000,-12.000000
1295038.809091,-12.000000,-12.000000,-9.000000,-18.000000,-18.000000,-13.000000,-37.000000,-8.000000
1295038.809994,9.000000,2.000000,-5.000000,-6.000000,-16.000000,5.000000,39.000000,7.000000
1295038.810014,3.000000,-1.000000,12.000000,7.000000,3.000000,-3.000000,17.000000,11.000000
1295038.852990,-4.000000,6.000000,0.000000,-1.000000,-13.000000,-13.000000,-8.000000,6.000000
1295038.853001,-8.000000,-15.000000,-13.000000,3.000000,-1.000000,-1.000000,-23.000000,-19.000000
1295038.868147,4.000000,-5.000000,-4.000000,-21.000000,-39.000000,2.000000,28.000000,3.000000
1295038.868157,-1.000000,6.000000,6.000000,0.000000,4.000000,-3.000000,-3.000000,-7.000000
1295038.898734,-3.000000,-2.000000,-3.000000,-4.000000,-3.000000,-8.000000,14.000000,6.000000
1295038.898757,-7.000000,-14.000000,-16.000000,3.000000,20.000000,7.000000,-16.000000,-4.000000
1295038.920919,-4.000000,-2.000000,6.000000,-16.000000,-50.000000,-10.000000,-7.000000,-6.000000
1295038.920929,0.000000,-4.000000,-5.000000,-5.000000,4.000000,1.000000,-9.000000,4.000000
1295038.943296,-6.000000,-14.000000,-5.000000,25.000000,9.000000,8.000000,10.000000,-4.000000
1295038.943326,6.000000,35.000000,9.000000,7.000000,-1.000000,-5.000000,-26.000000,-1.000000
1295038.944159,0.000000,9.000000,17.000000,13.000000,15.000000,20.000000,35.000000,2.000000
1295038.944180,-3.000000,-12.000000,-6.000000,3.000000,3.000000,-5.000000,-2.000000,-2.000000
1295038.965662,13.000000,11.000000,2.000000,32.000000,4.000000,13.000000,5.000000,38.000000
1295038.965673,-6.000000,-19.000000,-9.000000,-3.000000,2.000000,-15.000000,-10.000000,-10.000000
1295039.018199,-11.000000,-17.000000,-9.000000,-14.000000,-5.000000,-17.000000,-30.000000,-17.000000
1295039.018211,2.000000,4.000000,4.000000,16.000000,3.000000,3.000000,-5.000000,7.000000
1295039.040576,-10.000000,-17.000000,-21.000000,-22.000000,-14.000000,-8.000000,16.000000,3.000000
1295039.040586,11.000000,14.000000,32.000000,52.000000,23.000000,14.000000,15.000000,8.000000
1295039.055403,-16.000000,-3.000000,-14.000000,-11.000000,-10.000000,-8.000000,-24.000000,-8.000000
1295039.055413,-6.000000,-6.000000,-10.000000,-7.000000,9.000000,-12.000000,-12.000000,-30.000000
1295039.056613,-2.000000,1.000000,9.000000,34.000000,-2.000000,-3.000000,-2.000000,0.000000
1295039.056623,1.000000,-15.000000,-5.000000,-33.000000,-71.000000,-9.000000,-15.000000,-8.000000
1295039.057231,12.000000,16.000000,19.000000,29.000000,64.000000,29.000000,35.000000,20.000000
1295039.057241,-7.000000,-21.000000,-34.000000,14.000000,23.000000,-12.000000,-10.000000,-4.000000
1295039.063288,7.000000,14.000000,6.000000,11.000000,-4.000000,5.000000,15.000000,9.000000
1295039.063300,-3.000000,-10.000000,-4.000000,-2.000000,-9.000000,-7.000000,-34.000000,-3.000000
1295039.078444,-6.000000,-17.000000,1.000000,-4.000000,5.000000,-2.000000,-3.000000,-6.000000
1295039.078462,-6.000000,8.000000,-16.000000,-10.000000,-13.000000,-11.000000,-25.000000,-4.000000
1295039.085812,14.000000,32.000000,23.000000,1.000000,-4.000000,3.000000,9.000000,-2.000000
1295039.085824,0.000000,-13.000000,-10.000000,4.000000,3.000000,5.000000,16.000000,-2.000000
1295039.123341,-1.000000,-6.000000,-1.000000,3.000000,7.000000,-11.000000,-9.000000,19.000000
1295039.123353,-11.000000,-8.000000,-11.000000,-30.000000,-21.000000,-10.000000,-17.000000,-20.000000
1295039.130557,-4.000000,-9.000000,-17.000000,3.000000,13.000000,3.000000,-9.000000,0.000000
1295039.130567,15.000000,29.000000,19.000000,15.000000,4.000000,13.000000,15.000000,6.000000
1295039.145717,5.000000,-5.000000,6.000000,11.000000,9.000000,-1.000000,5.000000,8.000000
1295039.145729,-5.000000,-11.000000,-18.000000,-9.000000,1.000000,0.000000,-4.000000,-1.000000
1295039.168450,-20.000000,-19.000000,-15.000000,-8.000000,-10.000000,-3.000000,-45.000000,-18.000000
1295039.168462,14.000000,19.000000,10.000000,-27.000000,-59.000000,8.000000,64.000000,13.000000
1295039.169286,11.000000,6.000000,16.000000,3.000000,-7.000000,1.000000,24.000000,20.000000
1295039.169297,-8.000000,-18.000000,-17.000000,18.000000,42.000000,-12.000000,-2.000000,-7.000000
1295039.169787,2.000000,-1.000000,-2.000000,-14.000000,-30.000000,-11.000000,-16.000000,-4.000000
1295039.169796,-2.000000,-4.000000,-12.000000,35.000000,70.000000,28.000000,12.000000,3.000000
1295039.171277,-4.000000,0.000000,6.000000,-6.000000,-17.000000,-24.000000,-38.000000,-6.000000
1295039.171288,2.000000,6.000000,-3.000000,3.000000,-6.000000,-5.000000,7.000000,-7.000000
1295039.172199,5.000000,0.000000,7.000000,0.000000,1.000000,0.000000,6.000000,15.000000
1295039.172217,-1.000000,-3.000000,2.000000,7.000000,-19.000000,-5.000000,-2.000000,-5.000000
1295039.176197,-5.000000,12.000000,10.000000,5.000000,5.000000,12.000000,-5.000000,-6.000000
1295039.176206,3.000000,-8.000000,-4.000000,2.000000,0.000000,2.000000,6.000000,0.000000
1295039.183016,0.000000,10.000000,4.000000,-2.000000,-12.000000,-6.000000,39.000000,-2.000000
1295039.183034,1.000000,-10.000000,-3.000000,3.000000,31.000000,6.000000,-36.000000,20.000000
1295039.205507,4.000000,0.000000,9.000000,50.000000,21.000000,35.000000,63.000000,5.000000
1295039.205517,11.000000,20.000000,8.000000,1.000000,4.000000,11.000000,31.000000,3.000000
1295039.220630,-8.000000,-22.000000,-5.000000,2.000000,-4.000000,-15.000000,-20.000000,-10.000000
1295039.220640,-2.000000,4.000000,5.000000,-45.000000,-79.000000,-17.000000,-8.000000,1.000000
1295039.243008,-9.000000,-9.000000,-15.000000,-14.000000,-9.000000,-17.000000,-38.000000,-11.000000
1295039.243019,-4.000000,-8.000000,-15.000000,-12.000000,-22.000000,6.000000,40.000000,1.000000
1295039.258092,-2.000000,-14.000000,-20.000000,-16.000000,-20.000000,-15.000000,-18.000000,-7.000000
1295039.258104,-2.000000,13.000000,5.000000,-19.000000,-25.000000,-3.000000,-45.000000,0.000000
1295039.280632,6.000000,-1.000000,-1.000000,14.000000,6.000000,5.000000,10.000000,5.000000
1295039.280650,-3.000000,-14.000000,-10.000000,-2.000000,22.000000,-6.000000,23.000000,6.000000
1295039.280916,5.000000,8.000000,3.000000,0.000000,-36.000000,3.000000,-22.000000,-2.000000
1295039.280924,0.000000,2.000000,-5.000000,6.000000,23.000000,6.000000,50.000000,11.000000
1295039.282310,-7.000000,-9.000000,-5.000000,5.000000,-8.000000,-9.000000,-16.000000,-3.000000
1295039.282328,-3.000000,2.000000,7.000000,3.000000,9.000000,-8.000000,-14.000000,-9.000000
1295039.282995,4.000000,-4.000000,2.000000,-1.000000,-13.000000,4.000000,8.000000,-2.000000
1295039.283005,14.000000,1.000000,0.000000,1.000000,11.000000,0.000000,13.000000,15.000000
1295039.284522,-3.000000,-12.000000,-9.000000,16.000000,35.000000,9.000000,6.000000,-1.000000
1295039.284532,-5.000000,-8.000000,0.000000,-14.000000,-8.000000,-10.000000,-18.000000,1.000000
1295039.287977,1.000000,3.000000,-16.000000,-4.000000,-25.000000,-12.000000,27.000000,9.000000
1295039.287987,10.000000,16.000000,18.000000,24.000000,36.000000,19.000000,23.000000,13.000000
1295039.296516,-2.000000,-2.000000,-3.000000,-1.000000,5.000000,-6.000000,-12.000000,0.000000
1295039.296529,-7.000000,-9.000000,-23.000000,-26.000000,-18.000000,-19.000000,-3.000000,-1.000000
1295039.318047,-6.000000,-3.000000,11.000000,20.000000,-18.000000,8.000000,-12.000000,-2.000000
1295039.318057,2.000000,0.000000,3.000000,9.000000,15.000000,-4.000000,-2.000000,-17.000000
1295039.333280,-5.000000,3.000000,10.000000,-5.000000,0.000000,-14.000000,-26.000000,-21.000000
1295039.333292,2.000000,6.000000,-3.000000,36.000000,33.000000,15.000000,29.000000,26.000000
1295039.363211,16.000000,4.000000,5.000000,7.000000,33.000000,28.000000,54.000000,21.000000
1295039.363232,-9.000000,10.000000,13.000000,11.000000,17.000000,-8.000000,-35.000000,-18.000000
1295039.386306,-16.000000,-32.000000,-39.000000,-14.000000,0.000000,-1.000000,-44.000000,-23.000000
1295039.386315,12.000000,24.000000,30.000000,8.000000,-12.000000,10.000000,42.000000,4.000000
1295039.401219,12.000000,8.000000,-6.000000,19.000000,17.000000,1.000000,-5.000000,8.000000
1295039.401405,-5.000000,3.000000,10.000000,13.000000,7.000000,-5.000000,-4.000000,-5.000000
1295039.402030,2.000000,-25.000000,-10.000000,-30.000000,-40.000000,-6.000000,-8.000000,0.000000
1295039.402047,-8.000000,-6.000000,-20.000000,11.000000,27.000000,-4.000000,-14.000000,-3.000000
1295039.402453,0.000000,5.000000,10.000000,1.000000,-34.000000,-2.000000,5.000000,-3.000000
1295039.402481,-7.000000,-10.000000,-6.000000,-6.000000,12.000000,-2.000000,-11.000000,-8.000000
1295039.402942,1.000000,-6.000000,-21.000000,-13.000000,0.000000,-3.000000,-11.000000,4.000000
1295039.402950,10.000000,-3.000000,9.000000,0.000000,-13.000000,3.000000,55.000000,2.000000
1295039.404720,-12.000000,17.000000,-4.000000,-6.000000,-4.000000,-7.000000,-31.000000,-13.000000
1295039.404728,5.000000,-6.000000,0.000000,0.000000,6.000000,-4.000000,2.000000,8.000000
1295039.408222,-13.000000,-7.000000,-2.000000,38.000000,46.000000,4.000000,5.000000,-12.000000
1295039.408241,12.000000,16.000000,13.000000,-20.000000,-33.000000,11.000000,3.000000,4.000000
1295039.423778,-3.000000,-10.000000,-12.000000,9.000000,14.000000,-3.000000,19.000000,7.000000
1295039.423788,0.000000,-4.000000,15.000000,4.000000,18.000000,7.000000,-17.000000,-3.000000
1295039.445832,-1.000000,-2.000000,-5.000000,-2.000000,-7.000000,-8.000000,-2.000000,-3.000000
1295039.445845,9.000000,18.000000,-8.000000,-4.000000,-4.000000,0.000000,13.000000,13.000000
1295039.475714,-3.000000,-13.000000,-30.000000,-24.000000,-18.000000,-12.000000,-21.000000,-5.000000
1295039.475726,-7.000000,-15.000000,-6.000000,-35.000000,-30.000000,-4.000000,-4.000000,-1.000000
1295039.483216,-12.000000,12.000000,-3.000000,1.000000,-6.000000,-4.000000,0.000000,-9.000000
1295039.483228,14.000000,22.000000,15.000000,9.000000,31.000000,19.000000,14.000000,13.000000
1295039.521804,-2.000000,-9.000000,-7.000000,7.000000,-13.000000,-10.000000,13.000000,-7.000000
1295039.521835,4.000000,-6.000000,-1.000000,-10.000000,-15.000000,7.000000,22.000000,-10.000000
1295039.522296,-4.000000,22.000000,-2.000000,2.000000,12.000000,4.000000,-32.000000,8.000000
1295039.522307,-6.000000,-21.000000,-9.000000,-5.000000,14.000000,2.000000,-23.000000,-9.000000
1295039.523582,6.000000,15.000000,10.000000,0.000000,5.000000,6.000000,11.000000,-4.000000
1295039.523617,-3.000000,6.000000,16.000000,-12.000000,-51.000000,-1.000000,1.000000,-4.000000
1295039.524029,-5.000000,-12.000000,-19.000000,-3.000000,4.000000,-7.000000,-4.000000,0.000000
1295039.524042,-16.000000,-16.000000,-19.000000,-7.000000,5.000000,-14.000000,-32.000000,-17.000000
1295039.524737,-2.000000,0.000000,-4.000000,-11.000000,-25.000000,-18.000000,18.000000,8.000000
1295039.524759,-7.000000,2.000000,-8.000000,-10.000000,13.000000,6.000000,-41.000000,-19.000000
1295039.536003,-6.000000,-8.000000,-9.000000,-5.000000,2.000000,-4.000000,-8.000000,-5.000000
1295039.536013,-1.000000,-8.000000,-13.000000,-14.000000,-9.000000,4.000000,-3.000000,-4.000000
1295039.536931,0.000000,-1.000000,15.000000,10.000000,21.000000,-4.000000,-11.000000,-6.000000
1295039.536939,-4.000000,-5.000000,-7.000000,-18.000000,-27.000000,-11.000000,1.000000,8.000000
1295039.558171,-11.000000,-12.000000,-12.000000,-2.000000,-3.000000,-9.000000,-39.000000,-8.000000
1295039.558200,1.000000,4.000000,-1.000000,-8.000000,-12.000000,-3.000000,9.000000,1.000000
1295039.573346,-1.000000,-2.000000,-5.000000,-4.000000,12.000000,-2.000000,-17.000000,-13.000000
1295039.573357,6.000000,5.000000,12.000000,-13.000000,-61.000000,1.000000,-9.000000,4.000000
1295039.595762,-1.000000,-7.000000,-15.000000,17.000000,22.000000,2.000000,22.000000,-16.000000
1295039.595779,-7.000000,-11.000000,-2.000000,-36.000000,-33.000000,-21.000000,9.000000,27.000000
1295039.610543,-1.000000,-2.000000,0.000000,-29.000000,-22.000000,3.000000,5.000000,-4.000000
1295039.610571,-4.000000,-2.000000,-6.000000,23.000000,9.000000,3.000000,18.000000,-3.000000
1295039.640472,3.000000,3.000000,11.000000,-8.000000,-21.000000,-14.000000,-13.000000,-5.000000
1295039.640503,-6.000000,-4.000000,-18.000000,-7.000000,4.000000,-9.000000,-14.000000,-9.000000
1295039.641694,-4.000000,0.000000,-2.000000,-24.000000,-3.000000,-4.000000,-18.000000,4.000000
1295039.641709,-4.000000,-6.000000,5.000000,-12.000000,-23.000000,-5.000000,1.000000,-7.000000
1295039.642312,-5.000000,-2.000000,3.000000,27.000000,3.000000,6.000000,-8.000000,2.000000
1295039.642322,-5.000000,-3.000000,-8.000000,-1.000000,21.000000,6.000000,-9.000000,-4.000000
1295039.643657,4.000000,0.000000,-4.000000,8.000000,-16.000000,-3.000000,43.000000,10.000000
1295039.643676,-8.000000,-14.000000,-14.000000,-10.000000,-1.000000,-7.000000,-26.000000,-9.000000
1295039.644522,-5.000000,-15.000000,-28.000000,-9.000000,-3.000000,-1.000000,-43.000000,-11.000000
1295039.644570,-3.000000,14.000000,-4.000000,-9.000000,1.000000,3.000000,13.000000,0.000000
1295039.663197,7.000000,45.000000,31.000000,6.000000,6.000000,-3.000000,-14.000000,3.000000
1295039.663210,-10.000000,-12.000000,-13.000000,-26.000000,-22.000000,-15.000000,-8.000000,-3.000000
1295039.670951,18.000000,33.000000,25.000000,44.000000,26.000000,18.000000,18.000000,7.000000
1295039.670964,4.000000,3.000000,-6.000000,6.000000,2.000000,-1.000000,20.000000,-8.000000
1295039.678320,-11.000000,-20.000000,-15.000000,-8.000000,-10.000000,-5.000000,-22.000000,-5.000000
1295039.678333,10.000000,9.000000,16.000000,-19.000000,-69.000000,-3.000000,3.000000,8.000000
1295039.700607,3.000000,-4.000000,8.000000,11.000000,9.000000,0.000000,4.000000,-4.000000
1295039.700616,-9.000000,-2.000000,-9.000000,-8.000000,13.000000,1.000000,-23.000000,-24.000000
1295039.723327,-9.000000,-6.000000,-8.000000,-4.000000,-8.000000,-12.000000,-7.000000,8.000000
1295039.723336,0.000000,-6.000000,-5.000000,1.000000,12.000000,-1.000000,4.000000,-4.000000
1295039.738170,2.000000,1.000000,5.000000,-5.000000,-3.000000,11.000000,4.000000,0.000000
1295039.738193,4.000000,11.000000,16.000000,2.000000,-18.000000,1.000000,3.000000,-3.000000
1295039.753431,5.000000,5.000000,-7.000000,-22.000000,-39.000000,-8.000000,-11.000000,6.000000
1295039.753584,2.000000,6.000000,0.000000,16.000000,24.000000,-5.000000,-10.000000,-4.000000
1295039.754357,-8.000000,-15.000000,-13.000000,1.000000,5.000000,-2.000000,3.000000,1.000000
1295039.754384,-1.000000,3.000000,-6.000000,-16.000000,-29.000000,-15.000000,-10.000000,-12.000000
1295039.754975,4.000000,6.000000,15.000000,37.000000,12.000000,20.000000,18.000000,13.000000
1295039.754996,-6.000000,-2.000000,-5.000000,1.000000,6.000000,-6.000000,-16.000000,-4.000000
1295039.755530,-12.000000,-13.000000,-7.000000,-16.000000,-8.000000,-7.000000,18.000000,-8.000000
1295039.755538,2.000000,-1.000000,-3.000000,0.000000,4.000000,1.000000,15.000000,9.000000
1295039.756232,-7.000000,-3.000000,-13.000000,-13.000000,-22.000000,-18.000000,-30.000000,-10.000000
1295039.756239,7.000000,-2.000000,7.000000,14.000000,20.000000,20.000000,32.000000,3.000000
1295039.760494,9.000000,7.000000,14.000000,2.000000,-6.000000,1.000000,0.000000,7.000000
1295039.760502,-2.000000,-1.000000,-11.000000,-9.000000,-6.000000,-4.000000,-2.000000,-3.000000
1295039.828288,-5.000000,-8.000000,1.000000,6.000000,14.000000,1.000000,-10.000000,-6.000000
1295039.828298,-9.000000,-11.000000,-17.000000,-15.000000,-5.000000,-17.000000,-22.000000,-14.000000
1295039.843489,11.000000,25.000000,18.000000,43.000000,24.000000,15.000000,34.000000,17.000000
1295039.843518,0.000000,4.000000,3.000000,-9.000000,-10.000000,-17.000000,-27.000000,-15.000000
1295039.851000,-10.000000,-3.000000,-10.000000,-19.000000,-18.000000,-13.000000,-4.000000,-17.000000
1295039.851029,5.000000,3.000000,7.000000,4.000000,18.000000,1.000000,9.000000,1.000000
1295039.873609,-1.000000,8.000000,-19.000000,8.000000,34.000000,10.000000,52.000000,23.000000
1295039.873638,1.000000,-1.000000,5.000000,-10.000000,-2.000000,-3.000000,3.000000,6.000000
1295039.874234,-3.000000,-13.000000,-10.000000,13.000000,12.000000,-7.000000,-3.000000,-4.000000
1295039.874247,-4.000000,0.000000,0.000000,-6.000000,10.000000,-12.000000,-32.000000,-16.000000
1295039.874650,6.000000,35.000000,19.000000,1.000000,-4.000000,1.000000,13.000000,-5.000000
1295039.874658,-5.000000,-4.000000,10.000000,6.000000,-18.000000,7.000000,-17.000000,-3.000000
1295039.876149,-1.000000,-11.000000,-17.000000,-9.000000,-9.000000,-10.000000,-13.000000,-6.000000
1295039.876157,-1.000000,-4.000000,-8.000000,2.000000,7.000000,-8.000000,-10.000000,-1.000000
1295039.876991,-11.000000,-1.000000,-11.000000,-6.000000,-14.000000,3.000000,12.000000,-5.000000
1295039.876999,12.000000,13.000000,18.000000,27.000000,14.000000,9.000000,-10.000000,-1.000000
1295039.880380,-5.000000,-9.000000,-12.000000,-10.000000,1.000000,3.000000,8.000000,-1.000000
1295039.880389,7.000000,27.000000,45.000000,18.000000,1.000000,9.000000,-5.000000,-14.000000
1295039.887843,1.000000,-7.000000,-1.000000,-3.000000,25.000000,13.000000,-15.000000,12.000000
1295039.887866,10.000000,9.000000,3.000000,30.000000,12.000000,12.000000,21.000000,6.000000
1295039.895727,-11.000000,-7.000000,-15.000000,-14.000000,-11.000000,-17.000000,-18.000000,-14.000000
1295039.895737,-7.000000,-5.000000,3.000000,8.000000,9.000000,-1.000000,-19.000000,-11.000000
1295039.918084,-13.000000,-12.000000,-10.000000,-4.000000,0.000000,-9.000000,-11.000000,-14.000000
1295039.918113,3.000000,-7.000000,-11.000000,-29.000000,-51.000000,2.000000,11.000000,-3.000000
1295039.955599,8.000000,35.000000,27.000000,17.000000,-13.000000,8.000000,25.000000,20.000000
1295039.955609,-9.000000,-23.000000,-25.000000,-8.000000,7.000000,-10.000000,-34.000000,-12.000000
1295039.963151,-9.000000,-11.000000,-16.000000,-18.000000,-33.000000,-21.000000,11.000000,-12.000000
1295039.963174,15.000000,20.000000,11.000000,39.000000,40.000000,16.000000,26.000000,18.000000
1295040.001104,-6.000000,-7.000000,7.000000,-24.000000,-29.000000,-3.000000,-7.000000,-7.000000
1295040.001141,-1.000000,1.000000,3.000000,1.000000,-12.000000,9.000000,-12.000000,-3.000000
1295040.001567,10.000000,-5.000000,-9.000000,-15.000000,-21.000000,-4.000000,43.000000,39.000000
1295040.001594,4.000000,-4.000000,0.000000,8.000000,-8.000000,-7.000000,-6.000000,2.000000
1295040.002462,-13.000000,-12.000000,-5.000000,-5.000000,2.000000,-7.000000,-17.000000,-13.000000
1295040.002470,0.000000,-10.000000,-1.000000,-22.000000,-10.000000,-7.000000,-1.000000,-5.000000
1295040.003085,-6.000000,-13.000000,-4.000000,30.000000,17.000000,6.000000,4.000000,-2.000000
1295040.003114,5.000000,7.000000,-10.000000,1.000000,26.000000,7.000000,13.000000,4.000000
1295040.003650,-4.000000,-7.000000,-12.000000,7.000000,2.000000,8.000000,-25.000000,1.000000
1295040.003677,-12.000000,-9.000000,-5.000000,-26.000000,-12.000000,-13.000000,12.000000,-24.000000
1295040.004568,19.000000,-1.000000,-4.000000,44.000000,53.000000,17.000000,10.000000,43.000000
1295040.004590,-1.000000,-13.000000,-3.000000,-2.000000,-13.000000,-12.000000,-16.000000,-8.000000
1295040.008403,4.000000,3.000000,10.000000,12.000000,40.000000,21.000000,8.000000,12.000000
1295040.008419,-2.000000,0.000000,-6.000000,-6.000000,-27.000000,-10.000000,1.000000,-1.000000
1295040.015691,-1.000000,3.000000,8.000000,7.000000,11.000000,-4.000000,-9.000000,-2.000000
1295040.015707,-3.000000,-17.000000,-15.000000,-20.000000,-13.000000,-3.000000,4.000000,5.000000
1295040.030596,-1.000000,18.000000,15.000000,2.000000,1.000000,1.000000,-22.000000,-7.000000
1295040.030607,-4.000000,-12.000000,-16.000000,2.000000,14.000000,-3.000000,-5.000000,-4.000000
1295040.053309,9.000000,4.000000,2.000000,-26.000000,-33.000000,4.000000,33.000000,12.000000
1295040.053319,5.000000,5.000000,4.000000,-2.000000,-32.000000,0.000000,-12.000000,-2.000000
1295040.075603,-2.000000,-3.000000,-1.000000,30.000000,19.000000,5.000000,-24.000000,-10.000000
1295040.075613,-10.000000,-14.000000,4.000000,-8.000000,4.000000,-6.000000,-13.000000,-10.000000
1295040.091434,7.000000,3.000000,1.000000,-3.000000,-31.000000,-6.000000,-1.000000,2.000000
1295040.091462,-5.000000,-5.000000,-10.000000,14.000000,62.000000,4.000000,-6.000000,-4.000000
1295040.091917,-14.000000,-5.000000,-9.000000,8.000000,-12.000000,-7.000000,-33.000000,-23.000000
1295040.091924,5.000000,-17.000000,-1.000000,-49.000000,-55.000000,-4.000000,13.000000,12.000000
1295040.113566,19.000000,22.000000,6.000000,26.000000,39.000000,13.000000,10.000000,12.000000
1295040.113601,-9.000000,-8.000000,-7.000000,26.000000,16.000000,-4.000000,-16.000000,-8.000000
1295040.120432,-3.000000,-5.000000,-6.000000,-9.000000,-11.000000,9.000000,15.000000,0.000000
1295040.120450,-3.000000,21.000000,3.000000,2.000000,4.000000,-7.000000,2.000000,-16.000000
1295040.128271,5.000000,-9.000000,-30.000000,-29.000000,-12.000000,-8.000000,-8.000000,28.000000
1295040.128282,3.000000,10.000000,18.000000,1.000000,-3.000000,12.000000,46.000000,-3.000000
1295040.158119,-3.000000,-5.000000,3.000000,0.000000,4.000000,-3.000000,-4.000000,7.000000
1295040.158131,-9.000000,-9.000000,-18.000000,5.000000,5.000000,2.000000,-15.000000,-11.000000
1295040.180557,-4.000000,-3.000000,7.000000,30.000000,72.000000,13.000000,11.000000,2.000000
1295040.180567,4.000000,6.000000,2.000000,-11.000000,-19.000000,-3.000000,4.000000,2.000000
1295040.195804,-3.000000,11.000000,18.000000,22.000000,42.000000,16.000000,-14.000000,-2.000000
1295040.195815,-4.000000,-5.000000,-10.000000,-4.000000,-12.000000,-26.000000,6.000000,-6.000000
1295040.234006,4.000000,-12.000000,3.000000,-22.000000,-38.000000,20.000000,-7.000000,7.000000
1295040.234015,-3.000000,1.000000,2.000000,24.000000,9.000000,5.000000,3.000000,-3.000000
1295040.234383,-1.000000,0.000000,-1.000000,-21.000000,-13.000000,-9.000000,2.000000,-6.000000
1295040.234391,-4.000000,-4.000000,-13.000000,2.000000,17.000000,3.000000,-9.000000,-6.000000
1295040.235429,8.000000,19.000000,8.000000,-2.000000,2.000000,0.000000,-4.000000,7.000000
1295040.235437,-12.000000,-14.000000,-21.000000,-17.000000,-7.000000,-16.000000,-26.000000,-6.000000
1295040.236088,2.000000,13.000000,2.000000,-20.000000,-19.000000,2.000000,-7.000000,22.000000
1295040.236096,-5.000000,-15.000000,-3.000000,4.000000,16.000000,-3.000000,34.000000,-1.000000
1295040.236935,5.000000,0.000000,17.000000,-2.000000,6.000000,14.000000,10.000000,9.000000
1295040.236943,-3.000000,-15.000000,-28.000000,2.000000,18.000000,-4.000000,-4.000000,-5.000000
1295040.240461,1.000000,-13.000000,-8.000000,-1.000000,-1.000000,0.000000,28.000000,0.000000
1295040.240469,-3.000000,0.000000,-3.000000,1.000000,0.000000,1.000000,11.000000,3.000000
1295040.255558,20.000000,13.000000,9.000000,18.000000,4.000000,18.000000,23.000000,32.000000
1295040.255586,-1.000000,10.000000,13.000000,4.000000,14.000000,-4.000000,-30.000000,-10.000000
1295040.308193,-13.000000,-19.000000,-25.000000,-14.000000,-18.000000,1.000000,16.000000,-9.000000
1295040.308204,-6.000000,-11.000000,-3.000000,-9.000000,-3.000000,-5.000000,-13.000000,-12.000000
1295040.315707,-10.000000,-8.000000,-5.000000,21.000000,41.000000,0.000000,-21.000000,-11.000000
1295040.315724,3.000000,-5.000000,8.000000,-10.000000,1.000000,4.000000,37.000000,10.000000
1295040.353297,1.000000,-3.000000,-10.000000,15.000000,0.000000,6.000000,4.000000,7.000000
1295040.353320,-5.000000,-3.000000,-4.000000,6.000000,20.000000,-4.000000,-23.000000,-9.000000
1295040.353615,-8.000000,-13.000000,2.000000,0.000000,35.000000,9.000000,-48.000000,-10.000000
1295040.353623,5.000000,10.000000,8.000000,-10.000000,-47.000000,12.000000,61.000000,11.000000
1295040.354661,-1.000000,6.000000,2.000000,2.000000,10.000000,-5.000000,-3.000000,4.000000
1295040.354669,-5.000000,-14.000000,-3.000000,-17.000000,-32.000000,-27.000000,3.000000,5.000000
1295040.355431,-8.000000,-5.000000,-1.000000,1.000000,-5.000000,-14.000000,-35.000000,-13.000000
1295040.355441,0.000000,-6.000000,2.000000,43.000000,83.000000,34.000000,11.000000,3.000000
1295040.356121,-10.000000,-13.000000,-7.000000,-13.000000,8.000000,-16.000000,-26.000000,-6.000000
1295040.356144,3.000000,-7.000000,-7.000000,-25.000000,-32.000000,0.000000,-3.000000,1.000000
1295040.356951,-7.000000,13.000000,18.000000,6.000000,2.000000,5.000000,1.000000,-8.000000
1295040.357003,-3.000000,-16.000000,-18.000000,-2.000000,4.000000,-3.000000,1.000000,-2.000000
1295040.383374,-7.000000,-13.000000,-10.000000,-4.000000,6.000000,-3.000000,8.000000,-2.000000
1295040.383386,-8.000000,-13.000000,-14.000000,-1.000000,-2.000000,-12.000000,-17.000000,-10.000000
1295040.390741,1.000000,2.000000,7.000000,-4.000000,-7.000000,24.000000,65.000000,13.000000
1295040.390751,0.000000,-7.000000,-6.000000,11.000000,21.000000,2.000000,-3.000000,3.000000
1295040.405840,-6.000000,17.000000,-3.000000,-21.000000,-26.000000,-20.000000,-3.000000,-6.000000
1295040.405869,2.000000,5.000000,-1.000000,25.000000,34.000000,-6.000000,-48.000000,-13.000000
1295040.428731,1.000000,-14.000000,-20.000000,-22.000000,-6.000000,6.000000,38.000000,4.000000
1295040.428760,8.000000,17.000000,25.000000,7.000000,-10.000000,13.000000,-4.000000,4.000000
1295040.443304,-8.000000,-8.000000,-4.000000,-5.000000,11.000000,-19.000000,-9.000000,-15.000000
1295040.443327,-15.000000,-18.000000,-31.000000,-2.000000,4.000000,-11.000000,-14.000000,-10.000000
1295040.473389,9.000000,-6.000000,5.000000,-53.000000,-59.000000,-4.000000,6.000000,5.000000
1295040.473399,-3.000000,-2.000000,-8.000000,-20.000000,-3.000000,-8.000000,-13.000000,-9.000000
1295040.474218,5.000000,8.000000,17.000000,37.000000,31.000000,7.000000,2.000000,5.000000
1295040.474226,14.000000,-1.000000,-2.000000,5.000000,2.000000,-8.000000,1.000000,10.000000
1295040.474773,-3.000000,-4.000000,-16.000000,-23.000000,-31.000000,-10.000000,-14.000000,-6.000000
1295040.474781,-16.000000,-7.000000,-5.000000,-6.000000,2.000000,-14.000000,-10.000000,-13.000000
1295040.475438,1.000000,-6.000000,10.000000,-22.000000,-53.000000,0.000000,3.000000,4.000000
1295040.475446,4.000000,13.000000,4.000000,47.000000,52.000000,20.000000,35.000000,14.000000
1295040.476088,-7.000000,-8.000000,-3.000000,-11.000000,-9.000000,-16.000000,-22.000000,-7.000000
1295040.476096,-4.000000,9.000000,14.000000,11.000000,22.000000,1.000000,-9.000000,-4.000000
1295040.476887,-9.000000,-31.000000,-24.000000,12.000000,11.000000,-8.000000,-13.000000,-3.000000
1295040.476894,8.000000,21.000000,19.000000,-29.000000,-51.000000,25.000000,19.000000,8.000000
1295040.511326,-4.000000,4.000000,-29.000000,-11.000000,-4.000000,-1.000000,3.000000,-3.000000
1295040.511358,-6.000000,-5.000000,-17.000000,15.000000,48.000000,13.000000,4.000000,-10.000000
1295040.518332,4.000000,7.000000,17.000000,-8.000000,-22.000000,0.000000,10.000000,8.000000
1295040.518360,-11.000000,-24.000000,-28.000000,-15.000000,-8.000000,-19.000000,-52.000000,-7.000000
1295040.556247,7.000000,16.000000,18.000000,-4.000000,10.000000,23.000000,37.000000,1.000000
1295040.556268,7.000000,1.000000,5.000000,26.000000,36.000000,19.000000,31.000000,10.000000
1295040.563612,-9.000000,1.000000,-13.000000,1.000000,2.000000,-15.000000,-8.000000,-33.000000
1295040.563637,-12.000000,-6.000000,-3.000000,-7.000000,-46.000000,-5.000000,-21.000000,21.000000
1295040.585880,2.000000,-8.000000,-9.000000,-58.000000,-73.000000,-7.000000,22.000000,1.000000
1295040.585903,0.000000,-2.000000,-3.000000,24.000000,51.000000,-1.000000,8.000000,3.000000
1295040.593181,-8.000000,-23.000000,-5.000000,-23.000000,-19.000000,-11.000000,6.000000,-13.000000
1295040.593190,1.000000,-2.000000,-7.000000,19.000000,29.000000,5.000000,-20.000000,-8.000000
1295040.608820,-9.000000,-17.000000,-9.000000,8.000000,17.000000,-6.000000,-10.000000,-13.000000
1295040.608828,-5.000000,-11.000000,4.000000,-22.000000,-48.000000,-20.000000,-19.000000,-5.000000
1295040.623673,-4.000000,-16.000000,-13.000000,5.000000,16.000000,6.000000,8.000000,3.000000
1295040.623701,1.000000,17.000000,3.000000,-6.000000,-12.000000,2.000000,12.000000,2.000000
1295040.668197,-3.000000,-6.000000,-7.000000,-2.000000,-19.000000,-5.000000,-4.000000,-3.000000
1295040.668207,16.000000,0.000000,3.000000,-3.000000,-15.000000,-7.000000,28.000000,31.000000
1295040.675496,-7.000000,-8.000000,-2.000000,-2.000000,-3.000000,-17.000000,-28.000000,-13.000000
1295040.675517,-1.000000,0.000000,-10.000000,0.000000,9.000000,9.000000,-21.000000,-17.000000
1295040.683006,11.000000,19.000000,22.000000,30.000000,17.000000,24.000000,61.000000,20.000000
1295040.683016,-5.000000,-14.000000,3.000000,8.000000,9.000000,-1.000000,-14.000000,-5.000000
1295040.706347,-16.000000,-7.000000,-10.000000,-6.000000,0.000000,-9.000000,-16.000000,-16.000000
1295040.706375,4.000000,4.000000,1.000000,17.000000,-3.000000,12.000000,-7.000000,3.000000
1295040.706801,-6.000000,-9.000000,-1.000000,-3.000000,-3.000000,-13.000000,9.000000,-1.000000
1295040.706809,-1.000000,20.000000,13.000000,5.000000,-20.000000,-6.000000,-3.000000,-3.000000
1295040.707867,5.000000,8.000000,-5.000000,-22.000000,-24.000000,-7.000000,-20.000000,-4.000000
1295040.707875,0.000000,-1.000000,2.000000,2.000000,2.000000,15.000000,42.000000,10.000000
1295040.709503,-6.000000,-9.000000,-11.000000,2.000000,14.000000,3.000000,-11.000000,-3.000000
1295040.709510,4.000000,-1.000000,5.000000,-28.000000,-20.000000,6.000000,43.000000,15.000000
1295040.713791,3.000000,14.000000,6.000000,6.000000,21.000000,-1.000000,-10.000000,-2.000000
1295040.713800,-2.000000,21.000000,5.000000,-11.000000,-21.000000,-10.000000,-24.000000,-10.000000
1295040.720561,1.000000,1.000000,6.000000,5.000000,53.000000,14.000000,1.000000,6.000000
1295040.720571,-2.000000,11.000000,11.000000,-4.000000,-10.000000,-3.000000,0.000000,-6.000000
1295040.735478,-3.000000,-4.000000,-17.000000,-22.000000,0.000000,-1.000000,-21.000000,-3.000000
1295040.735489,6.000000,7.000000,17.000000,-7.000000,-30.000000,14.000000,16.000000,11.000000
1295040.788162,-9.000000,-15.000000,-12.000000,-34.000000,-30.000000,-18.000000,-5.000000,-4.000000
1295040.788172,3.000000,16.000000,3.000000,35.000000,59.000000,12.000000,-11.000000,-8.000000
1295040.833079,1.000000,-1.000000,2.000000,-11.000000,-23.000000,-12.000000,-14.000000,2.000000
1295040.833108,-10.000000,-8.000000,1.000000,-19.000000,-6.000000,6.000000,-10.000000,-20.000000
1295040.840853,-6.000000,3.000000,4.000000,9.000000,21.000000,3.000000,31.000000,6.000000
1295040.841076,-6.000000,-19.000000,-19.000000,-2.000000,16.000000,-18.000000,-21.000000,-10.000000
1295040.841705,8.000000,12.000000,27.000000,-21.000000,-64.000000,-3.000000,-25.000000,1.000000
1295040.841713,-1.000000,-9.000000,-8.000000,10.000000,-4.000000,3.000000,16.000000,-1.000000
1295040.842232,0.000000,4.000000,-4.000000,1.000000,3.000000,-3.000000,1.000000,2.000000
1295040.842239,-10.000000,-19.000000,-26.000000,-20.000000,-9.000000,-5.000000,-20.000000,-7.000000
1295040.842891,6.000000,12.000000,-2.000000,-4.000000,-3.000000,-7.000000,0.000000,3.000000
1295040.842898,-4.000000,-19.000000,-19.000000,-12.000000,-7.000000,-6.000000,4.000000,-4.000000
1295040.863199,5.000000,-3.000000,5.000000,-33.000000,-38.000000,-7.000000,15.000000,8.000000
1295040.863212,-4.000000,-9.000000,-29.000000,-11.000000,-17.000000,-9.000000,-17.000000,-11.000000
1295040.870622,-2.000000,1.000000,-12.000000,-17.000000,-16.000000,-11.000000,-13.000000,-3.000000
1295040.870645,-3.000000,-9.000000,2.000000,36.000000,34.000000,9.000000,-8.000000,-2.000000
1295040.945545,7.000000,1.000000,11.000000,10.000000,12.000000,-6.000000,-5.000000,-5.000000
1295040.945556,-5.000000,-14.000000,-14.000000,-14.000000,2.000000,6.000000,-40.000000,-2.000000
1295040.946088,3.000000,11.000000,4.000000,4.000000,-12.000000,2.000000,46.000000,3.000000
1295040.946096,-1.000000,-4.000000,6.000000,10.000000,-8.000000,-8.000000,-16.000000,-1.000000
1295040.947282,4.000000,16.000000,21.000000,18.000000,8.000000,7.000000,-2.000000,-1.000000
1295040.947290,-2.000000,-10.000000,-12.000000,-6.000000,4.000000,-1.000000,-10.000000,6.000000
1295040.947994,-11.000000,-5.000000,-4.000000,6.000000,-5.000000,0.000000,-9.000000,-17.000000
1295040.948002,6.000000,6.000000,12.000000,-6.000000,0.000000,13.000000,17.000000,-1.000000
1295040.953650,-5.000000,5.000000,14.000000,-16.000000,-26.000000,0.000000,3.000000,-3.000000
1295040.953681,11.000000,0.000000,-3.000000,8.000000,-24.000000,1.000000,16.000000,13.000000
1295040.960524,6.000000,4.000000,6.000000,1.000000,-5.000000,0.000000,-1.000000,10.000000
1295040.960534,-5.000000,1.000000,9.000000,-1.000000,2.000000,-18.000000,-26.000000,-13.000000
1295040.998361,-4.000000,4.000000,10.000000,11.000000,6.000000,2.000000,-27.000000,-7.000000
1295040.998374,3.000000,-25.000000,-28.000000,-1.000000,18.000000,15.000000,19.000000,6.000000
1295041.028341,-5.000000,-1.000000,-7.000000,0.000000,-10.000000,-20.000000,12.000000,-3.000000
1295041.028352,10.000000,22.000000,25.000000,-15.000000,-21.000000,22.000000,24.000000,4.000000
1295041.066053,-5.000000,-10.000000,-6.000000,12.000000,24.000000,-15.000000,-13.000000,-3.000000
1295041.066076,-8.000000,-10.000000,-13.000000,-14.000000,-3.000000,-5.000000,-87.000000,-15.000000
1295041.066599,6.000000,10.000000,8.000000,9.000000,-5.000000,12.000000,59.000000,8.000000
1295041.066620,-3.000000,-3.000000,1.000000,15.000000,8.000000,8.000000,-3.000000,-9.000000
1295041.068021,9.000000,-3.000000,-9.000000,-19.000000,-18.000000,-17.000000,-10.000000,20.000000
1295041.068031,-10.000000,-15.000000,-13.000000,14.000000,29.000000,-15.000000,-42.000000,-20.000000
1295041.068626,8.000000,26.000000,20.000000,-30.000000,-85.000000,-1.000000,15.000000,1.000000
1295041.068634,14.000000,9.000000,-12.000000,19.000000,-30.000000,-1.000000,11.000000,17.000000
1295041.074159,-2.000000,-2.000000,8.000000,-1.000000,2.000000,-2.000000,-1.000000,-14.000000
1295041.074187,4.000000,-2.000000,-6.000000,17.000000,2.000000,5.000000,-4.000000,7.000000
1295041.095898,-3.000000,-4.000000,-3.000000,0.000000,0.000000,-6.000000,12.000000,0.000000
1295041.095913,-7.000000,5.000000,-2.000000,-7.000000,-6.000000,-9.000000,-20.000000,-8.000000
1295041.118134,-1.000000,-7.000000,9.000000,-11.000000,-11.000000,18.000000,37.000000,3.000000
1295041.118144,10.000000,48.000000,26.000000,34.000000,49.000000,2.000000,-8.000000,6.000000
1295041.125605,-5.000000,-5.000000,0.000000,-3.000000,-29.000000,-7.000000,1.000000,-7.000000
1295041.125632,-4.000000,-15.000000,-11.000000,-7.000000,12.000000,-2.000000,-18.000000,-4.000000
1295041.148142,5.000000,17.000000,15.000000,2.000000,-14.000000,-1.000000,4.000000,-19.000000
1295041.148179,-3.000000,-18.000000,-12.000000,-25.000000,-40.000000,-7.000000,-16.000000,26.000000
1295041.170782,10.000000,14.000000,5.000000,3.000000,0.000000,2.000000,23.000000,5.000000
1295041.170795,-10.000000,-20.000000,-16.000000,-7.000000,-8.000000,-12.000000,-16.000000,-15.000000
1295041.185998,-3.000000,4.000000,11.000000,10.000000,19.000000,-11.000000,-16.000000,-3.000000
1295041.186013,-12.000000,-16.000000,-6.000000,3.000000,15.000000,6.000000,4.000000,-10.000000
1295041.186569,-7.000000,-7.000000,-2.000000,-27.000000,-51.000000,-3.000000,-48.000000,-7.000000
1295041.186577,11.000000,26.000000,10.000000,-4.000000,-8.000000,1.000000,43.000000,7.000000
1295041.187940,2.000000,4.000000,3.000000,-9.000000,-16.000000,-9.000000,-28.000000,-5.000000
1295041.187957,0.000000,6.000000,-14.000000,-1.000000,-2.000000,0.000000,22.000000,-1.000000
1295041.189392,-17.000000,-17.000000,-10.000000,-14.000000,-14.000000,-12.000000,-33.000000,-19.000000
1295041.189420,15.000000,42.000000,28.000000,17.000000,-1.000000,8.000000,20.000000,12.000000
1295041.223439,6.000000,-4.000000,8.000000,8.000000,13.000000,3.000000,4.000000,8.000000
1295041.223473,-1.000000,-3.000000,-8.000000,9.000000,13.000000,-8.000000,-7.000000,-3.000000
1295041.231011,-15.000000,-11.000000,-7.000000,-7.000000,-13.000000,-14.000000,-14.000000,-32.000000
1295041.231021,4.000000,-5.000000,6.000000,9.000000,0.000000,9.000000,23.000000,45.000000
1295041.260796,17.000000,24.000000,29.000000,18.000000,-23.000000,10.000000,18.000000,8.000000
1295041.260806,-11.000000,-16.000000,-29.000000,-17.000000,3.000000,-12.000000,-11.000000,-13.000000
1295041.261165,-6.000000,1.000000,7.000000,2.000000,20.000000,11.000000,13.000000,-10.000000
1295041.261173,-2.000000,-6.000000,-12.000000,12.000000,-14.000000,-3.000000,4.000000,1.000000
1295041.262236,9.000000,17.000000,3.000000,-42.000000,-34.000000,-6.000000,5.000000,6.000000
1295041.262244,-4.000000,-6.000000,-9.000000,-10.000000,-31.000000,-7.000000,10.000000,4.000000
1295041.262894,-8.000000,-10.000000,-11.000000,-10.000000,-33.000000,-10.000000,-27.000000,-8.000000
1295041.262902,-9.000000,-17.000000,-9.000000,10.000000,19.000000,2.000000,-18.000000,-23.000000
1295041.276483,-1.000000,6.000000,12.000000,-18.000000,-33.000000,7.000000,-16.000000,-4.000000
1295041.276496,-1.000000,2.000000,-12.000000,-4.000000,-7.000000,-7.000000,24.000000,-2.000000
1295041.305854,-2.000000,-4.000000,-6.000000,-5.000000,3.000000,-14.000000,-43.000000,-6.000000
1295041.305895,-3.000000,-3.000000,0.000000,8.000000,-31.000000,4.000000,54.000000,5.000000
1295041.306719,2.000000,0.000000,4.000000,0.000000,11.000000,2.000000,-9.000000,1.000000
1295041.306727,-10.000000,-4.000000,-1.000000,10.000000,9.000000,-21.000000,-11.000000,-9.000000
1295041.307458,-5.000000,-8.000000,-6.000000,-17.000000,4.000000,13.000000,26.000000,-3.000000
1295041.307466,2.000000,16.000000,6.000000,-1.000000,6.000000,2.000000,-29.000000,-23.000000
1295041.343231,2.000000,-1.000000,-5.000000,13.000000,11.000000,-5.000000,-14.000000,23.000000
1295041.343243,-12.000000,-15.000000,-13.000000,-4.000000,-18.000000,-9.000000,-6.000000,-8.000000
1295041.350786,-5.000000,-9.000000,5.000000,-21.000000,2.000000,9.000000,22.000000,-2.000000
1295041.350799,15.000000,4.000000,0.000000,32.000000,8.000000,11.000000,16.000000,8.000000
1295041.373184,-4.000000,-8.000000,-12.000000,-10.000000,-3.000000,0.000000,-12.000000,0.000000
1295041.373194,-11.000000,-15.000000,-7.000000,12.000000,23.000000,-4.000000,-7.000000,-9.000000
1295041.388156,-1.000000,6.000000,2.000000,-11.000000,-28.000000,1.000000,-37.000000,-2.000000
1295041.388166,14.000000,32.000000,24.000000,4.000000,3.000000,17.000000,41.000000,0.000000
1295041.403315,9.000000,-1.000000,8.000000,0.000000,-5.000000,7.000000,39.000000,23.000000
1295041.403325,-8.000000,-22.000000,-38.000000,-30.000000,-20.000000,-20.000000,-33.000000,-14.000000
1295041.418346,-9.000000,1.000000,0.000000,-10.000000,-44.000000,0.000000,-10.000000,-9.000000
1295041.418367,-1.000000,-12.000000,-15.000000,-15.000000,-5.000000,-10.000000,-9.000000,-7.000000
1295041.455709,3.000000,3.000000,5.000000,5.000000,-5.000000,0.000000,3.000000,1.000000
1295041.455719,-9.000000,-16.000000,-12.000000,7.000000,4.000000,0.000000,6.000000,-9.000000
1295041.463675,-7.000000,-15.000000,-9.000000,-15.000000,0.000000,-7.000000,-11.000000,-9.000000
1295041.463694,11.000000,16.000000,0.000000,14.000000,13.000000,-8.000000,-24.000000,3.000000
1295041.478233,-3.000000,2.000000,12.000000,1.000000,-18.000000,-1.000000,3.000000,-9.000000
1295041.478256,0.000000,-11.000000,-15.000000,5.000000,15.000000,13.000000,19.000000,6.000000
1295041.500977,7.000000,25.000000,26.000000,50.000000,61.000000,24.000000,13.000000,9.000000
1295041.500994,-2.000000,-13.000000,-10.000000,-21.000000,-22.000000,-13.000000,-31.000000,-9.000000
1295041.538805,17.000000,14.000000,-7.000000,36.000000,65.000000,17.000000,64.000000,20.000000
1295041.538816,-10.000000,-14.000000,-6.000000,-15.000000,-9.000000,-13.000000,-15.000000,-8.000000
1295041.540506,4.000000,5.000000,9.000000,-19.000000,-41.000000,7.000000,8.000000,14.000000
1295041.540516,-4.000000,-7.000000,-17.000000,-7.000000,-6.000000,-11.000000,-21.000000,-4.000000
1295041.541178,-4.000000,-6.000000,15.000000,-8.000000,1.000000,-3.000000,24.000000,-3.000000
1295041.541188,11.000000,12.000000,0.000000,-11.000000,-37.000000,9.000000,21.000000,13.000000
1295041.545829,-3.000000,1.000000,-11.000000,31.000000,39.000000,1.000000,-26.000000,-7.000000
1295041.545841,-1.000000,-11.000000,-25.000000,-11.000000,-9.000000,-5.000000,39.000000,-3.000000
1295041.553823,4.000000,7.000000,7.000000,-36.000000,-39.000000,0.000000,-10.000000,8.000000
1295041.553834,2.000000,24.000000,13.000000,5.000000,33.000000,16.000000,30.000000,11.000000
1295041.568192,-1.000000,-5.000000,-10.000000,-9.000000,-6.000000,-7.000000,-3.000000,-3.000000
1295041.568202,-9.000000,-9.000000,-9.000000,-2.000000,-15.000000,-8.000000,-12.000000,-7.000000
1295041.620683,-1.000000,-6.000000,14.000000,1.000000,-5.000000,5.000000,0.000000,3.000000
1295041.620711,7.000000,32.000000,9.000000,-2.000000,-17.000000,-5.000000,-10.000000,-6.000000
1295041.621321,-4.000000,-4.000000,-9.000000,22.000000,33.000000,7.000000,-1.000000,-7.000000
1295041.621347,-2.000000,-15.000000,-18.000000,-10.000000,-10.000000,-5.000000,6.000000,3.000000
1295041.622374,-5.000000,-6.000000,4.000000,-15.000000,-10.000000,-4.000000,-11.000000,-11.000000
1295041.622399,0.000000,-2.000000,4.000000,-10.000000,-10.000000,8.000000,4.000000,-4.000000
1295041.623241,-4.000000,-6.000000,-7.000000,4.000000,0.000000,-7.000000,-10.000000,3.000000
1295041.623248,-4.000000,3.000000,5.000000,4.000000,-33.000000,-8.000000,-5.000000,-2.000000
1295041.665644,2.000000,13.000000,13.000000,-1.000000,-10.000000,5.000000,8.000000,-3.000000
1295041.665694,-5.000000,-12.000000,-9.000000,-10.000000,-10.000000,-13.000000,-19.000000,4.000000
1295041.666540,-6.000000,-1.000000,3.000000,-7.000000,-12.000000,-11.000000,-11.000000,-7.000000
1295041.666550,4.000000,-3.000000,-1.000000,-6.000000,-1.000000,-8.000000,-23.000000,-13.000000
1295041.667193,7.000000,7.000000,18.000000,3.000000,2.000000,8.000000,39.000000,22.000000
1295041.667219,-1.000000,0.000000,-5.000000,-7.000000,-12.000000,-9.000000,-8.000000,-2.000000
1295041.668423,-9.000000,-9.000000,-6.000000,-5.000000,-15.000000,-11.000000,6.000000,-10.000000
1295041.668450,-2.000000,-6.000000,17.000000,26.000000,63.000000,13.000000,-15.000000,-4.000000
1295041.669298,8.000000,16.000000,-18.000000,7.000000,18.000000,19.000000,30.000000,9.000000
1295041.669324,1.000000,6.000000,1.000000,5.000000,-4.000000,-2.000000,-4.000000,-5.000000
1295041.680892,-9.000000,-19.000000,-2.000000,16.000000,42.000000,-5.000000,-44.000000,-10.000000
1295041.680903,-6.000000,3.000000,17.000000,7.000000,5.000000,-1.000000,-9.000000,-3.000000
1295041.696028,4.000000,9.000000,-5.000000,3.000000,5.000000,11.000000,1.000000,0.000000
1295041.696141,4.000000,-19.000000,-6.000000,8.000000,17.000000,0.000000,33.000000,18.000000
1295041.740843,-9.000000,-13.000000,-1.000000,42.000000,32.000000,20.000000,-22.000000,-9.000000
1295041.740907,0.000000,-2.000000,3.000000,-4.000000,-12.000000,7.000000,-1.000000,-6.000000
1295041.741050,3.000000,-9.000000,-14.000000,-4.000000,-13.000000,-15.000000,20.000000,18.000000
1295041.741058,-21.000000,-56.000000,-31.000000,-30.000000,-10.000000,-29.000000,-39.000000,-24.000000
1295041.742293,14.000000,20.000000,9.000000,-33.000000,-51.000000,7.000000,21.000000,14.000000
1295041.742321,3.000000,4.000000,2.000000,14.000000,18.000000,13.000000,38.000000,-3.000000
1295041.743075,-6.000000,-13.000000,-14.000000,-3.000000,-3.000000,-11.000000,-12.000000,3.000000
1295041.743093,-6.000000,2.000000,10.000000,-2.000000,0.000000,-5.000000,-16.000000,-8.000000
1295041.771461,0.000000,8.000000,7.000000,-6.000000,-3.000000,-7.000000,-8.000000,3.000000
1295041.771489,-6.000000,-12.000000,3.000000,-24.000000,-15.000000,-7.000000,4.000000,-10.000000
1295041.771988,-11.000000,0.000000,-4.000000,8.000000,32.000000,-13.000000,-35.000000,-23.000000
1295041.771995,2.000000,-9.000000,-8.000000,-1.000000,-22.000000,-1.000000,41.000000,23.000000
1295041.778249,3.000000,-1.000000,10.000000,3.000000,25.000000,2.000000,-25.000000,-2.000000
1295041.778258,0.000000,-8.000000,2.000000,12.000000,4.000000,5.000000,13.000000,3.000000
1295041.786418,-7.000000,-5.000000,-22.000000,-15.000000,11.000000,-14.000000,-7.000000,-12.000000
1295041.786427,3.000000,-6.000000,8.000000,15.000000,28.000000,13.000000,-11.000000,3.000000
1295041.815777,1.000000,-12.000000,8.000000,-5.000000,-11.000000,-9.000000,11.000000,7.000000
1295041.815806,22.000000,59.000000,26.000000,25.000000,27.000000,19.000000,25.000000,12.000000
1295041.823347,-4.000000,-14.000000,-7.000000,-6.000000,6.000000,-9.000000,-10.000000,2.000000
1295041.823357,-4.000000,-9.000000,-12.000000,-5.000000,1.000000,-9.000000,-6.000000,11.000000
1295041.845791,-7.000000,-8.000000,-13.000000,-11.000000,-13.000000,-15.000000,-31.000000,-8.000000
1295041.845820,4.000000,9.000000,15.000000,25.000000,14.000000,18.000000,39.000000,2.000000
1295041.860516,12.000000,7.000000,6.000000,20.000000,35.000000,17.000000,18.000000,25.000000
1295041.860525,-5.000000,7.000000,2.000000,-1.000000,1.000000,-13.000000,-15.000000,-3.000000
1295041.898074,-7.000000,-8.000000,-11.000000,-14.000000,-14.000000,1.000000,-11.000000,-2.000000
1295041.898151,-2.000000,-15.000000,-11.000000,-9.000000,4.000000,-12.000000,-17.000000,-5.000000
1295041.898606,5.000000,7.000000,9.000000,19.000000,-11.000000,17.000000,8.000000,-2.000000
1295041.898622,6.000000,11.000000,3.000000,-16.000000,-15.000000,0.000000,14.000000,10.000000
1295041.899884,-7.000000,3.000000,-3.000000,3.000000,11.000000,-2.000000,-35.000000,-12.000000
1295041.899897,0.000000,-7.000000,-5.000000,22.000000,54.000000,10.000000,15.000000,4.000000
1295041.900577,-10.000000,-25.000000,-16.000000,-4.000000,0.000000,-7.000000,-32.000000,-26.000000
1295041.900604,-3.000000,9.000000,-1.000000,-5.000000,4.000000,8.000000,37.000000,23.000000
1295041.901025,-9.000000,-11.000000,-6.000000,-40.000000,-51.000000,1.000000,4.000000,-7.000000
1295041.901052,7.000000,20.000000,17.000000,39.000000,26.000000,0.000000,10.000000,-10.000000
1295041.905511,8.000000,12.000000,22.000000,47.000000,81.000000,35.000000,21.000000,6.000000
1295041.905525,-2.000000,-11.000000,-22.000000,-16.000000,-10.000000,-11.000000,-7.000000,-9.000000
1295041.943663,-6.000000,-3.000000,5.000000,-11.000000,-22.000000,-8.000000,-8.000000,-4.000000
1295041.943835,-4.000000,3.000000,0.000000,-1.000000,0.000000,-14.000000,-8.000000,-11.000000
1295041.950672,-5.000000,-21.000000,-10.000000,-7.000000,-3.000000,-13.000000,-31.000000,-3.000000
1295041.950682,8.000000,9.000000,2.000000,12.000000,30.000000,8.000000,39.000000,15.000000
1295041.973420,-8.000000,-1.000000,-14.000000,-31.000000,-41.000000,-18.000000,-29.000000,-13.000000
1295041.973432,-13.000000,-26.000000,-9.000000,-20.000000,-61.000000,1.000000,-11.000000,-9.000000
1295041.980957,8.000000,25.000000,6.000000,-41.000000,-30.000000,-2.000000,20.000000,-5.000000
1295041.980970,-8.000000,-5.000000,-8.000000,9.000000,29.000000,10.000000,-12.000000,-7.000000
1295042.010478,-4.000000,-21.000000,-21.000000,6.000000,18.000000,2.000000,8.000000,1.000000
1295042.010488,4.000000,12.000000,6.000000,-43.000000,-51.000000,-13.000000,-36.000000,-4.000000
1295042.010922,-10.000000,-7.000000,-12.000000,10.000000,30.000000,17.000000,18.000000,-11.000000
1295042.010944,-7.000000,-9.000000,-3.000000,-4.000000,-21.000000,-13.000000,6.000000,-1.000000
1295042.018740,-11.000000,-21.000000,-44.000000,-19.000000,0.000000,-10.000000,-25.000000,-12.000000
1295042.018750,5.000000,3.000000,-4.000000,7.000000,17.000000,10.000000,15.000000,-2.000000
1295042.019757,6.000000,2.000000,8.000000,0.000000,-6.000000,-3.000000,6.000000,8.000000
1295042.019765,-5.000000,-14.000000,-6.000000,11.000000,0.000000,6.000000,1.000000,1.000000
1295042.048317,6.000000,16.000000,20.000000,45.000000,32.000000,22.000000,24.000000,1.000000
1295042.048327,13.000000,4.000000,-3.000000,7.000000,3.000000,12.000000,42.000000,20.000000
1295042.063158,-7.000000,-5.000000,-2.000000,-8.000000,8.000000,-9.000000,-12.000000,-4.000000
1295042.063177,-9.000000,-14.000000,-1.000000,-14.000000,-41.000000,-23.000000,-16.000000,-4.000000
1295042.071027,-6.000000,-6.000000,-8.000000,19.000000,3.000000,4.000000,-2.000000,-2.000000
1295042.071045,6.000000,10.000000,9.000000,-20.000000,-50.000000,-22.000000,-1.000000,1.000000
1295042.100515,-3.000000,-4.000000,-5.000000,6.000000,3.000000,1.000000,-7.000000,-19.000000
1295042.100526,-1.000000,-6.000000,-5.000000,0.000000,16.000000,2.000000,-17.000000,22.000000
1295042.108112,2.000000,2.000000,-14.000000,5.000000,31.000000,10.000000,39.000000,-3.000000
1295042.108141,-5.000000,-6.000000,-12.000000,5.000000,6.000000,-3.000000,-2.000000,-8.000000
1295042.138380,-9.000000,-7.000000,9.000000,-21.000000,-25.000000,-18.000000,-22.000000,-13.000000
1295042.138390,-3.000000,-2.000000,-4.000000,-6.000000,6.000000,5.000000,-13.000000,-11.000000
1295042.175955,-6.000000,-3.000000,-7.000000,0.000000,-5.000000,-8.000000,-11.000000,-5.000000
1295042.175968,-6.000000,-14.000000,-8.000000,-1.000000,13.000000,-1.000000,-18.000000,-8.000000
1295042.183416,-2.000000,-8.000000,-4.000000,10.000000,30.000000,13.000000,2.000000,-1.000000
1295042.183429,1.000000,-14.000000,-19.000000,-12.000000,-14.000000,-5.000000,-10.000000,-2.000000
1295042.220859,-2.000000,2.000000,-1.000000,4.000000,-6.000000,-17.000000,10.000000,2.000000
1295042.220873,-11.000000,-10.000000,3.000000,-44.000000,-79.000000,-13.000000,-50.000000,-15.000000
1295042.221264,5.000000,11.000000,7.000000,-7.000000,-4.000000,16.000000,31.000000,1.000000
1295042.221274,3.000000,-7.000000,-3.000000,18.000000,30.000000,9.000000,4.000000,8.000000
1295042.221769,-13.000000,-14.000000,-20.000000,-41.000000,-38.000000,-27.000000,-23.000000,-24.000000
1295042.221780,5.000000,14.000000,10.000000,-25.000000,-64.000000,-6.000000,-16.000000,27.000000
1295042.222259,-7.000000,-1.000000,0.000000,-28.000000,-43.000000,0.000000,31.000000,-8.000000
1295042.222269,-7.000000,-6.000000,5.000000,2.000000,0.000000,-4.000000,3.000000,4.000000
1295042.223553,4.000000,11.000000,23.000000,11.000000,-10.000000,-9.000000,25.000000,11.000000
1295042.223563,-5.000000,-19.000000,-10.000000,-15.000000,-24.000000,-6.000000,-19.000000,-10.000000
1295042.228342,-3.000000,-10.000000,-9.000000,8.000000,36.000000,9.000000,-3.000000,2.000000
1295042.228357,6.000000,32.000000,17.000000,7.000000,3.000000,-5.000000,-11.000000,-2.000000
1295042.235730,-10.000000,-9.000000,-12.000000,-18.000000,-20.000000,-17.000000,-27.000000,-9.000000
1295042.235742,-8.000000,-21.000000,-9.000000,22.000000,16.000000,6.000000,-38.000000,-13.000000
1295042.250558,-7.000000,-16.000000,-7.000000,-11.000000,-16.000000,-9.000000,4.000000,1.000000
1295042.250568,11.000000,20.000000,14.000000,2.000000,-19.000000,21.000000,38.000000,20.000000
1295042.258013,5.000000,-11.000000,-24.000000,2.000000,3.000000,-3.000000,12.000000,-4.000000
1295042.258036,-9.000000,-11.000000,-3.000000,-24.000000,-33.000000,-28.000000,-24.000000,-12.000000
1295042.280674,-9.000000,-3.000000,-9.000000,-7.000000,9.000000,-3.000000,-24.000000,-3.000000
1295042.280684,-8.000000,-8.000000,-23.000000,-7.000000,1.000000,0.000000,30.000000,-4.000000
1295042.310778,3.000000,2.000000,9.000000,10.000000,-4.000000,4.000000,9.000000,15.000000
1295042.310789,-1.000000,-3.000000,-15.000000,-3.000000,-7.000000,-4.000000,-8.000000,-3.000000
1295042.325751,-1.000000,13.000000,9.000000,7.000000,-15.000000,-12.000000,-4.000000,0.000000
1295042.325767,-5.000000,-12.000000,2.000000,-15.000000,10.000000,-6.000000,-8.000000,0.000000
1295042.340558,0.000000,-1.000000,-12.000000,4.000000,18.000000,11.000000,16.000000,-4.000000
1295042.340568,2.000000,3.000000,-5.000000,12.000000,14.000000,2.000000,20.000000,23.000000
1295042.340940,12.000000,-4.000000,3.000000,-10.000000,-56.000000,-17.000000,-27.000000,-4.000000
1295042.340961,7.000000,3.000000,-6.000000,-4.000000,-5.000000,-2.000000,39.000000,8.000000
1295042.342430,-9.000000,-3.000000,-17.000000,14.000000,18.000000,-14.000000,-9.000000,-9.000000
1295042.342439,8.000000,8.000000,12.000000,-35.000000,39.000000,50.000000,95.000000,22.000000
1295042.343110,-4.000000,-9.000000,1.000000,-3.000000,9.000000,4.000000,-13.000000,-12.000000
1295042.343118,-12.000000,-8.000000,1.000000,-27.000000,-18.000000,-16.000000,-9.000000,-7.000000
1295042.347951,-7.000000,11.000000,17.000000,16.000000,38.000000,6.000000,3.000000,-2.000000
1295042.347964,2.000000,-14.000000,-14.000000,1.000000,16.000000,-2.000000,21.000000,11.000000
1295042.370907,3.000000,8.000000,-3.000000,-8.000000,-16.000000,-10.000000,-8.000000,-7.000000
1295042.370921,-12.000000,-8.000000,-4.000000,-17.000000,-6.000000,-11.000000,-32.000000,-11.000000
1295042.371374,-6.000000,-17.000000,-10.000000,-5.000000,-15.000000,2.000000,15.000000,1.000000
1295042.371388,-5.000000,8.000000,0.000000,-3.000000,-4.000000,-12.000000,-6.000000,-6.000000
1295042.378348,6.000000,3.000000,22.000000,9.000000,-11.000000,8.000000,31.000000,7.000000
1295042.378360,-5.000000,5.000000,-2.000000,-20.000000,0.000000,-15.000000,-14.000000,-6.000000
1295042.385614,0.000000,1.000000,-4.000000,12.000000,0.000000,-13.000000,-22.000000,4.000000
1295042.385634,-4.000000,-10.000000,-5.000000,-20.000000,-6.000000,-11.000000,8.000000,3.000000
1295042.453764,-8.000000,4.000000,-2.000000,-27.000000,-26.000000,-11.000000,-14.000000,-22.000000
1295042.453805,-10.000000,-7.000000,-10.000000,-10.000000,6.000000,0.000000,-25.000000,-6.000000
1295042.454266,23.000000,34.000000,20.000000,22.000000,27.000000,10.000000,41.000000,16.000000
1295042.454277,4.000000,-14.000000,2.000000,-20.000000,-9.000000,-4.000000,9.000000,11.000000
1295042.455685,-5.000000,12.000000,0.000000,-5.000000,0.000000,-1.000000,22.000000,0.000000
1295042.455696,-7.000000,-17.000000,-18.000000,-11.000000,-13.000000,-28.000000,-17.000000,-12.000000
1295042.456253,9.000000,23.000000,10.000000,4.000000,-16.000000,9.000000,-19.000000,3.000000
1295042.456262,0.000000,4.000000,1.000000,-4.000000,2.000000,4.000000,-3.000000,-3.000000
1295042.475547,8.000000,9.000000,6.000000,9.000000,-14.000000,-13.000000,2.000000,3.000000
1295042.475569,5.000000,-4.000000,7.000000,14.000000,19.000000,-2.000000,22.000000,9.000000
1295042.498773,-14.000000,-10.000000,-13.000000,-17.000000,-22.000000,-17.000000,-13.000000,-18.000000
1295042.498784,-10.000000,-22.000000,-11.000000,16.000000,3.000000,-8.000000,54.000000,0.000000
1295042.499277,-3.000000,20.000000,8.000000,-9.000000,-2.000000,7.000000,-35.000000,-3.000000
1295042.499292,5.000000,-6.000000,-12.000000,-19.000000,-42.000000,-1.000000,10.000000,-4.000000
1295042.501172,4.000000,4.000000,-9.000000,1.000000,37.000000,1.000000,30.000000,9.000000
1295042.501184,-13.000000,-16.000000,-11.000000,-3.000000,-13.000000,-18.000000,-20.000000,-14.000000
1295042.505957,-2.000000,-7.000000,-7.000000,-8.000000,-6.000000,-3.000000,-29.000000,-11.000000
1295042.505970,3.000000,0.000000,4.000000,24.000000,43.000000,29.000000,65.000000,-6.000000
1295042.535559,0.000000,1.000000,5.000000,3.000000,-31.000000,-21.000000,-5.000000,19.000000
1295042.535583,-9.000000,-4.000000,-7.000000,-10.000000,-13.000000,-18.000000,-59.000000,-20.000000
1295042.573138,9.000000,13.000000,17.000000,30.000000,9.000000,17.000000,53.000000,12.000000
1295042.573155,-5.000000,-3.000000,-8.000000,-9.000000,-8.000000,-9.000000,-5.000000,6.000000
1295042.574139,-2.000000,2.000000,-5.000000,-11.000000,-11.000000,-10.000000,-16.000000,-11.000000
1295042.574146,-10.000000,-14.000000,-3.000000,-5.000000,-24.000000,-8.000000,-15.000000,-10.000000
1295042.574650,1.000000,0.000000,-4.000000,6.000000,6.000000,4.000000,-4.000000,-1.000000
1295042.574659,12.000000,21.000000,11.000000,33.000000,11.000000,7.000000,-15.000000,7.000000
1295042.576110,-3.000000,-9.000000,-6.000000,1.000000,4.000000,-18.000000,-27.000000,-3.000000
1295042.576132,3.000000,13.000000,4.000000,-22.000000,-15.000000,13.000000,-4.000000,-4.000000
1295042.576848,3.000000,13.000000,21.000000,29.000000,8.000000,19.000000,57.000000,11.000000
1295042.576856,-7.000000,-16.000000,-11.000000,-3.000000,6.000000,-10.000000,-25.000000,-10.000000
1295042.603513,-2.000000,4.000000,8.000000,-12.000000,-16.000000,-2.000000,39.000000,1.000000
1295042.603525,-3.000000,-8.000000,0.000000,-14.000000,-56.000000,5.000000,0.000000,-5.000000
1295042.604423,3.000000,0.000000,-27.000000,-1.000000,17.000000,-5.000000,-11.000000,1.000000
1295042.604450,-2.000000,8.000000,14.000000,-14.000000,-26.000000,-12.000000,-23.000000,-7.000000
1295042.611000,0.000000,1.000000,7.000000,15.000000,-3.000000,2.000000,30.000000,16.000000
1295042.611116,0.000000,-5.000000,-12.000000,-5.000000,-19.000000,-2.000000,-7.000000,6.000000
1295042.618080,-12.000000,12.000000,-10.000000,-23.000000,-27.000000,-18.000000,-12.000000,-7.000000
1295042.618142,4.000000,7.000000,22.000000,13.000000,8.000000,25.000000,-26.000000,-4.000000
1295042.625806,17.000000,3.000000,10.000000,7.000000,8.000000,5.000000,83.000000,24.000000
1295042.625828,-2.000000,6.000000,-13.000000,-5.000000,-3.000000,6.000000,-7.000000,-1.000000
1295042.655962,-6.000000,-2.000000,9.000000,2.000000,12.000000,-2.000000,-9.000000,-2.000000
1295042.655972,-8.000000,-24.000000,-23.000000,1.000000,4.000000,-2.000000,-45.000000,-11.000000
1295042.663112,-3.000000,-4.000000,3.000000,-16.000000,1.000000,3.000000,-1.000000,-6.000000
1295042.663122,3.000000,17.000000,19.000000,-9.000000,-34.000000,-13.000000,-3.000000,6.000000
1295042.664234,-7.000000,-24.000000,-6.000000,14.000000,23.000000,10.000000,13.000000,-5.000000
1295042.664257,8.000000,12.000000,-11.000000,-1.000000,14.000000,1.000000,-20.000000,0.000000
1295042.665044,-2.000000,9.000000,5.000000,-19.000000,-11.000000,5.000000,12.000000,-2.000000
1295042.665061,-1.000000,11.000000,10.000000,37.000000,21.000000,10.000000,4.000000,-1.000000
1295042.678056,-2.000000,-13.000000,-7.000000,-13.000000,-11.000000,-7.000000,-37.000000,-5.000000
1295042.678089,-13.000000,-4.000000,-5.000000,-6.000000,-4.000000,-7.000000,-22.000000,-8.000000
1295042.693295,-2.000000,-2.000000,-2.000000,-5.000000,-7.000000,-11.000000,32.000000,-10.000000
1295042.693307,6.000000,4.000000,0.000000,1.000000,14.000000,6.000000,0.000000,6.000000
1295042.730859,2.000000,-1.000000,-7.000000,3.000000,-6.000000,-1.000000,-7.000000,1.000000
1295042.730869,1.000000,34.000000,22.000000,-13.000000,-19.000000,-1.000000,-1.000000,-4.000000
1295042.738313,1.000000,-6.000000,-1.000000,12.000000,23.000000,-3.000000,-2.000000,-1.000000
1295042.738325,-4.000000,-3.000000,1.000000,2.000000,35.000000,2.000000,24.000000,5.000000
1295042.739269,-6.000000,-9.000000,-10.000000,-7.000000,-23.000000,-9.000000,-8.000000,-11.000000
1295042.739278,3.000000,-3.000000,15.000000,-12.000000,5.000000,29.000000,34.000000,8.000000
1295042.739821,-3.000000,-3.000000,-23.000000,-21.000000,-30.000000,-25.000000,-29.000000,7.000000
1295042.739829,0.000000,11.000000,3.000000,-4.000000,-31.000000,-8.000000,-6.000000,-7.000000
1295042.741778,-5.000000,-10.000000,-7.000000,-28.000000,-38.000000,-13.000000,10.000000,7.000000
1295042.741788,2.000000,9.000000,6.000000,5.000000,8.000000,2.000000,-6.000000,-8.000000
1295042.775753,-9.000000,7.000000,-3.000000,8.000000,10.000000,-5.000000,-34.000000,18.000000
1295042.775763,-1.000000,0.000000,-4.000000,-28.000000,-19.000000,9.000000,6.000000,-10.000000
1295042.805430,11.000000,5.000000,8.000000,-11.000000,-8.000000,3.000000,57.000000,12.000000
1295042.805444,0.000000,-9.000000,0.000000,54.000000,44.000000,12.000000,0.000000,0.000000
1295042.806011,0.000000,22.000000,11.000000,-4.000000,-15.000000,-4.000000,-16.000000,-9.000000
1295042.806023,-6.000000,-4.000000,-10.000000,-9.000000,-3.000000,-12.000000,-18.000000,-10.000000
1295042.807208,-3.000000,-20.000000,-16.000000,-13.000000,8.000000,6.000000,2.000000,2.000000
1295042.807217,6.000000,17.000000,30.000000,33.000000,-14.000000,5.000000,12.000000,3.000000
1295042.807831,-5.000000,-10.000000,-32.000000,-32.000000,-23.000000,-13.000000,-9.000000,-4.000000
1295042.807840,-1.000000,-6.000000,2.000000,-12.000000,-41.000000,-10.000000,-12.000000,3.000000
1295042.809457,3.000000,-5.000000,3.000000,60.000000,89.000000,27.000000,45.000000,10.000000
1295042.809472,0.000000,12.000000,5.000000,5.000000,2.000000,-5.000000,-2.000000,0.000000
1295042.813639,-10.000000,-3.000000,-6.000000,9.000000,1.000000,-16.000000,-8.000000,-11.000000
1295042.813649,1.000000,-5.000000,-1.000000,-31.000000,-6.000000,9.000000,-15.000000,3.000000
1295042.843214,6.000000,7.000000,8.000000,14.000000,6.000000,3.000000,40.000000,-12.000000
1295042.843226,0.000000,13.000000,6.000000,-10.000000,18.000000,8.000000,-1.000000,19.000000
1295042.850975,-9.000000,-15.000000,-9.000000,12.000000,28.000000,-4.000000,12.000000,-7.000000
1295042.850986,5.000000,10.000000,5.000000,2.000000,15.000000,0.000000,30.000000,10.000000
1295042.851749,-7.000000,-17.000000,-6.000000,28.000000,11.000000,-7.000000,-24.000000,-14.000000
1295042.851771,-5.000000,10.000000,3.000000,31.000000,74.000000,23.000000,-24.000000,-12.000000
1295042.888890,-4.000000,-11.000000,3.000000,-19.000000,-20.000000,4.000000,2.000000,2.000000
1295042.888900,-2.000000,-5.000000,-15.000000,-10.000000,-42.000000,-14.000000,-22.000000,-7.000000
1295042.895726,-6.000000,1.000000,9.000000,4.000000,0.000000,-6.000000,6.000000,-3.000000
1295042.895735,5.000000,-9.000000,-7.000000,-25.000000,-23.000000,-7.000000,5.000000,7.000000
1295042.926321,5.000000,7.000000,15.000000,-50.000000,-88.000000,-1.000000,-8.000000,6.000000
1295042.926337,-3.000000,-1.000000,-6.000000,-5.000000,-1.000000,-2.000000,34.000000,0.000000
1295042.926939,-15.000000,-20.000000,-19.000000,5.000000,11.000000,-2.000000,-26.000000,-14.000000
1295042.926948,6.000000,-3.000000,8.000000,4.000000,-21.000000,-3.000000,-7.000000,12.000000
1295042.940483,3.000000,-4.000000,-4.000000,-20.000000,-22.000000,-20.000000,-19.000000,-9.000000
1295042.940494,-11.000000,-9.000000,-7.000000,-9.000000,-30.000000,5.000000,-15.000000,-15.000000
1295042.948016,14.000000,24.000000,20.000000,42.000000,81.000000,22.000000,37.000000,22.000000
1295042.948026,-1.000000,15.000000,6.000000,-2.000000,-2.000000,-6.000000,-35.000000,-6.000000
1295042.970990,-4.000000,-6.000000,5.000000,-29.000000,-52.000000,-17.000000,5.000000,-1.000000
1295042.971019,-7.000000,-9.000000,-6.000000,13.000000,35.000000,1.000000,-8.000000,-11.000000
1295043.015946,-5.000000,0.000000,10.000000,-11.000000,-27.000000,1.000000,1.000000,-2.000000
1295043.015958,-15.000000,-24.000000,-27.000000,-18.000000,4.000000,-14.000000,-10.000000,-8.000000
1295043.053369,33.000000,53.000000,37.000000,35.000000,23.000000,19.000000,38.000000,23.000000
1295043.053392,2.000000,16.000000,3.000000,-18.000000,-14.000000,4.000000,44.000000,14.000000
1295043.054289,2.000000,-9.000000,-4.000000,-5.000000,-16.000000,-12.000000,-13.000000,1.000000
1295043.054299,9.000000,12.000000,20.000000,3.000000,3.000000,25.000000,-21.000000,2.000000
1295043.054835,-13.000000,-6.000000,-10.000000,0.000000,4.000000,-9.000000,-27.000000,-17.000000
1295043.054846,2.000000,4.000000,-1.000000,-21.000000,-53.000000,-17.000000,-17.000000,-5.000000
1295043.056166,2.000000,12.000000,8.000000,-5.000000,-16.000000,-5.000000,-14.000000,-4.000000
1295043.056177,-10.000000,-6.000000,-14.000000,-11.000000,-25.000000,-6.000000,-5.000000,-6.000000
1295043.060932,-5.000000,-26.000000,-11.000000,9.000000,48.000000,-12.000000,-33.000000,-12.000000
1295043.060944,1.000000,13.000000,-4.000000,-7.000000,-15.000000,-3.000000,3.000000,1.000000
1295043.083163,3.000000,8.000000,14.000000,-31.000000,-38.000000,17.000000,38.000000,10.000000
1295043.083174,-5.000000,-11.000000,0.000000,-3.000000,-5.000000,-8.000000,35.000000,-9.000000
1295043.084691,-1.000000,-2.000000,-6.000000,-34.000000,-33.000000,0.000000,-5.000000,-11.000000
1295043.084703,-4.000000,-3.000000,-12.000000,2.000000,10.000000,-10.000000,-39.000000,-6.000000
1295043.090432,-5.000000,6.000000,2.000000,-5.000000,-10.000000,7.000000,-5.000000,-7.000000
1295043.090442,-7.000000,-10.000000,-7.000000,-5.000000,-21.000000,-8.000000,-15.000000,-23.000000
1295043.128031,-1.000000,-1.000000,3.000000,-21.000000,-28.000000,-12.000000,14.000000,18.000000
1295043.128042,20.000000,21.000000,22.000000,1.000000,-13.000000,4.000000,14.000000,10.000000
1295043.128410,-4.000000,-29.000000,-20.000000,-21.000000,-4.000000,-4.000000,-10.000000,-10.000000
1295043.128418,-3.000000,3.000000,5.000000,9.000000,0.000000,4.000000,-23.000000,-13.000000
1295043.129775,6.000000,-3.000000,3.000000,-8.000000,-6.000000,-3.000000,7.000000,8.000000
1295043.129783,-14.000000,-20.000000,-10.000000,17.000000,13.000000,-7.000000,-34.000000,-13.000000
1295043.130528,-1.000000,25.000000,-2.000000,-16.000000,-16.000000,14.000000,15.000000,-3.000000
1295043.130537,8.000000,2.000000,5.000000,-10.000000,-9.000000,3.000000,19.000000,27.000000
1295043.173347,-5.000000,-14.000000,-21.000000,-2.000000,19.000000,-5.000000,-4.000000,-10.000000
1295043.173369,-5.000000,-12.000000,-9.000000,6.000000,13.000000,-9.000000,-23.000000,-10.000000
1295043.180707,-14.000000,-10.000000,-17.000000,-30.000000,-46.000000,-9.000000,-34.000000,-17.000000
1295043.180718,12.000000,8.000000,21.000000,-1.000000,12.000000,21.000000,19.000000,8.000000
1295043.210868,-2.000000,-17.000000,-4.000000,-6.000000,-5.000000,-5.000000,-11.000000,1.000000
1295043.210971,-7.000000,5.000000,2.000000,-5.000000,-7.000000,-17.000000,-13.000000,-12.000000
1295043.211253,-4.000000,3.000000,3.000000,-13.000000,-30.000000,-5.000000,-12.000000,2.000000
1295043.211264,-3.000000,-19.000000,-20.000000,-17.000000,-12.000000,-6.000000,-9.000000,-2.000000
1295043.212479,-4.000000,-10.000000,-16.000000,2.000000,-15.000000,-5.000000,-10.000000,-5.000000
1295043.212500,22.000000,20.000000,25.000000,32.000000,25.000000,20.000000,53.000000,9.000000
1295043.213023,-1.000000,-4.000000,-8.000000,-3.000000,16.000000,-3.000000,5.000000,2.000000
1295043.213050,-8.000000,-16.000000,-19.000000,-21.000000,-39.000000,-4.000000,13.000000,-2.000000
1295043.213885,-6.000000,14.000000,-5.000000,-17.000000,-10.000000,-9.000000,-21.000000,-8.000000
1295043.213893,4.000000,-6.000000,-2.000000,22.000000,35.000000,6.000000,5.000000,-1.000000
1295043.218407,3.000000,-7.000000,-2.000000,-29.000000,-51.000000,-9.000000,15.000000,8.000000
1295043.218450,2.000000,2.000000,8.000000,27.000000,6.000000,2.000000,12.000000,0.000000
1295043.233244,-6.000000,-7.000000,-3.000000,-6.000000,-19.000000,-5.000000,-16.000000,-7.000000
1295043.233273,2.000000,3.000000,3.000000,-32.000000,-48.000000,-7.000000,25.000000,8.000000
1295043.285565,2.000000,-11.000000,-14.000000,14.000000,3.000000,6.000000,-19.000000,-2.000000
1295043.285577,3.000000,21.000000,19.000000,40.000000,29.000000,7.000000,85.000000,12.000000
1295043.293076,2.000000,-1.000000,2.000000,-2.000000,-18.000000,6.000000,-13.000000,1.000000
1295043.293106,9.000000,1.000000,5.000000,10.000000,-13.000000,2.000000,2.000000,9.000000
1295043.294308,-9.000000,-14.000000,-17.000000,-9.000000,0.000000,-10.000000,-16.000000,-7.000000
1295043.294336,1.000000,15.000000,16.000000,3.000000,17.000000,5.000000,1.000000,-1.000000
1295043.294979,-6.000000,-18.000000,-22.000000,1.000000,13.000000,-4.000000,-28.000000,-12.000000
1295043.295007,1.000000,13.000000,7.000000,-3.000000,-7.000000,7.000000,11.000000,1.000000
1295043.296383,1.000000,-5.000000,-2.000000,-1.000000,3.000000,9.000000,4.000000,10.000000
1295043.296409,1.000000,1.000000,3.000000,-11.000000,-34.000000,-6.000000,10.000000,-9.000000
1295043.330647,-5.000000,8.000000,13.000000,46.000000,75.000000,30.000000,17.000000,-18.000000
1295043.330676,2.000000,-11.000000,-17.000000,-30.000000,-30.000000,-11.000000,3.000000,9.000000
1295043.338421,-1.000000,-14.000000,-8.000000,8.000000,-3.000000,-5.000000,-4.000000,8.000000
1295043.338450,0.000000,19.000000,14.000000,-26.000000,-25.000000,-11.000000,-16.000000,-6.000000
1295043.368046,-1.000000,19.000000,17.000000,40.000000,41.000000,19.000000,-7.000000,-12.000000
1295043.368069,2.000000,-11.000000,-10.000000,-3.000000,19.000000,0.000000,0.000000,-3.000000
1295043.398114,0.000000,3.000000,-5.000000,1.000000,6.000000,-7.000000,-13.000000,-1.000000
1295043.398125,-7.000000,-6.000000,-4.000000,-12.000000,-15.000000,-10.000000,-14.000000,-6.000000
1295043.420593,-2.000000,-2.000000,-2.000000,25.000000,55.000000,1.000000,-24.000000,-8.000000
1295043.420603,11.000000,10.000000,16.000000,34.000000,-11.000000,25.000000,31.000000,25.000000
1295043.420972,-5.000000,10.000000,1.000000,-2.000000,-7.000000,-11.000000,-1.000000,-2.000000
1295043.420994,11.000000,1.000000,0.000000,-3.000000,4.000000,-16.000000,-13.000000,2.000000
1295043.443171,3.000000,17.000000,21.000000,15.000000,26.000000,10.000000,-8.000000,5.000000
1295043.443191,6.000000,0.000000,0.000000,4.000000,3.000000,7.000000,10.000000,5.000000
1295043.443494,-1.000000,-18.000000,-15.000000,10.000000,24.000000,3.000000,32.000000,-1.000000
1295043.443504,-5.000000,-1.000000,5.000000,-12.000000,-18.000000,-12.000000,-21.000000,-12.000000
1295043.444851,19.000000,17.000000,9.000000,-17.000000,-6.000000,2.000000,27.000000,30.000000
1295043.444862,-2.000000,10.000000,1.000000,-15.000000,4.000000,-1.000000,-18.000000,-5.000000
1295043.446405,-1.000000,-10.000000,-7.000000,8.000000,16.000000,3.000000,4.000000,-6.000000
1295043.446415,-4.000000,-8.000000,-2.000000,-3.000000,-8.000000,-10.000000,-30.000000,-10.000000
1295043.450453,-11.000000,-14.000000,-6.000000,-27.000000,-21.000000,-12.000000,-22.000000,-7.000000
1295043.450465,9.000000,23.000000,20.000000,10.000000,-35.000000,12.000000,87.000000,13.000000
1295043.480952,3.000000,6.000000,-7.000000,14.000000,34.000000,18.000000,6.000000,4.000000
1295043.480965,-9.000000,-1.000000,-21.000000,-9.000000,-12.000000,-14.000000,-29.000000,-11.000000
1295043.488518,0.000000,-4.000000,5.000000,-3.000000,-2.000000,12.000000,17.000000,4.000000
1295043.488602,-3.000000,-26.000000,-26.000000,-8.000000,-9.000000,-23.000000,9.000000,1.000000
1295043.510721,10.000000,22.000000,37.000000,-18.000000,-70.000000,15.000000,-16.000000,2.000000
1295043.510731,0.000000,2.000000,6.000000,9.000000,17.000000,8.000000,33.000000,0.000000
1295043.525793,-8.000000,-15.000000,-11.000000,-11.000000,-4.000000,-8.000000,-16.000000,-4.000000
1295043.525802,6.000000,7.000000,2.000000,49.000000,83.000000,12.000000,-12.000000,4.000000
1295043.563400,1.000000,5.000000,8.000000,-12.000000,-56.000000,2.000000,10.000000,-1.000000
1295043.563427,2.000000,-15.000000,-21.000000,-14.000000,-23.000000,-8.000000,-4.000000,5.000000
1295043.564103,1.000000,7.000000,6.000000,1.000000,4.000000,-3.000000,-29.000000,-16.000000
1295043.564130,-5.000000,4.000000,4.000000,12.000000,33.000000,7.000000,32.000000,6.000000
1295043.565315,-6.000000,-20.000000,-14.000000,-29.000000,-23.000000,4.000000,-12.000000,-4.000000
1295043.565343,2.000000,17.000000,16.000000,35.000000,30.000000,9.000000,-6.000000,7.000000
1295043.565968,2.000000,-9.000000,-12.000000,-3.000000,2.000000,-3.000000,31.000000,0.000000
1295043.565994,-9.000000,-1.000000,-3.000000,0.000000,4.000000,-15.000000,4.000000,-27.000000
1295043.566900,-5.000000,-3.000000,2.000000,-12.000000,-18.000000,-11.000000,-14.000000,-13.000000
1295043.566927,-8.000000,-5.000000,-9.000000,15.000000,12.000000,8.000000,19.000000,1.000000
1295043.570412,2.000000,27.000000,15.000000,4.000000,6.000000,-9.000000,0.000000,-6.000000
1295043.570438,-11.000000,-14.000000,-12.000000,-6.000000,0.000000,5.000000,20.000000,5.000000
1295043.585904,-2.000000,-6.000000,-13.000000,-12.000000,-15.000000,-21.000000,-28.000000,-1.000000
1295043.585933,-17.000000,-22.000000,-15.000000,-13.000000,-3.000000,-5.000000,-80.000000,-23.000000
1295043.608139,21.000000,35.000000,46.000000,-27.000000,-45.000000,11.000000,38.000000,12.000000
1295043.608149,-4.000000,-9.000000,-13.000000,-2.000000,7.000000,-6.000000,4.000000,7.000000
1295043.638113,0.000000,4.000000,-4.000000,-10.000000,-8.000000,-8.000000,-14.000000,1.000000
1295043.638124,-13.000000,-23.000000,-14.000000,17.000000,31.000000,-1.000000,-9.000000,-9.000000
1295043.645588,-4.000000,10.000000,4.000000,-5.000000,-7.000000,4.000000,-4.000000,0.000000
1295043.645604,3.000000,7.000000,-1.000000,0.000000,8.000000,1.000000,-7.000000,-5.000000
1295043.646503,-8.000000,-12.000000,-10.000000,19.000000,23.000000,-4.000000,-17.000000,-8.000000
1295043.646512,-5.000000,-14.000000,3.000000,-8.000000,-2.000000,-9.000000,-4.000000,-1.000000
1295043.647178,5.000000,36.000000,10.000000,9.000000,17.000000,4.000000,-3.000000,3.000000
1295043.647189,-7.000000,-14.000000,3.000000,-1.000000,7.000000,-2.000000,1.000000,-7.000000
1295043.648746,-14.000000,-17.000000,-25.000000,4.000000,9.000000,-15.000000,-17.000000,-13.000000
1295043.648754,-18.000000,-11.000000,-2.000000,-4.000000,36.000000,2.000000,-4.000000,-22.000000
1295043.683475,39.000000,39.000000,35.000000,3.000000,10.000000,38.000000,65.000000,59.000000
1295043.683504,-8.000000,-6.000000,-11.000000,17.000000,1.000000,-6.000000,-23.000000,-13.000000
1295043.684114,-14.000000,-14.000000,-7.000000,-6.000000,7.000000,-8.000000,-15.000000,-11.000000
1295043.684129,-6.000000,-10.000000,-15.000000,-5.000000,-3.000000,-11.000000,5.000000,-2.000000
1295043.685326,0.000000,-6.000000,-3.000000,1.000000,-36.000000,-2.000000,-17.000000,-8.000000
1295043.685335,-1.000000,-3.000000,1.000000,0.000000,2.000000,0.000000,26.000000,-3.000000
1295043.686303,1.000000,1.000000,-7.000000,-2.000000,-10.000000,-5.000000,1.000000,5.000000
1295043.686318,-9.000000,-7.000000,-6.000000,-9.000000,-6.000000,-22.000000,-40.000000,-18.000000
1295043.713454,-4.000000,-8.000000,-12.000000,-8.000000,4.000000,8.000000,-40.000000,-8.000000
1295043.713483,7.000000,11.000000,2.000000,9.000000,4.000000,6.000000,89.000000,6.000000
1295043.720984,-1.000000,-6.000000,-10.000000,7.000000,28.000000,-14.000000,-16.000000,29.000000
1295043.720994,6.000000,-2.000000,9.000000,-31.000000,-50.000000,-5.000000,-17.000000,-8.000000
1295043.735600,1.000000,12.000000,7.000000,26.000000,60.000000,21.000000,-1.000000,-2.000000
1295043.735609,-4.000000,1.000000,-4.000000,31.000000,43.000000,-7.000000,-20.000000,-3.000000
1295043.758323,-1.000000,-8.000000,-6.000000,-29.000000,-21.000000,-7.000000,-20.000000,2.000000
1295043.758336,-5.000000,-4.000000,1.000000,0.000000,-2.000000,0.000000,7.000000,-7.000000
1295043.759294,-9.000000,-14.000000,-13.000000,2.000000,5.000000,-11.000000,-31.000000,-8.000000
1295043.759305,10.000000,12.000000,3.000000,1.000000,0.000000,5.000000,38.000000,7.000000
1295043.759798,5.000000,2.000000,8.000000,2.000000,-5.000000,4.000000,1.000000,8.000000
1295043.759808,-3.000000,3.000000,1.000000,4.000000,16.000000,1.000000,-6.000000,-4.000000
1295043.761126,-6.000000,7.000000,-22.000000,-14.000000,-23.000000,-3.000000,-14.000000,-9.000000
1295043.761136,6.000000,-5.000000,2.000000,35.000000,25.000000,17.000000,-2.000000,2.000000
1295043.761971,3.000000,-3.000000,2.000000,16.000000,9.000000,16.000000,9.000000,4.000000
1295043.761981,6.000000,26.000000,13.000000,-2.000000,-4.000000,-4.000000,-11.000000,-2.000000
1295043.787927,-6.000000,-5.000000,-13.000000,8.000000,8.000000,-10.000000,-7.000000,-4.000000
1295043.787941,-10.000000,-21.000000,-10.000000,-28.000000,-55.000000,-10.000000,-12.000000,-8.000000
1295043.788489,8.000000,29.000000,23.000000,11.000000,36.000000,13.000000,6.000000,3.000000
1295043.788547,0.000000,-5.000000,3.000000,23.000000,43.000000,16.000000,0.000000,7.000000
1295043.803305,3.000000,7.000000,7.000000,-24.000000,-46.000000,-27.000000,-27.000000,-7.000000
1295043.803319,5.000000,1.000000,-3.000000,27.000000,15.000000,20.000000,24.000000,-1.000000
1295043.803904,-4.000000,-3.000000,0.000000,2.000000,3.000000,24.000000,-31.000000,-11.000000
1295043.803913,2.000000,-17.000000,-8.000000,-20.000000,-19.000000,3.000000,9.000000,34.000000
1295043.840611,6.000000,2.000000,5.000000,-26.000000,-53.000000,-10.000000,23.000000,5.000000
1295043.840650,-3.000000,15.000000,13.000000,20.000000,32.000000,-1.000000,-16.000000,-11.000000
1295043.848446,1.000000,-10.000000,-19.000000,-9.000000,-4.000000,-8.000000,-10.000000,-8.000000
1295043.848475,-8.000000,-5.000000,-4.000000,1.000000,-4.000000,-3.000000,-2.000000,-8.000000
1295043.893208,-2.000000,-3.000000,2.000000,-8.000000,-19.000000,-13.000000,24.000000,-2.000000
1295043.893218,-6.000000,-5.000000,1.000000,0.000000,-9.000000,-9.000000,-22.000000,-11.000000
1295043.915610,-6.000000,-21.000000,-15.000000,11.000000,40.000000,-4.000000,-45.000000,-5.000000
1295043.915669,9.000000,9.000000,15.000000,9.000000,21.000000,30.000000,56.000000,0.000000
1295043.916574,-4.000000,-10.000000,-11.000000,-3.000000,-19.000000,-15.000000,-11.000000,-6.000000
1295043.916583,-8.000000,-23.000000,-13.000000,22.000000,42.000000,8.000000,-9.000000,-1.000000
1295043.917189,-12.000000,-5.000000,3.000000,-14.000000,33.000000,-3.000000,-15.000000,-12.000000
1295043.917198,3.000000,19.000000,30.000000,17.000000,-24.000000,-6.000000,-16.000000,-5.000000
1295043.918624,14.000000,3.000000,0.000000,15.000000,23.000000,-3.000000,-1.000000,17.000000
1295043.918632,5.000000,-6.000000,-6.000000,-2.000000,3.000000,-1.000000,2.000000,6.000000
1295043.953535,-5.000000,-4.000000,1.000000,-2.000000,-13.000000,-8.000000,11.000000,-8.000000
1295043.953567,-3.000000,-13.000000,-5.000000,-23.000000,-26.000000,-2.000000,0.000000,7.000000
1295043.960832,8.000000,-4.000000,-5.000000,4.000000,11.000000,9.000000,10.000000,0.000000
1295043.960857,-11.000000,3.000000,13.000000,6.000000,13.000000,-1.000000,-14.000000,-10.000000
1295043.990889,-5.000000,0.000000,-12.000000,-7.000000,-26.000000,-15.000000,-3.000000,-3.000000
1295043.990899,11.000000,3.000000,17.000000,9.000000,34.000000,7.000000,8.000000,11.000000
1295043.998350,-6.000000,-15.000000,-5.000000,-5.000000,-51.000000,-15.000000,-4.000000,-6.000000
1295043.998371,-12.000000,-6.000000,-5.000000,-9.000000,24.000000,6.000000,-5.000000,-12.000000
1295044.013077,4.000000,10.000000,7.000000,13.000000,-20.000000,-5.000000,-12.000000,1.000000
1295044.013129,7.000000,1.000000,-3.000000,19.000000,28.000000,20.000000,8.000000,5.000000
1295044.020582,-8.000000,-11.000000,-19.000000,-13.000000,5.000000,-13.000000,1.000000,-5.000000
1295044.020597,-4.000000,-5.000000,0.000000,5.000000,1.000000,-5.000000,-29.000000,-6.000000
1295044.043370,1.000000,-22.000000,-15.000000,0.000000,-17.000000,-9.000000,4.000000,5.000000
1295044.043381,4.000000,27.000000,12.000000,10.000000,40.000000,15.000000,44.000000,8.000000
1295044.065882,0.000000,-10.000000,-12.000000,-3.000000,-6.000000,2.000000,22.000000,1.000000
1295044.065892,-6.000000,12.000000,10.000000,-10.000000,-11.000000,-9.000000,-17.000000,-14.000000
1295044.080908,-2.000000,-13.000000,-9.000000,-9.000000,-8.000000,-11.000000,-18.000000,1.000000
1295044.080943,-16.000000,-15.000000,-22.000000,7.000000,24.000000,-8.000000,-14.000000,-19.000000
1295044.126711,-11.000000,-10.000000,-1.000000,9.000000,6.000000,-2.000000,-43.000000,-7.000000
1295044.126720,7.000000,10.000000,10.000000,-17.000000,-48.000000,-26.000000,-29.000000,-3.000000
1295044.127194,-1.000000,-3.000000,-6.000000,27.000000,40.000000,13.000000,-13.000000,-1.000000
1295044.127202,5.000000,-1.000000,-5.000000,1.000000,18.000000,17.000000,87.000000,24.000000
1295044.128608,-5.000000,6.000000,3.000000,-4.000000,3.000000,1.000000,-33.000000,-11.000000
1295044.128627,-8.000000,-9.000000,-7.000000,7.000000,3.000000,-2.000000,8.000000,-7.000000
1295044.129476,8.000000,25.000000,20.000000,24.000000,18.000000,21.000000,6.000000,3.000000
1295044.129499,7.000000,-9.000000,3.000000,-16.000000,-6.000000,-6.000000,-16.000000,-2.000000
1295044.170587,2.000000,-3.000000,-2.000000,6.000000,8.000000,-3.000000,-13.000000,-9.000000
1295044.170610,-4.000000,-12.000000,-15.000000,-2.000000,8.000000,-5.000000,-4.000000,-3.000000
1295044.178131,9.000000,18.000000,30.000000,51.000000,28.000000,32.000000,39.000000,9.000000
1295044.178153,-7.000000,-12.000000,-5.000000,1.000000,-1.000000,-19.000000,-15.000000,-6.000000
1295044.200888,-3.000000,15.000000,8.000000,-4.000000,9.000000,0.000000,-8.000000,-5.000000
1295044.200898,-6.000000,10.000000,-7.000000,-15.000000,-4.000000,-8.000000,-8.000000,1.000000
1295044.215656,-2.000000,-15.000000,-14.000000,-5.000000,-22.000000,-2.000000,12.000000,2.000000
1295044.215666,13.000000,20.000000,18.000000,31.000000,26.000000,37.000000,26.000000,20.000000
1295044.238309,13.000000,19.000000,16.000000,21.000000,17.000000,10.000000,41.000000,11.000000
1295044.238320,-3.000000,-20.000000,-27.000000,-27.000000,6.000000,0.000000,-22.000000,-3.000000
1295044.275499,3.000000,9.000000,10.000000,33.000000,11.000000,13.000000,28.000000,7.000000
1295044.275523,-6.000000,-12.000000,-16.000000,-8.000000,-12.000000,-11.000000,-11.000000,-7.000000
1295044.276491,8.000000,6.000000,5.000000,7.000000,3.000000,-9.000000,12.000000,3.000000
1295044.276498,-9.000000,-22.000000,-6.000000,-26.000000,11.000000,-8.000000,-27.000000,-9.000000
1295044.283015,-12.000000,-24.000000,-13.000000,-12.000000,-5.000000,-9.000000,-9.000000,-11.000000
1295044.283023,17.000000,18.000000,24.000000,6.000000,-15.000000,2.000000,38.000000,7.000000
1295044.290993,-8.000000,-12.000000,8.000000,-40.000000,-47.000000,-11.000000,-9.000000,-1.000000
1295044.291005,-6.000000,-15.000000,-15.000000,16.000000,4.000000,0.000000,-13.000000,-2.000000
1295044.313246,-5.000000,4.000000,8.000000,-9.000000,-23.000000,-10.000000,-13.000000,-23.000000
1295044.313256,-1.000000,9.000000,-14.000000,1.000000,11.000000,5.000000,-13.000000,25.000000
1295044.358297,-1.000000,-21.000000,-11.000000,-4.000000,-2.000000,-4.000000,11.000000,-2.000000
1295044.358313,14.000000,28.000000,1.000000,5.000000,-30.000000,1.000000,46.000000,9.000000
1295044.395767,3.000000,-4.000000,-9.000000,-7.000000,10.000000,-1.000000,7.000000,1.000000
1295044.395778,2.000000,-9.000000,5.000000,26.000000,26.000000,1.000000,9.000000,-1.000000
1295044.410777,-4.000000,-9.000000,-7.000000,-21.000000,-41.000000,-16.000000,-20.000000,-5.000000
1295044.410792,0.000000,-3.000000,5.000000,-27.000000,-33.000000,11.000000,0.000000,-6.000000
1295044.418582,-10.000000,-6.000000,-5.000000,6.000000,33.000000,-5.000000,-19.000000,-7.000000
1295044.418592,-1.000000,-5.000000,-1.000000,-5.000000,-7.000000,-7.000000,2.000000,-1.000000
1295044.440732,-12.000000,-14.000000,-1.000000,-3.000000,0.000000,-12.000000,-10.000000,-9.000000
1295044.440760,-5.000000,-18.000000,-13.000000,10.000000,8.000000,-13.000000,-14.000000,-4.000000
1295044.470816,-5.000000,3.000000,-10.000000,6.000000,15.000000,2.000000,-2.000000,-8.000000
1295044.470826,4.000000,-3.000000,-9.000000,-17.000000,5.000000,1.000000,85.000000,14.000000
1295044.471696,-12.000000,-10.000000,2.000000,19.000000,23.000000,-1.000000,-12.000000,-8.000000
1295044.471705,-2.000000,-9.000000,-1.000000,-1.000000,-5.000000,-10.000000,-6.000000,-1.000000
1295044.472969,-4.000000,-13.000000,-18.000000,2.000000,0.000000,-7.000000,-10.000000,-5.000000
1295044.472977,-9.000000,-18.000000,-8.000000,-16.000000,7.000000,-14.000000,-44.000000,-4.000000
1295044.473692,9.000000,10.000000,12.000000,45.000000,6.000000,22.000000,41.000000,9.000000
1295044.473700,-13.000000,-12.000000,-13.000000,9.000000,11.000000,-7.000000,-5.000000,12.000000
1295044.478061,-7.000000,-11.000000,-17.000000,-7.000000,-14.000000,-13.000000,-25.000000,-15.000000
1295044.478070,-5.000000,-1.000000,-5.000000,9.000000,0.000000,-10.000000,-18.000000,-13.000000
1295044.508245,-4.000000,-2.000000,2.000000,5.000000,4.000000,5.000000,-7.000000,-5.000000
1295044.508274,-11.000000,-10.000000,-3.000000,-15.000000,-6.000000,-7.000000,-35.000000,-15.000000
1295044.515868,1.000000,4.000000,-8.000000,0.000000,-10.000000,14.000000,5.000000,-1.000000
1295044.515879,2.000000,8.000000,9.000000,0.000000,5.000000,2.000000,16.000000,0.000000
1295044.553100,2.000000,15.000000,-2.000000,7.000000,-10.000000,5.000000,15.000000,5.000000
1295044.553123,-1.000000,-1.000000,11.000000,-7.000000,-4.000000,-6.000000,-13.000000,-3.000000
1295044.560859,5.000000,-17.000000,-15.000000,-5.000000,-5.000000,-6.000000,-3.000000,-1.000000
1295044.560870,-5.000000,-3.000000,1.000000,-10.000000,-8.000000,-4.000000,-2.000000,-10.000000
1295044.590738,1.000000,11.000000,4.000000,-11.000000,-8.000000,-17.000000,-11.000000,2.000000
1295044.590758,9.000000,-3.000000,-2.000000,17.000000,21.000000,6.000000,11.000000,10.000000
1295044.598085,-6.000000,5.000000,-12.000000,-8.000000,-8.000000,-4.000000,-16.000000,-11.000000
1295044.598112,5.000000,4.000000,-2.000000,-2.000000,-32.000000,-4.000000,33.000000,8.000000
1295044.620775,-3.000000,-4.000000,-2.000000,-3.000000,15.000000,7.000000,21.000000,10.000000
1295044.620810,-4.000000,-7.000000,1.000000,3.000000,2.000000,-1.000000,-31.000000,-26.000000
1295044.635688,-6.000000,0.000000,-3.000000,4.000000,-34.000000,-6.000000,-9.000000,-8.000000
1295044.635699,-8.000000,-15.000000,-9.000000,-27.000000,-10.000000,-6.000000,-15.000000,-12.000000
1295044.725564,5.000000,9.000000,10.000000,-23.000000,-72.000000,-10.000000,-7.000000,-1.000000
1295044.725586,-13.000000,-4.000000,-28.000000,-12.000000,-6.000000,-18.000000,-24.000000,-19.000000
1295044.726031,-20.000000,-24.000000,-11.000000,4.000000,-11.000000,-9.000000,-53.000000,-30.000000
1295044.726047,31.000000,46.000000,12.000000,14.000000,31.000000,37.000000,61.000000,38.000000
1295044.726512,6.000000,13.000000,9.000000,11.000000,17.000000,15.000000,43.000000,9.000000
1295044.726520,-7.000000,-6.000000,-8.000000,-8.000000,-3.000000,-8.000000,-17.000000,-7.000000
1295044.727911,3.000000,5.000000,0.000000,-11.000000,-1.000000,3.000000,-3.000000,-3.000000
1295044.727922,1.000000,22.000000,13.000000,10.000000,12.000000,17.000000,10.000000,-1.000000
1295044.728786,-9.000000,-16.000000,-10.000000,-25.000000,-24.000000,-7.000000,-17.000000,-8.000000
1295044.728795,-2.000000,-5.000000,0.000000,26.000000,43.000000,8.000000,-6.000000,-5.000000
1295044.733016,-10.000000,-16.000000,-18.000000,-17.000000,6.000000,-14.000000,-38.000000,-9.000000
1295044.733025,-6.000000,-2.000000,14.000000,-12.000000,-13.000000,-4.000000,-29.000000,-10.000000
1295044.748340,1.000000,-8.000000,-16.000000,2.000000,19.000000,17.000000,34.000000,4.000000
1295044.748355,-8.000000,-9.000000,-7.000000,-5.000000,15.000000,5.000000,7.000000,-4.000000
1295044.749513,6.000000,4.000000,3.000000,-1.000000,9.000000,-6.000000,-32.000000,-16.000000
1295044.749523,-7.000000,-7.000000,2.000000,-22.000000,-17.000000,4.000000,4.000000,23.000000
1295044.770653,-7.000000,-7.000000,-3.000000,20.000000,19.000000,-11.000000,-19.000000,-12.000000
1295044.770664,1.000000,-1.000000,-7.000000,-29.000000,-49.000000,-9.000000,-9.000000,-3.000000
1295044.822891,-6.000000,0.000000,-1.000000,4.000000,11.000000,14.000000,55.000000,-5.000000
1295044.822909,8.000000,-6.000000,-12.000000,-6.000000,6.000000,-4.000000,1.000000,9.000000
1295044.830511,-8.000000,9.000000,8.000000,7.000000,-15.000000,-5.000000,-61.000000,-16.000000
1295044.830523,-2.000000,-13.000000,2.000000,7.000000,-2.000000,-5.000000,5.000000,-3.000000
1295044.831570,-2.000000,-1.000000,2.000000,9.000000,6.000000,-8.000000,7.000000,1.000000
1295044.831599,2.000000,11.000000,-3.000000,16.000000,27.000000,10.000000,-11.000000,1.000000
1295044.832250,1.000000,7.000000,1.000000,-19.000000,-26.000000,3.000000,24.000000,-2.000000
1295044.832277,-4.000000,-3.000000,7.000000,-7.000000,-2.000000,-5.000000,-14.000000,-6.000000
1295044.833530,-3.000000,-8.000000,5.000000,5.000000,10.000000,11.000000,8.000000,11.000000
1295044.833556,-8.000000,-7.000000,-13.000000,-7.000000,-5.000000,-11.000000,21.000000,8.000000
1295044.838332,4.000000,-6.000000,-9.000000,32.000000,80.000000,21.000000,-6.000000,3.000000
1295044.838343,7.000000,29.000000,26.000000,1.000000,6.000000,5.000000,13.000000,9.000000
1295044.868221,-11.000000,9.000000,-5.000000,1.000000,-8.000000,-8.000000,-50.000000,-24.000000
1295044.868231,3.000000,6.000000,-10.000000,-23.000000,-28.000000,-2.000000,17.000000,3.000000
1295044.875550,2.000000,8.000000,11.000000,16.000000,32.000000,12.000000,41.000000,-6.000000
1295044.875560,7.000000,-1.000000,-10.000000,-14.000000,7.000000,-11.000000,-21.000000,30.000000
1295044.905880,2.000000,2.000000,12.000000,19.000000,10.000000,10.000000,-1.000000,-4.000000
1295044.905898,-4.000000,0.000000,-12.000000,-15.000000,-17.000000,-9.000000,6.000000,-5.000000
1295044.913215,3.000000,1.000000,2.000000,-15.000000,-16.000000,1.000000,17.000000,1.000000
1295044.913236,-2.000000,-12.000000,-6.000000,10.000000,16.000000,1.000000,-19.000000,-20.000000
1295044.950638,10.000000,-1.000000,10.000000,-6.000000,5.000000,9.000000,30.000000,9.000000
1295044.950650,1.000000,2.000000,-1.000000,0.000000,2.000000,-15.000000,-3.000000,2.000000
1295044.951156,-9.000000,-12.000000,-6.000000,-27.000000,-22.000000,1.000000,-12.000000,-9.000000
1295044.951175,4.000000,-1.000000,5.000000,33.000000,40.000000,10.000000,-7.000000,-5.000000
1295044.952399,8.000000,14.000000,-2.000000,-11.000000,-23.000000,0.000000,22.000000,9.000000
1295044.952409,6.000000,9.000000,3.000000,-13.000000,11.000000,1.000000,10.000000,2.000000
1295044.953087,-8.000000,-9.000000,-2.000000,-7.000000,-10.000000,-18.000000,-24.000000,0.000000
1295044.953095,-9.000000,-6.000000,-1.000000,28.000000,36.000000,9.000000,-11.000000,-5.000000
1295044.953726,2.000000,4.000000,4.000000,25.000000,33.000000,16.000000,-3.000000,1.000000
1295044.953747,-5.000000,-3.000000,-3.000000,-20.000000,-19.000000,-16.000000,-21.000000,-8.000000
1295044.958337,-8.000000,-3.000000,-12.000000,-7.000000,12.000000,0.000000,0.000000,-7.000000
1295044.958354,1.000000,-3.000000,8.000000,-8.000000,3.000000,1.000000,-45.000000,-4.000000
1295044.996006,-4.000000,-11.000000,-11.000000,-11.000000,-41.000000,-10.000000,27.000000,1.000000
1295044.996035,10.000000,12.000000,13.000000,-16.000000,1.000000,10.000000,9.000000,1.000000
1295045.003030,2.000000,-9.000000,-9.000000,-30.000000,-4.000000,-2.000000,-3.000000,4.000000
1295045.003040,-2.000000,-1.000000,4.000000,-1.000000,-5.000000,-1.000000,-2.000000,1.000000
1295045.025939,-6.000000,-12.000000,-17.000000,4.000000,-10.000000,-4.000000,-6.000000,-7.000000
1295045.025953,-7.000000,0.000000,12.000000,-6.000000,-28.000000,-5.000000,-14.000000,-4.000000
1295045.033451,-7.000000,7.000000,-1.000000,-27.000000,-39.000000,-16.000000,-17.000000,-13.000000
1295045.033464,1.000000,2.000000,10.000000,0.000000,-2.000000,0.000000,-28.000000,-6.000000
1295045.072709,-10.000000,-6.000000,-14.000000,-3.000000,-26.000000,-15.000000,25.000000,-11.000000
1295045.072730,-10.000000,-14.000000,-9.000000,-8.000000,15.000000,18.000000,-30.000000,-11.000000
1295045.073685,23.000000,36.000000,43.000000,41.000000,57.000000,30.000000,46.000000,21.000000
1295045.073696,1.000000,-2.000000,-2.000000,-1.000000,3.000000,1.000000,-9.000000,5.000000
1295045.073741,-11.000000,-11.000000,-22.000000,-4.000000,7.000000,-11.000000,-26.000000,-12.000000
1295045.073746,7.000000,13.000000,28.000000,-4.000000,-45.000000,-1.000000,6.000000,3.000000
1295045.073796,-7.000000,-14.000000,-6.000000,0.000000,-5.000000,-9.000000,-15.000000,-9.000000
1295045.073817,-3.000000,12.000000,4.000000,10.000000,10.000000,-3.000000,-17.000000,-8.000000
1295045.074231,1.000000,-4.000000,2.000000,-21.000000,-13.000000,6.000000,10.000000,3.000000
1295045.074241,-4.000000,-6.000000,-1.000000,19.000000,5.000000,14.000000,-12.000000,-19.000000
1295045.108210,-2.000000,6.000000,9.000000,4.000000,9.000000,4.000000,-15.000000,3.000000
1295045.108219,-6.000000,-14.000000,-15.000000,-10.000000,-8.000000,-5.000000,-8.000000,-5.000000
1295045.123449,-5.000000,-7.000000,-6.000000,2.000000,6.000000,-5.000000,-4.000000,-5.000000
1295045.123462,-2.000000,5.000000,16.000000,8.000000,19.000000,7.000000,-4.000000,0.000000
1295045.145662,-3.000000,-5.000000,-14.000000,-6.000000,-5.000000,-10.000000,-6.000000,-1.000000
1295045.145672,-9.000000,-8.000000,-3.000000,-16.000000,-25.000000,-9.000000,-3.000000,-4.000000
1295045.160498,-4.000000,6.000000,-11.000000,10.000000,-24.000000,-16.000000,-6.000000,-11.000000
1295045.160521,-4.000000,5.000000,11.000000,-9.000000,-7.000000,-4.000000,-17.000000,-13.000000
1295045.175848,3.000000,-14.000000,-5.000000,-9.000000,3.000000,5.000000,10.000000,24.000000
1295045.175859,11.000000,12.000000,17.000000,28.000000,48.000000,27.000000,41.000000,16.000000
1295045.192328,-4.000000,-3.000000,-14.000000,-4.000000,0.000000,-10.000000,-4.000000,-6.000000
1295045.192356,8.000000,20.000000,18.000000,-3.000000,-61.000000,11.000000,19.000000,1.000000
1295045.192486,4.000000,7.000000,7.000000,17.000000,-6.000000,0.000000,-12.000000,7.000000
1295045.192494,-7.000000,-14.000000,-8.000000,-32.000000,-59.000000,-37.000000,-49.000000,-16.000000
1295045.192949,-13.000000,-18.000000,-19.000000,-3.000000,-4.000000,-18.000000,-14.000000,-10.000000
1295045.193017,11.000000,41.000000,40.000000,-22.000000,-36.000000,-4.000000,-6.000000,1.000000
1295045.193629,-9.000000,-23.000000,-26.000000,-4.000000,4.000000,1.000000,10.000000,-19.000000
1295045.193637,4.000000,1.000000,7.000000,6.000000,-4.000000,3.000000,13.000000,39.000000
1295045.213226,1.000000,-5.000000,2.000000,9.000000,-20.000000,4.000000,32.000000,0.000000
1295045.213236,3.000000,-2.000000,4.000000,17.000000,54.000000,17.000000,28.000000,4.000000
1295045.235526,-3.000000,-12.000000,-14.000000,-24.000000,-22.000000,-19.000000,-26.000000,2.000000
1295045.235536,-8.000000,-7.000000,-14.000000,8.000000,39.000000,6.000000,26.000000,-7.000000
1295045.250733,-3.000000,2.000000,-7.000000,-10.000000,-23.000000,-16.000000,-29.000000,-4.000000
1295045.250758,4.000000,16.000000,2.000000,-14.000000,-1.000000,9.000000,13.000000,3.000000
1295045.280556,8.000000,22.000000,12.000000,-7.000000,-8.000000,0.000000,20.000000,10.000000
1295045.280574,-14.000000,-16.000000,-24.000000,4.000000,39.000000,-5.000000,-17.000000,-10.000000
1295045.303554,10.000000,10.000000,23.000000,1.000000,6.000000,8.000000,-1.000000,3.000000
1295045.303566,2.000000,2.000000,-6.000000,8.000000,19.000000,5.000000,4.000000,11.000000
1295045.332900,-3.000000,-11.000000,-11.000000,1.000000,-8.000000,2.000000,22.000000,-10.000000
1295045.332910,1.000000,-8.000000,-7.000000,-20.000000,-29.000000,2.000000,8.000000,1.000000
1295045.348218,6.000000,-10.000000,-5.000000,5.000000,8.000000,7.000000,5.000000,7.000000
1295045.348228,0.000000,25.000000,2.000000,6.000000,-8.000000,-13.000000,-20.000000,-7.000000
1295045.385674,8.000000,10.000000,14.000000,2.000000,-5.000000,-5.000000,2.000000,18.000000
1295045.385705,-8.000000,-13.000000,-16.000000,-6.000000,-11.000000,-30.000000,-36.000000,-18.000000
1295045.393256,-6.000000,-5.000000,-1.000000,25.000000,37.000000,-6.000000,-12.000000,-8.000000
1295045.393273,-9.000000,-16.000000,-21.000000,-15.000000,-26.000000,6.000000,8.000000,-7.000000
1295045.423152,8.000000,21.000000,15.000000,16.000000,16.000000,6.000000,-4.000000,7.000000
1295045.423165,5.000000,12.000000,8.000000,-26.000000,-16.000000,0.000000,24.000000,4.000000
1295045.424780,-17.000000,-8.000000,-21.000000,-24.000000,-37.000000,6.000000,-10.000000,-12.000000
1295045.424798,-1.000000,-12.000000,-13.000000,4.000000,10.000000,3.000000,2.000000,-4.000000
1295045.425721,9.000000,12.000000,11.000000,-8.000000,-1.000000,-4.000000,10.000000,-7.000000
1295045.425736,3.000000,6.000000,3.000000,3.000000,1.000000,-2.000000,21.000000,2.000000
1295045.426232,-14.000000,-14.000000,-13.000000,3.000000,-12.000000,-11.000000,-16.000000,-7.000000
1295045.426248,-3.000000,-14.000000,-11.000000,-38.000000,-18.000000,-1.000000,-34.000000,-5.000000
1295045.426977,0.000000,18.000000,20.000000,35.000000,67.000000,10.000000,-7.000000,3.000000
1295045.426986,0.000000,-7.000000,-7.000000,-13.000000,0.000000,25.000000,67.000000,5.000000
1295045.431353,-5.000000,-2.000000,3.000000,19.000000,19.000000,-3.000000,-27.000000,-14.000000
1295045.431372,5.000000,-4.000000,3.000000,18.000000,14.000000,18.000000,23.000000,4.000000
1295045.468328,3.000000,32.000000,19.000000,13.000000,-2.000000,9.000000,-18.000000,-4.000000
1295045.468352,-11.000000,-17.000000,-18.000000,-20.000000,-10.000000,-10.000000,-4.000000,-12.000000
1295045.513266,4.000000,4.000000,11.000000,17.000000,-15.000000,-2.000000,-9.000000,2.000000
1295045.513277,22.000000,16.000000,14.000000,27.000000,25.000000,15.000000,27.000000,18.000000
1295045.528240,-4.000000,8.000000,-6.000000,-7.000000,-8.000000,-11.000000,-28.000000,-8.000000
1295045.528269,-6.000000,-8.000000,-1.000000,10.000000,-22.000000,12.000000,16.000000,-1.000000
1295045.550842,11.000000,21.000000,20.000000,-11.000000,1.000000,14.000000,16.000000,4.000000
1295045.550872,-3.000000,-11.000000,-12.000000,-30.000000,-42.000000,-29.000000,31.000000,3.000000
1295045.551442,2.000000,3.000000,-1.000000,10.000000,23.000000,1.000000,-4.000000,2.000000
1295045.551450,-19.000000,-31.000000,-15.000000,-20.000000,-14.000000,-23.000000,-58.000000,-19.000000
1295045.552436,6.000000,-8.000000,3.000000,-1.000000,-3.000000,-2.000000,-19.000000,-4.000000
1295045.552446,-2.000000,6.000000,3.000000,-5.000000,-7.000000,-5.000000,1.000000,-3.000000
1295045.553919,-6.000000,-20.000000,-15.000000,1.000000,-4.000000,-5.000000,-17.000000,-10.000000
1295045.553946,0.000000,2.000000,0.000000,1.000000,6.000000,-1.000000,-7.000000,6.000000
1295045.565699,-5.000000,-1.000000,14.000000,-3.000000,19.000000,7.000000,9.000000,31.000000
1295045.565721,3.000000,3.000000,-6.000000,12.000000,1.000000,-2.000000,-18.000000,-7.000000
1295045.588443,-7.000000,-4.000000,1.000000,-17.000000,-4.000000,-6.000000,26.000000,4.000000
1295045.588456,6.000000,22.000000,14.000000,10.000000,8.000000,15.000000,-9.000000,-9.000000
1295045.625700,3.000000,-7.000000,17.000000,-13.000000,-13.000000,-3.000000,8.000000,1.000000
1295045.625724,-6.000000,-13.000000,-4.000000,11.000000,6.000000,9.000000,34.000000,1.000000
1295045.663164,-4.000000,1.000000,-4.000000,15.000000,28.000000,7.000000,-24.000000,-4.000000
1295045.663210,-10.000000,-5.000000,-6.000000,-14.000000,-13.000000,-19.000000,-13.000000,-13.000000
1295045.663740,5.000000,-3.000000,0.000000,6.000000,-10.000000,-3.000000,-6.000000,-1.000000
1295045.663758,2.000000,11.000000,13.000000,22.000000,42.000000,16.000000,16.000000,5.000000
1295045.664767,2.000000,5.000000,2.000000,9.000000,13.000000,5.000000,-1.000000,-1.000000
1295045.664794,-1.000000,-9.000000,-4.000000,2.000000,-12.000000,-9.000000,-5.000000,-4.000000
1295045.665582,-16.000000,-21.000000,-30.000000,-10.000000,14.000000,-10.000000,-27.000000,-20.000000
1295045.665610,-3.000000,-6.000000,-23.000000,-47.000000,-41.000000,-21.000000,-20.000000,-6.000000
1295045.670927,-3.000000,-6.000000,-1.000000,6.000000,23.000000,11.000000,-7.000000,26.000000
1295045.670949,6.000000,39.000000,19.000000,4.000000,0.000000,-11.000000,23.000000,0.000000
1295045.672561,0.000000,-6.000000,-1.000000,-10.000000,-22.000000,-10.000000,-20.000000,-7.000000
1295045.672579,0.000000,0.000000,-11.000000,21.000000,38.000000,12.000000,-1.000000,-1.000000
1295045.700556,-6.000000,-14.000000,-17.000000,12.000000,24.000000,-1.000000,-2.000000,-13.000000
1295045.700573,3.000000,-5.000000,-7.000000,-21.000000,-33.000000,-5.000000,19.000000,6.000000
1295045.715571,-1.000000,-5.000000,-5.000000,3.000000,3.000000,-12.000000,-3.000000,1.000000
1295045.715581,-3.000000,-1.000000,8.000000,-9.000000,14.000000,7.000000,17.000000,-3.000000
1295045.746162,7.000000,2.000000,3.000000,-3.000000,-14.000000,9.000000,12.000000,2.000000
1295045.746173,-1.000000,-20.000000,-9.000000,-5.000000,-8.000000,-6.000000,6.000000,2.000000
1295045.783602,-7.000000,11.000000,-9.000000,-6.000000,-6.000000,-15.000000,-23.000000,-8.000000
1295045.783619,-7.000000,2.000000,7.000000,17.000000,8.000000,3.000000,-8.000000,2.000000
1295045.784147,-12.000000,-12.000000,-4.000000,-12.000000,-8.000000,-8.000000,-3.000000,-4.000000
1295045.784157,-3.000000,-5.000000,-10.000000,3.000000,6.000000,-1.000000,1.000000,-3.000000
1295045.785529,15.000000,19.000000,21.000000,11.000000,47.000000,19.000000,30.000000,13.000000
1295045.785539,-12.000000,-15.000000,-14.000000,7.000000,11.000000,-6.000000,-27.000000,-11.000000
1295045.786186,5.000000,6.000000,3.000000,-22.000000,-25.000000,2.000000,16.000000,6.000000
1295045.786197,3.000000,1.000000,-8.000000,7.000000,18.000000,-7.000000,-9.000000,-6.000000
1295045.791317,0.000000,12.000000,15.000000,-4.000000,-14.000000,-4.000000,8.000000,-6.000000
1295045.791328,-8.000000,-16.000000,-14.000000,8.000000,1.000000,-3.000000,-48.000000,-10.000000
1295045.805387,4.000000,21.000000,12.000000,9.000000,12.000000,4.000000,11.000000,6.000000
1295045.805396,4.000000,22.000000,13.000000,-25.000000,-34.000000,-23.000000,-11.000000,-2.000000
1295045.813070,-3.000000,5.000000,2.000000,-8.000000,-5.000000,0.000000,6.000000,-2.000000
1295045.813098,-13.000000,-19.000000,-15.000000,16.000000,43.000000,-1.000000,-20.000000,-16.000000
1295045.828484,16.000000,14.000000,29.000000,4.000000,-39.000000,15.000000,84.000000,32.000000
1295045.828512,-11.000000,-12.000000,-14.000000,8.000000,24.000000,-5.000000,-18.000000,-12.000000
1295045.843297,1.000000,0.000000,0.000000,-30.000000,-39.000000,-11.000000,-26.000000,-9.000000
1295045.843307,-5.000000,-16.000000,-21.000000,-5.000000,13.000000,7.000000,2.000000,-1.000000
1295045.858097,0.000000,28.000000,32.000000,1.000000,-11.000000,-6.000000,-15.000000,-7.000000
1295045.858121,11.000000,21.000000,3.000000,7.000000,9.000000,12.000000,25.000000,12.000000
1295045.866286,8.000000,-4.000000,-6.000000,7.000000,5.000000,7.000000,9.000000,5.000000
1295045.866301,-13.000000,-10.000000,-14.000000,-11.000000,-13.000000,-22.000000,-11.000000,-10.000000
1295045.866795,-7.000000,-4.000000,2.000000,-28.000000,-66.000000,6.000000,-30.000000,-14.000000
1295045.866805,6.000000,8.000000,-5.000000,27.000000,29.000000,21.000000,29.000000,25.000000
1295045.888228,-12.000000,-24.000000,-17.000000,10.000000,21.000000,-13.000000,-7.000000,-29.000000
1295045.888238,2.000000,-7.000000,9.000000,-66.000000,-112.000000,-4.000000,-4.000000,38.000000
1295045.903302,1.000000,14.000000,-2.000000,-11.000000,-11.000000,-3.000000,7.000000,-12.000000
1295045.903316,-11.000000,-22.000000,-13.000000,2.000000,21.000000,7.000000,-9.000000,-3.000000
1295045.948229,10.000000,41.000000,35.000000,22.000000,8.000000,-1.000000,6.000000,2.000000
1295045.948243,2.000000,11.000000,9.000000,5.000000,-9.000000,3.000000,-40.000000,-7.000000
1295045.955643,-4.000000,-13.000000,-20.000000,-15.000000,-8.000000,0.000000,58.000000,2.000000
1295045.955739,-1.000000,-11.000000,-10.000000,15.000000,18.000000,-1.000000,-10.000000,5.000000
1295045.956924,-18.000000,-6.000000,-12.000000,-58.000000,-35.000000,-16.000000,10.000000,-8.000000
1295045.956935,-8.000000,-1.000000,-5.000000,28.000000,52.000000,-15.000000,-42.000000,-23.000000
1295045.957403,4.000000,4.000000,7.000000,-30.000000,-32.000000,18.000000,22.000000,0.000000
1295045.957415,2.000000,2.000000,3.000000,-2.000000,-8.000000,0.000000,12.000000,4.000000
1295045.958879,1.000000,1.000000,10.000000,18.000000,9.000000,-3.000000,-21.000000,-9.000000
1295045.958888,-7.000000,15.000000,0.000000,9.000000,15.000000,-13.000000,-14.000000,-9.000000
1295045.978270,-3.000000,2.000000,3.000000,-1.000000,-34.000000,10.000000,61.000000,13.000000
1295045.978282,0.000000,-12.000000,1.000000,7.000000,26.000000,11.000000,-23.000000,-5.000000
1295045.985960,11.000000,37.000000,14.000000,7.000000,5.000000,7.000000,13.000000,3.000000
1295045.985969,-3.000000,0.000000,-5.000000,-7.000000,-10.000000,-12.000000,8.000000,1.000000
1295045.986527,-10.000000,-27.000000,-13.000000,17.000000,20.000000,-2.000000,-44.000000,-8.000000
1295045.986536,9.000000,15.000000,3.000000,-6.000000,-38.000000,13.000000,39.000000,10.000000
1295045.993117,-5.000000,-4.000000,5.000000,2.000000,3.000000,-12.000000,10.000000,-8.000000
1295045.993126,-6.000000,-8.000000,-12.000000,-17.000000,-2.000000,-12.000000,-14.000000,-6.000000
1295046.008233,-1.000000,-9.000000,12.000000,5.000000,-28.000000,-3.000000,-4.000000,2.000000
1295046.008244,3.000000,5.000000,-2.000000,6.000000,2.000000,-7.000000,-11.000000,-6.000000
1295046.024119,-9.000000,-6.000000,-5.000000,-10.000000,-4.000000,-4.000000,-5.000000,-29.000000
1295046.024129,-2.000000,2.000000,18.000000,3.000000,1.000000,-3.000000,-14.000000,15.000000
1295046.024630,6.000000,31.000000,-1.000000,0.000000,-10.000000,-8.000000,18.000000,-16.000000
1295046.024667,1.000000,-3.000000,-5.000000,9.000000,-4.000000,4.000000,11.000000,18.000000
1295046.045947,-1.000000,-8.000000,-21.000000,-17.000000,-4.000000,0.000000,3.000000,5.000000
1295046.045975,4.000000,0.000000,20.000000,30.000000,34.000000,1.000000,-2.000000,-2.000000
1295046.060857,1.000000,9.000000,16.000000,11.000000,-9.000000,8.000000,16.000000,6.000000
1295046.060868,17.000000,6.000000,9.000000,-9.000000,25.000000,3.000000,-8.000000,5.000000
1295046.083389,12.000000,34.000000,35.000000,31.000000,13.000000,25.000000,44.000000,18.000000
1295046.083400,-10.000000,-14.000000,-13.000000,-1.000000,-3.000000,-7.000000,-9.000000,-9.000000
1295046.105991,-11.000000,-27.000000,-21.000000,-27.000000,-34.000000,-12.000000,-8.000000,-10.000000
1295046.106022,13.000000,39.000000,8.000000,-4.000000,-20.000000,3.000000,-6.000000,-10.000000
1295046.113684,0.000000,-7.000000,-8.000000,14.000000,16.000000,2.000000,10.000000,22.000000
1295046.113712,4.000000,4.000000,14.000000,2.000000,4.000000,2.000000,28.000000,6.000000
1295046.114271,-10.000000,-14.000000,-17.000000,-12.000000,-5.000000,-16.000000,-15.000000,-13.000000
1295046.114301,-9.000000,-17.000000,-12.000000,9.000000,22.000000,-6.000000,-21.000000,-11.000000
1295046.115507,2.000000,0.000000,12.000000,32.000000,39.000000,21.000000,-25.000000,1.000000
1295046.115515,-5.000000,-9.000000,-19.000000,-6.000000,10.000000,-3.000000,23.000000,-4.000000
1295046.116727,10.000000,5.000000,10.000000,29.000000,42.000000,9.000000,18.000000,18.000000
1295046.116734,3.000000,2.000000,-2.000000,3.000000,13.000000,-3.000000,-17.000000,-3.000000
1295046.135594,14.000000,23.000000,15.000000,-5.000000,8.000000,-5.000000,44.000000,20.000000
1295046.135606,-6.000000,-9.000000,-12.000000,20.000000,11.000000,-11.000000,-14.000000,-4.000000
1295046.136827,1.000000,6.000000,-2.000000,-8.000000,-19.000000,-2.000000,-16.000000,-12.000000
1295046.136854,-2.000000,-5.000000,-6.000000,15.000000,-4.000000,-2.000000,0.000000,3.000000
1295046.143155,-7.000000,-7.000000,-17.000000,-1.000000,20.000000,-11.000000,15.000000,1.000000
1295046.143164,-11.000000,0.000000,3.000000,-25.000000,-46.000000,-11.000000,-11.000000,-14.000000
1295046.180649,17.000000,23.000000,16.000000,10.000000,-1.000000,23.000000,54.000000,20.000000
1295046.180668,5.000000,3.000000,7.000000,-5.000000,-16.000000,1.000000,-9.000000,15.000000
1295046.195880,-9.000000,-9.000000,-15.000000,6.000000,12.000000,-13.000000,-24.000000,-29.000000
1295046.195890,-5.000000,-8.000000,-1.000000,-5.000000,3.000000,-16.000000,-7.000000,33.000000
1295046.225613,4.000000,7.000000,-3.000000,1.000000,-7.000000,6.000000,21.000000,3.000000
1295046.225632,-1.000000,10.000000,13.000000,3.000000,8.000000,-1.000000,10.000000,-3.000000
1295046.226109,-9.000000,-15.000000,-18.000000,-8.000000,-8.000000,-27.000000,-29.000000,-16.000000
1295046.226131,8.000000,-7.000000,5.000000,-18.000000,-41.000000,9.000000,9.000000,-1.000000
1295046.227325,18.000000,53.000000,18.000000,-6.000000,-29.000000,0.000000,-5.000000,5.000000
1295046.227342,-7.000000,-6.000000,-3.000000,6.000000,11.000000,-6.000000,4.000000,-5.000000
1295046.227884,-7.000000,-18.000000,-14.000000,-19.000000,-7.000000,-12.000000,-3.000000,0.000000
1295046.227892,-15.000000,-7.000000,-5.000000,-9.000000,41.000000,16.000000,-17.000000,-9.000000
1295046.232944,-3.000000,-7.000000,-7.000000,-5.000000,-15.000000,-1.000000,28.000000,2.000000
1295046.232967,4.000000,4.000000,11.000000,-18.000000,27.000000,6.000000,-16.000000,7.000000
1295046.255851,3.000000,9.000000,3.000000,-6.000000,-8.000000,1.000000,15.000000,-11.000000
1295046.255888,-5.000000,-10.000000,-1.000000,8.000000,9.000000,4.000000,-6.000000,20.000000
1295046.257397,3.000000,11.000000,3.000000,-6.000000,-12.000000,4.000000,9.000000,3.000000
1295046.257420,-1.000000,-8.000000,7.000000,11.000000,3.000000,3.000000,5.000000,0.000000
1295046.262959,5.000000,-4.000000,2.000000,41.000000,81.000000,11.000000,-21.000000,4.000000
1295046.262968,3.000000,-8.000000,-11.000000,5.000000,-5.000000,-3.000000,36.000000,-5.000000
1295046.285844,-6.000000,-3.000000,10.000000,-27.000000,-29.000000,-2.000000,-24.000000,-5.000000
1295046.285857,-5.000000,-2.000000,-7.000000,-5.000000,-1.000000,-8.000000,-5.000000,-4.000000
1295046.300712,2.000000,-7.000000,-1.000000,-15.000000,-35.000000,-7.000000,29.000000,2.000000
1295046.300726,-1.000000,-7.000000,-10.000000,-23.000000,-24.000000,-18.000000,-30.000000,-3.000000
1295046.338405,-6.000000,-3.000000,-6.000000,7.000000,2.000000,-5.000000,5.000000,-3.000000
1295046.338423,-9.000000,-10.000000,-3.000000,-19.000000,-10.000000,-5.000000,16.000000,-2.000000
1295046.345715,1.000000,7.000000,3.000000,15.000000,9.000000,6.000000,3.000000,-3.000000
1295046.345727,-2.000000,-4.000000,3.000000,2.000000,0.000000,-5.000000,-13.000000,-10.000000
1295046.383964,-2.000000,-6.000000,-8.000000,-9.000000,-11.000000,-7.000000,9.000000,-10.000000
1295046.383973,-3.000000,2.000000,5.000000,-21.000000,-9.000000,1.000000,-16.000000,1.000000
1295046.384422,2.000000,-9.000000,-13.000000,15.000000,19.000000,3.000000,7.000000,1.000000
1295046.384448,4.000000,3.000000,-9.000000,11.000000,17.000000,4.000000,17.000000,-3.000000
1295046.385354,-5.000000,-7.000000,-7.000000,-10.000000,-2.000000,-11.000000,11.000000,22.000000
1295046.385362,-6.000000,-12.000000,-8.000000,-10.000000,-12.000000,-15.000000,-8.000000,-15.000000
1295046.386059,15.000000,19.000000,12.000000,3.000000,5.000000,19.000000,63.000000,10.000000
1295046.386067,4.000000,-5.000000,3.000000,-24.000000,-34.000000,-5.000000,13.000000,2.000000
1295046.386944,0.000000,2.000000,1.000000,18.000000,32.000000,12.000000,-10.000000,-3.000000
1295046.386952,-3.000000,3.000000,-3.000000,13.000000,31.000000,0.000000,-7.000000,-4.000000
1295046.398309,12.000000,4.000000,6.000000,-3.000000,-2.000000,-6.000000,0.000000,20.000000
1295046.398320,-9.000000,-4.000000,-8.000000,-11.000000,-43.000000,-12.000000,-24.000000,-8.000000
1295046.420642,1.000000,8.000000,19.000000,4.000000,28.000000,8.000000,11.000000,-1.000000
1295046.420652,-6.000000,-6.000000,0.000000,8.000000,7.000000,-6.000000,9.000000,-1.000000
1295046.495805,-15.000000,-9.000000,-9.000000,-3.000000,1.000000,-17.000000,-58.000000,-17.000000
1295046.495816,2.000000,41.000000,15.000000,-8.000000,-14.000000,0.000000,27.000000,-7.000000
1295046.496334,-3.000000,-1.000000,-1.000000,-1.000000,10.000000,-15.000000,-23.000000,-7.000000
