# participant_id: P4
# gesture: soft
# trial_number: 1
# stream_name: Myo_EMG
# stream_type: emg
# timestamp: 20260420_134731
# samples: 5652
# duration_sec: 30.547
# nominal_sample_rate: 200.0
# effective_sample_rate: 184.99
#
timestamp,emg_1,emg_2,emg_3,emg_4,emg_5,emg_6,emg_7,emg_8
1297543.197574,-8.000000,-32.000000,1.000000,6.000000,0.000000,-3.000000,-5.000000,-4.000000
1297543.197614,-30.000000,-33.000000,-13.000000,2.000000,0.000000,-3.000000,-1.000000,-6.000000
1297543.204894,7.000000,49.000000,4.000000,13.000000,3.000000,1.000000,4.000000,4.000000
1297543.204908,9.000000,-24.000000,-6.000000,-21.000000,-2.000000,3.000000,0.000000,0.000000
1297543.212139,1.000000,-27.000000,-7.000000,-2.000000,3.000000,1.000000,-1.000000,1.000000
1297543.212161,-1.000000,-7.000000,-5.000000,11.000000,-6.000000,0.000000,-1.000000,-4.000000
1297543.227082,0.000000,-11.000000,0.000000,17.000000,3.000000,3.000000,0.000000,0.000000
1297543.227129,-4.000000,-5.000000,6.000000,-4.000000,0.000000,-1.000000,-1.000000,-2.000000
1297543.249471,2.000000,5.000000,-14.000000,-10.000000,1.000000,-1.000000,-3.000000,0.000000
1297543.249488,-4.000000,-44.000000,-3.000000,22.000000,-5.000000,-3.000000,-4.000000,-4.000000
1297543.257357,-7.000000,127.000000,32.000000,18.000000,3.000000,6.000000,6.000000,6.000000
1297543.257377,-9.000000,82.000000,16.000000,-4.000000,-2.000000,-1.000000,1.000000,3.000000
1297543.257907,-24.000000,-30.000000,-6.000000,11.000000,4.000000,-2.000000,0.000000,1.000000
1297543.257927,-16.000000,-78.000000,-6.000000,-19.000000,1.000000,-6.000000,-5.000000,-5.000000
1297543.259519,15.000000,18.000000,-6.000000,53.000000,2.000000,3.000000,-2.000000,-2.000000
1297543.259540,-7.000000,-40.000000,-4.000000,5.000000,4.000000,3.000000,0.000000,-4.000000
1297543.264838,28.000000,22.000000,-6.000000,-28.000000,-2.000000,-1.000000,1.000000,-1.000000
1297543.264876,-35.000000,-30.000000,0.000000,4.000000,-2.000000,0.000000,2.000000,-6.000000
1297543.287523,19.000000,61.000000,-1.000000,22.000000,7.000000,1.000000,-1.000000,3.000000
1297543.287551,6.000000,-9.000000,4.000000,15.000000,2.000000,2.000000,4.000000,1.000000
1297543.288142,8.000000,63.000000,-3.000000,5.000000,1.000000,1.000000,-1.000000,0.000000
1297543.288162,0.000000,-39.000000,-8.000000,-13.000000,-3.000000,1.000000,0.000000,3.000000
1297543.302347,-83.000000,27.000000,15.000000,17.000000,10.000000,4.000000,2.000000,-4.000000
1297543.302368,25.000000,73.000000,18.000000,24.000000,-1.000000,2.000000,1.000000,-1.000000
1297543.309530,9.000000,13.000000,-3.000000,-16.000000,5.000000,0.000000,-2.000000,1.000000
1297543.309552,-5.000000,-24.000000,-7.000000,14.000000,7.000000,0.000000,-1.000000,-4.000000
1297543.324690,13.000000,9.000000,0.000000,-5.000000,0.000000,4.000000,5.000000,6.000000
1297543.324717,-2.000000,99.000000,17.000000,41.000000,-6.000000,-1.000000,-3.000000,-1.000000
1297543.325700,-70.000000,-10.000000,-14.000000,-38.000000,0.000000,0.000000,-3.000000,-16.000000
1297543.325728,13.000000,-34.000000,-13.000000,-57.000000,5.000000,-2.000000,0.000000,2.000000
1297543.369312,-8.000000,-49.000000,5.000000,9.000000,10.000000,-1.000000,1.000000,-1.000000
1297543.369323,-49.000000,16.000000,20.000000,48.000000,-7.000000,0.000000,1.000000,-3.000000
1297543.376754,-15.000000,-128.000000,-24.000000,-12.000000,-8.000000,-3.000000,-6.000000,-8.000000
1297543.376771,1.000000,90.000000,8.000000,29.000000,0.000000,1.000000,3.000000,1.000000
1297543.414675,22.000000,43.000000,-6.000000,-12.000000,-5.000000,0.000000,-3.000000,5.000000
1297543.414710,31.000000,51.000000,0.000000,5.000000,-3.000000,4.000000,-1.000000,2.000000
1297543.415031,-16.000000,-54.000000,-12.000000,-26.000000,3.000000,-3.000000,-2.000000,-3.000000
1297543.415051,-2.000000,6.000000,4.000000,11.000000,-11.000000,-3.000000,-6.000000,-4.000000
1297543.416396,26.000000,3.000000,-3.000000,9.000000,5.000000,6.000000,1.000000,2.000000
1297543.416410,-58.000000,-47.000000,3.000000,-4.000000,-10.000000,-1.000000,-3.000000,-10.000000
1297543.416714,-3.000000,75.000000,8.000000,-10.000000,-10.000000,-2.000000,0.000000,1.000000
1297543.416732,20.000000,65.000000,1.000000,13.000000,2.000000,2.000000,5.000000,4.000000
1297543.417342,-24.000000,47.000000,21.000000,49.000000,4.000000,8.000000,10.000000,1.000000
1297543.417360,1.000000,-29.000000,-5.000000,-16.000000,-6.000000,2.000000,-16.000000,-11.000000
1297543.422193,11.000000,72.000000,31.000000,16.000000,5.000000,-5.000000,-2.000000,4.000000
1297543.422226,-9.000000,-73.000000,-8.000000,23.000000,10.000000,1.000000,-4.000000,-3.000000
1297543.429761,-4.000000,-57.000000,11.000000,9.000000,1.000000,4.000000,6.000000,4.000000
1297543.429797,-51.000000,18.000000,13.000000,42.000000,-5.000000,1.000000,-1.000000,-2.000000
1297543.445367,-39.000000,-128.000000,-42.000000,-73.000000,-17.000000,-8.000000,-15.000000,-17.000000
1297543.445386,10.000000,-21.000000,20.000000,22.000000,-5.000000,-6.000000,0.000000,-1.000000
1297543.452040,9.000000,-9.000000,5.000000,-1.000000,-4.000000,-1.000000,0.000000,1.000000
1297543.452063,-6.000000,18.000000,-1.000000,-20.000000,-2.000000,-1.000000,1.000000,-1.000000
1297543.482205,-30.000000,-7.000000,-1.000000,-10.000000,-7.000000,-3.000000,-5.000000,-4.000000
1297543.482227,10.000000,-61.000000,-7.000000,12.000000,-2.000000,-3.000000,-7.000000,-6.000000
1297543.489902,33.000000,15.000000,-13.000000,3.000000,-12.000000,-6.000000,-4.000000,-2.000000
1297543.490106,11.000000,2.000000,-5.000000,21.000000,1.000000,-4.000000,-1.000000,4.000000
1297543.490591,-40.000000,-80.000000,0.000000,-17.000000,1.000000,-4.000000,-3.000000,-4.000000
1297543.490610,13.000000,-128.000000,-5.000000,17.000000,-3.000000,-2.000000,-6.000000,-3.000000
1297543.491211,-48.000000,-70.000000,-3.000000,16.000000,-5.000000,2.000000,1.000000,-1.000000
1297543.491232,-14.000000,7.000000,19.000000,69.000000,-2.000000,0.000000,2.000000,3.000000
1297543.504322,11.000000,60.000000,-22.000000,-110.000000,-5.000000,-8.000000,-4.000000,-1.000000
1297543.504343,-3.000000,-20.000000,3.000000,7.000000,4.000000,-5.000000,-4.000000,-3.000000
1297543.511831,-13.000000,-80.000000,-11.000000,13.000000,-2.000000,3.000000,2.000000,1.000000
1297543.511845,15.000000,-31.000000,-8.000000,-13.000000,-5.000000,3.000000,6.000000,2.000000
1297543.534989,22.000000,-1.000000,-8.000000,4.000000,3.000000,-7.000000,-3.000000,-1.000000
1297543.535009,6.000000,-53.000000,-14.000000,15.000000,-4.000000,-1.000000,-2.000000,2.000000
1297543.535085,-24.000000,-27.000000,2.000000,56.000000,-11.000000,-3.000000,-3.000000,-7.000000
1297543.535092,-1.000000,23.000000,3.000000,13.000000,-3.000000,4.000000,6.000000,3.000000
1297543.542185,11.000000,54.000000,-10.000000,-28.000000,23.000000,-1.000000,-5.000000,-3.000000
1297543.542206,-18.000000,-48.000000,1.000000,8.000000,3.000000,-1.000000,-7.000000,-4.000000
1297543.564432,13.000000,8.000000,9.000000,49.000000,-7.000000,2.000000,0.000000,4.000000
1297543.564455,-5.000000,-68.000000,-3.000000,6.000000,-6.000000,2.000000,7.000000,7.000000
1297543.602637,-31.000000,-17.000000,-19.000000,-49.000000,3.000000,-4.000000,-3.000000,-9.000000
1297543.602683,-5.000000,31.000000,12.000000,18.000000,9.000000,-1.000000,3.000000,5.000000
1297543.609964,30.000000,-20.000000,-4.000000,17.000000,-3.000000,0.000000,-1.000000,-1.000000
1297543.609984,15.000000,24.000000,2.000000,17.000000,-5.000000,1.000000,3.000000,4.000000
1297543.639893,7.000000,41.000000,10.000000,16.000000,4.000000,4.000000,3.000000,9.000000
1297543.639916,-58.000000,-15.000000,-12.000000,-22.000000,-11.000000,-7.000000,-4.000000,-11.000000
1297543.647558,6.000000,9.000000,-20.000000,-73.000000,-12.000000,-11.000000,-7.000000,-5.000000
1297543.647797,-17.000000,30.000000,10.000000,5.000000,2.000000,-1.000000,0.000000,3.000000
1297543.648940,-26.000000,17.000000,-13.000000,-38.000000,-7.000000,-1.000000,4.000000,1.000000
1297543.648990,15.000000,2.000000,2.000000,-3.000000,3.000000,-3.000000,-3.000000,-3.000000
1297543.650324,29.000000,127.000000,20.000000,48.000000,0.000000,4.000000,2.000000,8.000000
1297543.650490,6.000000,-15.000000,-21.000000,-88.000000,0.000000,2.000000,4.000000,5.000000
1297543.651852,-7.000000,-9.000000,2.000000,5.000000,-6.000000,-4.000000,-4.000000,-6.000000
1297543.651893,12.000000,83.000000,22.000000,32.000000,9.000000,3.000000,5.000000,5.000000
1297543.677736,-11.000000,-12.000000,-5.000000,-17.000000,-11.000000,-1.000000,-1.000000,-3.000000
1297543.677769,12.000000,-13.000000,-17.000000,1.000000,1.000000,2.000000,1.000000,-4.000000
1297543.700100,7.000000,-13.000000,-6.000000,-25.000000,-10.000000,-7.000000,-5.000000,1.000000
1297543.700122,10.000000,-90.000000,-4.000000,22.000000,-5.000000,-2.000000,-1.000000,0.000000
1297543.722571,1.000000,44.000000,-20.000000,-64.000000,-4.000000,-4.000000,0.000000,0.000000
1297543.722596,0.000000,-22.000000,0.000000,45.000000,1.000000,-1.000000,-3.000000,1.000000
1297543.730343,5.000000,-24.000000,-9.000000,-67.000000,-16.000000,-3.000000,-4.000000,-3.000000
1297543.730395,-8.000000,-18.000000,-5.000000,1.000000,4.000000,0.000000,0.000000,0.000000
1297543.738407,5.000000,-12.000000,-8.000000,10.000000,-1.000000,-4.000000,0.000000,0.000000
1297543.738452,-5.000000,5.000000,6.000000,44.000000,-2.000000,0.000000,-4.000000,-3.000000
1297543.739943,-6.000000,8.000000,-6.000000,-7.000000,-5.000000,0.000000,2.000000,3.000000
1297543.739986,-48.000000,13.000000,7.000000,-22.000000,3.000000,-8.000000,-3.000000,-8.000000
1297543.740994,-7.000000,-109.000000,-8.000000,5.000000,1.000000,2.000000,1.000000,0.000000
1297543.741018,52.000000,-21.000000,8.000000,50.000000,-5.000000,4.000000,5.000000,9.000000
1297543.760734,-26.000000,-109.000000,0.000000,13.000000,0.000000,-2.000000,-4.000000,-4.000000
1297543.760761,8.000000,79.000000,18.000000,34.000000,0.000000,3.000000,2.000000,4.000000
1297543.761722,36.000000,-18.000000,-13.000000,-41.000000,-9.000000,-2.000000,-1.000000,6.000000
1297543.761768,15.000000,8.000000,4.000000,-10.000000,18.000000,4.000000,4.000000,4.000000
1297543.775116,-37.000000,14.000000,3.000000,18.000000,-9.000000,-3.000000,4.000000,-3.000000
1297543.775146,-11.000000,-66.000000,-20.000000,20.000000,-2.000000,0.000000,-3.000000,-7.000000
1297543.790382,9.000000,-21.000000,-20.000000,-1.000000,-8.000000,-5.000000,-3.000000,3.000000
1297543.790587,31.000000,-44.000000,3.000000,-3.000000,6.000000,1.000000,0.000000,-2.000000
1297543.791109,9.000000,-78.000000,-9.000000,11.000000,-9.000000,-7.000000,-4.000000,-3.000000
1297543.791187,11.000000,15.000000,2.000000,-10.000000,-4.000000,2.000000,5.000000,1.000000
1297543.813195,-48.000000,-108.000000,-5.000000,31.000000,0.000000,-2.000000,-1.000000,-4.000000
1297543.813224,15.000000,-10.000000,-9.000000,-62.000000,-10.000000,-5.000000,-4.000000,-1.000000
1297543.820295,-11.000000,-127.000000,-20.000000,-6.000000,1.000000,-1.000000,-7.000000,-7.000000
1297543.820320,42.000000,-1.000000,0.000000,14.000000,2.000000,-1.000000,-4.000000,4.000000
1297543.850253,21.000000,24.000000,13.000000,39.000000,-8.000000,-1.000000,0.000000,8.000000
1297543.850300,-61.000000,16.000000,4.000000,-35.000000,1.000000,-3.000000,-4.000000,-16.000000
1297543.857563,21.000000,16.000000,-14.000000,-32.000000,13.000000,-4.000000,1.000000,6.000000
1297543.857711,17.000000,13.000000,6.000000,21.000000,-1.000000,-4.000000,1.000000,3.000000
1297543.881072,-15.000000,57.000000,14.000000,20.000000,1.000000,2.000000,6.000000,5.000000
1297543.881125,34.000000,127.000000,12.000000,14.000000,2.000000,5.000000,-4.000000,-1.000000
1297543.881334,6.000000,-8.000000,-11.000000,-28.000000,-2.000000,-3.000000,-1.000000,-8.000000
1297543.881364,-25.000000,-5.000000,-1.000000,-11.000000,0.000000,-3.000000,-6.000000,-2.000000
1297543.883065,2.000000,-12.000000,1.000000,4.000000,2.000000,0.000000,4.000000,4.000000
1297543.883108,-9.000000,-3.000000,1.000000,3.000000,-5.000000,-3.000000,-5.000000,1.000000
1297543.883640,2.000000,8.000000,-16.000000,23.000000,1.000000,-1.000000,0.000000,-5.000000
1297543.884065,-4.000000,33.000000,5.000000,7.000000,-9.000000,-4.000000,-5.000000,-4.000000
1297543.885159,22.000000,2.000000,-8.000000,-82.000000,-3.000000,-3.000000,0.000000,7.000000
1297543.885182,-13.000000,-29.000000,5.000000,-13.000000,0.000000,4.000000,3.000000,-3.000000
1297543.887664,20.000000,-11.000000,9.000000,33.000000,3.000000,-1.000000,-7.000000,-4.000000
1297543.887694,-10.000000,-37.000000,-3.000000,-39.000000,1.000000,2.000000,2.000000,6.000000
1297543.925290,-6.000000,5.000000,-6.000000,-1.000000,-3.000000,-1.000000,-4.000000,-3.000000
1297543.925339,-33.000000,-128.000000,-20.000000,36.000000,4.000000,-3.000000,-3.000000,-10.000000
1297543.932651,0.000000,-9.000000,-13.000000,-20.000000,-4.000000,1.000000,3.000000,4.000000
1297543.932675,15.000000,37.000000,3.000000,-6.000000,3.000000,-1.000000,2.000000,6.000000
1297543.970559,17.000000,-62.000000,-3.000000,15.000000,-8.000000,-5.000000,-5.000000,-4.000000
1297543.970590,-7.000000,-8.000000,2.000000,39.000000,4.000000,1.000000,-3.000000,-1.000000
1297543.977766,9.000000,22.000000,1.000000,-3.000000,-7.000000,0.000000,-2.000000,3.000000
1297543.977820,-10.000000,-98.000000,-26.000000,-6.000000,3.000000,2.000000,0.000000,-4.000000
1297544.007780,-4.000000,-10.000000,6.000000,33.000000,-6.000000,1.000000,0.000000,-6.000000
1297544.007812,-3.000000,3.000000,-8.000000,-52.000000,1.000000,-2.000000,0.000000,-1.000000
1297544.009002,-7.000000,-128.000000,-3.000000,9.000000,-4.000000,-3.000000,0.000000,4.000000
1297544.009636,-3.000000,6.000000,-7.000000,18.000000,-2.000000,2.000000,-8.000000,-10.000000
1297544.011204,6.000000,17.000000,6.000000,11.000000,-2.000000,0.000000,3.000000,6.000000
1297544.011230,4.000000,-58.000000,-1.000000,23.000000,-2.000000,1.000000,-4.000000,-6.000000
1297544.011469,-21.000000,-5.000000,-11.000000,-19.000000,-2.000000,-5.000000,-6.000000,-3.000000
1297544.011495,3.000000,-14.000000,2.000000,-14.000000,5.000000,0.000000,1.000000,-1.000000
1297544.037974,-23.000000,-8.000000,-3.000000,-56.000000,-6.000000,-1.000000,-6.000000,-13.000000
1297544.038001,27.000000,-62.000000,-2.000000,23.000000,-2.000000,1.000000,2.000000,1.000000
1297544.045979,0.000000,14.000000,-11.000000,-35.000000,-2.000000,-3.000000,3.000000,4.000000
1297544.046010,0.000000,39.000000,5.000000,12.000000,4.000000,-2.000000,1.000000,1.000000
1297544.067880,21.000000,8.000000,9.000000,0.000000,3.000000,2.000000,-1.000000,0.000000
1297544.067911,3.000000,0.000000,-3.000000,-5.000000,6.000000,1.000000,2.000000,0.000000
1297544.090593,28.000000,6.000000,-3.000000,-22.000000,-7.000000,-2.000000,-5.000000,-3.000000
1297544.090650,5.000000,10.000000,6.000000,1.000000,-3.000000,-4.000000,-3.000000,-2.000000
1297544.099617,-54.000000,-1.000000,-3.000000,24.000000,7.000000,2.000000,4.000000,5.000000
1297544.100058,-9.000000,-16.000000,6.000000,0.000000,-1.000000,-4.000000,0.000000,1.000000
1297544.100641,20.000000,122.000000,14.000000,3.000000,4.000000,-1.000000,-6.000000,-3.000000
1297544.100694,19.000000,-8.000000,5.000000,-6.000000,5.000000,-3.000000,-5.000000,-1.000000
1297544.101812,5.000000,-14.000000,0.000000,19.000000,3.000000,-1.000000,3.000000,5.000000
1297544.101867,-24.000000,4.000000,-5.000000,-45.000000,-4.000000,3.000000,1.000000,-4.000000
1297544.102324,-26.000000,-14.000000,1.000000,7.000000,-4.000000,-2.000000,-7.000000,-5.000000
1297544.102375,32.000000,31.000000,1.000000,9.000000,1.000000,-1.000000,0.000000,4.000000
1297544.120929,18.000000,-15.000000,-5.000000,36.000000,0.000000,0.000000,0.000000,2.000000
1297544.121637,-26.000000,-5.000000,-7.000000,-68.000000,-12.000000,-1.000000,-6.000000,-5.000000
1297544.122145,18.000000,-11.000000,2.000000,41.000000,-4.000000,-2.000000,-3.000000,1.000000
1297544.122190,4.000000,5.000000,2.000000,-25.000000,0.000000,-3.000000,-3.000000,3.000000
1297544.128144,-14.000000,15.000000,1.000000,32.000000,2.000000,-5.000000,0.000000,3.000000
1297544.128174,-13.000000,127.000000,27.000000,16.000000,17.000000,6.000000,5.000000,3.000000
1297544.143011,-25.000000,-32.000000,-25.000000,-17.000000,-7.000000,-3.000000,-7.000000,-9.000000
1297544.143067,10.000000,4.000000,21.000000,6.000000,-2.000000,-1.000000,-2.000000,-5.000000
1297544.158130,0.000000,-114.000000,-10.000000,18.000000,3.000000,-4.000000,-1.000000,-2.000000
1297544.158183,-5.000000,-1.000000,-4.000000,7.000000,-6.000000,1.000000,2.000000,4.000000
1297544.173288,-23.000000,-29.000000,9.000000,6.000000,-3.000000,-3.000000,-2.000000,-3.000000
1297544.173340,26.000000,90.000000,-8.000000,-23.000000,2.000000,4.000000,8.000000,7.000000
1297544.203168,27.000000,15.000000,17.000000,34.000000,2.000000,3.000000,1.000000,7.000000
1297544.203233,12.000000,9.000000,-5.000000,-52.000000,-7.000000,-1.000000,-3.000000,-1.000000
1297544.212020,6.000000,-1.000000,-2.000000,-11.000000,-3.000000,-4.000000,-8.000000,-8.000000
1297544.212333,-33.000000,-12.000000,26.000000,0.000000,-6.000000,-4.000000,-5.000000,-4.000000
1297544.212755,7.000000,8.000000,0.000000,11.000000,2.000000,0.000000,1.000000,10.000000
1297544.212793,12.000000,116.000000,15.000000,13.000000,12.000000,4.000000,2.000000,8.000000
1297544.214277,13.000000,4.000000,7.000000,20.000000,-1.000000,0.000000,4.000000,7.000000
1297544.214329,-19.000000,126.000000,29.000000,30.000000,15.000000,7.000000,5.000000,0.000000
1297544.215532,22.000000,-73.000000,-27.000000,31.000000,-8.000000,-5.000000,-1.000000,-7.000000
1297544.215577,4.000000,7.000000,-20.000000,-86.000000,-12.000000,-1.000000,1.000000,-1.000000
1297544.240684,10.000000,1.000000,-4.000000,-32.000000,-6.000000,-5.000000,-6.000000,-3.000000
1297544.240741,-12.000000,-1.000000,2.000000,-21.000000,-4.000000,-6.000000,-3.000000,-3.000000
1297544.248754,11.000000,36.000000,-6.000000,-29.000000,-3.000000,1.000000,2.000000,2.000000
1297544.249022,19.000000,25.000000,14.000000,20.000000,-5.000000,0.000000,3.000000,3.000000
1297544.250353,12.000000,-7.000000,-8.000000,34.000000,3.000000,-2.000000,-1.000000,3.000000
1297544.250414,17.000000,51.000000,0.000000,-14.000000,1.000000,0.000000,-4.000000,-2.000000
1297544.251651,-6.000000,-9.000000,-10.000000,-15.000000,0.000000,-7.000000,-8.000000,-10.000000
1297544.251708,8.000000,-19.000000,10.000000,48.000000,1.000000,0.000000,1.000000,6.000000
1297544.270841,-10.000000,15.000000,9.000000,-20.000000,-2.000000,5.000000,4.000000,-1.000000
1297544.270894,-29.000000,-36.000000,-7.000000,-29.000000,0.000000,4.000000,4.000000,-3.000000
1297544.278508,19.000000,-14.000000,5.000000,1.000000,0.000000,1.000000,2.000000,2.000000
1297544.278692,-41.000000,21.000000,2.000000,39.000000,-5.000000,2.000000,-4.000000,-3.000000
1297544.293724,5.000000,29.000000,-6.000000,-33.000000,-9.000000,-4.000000,-9.000000,-10.000000
1297544.293861,20.000000,-4.000000,-3.000000,-41.000000,-3.000000,1.000000,2.000000,6.000000
1297544.315394,-55.000000,42.000000,1.000000,23.000000,3.000000,2.000000,4.000000,-5.000000
1297544.315455,6.000000,9.000000,11.000000,-3.000000,-8.000000,-3.000000,-6.000000,3.000000
1297544.330612,4.000000,-5.000000,-9.000000,41.000000,5.000000,-5.000000,1.000000,-3.000000
1297544.330670,-11.000000,-11.000000,6.000000,15.000000,-11.000000,0.000000,3.000000,1.000000
1297544.353264,-11.000000,9.000000,3.000000,-37.000000,2.000000,-1.000000,2.000000,-1.000000
1297544.353312,17.000000,11.000000,-5.000000,18.000000,-4.000000,-5.000000,-10.000000,-5.000000
1297544.362301,7.000000,5.000000,5.000000,10.000000,5.000000,4.000000,4.000000,6.000000
1297544.362673,-7.000000,-12.000000,-1.000000,17.000000,-7.000000,-1.000000,2.000000,-6.000000
1297544.363344,-16.000000,104.000000,7.000000,25.000000,11.000000,2.000000,2.000000,3.000000
1297544.364023,-10.000000,-15.000000,-16.000000,-62.000000,-1.000000,0.000000,2.000000,0.000000
1297544.365105,4.000000,-44.000000,-1.000000,3.000000,1.000000,2.000000,1.000000,-4.000000
1297544.365149,-13.000000,79.000000,18.000000,7.000000,-8.000000,-8.000000,-9.000000,-9.000000
1297544.365394,-14.000000,-123.000000,-14.000000,-5.000000,-1.000000,-1.000000,-4.000000,-3.000000
1297544.365419,16.000000,-78.000000,-23.000000,10.000000,-6.000000,-7.000000,-2.000000,1.000000
1297544.365744,-37.000000,-18.000000,-9.000000,1.000000,0.000000,2.000000,1.000000,2.000000
1297544.365799,9.000000,-59.000000,-5.000000,7.000000,-7.000000,0.000000,1.000000,0.000000
1297544.399043,9.000000,2.000000,1.000000,-26.000000,-7.000000,2.000000,3.000000,-1.000000
1297544.399107,3.000000,41.000000,9.000000,-19.000000,1.000000,0.000000,0.000000,-3.000000
1297544.413629,15.000000,-81.000000,-1.000000,4.000000,-1.000000,2.000000,4.000000,4.000000
1297544.413671,-18.000000,60.000000,25.000000,8.000000,-7.000000,-3.000000,-3.000000,-7.000000
1297544.420776,-39.000000,-21.000000,-8.000000,-23.000000,-9.000000,-4.000000,-6.000000,-8.000000
1297544.420826,13.000000,-8.000000,-10.000000,-20.000000,2.000000,2.000000,1.000000,2.000000
1297544.443740,14.000000,-10.000000,5.000000,-10.000000,-3.000000,-1.000000,3.000000,5.000000
1297544.443788,-41.000000,-37.000000,-16.000000,-17.000000,1.000000,2.000000,-1.000000,-3.000000
1297544.451161,9.000000,115.000000,15.000000,-5.000000,9.000000,-1.000000,4.000000,-1.000000
1297544.451208,-1.000000,14.000000,1.000000,22.000000,1.000000,-2.000000,-14.000000,-9.000000
1297544.481274,-13.000000,-8.000000,1.000000,17.000000,5.000000,1.000000,1.000000,3.000000
1297544.481321,-23.000000,14.000000,6.000000,23.000000,0.000000,2.000000,4.000000,-1.000000
1297544.482594,7.000000,-22.000000,-13.000000,4.000000,2.000000,-3.000000,-5.000000,1.000000
1297544.482636,3.000000,-106.000000,-14.000000,-16.000000,2.000000,-3.000000,-1.000000,0.000000
1297544.490477,8.000000,0.000000,4.000000,35.000000,-4.000000,-2.000000,2.000000,3.000000
1297544.491010,15.000000,89.000000,15.000000,9.000000,9.000000,-3.000000,-5.000000,-1.000000
1297544.491913,11.000000,7.000000,0.000000,17.000000,-2.000000,3.000000,3.000000,3.000000
1297544.491960,2.000000,-10.000000,-3.000000,-19.000000,6.000000,5.000000,-2.000000,-6.000000
1297544.492260,10.000000,15.000000,-7.000000,-37.000000,8.000000,3.000000,-2.000000,2.000000
1297544.492309,-31.000000,-3.000000,15.000000,19.000000,4.000000,4.000000,4.000000,4.000000
1297544.518565,28.000000,127.000000,8.000000,-44.000000,3.000000,3.000000,4.000000,3.000000
1297544.518610,2.000000,-43.000000,-4.000000,27.000000,2.000000,-4.000000,-3.000000,-2.000000
1297544.533076,-25.000000,-1.000000,5.000000,20.000000,-2.000000,-1.000000,-1.000000,-6.000000
1297544.533276,-31.000000,11.000000,-23.000000,-41.000000,6.000000,-2.000000,-3.000000,-5.000000
1297544.555786,14.000000,-10.000000,0.000000,9.000000,6.000000,3.000000,2.000000,8.000000
1297544.555890,33.000000,110.000000,35.000000,42.000000,6.000000,2.000000,17.000000,11.000000
1297544.570758,-21.000000,35.000000,2.000000,-27.000000,-6.000000,0.000000,-16.000000,-10.000000
1297544.570832,5.000000,-11.000000,4.000000,19.000000,1.000000,-3.000000,-4.000000,-1.000000
1297544.572932,6.000000,-78.000000,-17.000000,-20.000000,-5.000000,-7.000000,-4.000000,-8.000000
1297544.573309,25.000000,40.000000,2.000000,-3.000000,-5.000000,-1.000000,5.000000,7.000000
1297544.574064,21.000000,14.000000,8.000000,38.000000,-2.000000,1.000000,-5.000000,-2.000000
1297544.574111,-4.000000,-110.000000,-16.000000,-27.000000,-2.000000,-6.000000,0.000000,3.000000
1297544.574999,25.000000,104.000000,-6.000000,-21.000000,5.000000,-1.000000,-3.000000,-3.000000
1297544.575122,-15.000000,-113.000000,-7.000000,-16.000000,-5.000000,-6.000000,-3.000000,-5.000000
1297544.575481,21.000000,117.000000,19.000000,-94.000000,-6.000000,-5.000000,-1.000000,-3.000000
1297544.575535,31.000000,1.000000,-24.000000,14.000000,2.000000,-5.000000,-6.000000,-2.000000
1297544.593153,18.000000,9.000000,15.000000,55.000000,7.000000,-2.000000,0.000000,2.000000
1297544.593211,-38.000000,1.000000,-13.000000,-52.000000,0.000000,0.000000,1.000000,-8.000000
1297544.600522,4.000000,-1.000000,7.000000,23.000000,0.000000,1.000000,-1.000000,1.000000
1297544.600897,9.000000,-9.000000,-4.000000,-47.000000,-7.000000,-2.000000,-6.000000,-8.000000
1297544.602221,-24.000000,-2.000000,-1.000000,28.000000,6.000000,1.000000,4.000000,6.000000
1297544.602245,-9.000000,10.000000,0.000000,-21.000000,-3.000000,-2.000000,-4.000000,-7.000000
1297544.623212,-19.000000,-12.000000,9.000000,33.000000,-3.000000,0.000000,-5.000000,-7.000000
1297544.623270,-3.000000,-18.000000,-11.000000,-44.000000,-1.000000,-3.000000,-3.000000,1.000000
1297544.645805,6.000000,-101.000000,7.000000,27.000000,-2.000000,-6.000000,-2.000000,-2.000000
1297544.645860,1.000000,17.000000,11.000000,12.000000,-8.000000,-2.000000,2.000000,2.000000
1297544.653197,-9.000000,-17.000000,-13.000000,-53.000000,-1.000000,3.000000,-1.000000,-4.000000
1297544.653340,3.000000,13.000000,11.000000,-7.000000,-1.000000,-3.000000,-3.000000,-2.000000
1297544.690272,11.000000,-11.000000,-13.000000,25.000000,-2.000000,3.000000,1.000000,2.000000
1297544.690328,24.000000,59.000000,10.000000,36.000000,18.000000,8.000000,4.000000,5.000000
1297544.713249,-10.000000,-26.000000,8.000000,-15.000000,-2.000000,1.000000,-2.000000,-7.000000
1297544.713808,11.000000,112.000000,20.000000,-1.000000,2.000000,-4.000000,-1.000000,1.000000
1297544.715472,33.000000,-1.000000,-11.000000,6.000000,-4.000000,-6.000000,-4.000000,2.000000
1297544.715499,-17.000000,-95.000000,-2.000000,35.000000,5.000000,3.000000,-1.000000,-3.000000
1297544.715845,4.000000,-17.000000,9.000000,-19.000000,-12.000000,-1.000000,0.000000,0.000000
1297544.716175,8.000000,38.000000,-4.000000,-12.000000,13.000000,1.000000,-1.000000,1.000000
1297544.717350,9.000000,8.000000,7.000000,41.000000,-2.000000,1.000000,4.000000,4.000000
1297544.717402,-14.000000,88.000000,16.000000,37.000000,10.000000,3.000000,5.000000,5.000000
1297544.720215,-25.000000,-56.000000,-12.000000,6.000000,-1.000000,-3.000000,-4.000000,-8.000000
1297544.720270,2.000000,70.000000,5.000000,-3.000000,7.000000,-1.000000,0.000000,1.000000
1297544.757950,53.000000,115.000000,1.000000,7.000000,5.000000,-2.000000,-2.000000,4.000000
1297544.758012,-1.000000,-16.000000,-7.000000,3.000000,5.000000,-2.000000,-7.000000,0.000000
1297544.765349,-10.000000,11.000000,12.000000,34.000000,-6.000000,-2.000000,3.000000,9.000000
1297544.765402,10.000000,75.000000,-25.000000,-78.000000,4.000000,2.000000,2.000000,-3.000000
1297544.788069,14.000000,23.000000,2.000000,36.000000,3.000000,-4.000000,-10.000000,-6.000000
1297544.788112,-29.000000,30.000000,14.000000,1.000000,8.000000,0.000000,-1.000000,-2.000000
1297544.803203,-44.000000,45.000000,13.000000,11.000000,6.000000,4.000000,3.000000,3.000000
1297544.803256,4.000000,-10.000000,-3.000000,-2.000000,3.000000,-4.000000,0.000000,-5.000000
1297544.818064,23.000000,106.000000,6.000000,-12.000000,-3.000000,-1.000000,1.000000,1.000000
1297544.818091,-20.000000,-6.000000,-1.000000,43.000000,-1.000000,2.000000,1.000000,-4.000000
1297544.825247,1.000000,-38.000000,-7.000000,-2.000000,7.000000,-2.000000,-3.000000,-3.000000
1297544.825274,10.000000,17.000000,18.000000,11.000000,-5.000000,-2.000000,-1.000000,2.000000
1297544.840508,15.000000,8.000000,-17.000000,-3.000000,-3.000000,-5.000000,-16.000000,-10.000000
1297544.840565,8.000000,127.000000,9.000000,4.000000,14.000000,8.000000,5.000000,9.000000
1297544.842929,-11.000000,9.000000,0.000000,11.000000,-10.000000,-3.000000,-6.000000,-4.000000
1297544.843709,13.000000,3.000000,4.000000,19.000000,-1.000000,-4.000000,-3.000000,0.000000
1297544.844715,0.000000,127.000000,2.000000,8.000000,10.000000,0.000000,-9.000000,-3.000000
1297544.844740,-13.000000,-9.000000,3.000000,-7.000000,2.000000,-2.000000,4.000000,4.000000
1297544.845180,3.000000,-3.000000,2.000000,8.000000,-2.000000,-2.000000,2.000000,0.000000
1297544.845204,9.000000,-4.000000,-14.000000,23.000000,-6.000000,-4.000000,0.000000,0.000000
1297544.870504,5.000000,-5.000000,-9.000000,-55.000000,-1.000000,-2.000000,-7.000000,2.000000
1297544.870550,20.000000,127.000000,18.000000,25.000000,11.000000,8.000000,7.000000,11.000000
1297544.877808,-4.000000,13.000000,-8.000000,16.000000,-6.000000,-3.000000,1.000000,4.000000
1297544.877864,-1.000000,-12.000000,5.000000,-42.000000,1.000000,-1.000000,0.000000,-3.000000
1297544.892990,4.000000,81.000000,17.000000,-11.000000,-1.000000,0.000000,2.000000,2.000000
1297544.893042,-1.000000,7.000000,-8.000000,23.000000,-1.000000,2.000000,1.000000,2.000000
1297544.900505,-18.000000,6.000000,2.000000,1.000000,-1.000000,-2.000000,-5.000000,-8.000000
1297544.900558,11.000000,-40.000000,-15.000000,-28.000000,-4.000000,-3.000000,0.000000,-1.000000
1297544.915472,-33.000000,-11.000000,4.000000,7.000000,-2.000000,4.000000,2.000000,2.000000
1297544.915526,-5.000000,-14.000000,-14.000000,-58.000000,-5.000000,-6.000000,-12.000000,-12.000000
1297544.917184,22.000000,23.000000,12.000000,13.000000,1.000000,1.000000,5.000000,8.000000
1297544.917238,27.000000,-14.000000,10.000000,18.000000,-2.000000,-1.000000,1.000000,4.000000
1297544.918336,28.000000,-38.000000,-27.000000,-7.000000,-5.000000,-2.000000,-1.000000,0.000000
1297544.918391,16.000000,70.000000,-5.000000,9.000000,5.000000,-4.000000,-6.000000,1.000000
1297544.922825,-3.000000,55.000000,18.000000,6.000000,-4.000000,-3.000000,-5.000000,0.000000
1297544.922879,20.000000,60.000000,-10.000000,-11.000000,-5.000000,1.000000,2.000000,7.000000
1297544.953614,8.000000,-8.000000,0.000000,-20.000000,-3.000000,-3.000000,2.000000,1.000000
1297544.953666,-9.000000,19.000000,14.000000,30.000000,3.000000,0.000000,2.000000,-1.000000
1297544.953908,4.000000,-7.000000,-6.000000,-40.000000,-1.000000,0.000000,4.000000,-5.000000
1297544.953942,-44.000000,-23.000000,-7.000000,5.000000,-4.000000,-4.000000,-12.000000,-14.000000
1297544.955428,-4.000000,8.000000,8.000000,27.000000,8.000000,0.000000,0.000000,6.000000
1297544.955475,9.000000,3.000000,6.000000,7.000000,-10.000000,-6.000000,-12.000000,-12.000000
1297544.960348,18.000000,-6.000000,-19.000000,-62.000000,2.000000,-3.000000,1.000000,1.000000
1297544.960375,-11.000000,23.000000,6.000000,6.000000,2.000000,1.000000,6.000000,5.000000
1297544.998202,23.000000,29.000000,13.000000,42.000000,2.000000,4.000000,2.000000,-2.000000
1297544.998268,-5.000000,14.000000,9.000000,-13.000000,-10.000000,-8.000000,-5.000000,1.000000
1297545.005477,-14.000000,-1.000000,-12.000000,0.000000,8.000000,4.000000,4.000000,-2.000000
1297545.005525,7.000000,28.000000,20.000000,49.000000,-4.000000,4.000000,2.000000,2.000000
1297545.036724,-16.000000,3.000000,0.000000,-52.000000,1.000000,0.000000,-2.000000,1.000000
1297545.036759,16.000000,-67.000000,-19.000000,6.000000,-3.000000,-1.000000,-2.000000,-8.000000
1297545.036991,-32.000000,17.000000,0.000000,-40.000000,6.000000,-1.000000,1.000000,1.000000
1297545.037026,-5.000000,2.000000,6.000000,13.000000,-3.000000,-3.000000,-1.000000,-1.000000
1297545.038885,-6.000000,4.000000,-6.000000,9.000000,4.000000,5.000000,2.000000,-1.000000
1297545.038923,21.000000,20.000000,30.000000,-15.000000,-13.000000,-7.000000,-1.000000,5.000000
1297545.039520,27.000000,-24.000000,-10.000000,-30.000000,-5.000000,-1.000000,2.000000,5.000000
1297545.039641,-16.000000,38.000000,10.000000,39.000000,0.000000,-1.000000,-1.000000,-4.000000
1297545.043124,8.000000,-20.000000,-1.000000,-2.000000,1.000000,3.000000,4.000000,-1.000000
1297545.043187,12.000000,106.000000,8.000000,16.000000,8.000000,4.000000,7.000000,10.000000
1297545.074302,-7.000000,9.000000,8.000000,11.000000,-7.000000,-4.000000,-1.000000,-1.000000
1297545.074326,8.000000,11.000000,-8.000000,-4.000000,-9.000000,-6.000000,-11.000000,-4.000000
1297545.074923,-3.000000,17.000000,2.000000,8.000000,-1.000000,0.000000,0.000000,1.000000
1297545.074948,15.000000,1.000000,6.000000,58.000000,-1.000000,3.000000,6.000000,2.000000
1297545.076096,14.000000,27.000000,-9.000000,-77.000000,-1.000000,4.000000,-1.000000,-1.000000
1297545.076146,15.000000,46.000000,4.000000,32.000000,7.000000,-1.000000,-2.000000,-3.000000
1297545.080625,12.000000,-3.000000,2.000000,-7.000000,-1.000000,0.000000,1.000000,4.000000
1297545.080679,-6.000000,10.000000,6.000000,-39.000000,8.000000,5.000000,0.000000,-1.000000
1297545.117944,-32.000000,-24.000000,-6.000000,-22.000000,-5.000000,-4.000000,-2.000000,-9.000000
1297545.118000,-58.000000,43.000000,28.000000,33.000000,9.000000,1.000000,6.000000,2.000000
1297545.125207,23.000000,40.000000,1.000000,23.000000,12.000000,3.000000,2.000000,3.000000
1297545.125258,17.000000,-4.000000,-12.000000,0.000000,-4.000000,-3.000000,3.000000,6.000000
1297545.155094,-35.000000,-83.000000,8.000000,3.000000,-8.000000,-1.000000,1.000000,-8.000000
1297545.155141,-21.000000,41.000000,-3.000000,-16.000000,6.000000,0.000000,-4.000000,0.000000
1297545.162963,12.000000,1.000000,11.000000,38.000000,1.000000,-4.000000,-8.000000,-2.000000
1297545.163012,45.000000,77.000000,5.000000,-1.000000,3.000000,3.000000,7.000000,11.000000
1297545.177796,0.000000,-38.000000,-3.000000,4.000000,-11.000000,-2.000000,0.000000,-3.000000
1297545.177826,7.000000,-5.000000,-4.000000,11.000000,0.000000,-4.000000,3.000000,6.000000
1297545.192848,25.000000,46.000000,3.000000,2.000000,2.000000,0.000000,0.000000,7.000000
1297545.192905,-3.000000,35.000000,7.000000,-31.000000,2.000000,5.000000,3.000000,-2.000000
1297545.194465,31.000000,12.000000,6.000000,-18.000000,-7.000000,-3.000000,-3.000000,6.000000
1297545.194523,-20.000000,113.000000,26.000000,-1.000000,3.000000,3.000000,6.000000,-1.000000
1297545.196174,4.000000,-2.000000,15.000000,14.000000,1.000000,0.000000,1.000000,3.000000
1297545.196223,1.000000,-40.000000,-17.000000,-11.000000,1.000000,2.000000,6.000000,8.000000
1297545.197360,5.000000,-3.000000,2.000000,-4.000000,-2.000000,0.000000,-3.000000,-6.000000
1297545.197410,-4.000000,21.000000,12.000000,63.000000,1.000000,1.000000,-4.000000,-1.000000
1297545.200295,-23.000000,-62.000000,-40.000000,-67.000000,-1.000000,-2.000000,-6.000000,-2.000000
1297545.200320,-26.000000,-11.000000,14.000000,16.000000,-9.000000,-6.000000,-1.000000,-7.000000
1297545.238062,3.000000,-13.000000,-9.000000,6.000000,0.000000,-1.000000,0.000000,-2.000000
1297545.238124,12.000000,-5.000000,3.000000,12.000000,2.000000,-3.000000,0.000000,1.000000
1297545.245560,-37.000000,-41.000000,-11.000000,31.000000,-6.000000,-2.000000,0.000000,-3.000000
1297545.245607,2.000000,-39.000000,-5.000000,-43.000000,-10.000000,2.000000,-3.000000,-2.000000
1297545.267746,27.000000,-15.000000,2.000000,-1.000000,-3.000000,0.000000,0.000000,3.000000
1297545.267771,-37.000000,-43.000000,2.000000,5.000000,-8.000000,-6.000000,-10.000000,-9.000000
1297545.283244,2.000000,-48.000000,-47.000000,-4.000000,1.000000,-4.000000,-3.000000,-5.000000
1297545.283361,12.000000,-2.000000,14.000000,17.000000,-1.000000,5.000000,1.000000,5.000000
1297545.297902,-1.000000,-3.000000,-15.000000,-67.000000,-10.000000,-5.000000,3.000000,2.000000
1297545.297959,2.000000,-4.000000,11.000000,31.000000,-1.000000,-1.000000,-9.000000,-8.000000
1297545.312943,3.000000,13.000000,13.000000,56.000000,6.000000,6.000000,2.000000,1.000000
1297545.312999,-1.000000,-5.000000,-11.000000,-31.000000,-1.000000,-2.000000,-3.000000,1.000000
1297545.321704,9.000000,-110.000000,-21.000000,-12.000000,-12.000000,-9.000000,-5.000000,-1.000000
1297545.322520,10.000000,28.000000,6.000000,17.000000,-6.000000,-2.000000,-2.000000,-2.000000
1297545.323507,-5.000000,-45.000000,-2.000000,-5.000000,-8.000000,-3.000000,1.000000,4.000000
1297545.323535,8.000000,9.000000,-10.000000,2.000000,-7.000000,-4.000000,3.000000,3.000000
1297545.324577,-3.000000,-10.000000,3.000000,4.000000,8.000000,1.000000,2.000000,0.000000
1297545.324627,-8.000000,-20.000000,0.000000,-8.000000,-1.000000,-2.000000,-2.000000,-1.000000
1297545.350444,4.000000,-1.000000,1.000000,-6.000000,-3.000000,-2.000000,1.000000,4.000000
1297545.350471,-7.000000,-87.000000,-7.000000,26.000000,-6.000000,-7.000000,-1.000000,1.000000
1297545.388376,12.000000,25.000000,4.000000,7.000000,-5.000000,-4.000000,-11.000000,-7.000000
1297545.388406,12.000000,29.000000,2.000000,8.000000,-4.000000,-1.000000,1.000000,3.000000
1297545.389787,7.000000,7.000000,7.000000,8.000000,-2.000000,1.000000,3.000000,4.000000
1297545.389816,-2.000000,-17.000000,5.000000,17.000000,3.000000,2.000000,4.000000,3.000000
1297545.391043,-4.000000,-5.000000,0.000000,-63.000000,-12.000000,-10.000000,-10.000000,-7.000000
1297545.391662,-17.000000,-9.000000,-6.000000,8.000000,1.000000,-3.000000,-1.000000,-2.000000
1297545.392086,-9.000000,-26.000000,-7.000000,25.000000,4.000000,-1.000000,2.000000,-4.000000
1297545.392117,5.000000,-18.000000,-14.000000,-34.000000,1.000000,-4.000000,1.000000,7.000000
1297545.392762,-27.000000,-109.000000,9.000000,-23.000000,-8.000000,-5.000000,-4.000000,-10.000000
1297545.392783,16.000000,6.000000,-18.000000,17.000000,-2.000000,1.000000,-2.000000,3.000000
1297545.403006,-32.000000,-8.000000,-11.000000,-6.000000,-8.000000,1.000000,5.000000,0.000000
1297545.403079,15.000000,6.000000,7.000000,5.000000,-2.000000,-2.000000,-2.000000,-1.000000
1297545.404148,21.000000,75.000000,-1.000000,-14.000000,8.000000,3.000000,-6.000000,3.000000
1297545.404194,-9.000000,-34.000000,-20.000000,-46.000000,4.000000,-1.000000,2.000000,2.000000
1297545.432891,2.000000,-5.000000,3.000000,41.000000,1.000000,3.000000,1.000000,4.000000
1297545.432934,-6.000000,9.000000,-20.000000,-12.000000,-11.000000,0.000000,1.000000,3.000000
1297545.440634,-37.000000,29.000000,2.000000,0.000000,5.000000,0.000000,-9.000000,-13.000000
1297545.440690,40.000000,127.000000,16.000000,28.000000,2.000000,-5.000000,2.000000,8.000000
1297545.455677,22.000000,-39.000000,-8.000000,-56.000000,9.000000,5.000000,7.000000,7.000000
1297545.455733,-13.000000,-28.000000,-4.000000,0.000000,1.000000,-3.000000,-3.000000,-6.000000
1297545.470522,-11.000000,-31.000000,5.000000,21.000000,0.000000,-4.000000,-5.000000,-5.000000
1297545.470578,13.000000,7.000000,-1.000000,20.000000,-1.000000,-1.000000,-6.000000,2.000000
1297545.486278,-7.000000,-2.000000,-16.000000,1.000000,-7.000000,-5.000000,-1.000000,0.000000
1297545.486347,15.000000,8.000000,-8.000000,-18.000000,-1.000000,-1.000000,1.000000,1.000000
1297545.508543,-23.000000,69.000000,34.000000,-18.000000,-10.000000,-2.000000,2.000000,1.000000
1297545.508577,12.000000,37.000000,3.000000,8.000000,-1.000000,1.000000,-1.000000,-1.000000
1297545.511770,29.000000,88.000000,10.000000,24.000000,3.000000,2.000000,-1.000000,0.000000
1297545.511828,-9.000000,0.000000,-4.000000,-31.000000,-5.000000,-1.000000,-4.000000,-2.000000
1297545.512608,13.000000,-8.000000,-3.000000,-10.000000,1.000000,-1.000000,2.000000,5.000000
1297545.512749,-13.000000,-13.000000,-8.000000,-20.000000,1.000000,-5.000000,-1.000000,1.000000
1297545.513181,56.000000,127.000000,38.000000,27.000000,-1.000000,-1.000000,2.000000,13.000000
1297545.513222,26.000000,121.000000,-10.000000,-30.000000,3.000000,2.000000,8.000000,5.000000
1297545.513475,-34.000000,-11.000000,-17.000000,60.000000,-9.000000,-7.000000,-10.000000,-15.000000
1297545.513716,-30.000000,8.000000,-6.000000,-98.000000,3.000000,0.000000,-1.000000,2.000000
1297545.515944,24.000000,2.000000,16.000000,14.000000,5.000000,3.000000,5.000000,6.000000
1297545.515997,-21.000000,5.000000,-6.000000,28.000000,-3.000000,2.000000,-5.000000,-8.000000
1297545.522788,-12.000000,-4.000000,-9.000000,14.000000,3.000000,-2.000000,-3.000000,-2.000000
1297545.522841,-37.000000,-76.000000,-3.000000,-39.000000,4.000000,-2.000000,3.000000,-3.000000
1297545.546620,10.000000,69.000000,5.000000,41.000000,4.000000,-1.000000,3.000000,2.000000
1297545.546669,32.000000,-39.000000,-17.000000,-49.000000,-2.000000,-2.000000,-7.000000,-3.000000
1297545.547076,-23.000000,-13.000000,0.000000,46.000000,4.000000,-2.000000,1.000000,0.000000
1297545.547129,10.000000,-7.000000,-12.000000,-52.000000,-3.000000,0.000000,-1.000000,2.000000
1297545.553737,-6.000000,-1.000000,7.000000,19.000000,7.000000,1.000000,2.000000,1.000000
1297545.553860,-27.000000,-21.000000,0.000000,-18.000000,-1.000000,-4.000000,-8.000000,-4.000000
1297545.590139,7.000000,59.000000,16.000000,9.000000,-3.000000,-2.000000,1.000000,4.000000
1297545.590188,13.000000,-34.000000,-7.000000,-12.000000,-2.000000,-1.000000,-1.000000,2.000000
1297545.605363,1.000000,72.000000,5.000000,14.000000,3.000000,6.000000,2.000000,2.000000
1297545.605417,-13.000000,-18.000000,-6.000000,-13.000000,-1.000000,0.000000,-3.000000,-3.000000
1297545.612829,15.000000,9.000000,2.000000,-3.000000,0.000000,-4.000000,-10.000000,-7.000000
1297545.612855,29.000000,49.000000,10.000000,42.000000,4.000000,2.000000,3.000000,7.000000
1297545.629111,-15.000000,3.000000,-4.000000,-42.000000,-4.000000,1.000000,-1.000000,-6.000000
1297545.629162,8.000000,72.000000,9.000000,0.000000,5.000000,1.000000,1.000000,-1.000000
1297545.630388,22.000000,4.000000,-14.000000,-17.000000,2.000000,-2.000000,-2.000000,0.000000
1297545.630813,-3.000000,1.000000,5.000000,27.000000,5.000000,-3.000000,0.000000,5.000000
1297545.631514,24.000000,104.000000,9.000000,7.000000,-3.000000,1.000000,2.000000,1.000000
1297545.631559,-8.000000,19.000000,-15.000000,-29.000000,-8.000000,-5.000000,-2.000000,-6.000000
1297545.631920,20.000000,-24.000000,5.000000,-6.000000,1.000000,-4.000000,-5.000000,2.000000
1297545.631973,10.000000,-12.000000,14.000000,17.000000,-1.000000,-1.000000,2.000000,1.000000
1297545.636229,-5.000000,-14.000000,-45.000000,-5.000000,-3.000000,-3.000000,1.000000,0.000000
1297545.636282,9.000000,1.000000,12.000000,6.000000,-2.000000,-3.000000,-5.000000,-9.000000
1297545.642986,7.000000,11.000000,2.000000,-11.000000,1.000000,4.000000,3.000000,3.000000
1297545.643177,-2.000000,-7.000000,1.000000,24.000000,-1.000000,-1.000000,-3.000000,0.000000
1297545.666335,15.000000,-28.000000,-18.000000,-53.000000,-6.000000,-5.000000,-3.000000,2.000000
1297545.666620,42.000000,105.000000,26.000000,53.000000,2.000000,2.000000,3.000000,10.000000
1297545.667223,-23.000000,-31.000000,9.000000,-23.000000,-10.000000,-3.000000,-3.000000,-8.000000
1297545.667246,-14.000000,-29.000000,-3.000000,-6.000000,7.000000,4.000000,2.000000,-7.000000
1297545.674208,11.000000,4.000000,-20.000000,30.000000,12.000000,0.000000,-3.000000,-3.000000
1297545.674235,-3.000000,-56.000000,-7.000000,-5.000000,-9.000000,2.000000,2.000000,4.000000
1297545.695378,7.000000,26.000000,4.000000,-27.000000,1.000000,-7.000000,-6.000000,-11.000000
1297545.695431,-1.000000,-52.000000,-21.000000,-4.000000,9.000000,1.000000,1.000000,1.000000
1297545.725701,27.000000,13.000000,19.000000,10.000000,-2.000000,-3.000000,3.000000,11.000000
1297545.725737,-50.000000,-19.000000,3.000000,26.000000,-9.000000,0.000000,0.000000,-7.000000
1297545.733368,10.000000,7.000000,6.000000,-6.000000,6.000000,0.000000,-21.000000,-19.000000
1297545.733425,-26.000000,-105.000000,-21.000000,-36.000000,-6.000000,-9.000000,-4.000000,-5.000000
1297545.749736,2.000000,-10.000000,-3.000000,-43.000000,-5.000000,0.000000,1.000000,3.000000
1297545.749766,-4.000000,15.000000,12.000000,40.000000,2.000000,6.000000,8.000000,6.000000
1297545.749923,1.000000,-2.000000,-10.000000,-13.000000,-6.000000,-2.000000,-9.000000,-2.000000
1297545.749967,19.000000,16.000000,-10.000000,-24.000000,-2.000000,-5.000000,-6.000000,0.000000
1297545.751167,17.000000,4.000000,6.000000,14.000000,4.000000,-1.000000,2.000000,0.000000
1297545.751451,-59.000000,-128.000000,-30.000000,0.000000,-4.000000,-1.000000,-5.000000,-5.000000
1297545.752065,-2.000000,21.000000,3.000000,0.000000,-10.000000,-7.000000,-5.000000,-5.000000
1297545.752091,-5.000000,-40.000000,-17.000000,2.000000,0.000000,-6.000000,-8.000000,-3.000000
1297545.756527,9.000000,-6.000000,-1.000000,-12.000000,-1.000000,-2.000000,1.000000,3.000000
1297545.756567,-22.000000,-10.000000,1.000000,12.000000,2.000000,2.000000,5.000000,-3.000000
1297545.762927,-17.000000,11.000000,12.000000,5.000000,-2.000000,2.000000,2.000000,1.000000
1297545.762953,3.000000,10.000000,-22.000000,-82.000000,5.000000,2.000000,2.000000,3.000000
1297545.786079,-3.000000,-2.000000,-8.000000,32.000000,-1.000000,-4.000000,1.000000,0.000000
1297545.786309,-30.000000,15.000000,12.000000,11.000000,-2.000000,0.000000,-8.000000,-6.000000
1297545.786828,16.000000,-6.000000,2.000000,20.000000,-3.000000,-4.000000,0.000000,1.000000
1297545.786875,2.000000,-128.000000,-17.000000,-15.000000,-6.000000,-2.000000,-2.000000,2.000000
1297545.794294,-12.000000,14.000000,-1.000000,-1.000000,-9.000000,-1.000000,4.000000,2.000000
1297545.794354,8.000000,18.000000,8.000000,14.000000,8.000000,5.000000,8.000000,10.000000
1297545.809049,9.000000,-4.000000,-17.000000,-28.000000,-4.000000,-3.000000,-6.000000,-5.000000
1297545.809193,-15.000000,-8.000000,0.000000,-62.000000,-2.000000,-5.000000,-8.000000,-6.000000
1297545.830506,9.000000,-22.000000,-6.000000,-17.000000,4.000000,2.000000,5.000000,6.000000
1297545.830652,1.000000,52.000000,11.000000,-6.000000,10.000000,3.000000,-1.000000,-3.000000
1297545.838036,-16.000000,12.000000,0.000000,3.000000,-1.000000,-1.000000,-4.000000,-2.000000
1297545.838102,22.000000,7.000000,-8.000000,-19.000000,0.000000,-1.000000,2.000000,6.000000
1297545.869192,0.000000,-25.000000,8.000000,7.000000,0.000000,0.000000,1.000000,-2.000000
1297545.869221,18.000000,-20.000000,-8.000000,9.000000,1.000000,-4.000000,-3.000000,3.000000
1297545.870086,-19.000000,-111.000000,-17.000000,-28.000000,0.000000,-3.000000,-3.000000,-4.000000
1297545.870444,3.000000,-7.000000,-12.000000,0.000000,2.000000,0.000000,-8.000000,-6.000000
1297545.871509,-22.000000,121.000000,9.000000,3.000000,6.000000,2.000000,3.000000,5.000000
1297545.871534,36.000000,47.000000,-28.000000,21.000000,2.000000,0.000000,0.000000,1.000000
1297545.871698,-12.000000,-48.000000,-16.000000,21.000000,-7.000000,0.000000,-8.000000,-4.000000
1297545.871852,7.000000,-26.000000,-29.000000,-108.000000,-1.000000,-2.000000,-2.000000,-3.000000
1297545.876366,21.000000,51.000000,16.000000,40.000000,11.000000,-2.000000,-4.000000,3.000000
1297545.876414,-3.000000,28.000000,23.000000,-1.000000,-9.000000,-3.000000,1.000000,2.000000
1297545.883044,11.000000,17.000000,10.000000,2.000000,-6.000000,3.000000,3.000000,3.000000
1297545.883097,10.000000,-10.000000,10.000000,62.000000,1.000000,3.000000,1.000000,2.000000
1297545.905492,-31.000000,110.000000,7.000000,-59.000000,9.000000,4.000000,-1.000000,-5.000000
1297545.905537,5.000000,-29.000000,-14.000000,5.000000,4.000000,-3.000000,-8.000000,-6.000000
1297545.913397,31.000000,75.000000,18.000000,54.000000,6.000000,1.000000,1.000000,11.000000
1297545.913458,-17.000000,-128.000000,-26.000000,-52.000000,-6.000000,-5.000000,0.000000,-1.000000
1297545.914786,-12.000000,-1.000000,3.000000,-6.000000,-6.000000,-4.000000,-8.000000,-5.000000
1297545.914824,3.000000,95.000000,-14.000000,16.000000,13.000000,3.000000,0.000000,2.000000
1297545.942804,-14.000000,-13.000000,5.000000,18.000000,5.000000,3.000000,4.000000,3.000000
1297545.942856,8.000000,5.000000,10.000000,7.000000,1.000000,3.000000,7.000000,6.000000
1297545.957755,10.000000,37.000000,-7.000000,-8.000000,0.000000,-2.000000,-1.000000,2.000000
1297545.957806,0.000000,-7.000000,3.000000,6.000000,7.000000,-1.000000,-8.000000,-8.000000
1297545.980611,27.000000,1.000000,-7.000000,-2.000000,-7.000000,4.000000,3.000000,11.000000
1297545.980676,-38.000000,8.000000,15.000000,-6.000000,-4.000000,-1.000000,2.000000,-4.000000
1297545.982132,-22.000000,2.000000,-21.000000,-13.000000,-1.000000,-4.000000,-1.000000,-11.000000
1297545.982155,0.000000,-24.000000,3.000000,13.000000,1.000000,-1.000000,1.000000,0.000000
1297545.983559,-18.000000,-68.000000,-16.000000,0.000000,0.000000,4.000000,4.000000,5.000000
1297545.983585,7.000000,6.000000,-2.000000,-3.000000,0.000000,4.000000,7.000000,5.000000
1297545.984624,-10.000000,-3.000000,7.000000,3.000000,-2.000000,-11.000000,-18.000000,-15.000000
1297545.984649,20.000000,7.000000,-28.000000,17.000000,2.000000,-3.000000,-3.000000,0.000000
1297545.987626,4.000000,-30.000000,-3.000000,-14.000000,-5.000000,-1.000000,0.000000,0.000000
1297545.987652,-16.000000,25.000000,9.000000,-18.000000,4.000000,1.000000,9.000000,7.000000
1297545.996044,-21.000000,78.000000,30.000000,46.000000,7.000000,5.000000,13.000000,2.000000
1297545.996165,-38.000000,14.000000,5.000000,-17.000000,2.000000,3.000000,-12.000000,-21.000000
1297546.010083,-26.000000,-35.000000,-23.000000,-64.000000,2.000000,-6.000000,-4.000000,-4.000000
1297546.010131,11.000000,29.000000,11.000000,34.000000,6.000000,2.000000,7.000000,8.000000
1297546.026885,20.000000,-24.000000,2.000000,17.000000,1.000000,3.000000,3.000000,7.000000
1297546.026913,-25.000000,-18.000000,-16.000000,-6.000000,-5.000000,-5.000000,-7.000000,-9.000000
1297546.027342,-10.000000,13.000000,12.000000,5.000000,6.000000,3.000000,4.000000,0.000000
1297546.027422,27.000000,82.000000,8.000000,34.000000,0.000000,5.000000,1.000000,7.000000
1297546.033822,9.000000,59.000000,18.000000,-30.000000,0.000000,0.000000,0.000000,0.000000
1297546.033873,-2.000000,-10.000000,-17.000000,3.000000,2.000000,0.000000,-1.000000,2.000000
1297546.062993,-1.000000,-30.000000,-6.000000,5.000000,-2.000000,-3.000000,-1.000000,-2.000000
1297546.063021,0.000000,9.000000,12.000000,29.000000,-3.000000,-1.000000,-4.000000,-7.000000
1297546.077636,22.000000,-19.000000,-11.000000,-21.000000,-4.000000,-4.000000,-1.000000,-2.000000
1297546.077672,2.000000,-8.000000,-4.000000,-28.000000,3.000000,1.000000,2.000000,2.000000
1297546.085350,-17.000000,-29.000000,-8.000000,-24.000000,1.000000,2.000000,-7.000000,-11.000000
1297546.085378,-6.000000,-36.000000,-14.000000,3.000000,-9.000000,-5.000000,-1.000000,-4.000000
1297546.107799,-47.000000,8.000000,-13.000000,26.000000,7.000000,-3.000000,-10.000000,-10.000000
1297546.107824,10.000000,0.000000,13.000000,-1.000000,-1.000000,0.000000,5.000000,5.000000
1297546.115269,7.000000,-15.000000,8.000000,18.000000,3.000000,-1.000000,5.000000,3.000000
1297546.115321,-1.000000,-6.000000,-17.000000,-7.000000,0.000000,0.000000,-2.000000,0.000000
1297546.147682,5.000000,8.000000,9.000000,36.000000,-3.000000,0.000000,-5.000000,0.000000
1297546.148163,7.000000,-5.000000,5.000000,-6.000000,3.000000,0.000000,0.000000,3.000000
1297546.149132,0.000000,-63.000000,5.000000,6.000000,-5.000000,0.000000,4.000000,-1.000000
1297546.149188,3.000000,-34.000000,-4.000000,-22.000000,-10.000000,-4.000000,-5.000000,-3.000000
1297546.150168,0.000000,-20.000000,-9.000000,33.000000,8.000000,2.000000,-4.000000,-3.000000
1297546.150635,-16.000000,-22.000000,27.000000,-34.000000,-9.000000,-2.000000,-5.000000,1.000000
1297546.150988,23.000000,91.000000,4.000000,-35.000000,-8.000000,-2.000000,1.000000,0.000000
1297546.151020,7.000000,-2.000000,-8.000000,16.000000,-1.000000,3.000000,-3.000000,0.000000
1297546.153908,10.000000,-9.000000,-10.000000,-38.000000,-9.000000,-4.000000,-1.000000,6.000000
1297546.153955,-1.000000,9.000000,6.000000,-3.000000,-7.000000,-6.000000,0.000000,-4.000000
1297546.182763,11.000000,-12.000000,-6.000000,-4.000000,-2.000000,-3.000000,-11.000000,-7.000000
1297546.182814,-10.000000,-3.000000,5.000000,7.000000,0.000000,-2.000000,2.000000,4.000000
1297546.197839,10.000000,28.000000,8.000000,14.000000,-11.000000,2.000000,9.000000,9.000000
1297546.197867,4.000000,-19.000000,-8.000000,18.000000,-2.000000,-1.000000,-4.000000,-6.000000
1297546.212869,22.000000,55.000000,1.000000,-48.000000,-5.000000,-6.000000,-11.000000,-2.000000
1297546.212922,-16.000000,-10.000000,3.000000,5.000000,2.000000,3.000000,3.000000,5.000000
1297546.221142,9.000000,-40.000000,3.000000,53.000000,3.000000,2.000000,8.000000,4.000000
1297546.221181,19.000000,-32.000000,3.000000,-36.000000,-14.000000,-1.000000,4.000000,-1.000000
1297546.222308,-66.000000,-82.000000,-42.000000,-39.000000,-5.000000,-7.000000,-11.000000,-15.000000
1297546.222602,10.000000,27.000000,32.000000,45.000000,-2.000000,3.000000,-6.000000,-5.000000
1297546.223252,-10.000000,33.000000,-8.000000,-23.000000,-3.000000,-1.000000,3.000000,1.000000
1297546.223275,-7.000000,-12.000000,-17.000000,-47.000000,-9.000000,-1.000000,0.000000,0.000000
1297546.227600,8.000000,29.000000,-3.000000,-7.000000,0.000000,-4.000000,0.000000,0.000000
1297546.227633,-1.000000,2.000000,8.000000,21.000000,-3.000000,-6.000000,-3.000000,0.000000
1297546.236500,-12.000000,32.000000,6.000000,-25.000000,-3.000000,1.000000,3.000000,-2.000000
1297546.236551,3.000000,0.000000,-1.000000,-8.000000,4.000000,-3.000000,0.000000,-2.000000
1297546.258264,-7.000000,-98.000000,-10.000000,-4.000000,-8.000000,0.000000,-5.000000,1.000000
1297546.258504,-5.000000,3.000000,-21.000000,19.000000,-3.000000,2.000000,1.000000,3.000000
1297546.259175,-26.000000,-128.000000,-26.000000,-29.000000,-5.000000,-8.000000,-11.000000,-11.000000
1297546.259220,7.000000,-12.000000,-14.000000,16.000000,-4.000000,-3.000000,-4.000000,-4.000000
1297546.265103,18.000000,68.000000,-3.000000,-38.000000,-1.000000,-1.000000,-1.000000,3.000000
1297546.265160,-14.000000,-28.000000,-13.000000,-60.000000,2.000000,-3.000000,-2.000000,-4.000000
1297546.280972,6.000000,0.000000,7.000000,10.000000,-4.000000,-1.000000,1.000000,4.000000
1297546.281003,-1.000000,29.000000,-1.000000,23.000000,7.000000,10.000000,0.000000,-1.000000
1297546.287694,-8.000000,6.000000,9.000000,6.000000,1.000000,1.000000,0.000000,1.000000
1297546.287747,33.000000,-20.000000,-5.000000,24.000000,-1.000000,-3.000000,-7.000000,-6.000000
1297546.310330,-27.000000,2.000000,0.000000,-22.000000,-3.000000,-3.000000,0.000000,2.000000
1297546.310384,10.000000,25.000000,14.000000,5.000000,0.000000,0.000000,0.000000,-1.000000
1297546.317809,-5.000000,-8.000000,7.000000,7.000000,0.000000,0.000000,2.000000,-1.000000
1297546.317836,6.000000,5.000000,5.000000,30.000000,5.000000,5.000000,4.000000,4.000000
1297546.347934,10.000000,55.000000,13.000000,5.000000,-7.000000,-1.000000,1.000000,1.000000
1297546.347984,-8.000000,-128.000000,-2.000000,4.000000,3.000000,0.000000,-3.000000,-4.000000
1297546.349500,7.000000,8.000000,-18.000000,-35.000000,-10.000000,-4.000000,-5.000000,-1.000000
1297546.349683,-8.000000,73.000000,56.000000,-8.000000,15.000000,2.000000,5.000000,-1.000000
1297546.350062,-31.000000,33.000000,26.000000,34.000000,3.000000,3.000000,0.000000,-1.000000
1297546.350104,7.000000,-6.000000,-31.000000,-50.000000,-10.000000,-4.000000,-1.000000,-4.000000
1297546.350564,1.000000,-38.000000,-17.000000,22.000000,5.000000,0.000000,-1.000000,2.000000
1297546.350608,21.000000,19.000000,33.000000,13.000000,-4.000000,1.000000,0.000000,2.000000
1297546.356002,-42.000000,-35.000000,-9.000000,-11.000000,-9.000000,0.000000,2.000000,-6.000000
1297546.356048,7.000000,-6.000000,4.000000,2.000000,-3.000000,-5.000000,-7.000000,1.000000
1297546.378340,22.000000,24.000000,33.000000,31.000000,-4.000000,2.000000,4.000000,4.000000
1297546.378396,-3.000000,-80.000000,-44.000000,-87.000000,-8.000000,-2.000000,-9.000000,-14.000000
1297546.379334,2.000000,11.000000,8.000000,16.000000,-3.000000,-4.000000,-4.000000,-2.000000
1297546.379355,11.000000,-2.000000,-43.000000,-11.000000,-1.000000,0.000000,-6.000000,-2.000000
1297546.385441,19.000000,-128.000000,-8.000000,14.000000,-3.000000,-1.000000,-5.000000,4.000000
1297546.385487,-2.000000,34.000000,9.000000,0.000000,-10.000000,2.000000,4.000000,4.000000
1297546.422868,13.000000,-15.000000,-5.000000,9.000000,4.000000,2.000000,-2.000000,-4.000000
1297546.422917,16.000000,-29.000000,-11.000000,-32.000000,0.000000,-5.000000,-1.000000,-2.000000
1297546.430265,4.000000,100.000000,3.000000,16.000000,2.000000,2.000000,5.000000,8.000000
1297546.430316,2.000000,62.000000,-5.000000,13.000000,-3.000000,2.000000,4.000000,-1.000000
1297546.462387,18.000000,42.000000,22.000000,-10.000000,-3.000000,-3.000000,-3.000000,0.000000
1297546.463242,-52.000000,-27.000000,-16.000000,-10.000000,3.000000,1.000000,-3.000000,-8.000000
1297546.464056,-26.000000,-29.000000,-20.000000,6.000000,-1.000000,-5.000000,3.000000,-5.000000
1297546.464125,10.000000,8.000000,-2.000000,-23.000000,0.000000,1.000000,0.000000,0.000000
1297546.466204,-9.000000,66.000000,26.000000,-12.000000,-1.000000,3.000000,2.000000,6.000000
1297546.466226,29.000000,-11.000000,-19.000000,-11.000000,-8.000000,0.000000,3.000000,5.000000
1297546.466398,-10.000000,-22.000000,2.000000,0.000000,-7.000000,-8.000000,-22.000000,-22.000000
1297546.466421,30.000000,43.000000,16.000000,1.000000,-5.000000,-3.000000,2.000000,2.000000
1297546.466891,8.000000,1.000000,8.000000,-17.000000,-1.000000,3.000000,8.000000,8.000000
1297546.466915,2.000000,7.000000,0.000000,11.000000,-5.000000,-3.000000,-2.000000,-2.000000
1297546.467829,-29.000000,16.000000,-4.000000,-7.000000,-2.000000,-2.000000,2.000000,-5.000000
1297546.467881,1.000000,-21.000000,1.000000,17.000000,0.000000,-4.000000,-1.000000,-3.000000
1297546.476632,26.000000,53.000000,-11.000000,9.000000,-1.000000,-2.000000,1.000000,7.000000
1297546.476660,14.000000,43.000000,-4.000000,-47.000000,0.000000,-4.000000,-1.000000,3.000000
1297546.490667,-4.000000,-94.000000,-7.000000,9.000000,-12.000000,-6.000000,-6.000000,-5.000000
1297546.490734,3.000000,37.000000,7.000000,-12.000000,-1.000000,1.000000,4.000000,1.000000
1297546.499191,14.000000,4.000000,2.000000,-12.000000,-5.000000,-4.000000,0.000000,1.000000
1297546.499253,-4.000000,-16.000000,-2.000000,5.000000,6.000000,1.000000,-2.000000,-4.000000
1297546.505384,-7.000000,11.000000,-16.000000,16.000000,3.000000,4.000000,-1.000000,-3.000000
1297546.505440,7.000000,2.000000,16.000000,9.000000,1.000000,-2.000000,-6.000000,-3.000000
1297546.542966,4.000000,-4.000000,0.000000,-25.000000,-2.000000,-4.000000,0.000000,2.000000
1297546.542992,31.000000,127.000000,20.000000,22.000000,10.000000,5.000000,7.000000,12.000000
1297546.550611,-7.000000,49.000000,8.000000,27.000000,0.000000,3.000000,-7.000000,-13.000000
1297546.550667,-27.000000,-9.000000,-11.000000,-43.000000,-8.000000,-4.000000,-4.000000,-4.000000
1297546.587751,16.000000,-51.000000,-10.000000,-23.000000,4.000000,-6.000000,-2.000000,-1.000000
1297546.587800,17.000000,34.000000,5.000000,30.000000,-10.000000,-1.000000,-2.000000,1.000000
1297546.595319,13.000000,122.000000,40.000000,-17.000000,7.000000,7.000000,7.000000,10.000000
1297546.595371,9.000000,-37.000000,-9.000000,9.000000,-3.000000,-5.000000,-4.000000,0.000000
1297546.617855,-36.000000,5.000000,-5.000000,0.000000,-1.000000,2.000000,1.000000,-4.000000
1297546.617882,3.000000,-22.000000,-9.000000,-9.000000,-1.000000,2.000000,0.000000,-1.000000
1297546.618849,8.000000,16.000000,-8.000000,7.000000,7.000000,-1.000000,-2.000000,-1.000000
1297546.618888,7.000000,34.000000,10.000000,8.000000,4.000000,-1.000000,3.000000,0.000000
1297546.621674,5.000000,9.000000,2.000000,-45.000000,-5.000000,-3.000000,-9.000000,-8.000000
1297546.621702,27.000000,11.000000,9.000000,14.000000,16.000000,-2.000000,5.000000,7.000000
1297546.623180,-32.000000,-37.000000,6.000000,28.000000,2.000000,5.000000,6.000000,-3.000000
1297546.623234,1.000000,-59.000000,-3.000000,7.000000,-11.000000,-3.000000,-12.000000,-12.000000
1297546.625981,9.000000,-6.000000,3.000000,-5.000000,-2.000000,-3.000000,-3.000000,-4.000000
1297546.626177,19.000000,80.000000,25.000000,16.000000,7.000000,1.000000,12.000000,15.000000
1297546.640773,6.000000,-8.000000,-9.000000,1.000000,-1.000000,-3.000000,-7.000000,-4.000000
1297546.640803,-24.000000,37.000000,23.000000,-32.000000,8.000000,5.000000,-3.000000,-12.000000
1297546.655724,15.000000,-7.000000,-5.000000,28.000000,2.000000,-6.000000,0.000000,4.000000
1297546.655768,0.000000,8.000000,15.000000,20.000000,-3.000000,3.000000,1.000000,-2.000000
1297546.670415,-7.000000,4.000000,-21.000000,-9.000000,5.000000,2.000000,-1.000000,-2.000000
1297546.670465,3.000000,66.000000,6.000000,12.000000,5.000000,-1.000000,2.000000,4.000000
1297546.685919,-19.000000,29.000000,11.000000,3.000000,10.000000,-3.000000,-1.000000,0.000000
1297546.685993,6.000000,-2.000000,8.000000,7.000000,1.000000,-2.000000,-1.000000,1.000000
1297546.700638,-38.000000,23.000000,5.000000,17.000000,0.000000,-1.000000,3.000000,2.000000
1297546.700682,10.000000,-10.000000,-6.000000,2.000000,-1.000000,-3.000000,-1.000000,-5.000000
1297546.708397,-6.000000,3.000000,4.000000,16.000000,2.000000,-1.000000,-7.000000,-6.000000
1297546.708463,1.000000,-44.000000,-21.000000,-41.000000,0.000000,2.000000,-2.000000,-5.000000
1297546.746018,-5.000000,-14.000000,-23.000000,-7.000000,6.000000,3.000000,1.000000,-6.000000
1297546.746209,38.000000,75.000000,6.000000,46.000000,2.000000,1.000000,5.000000,6.000000
1297546.747527,-30.000000,-12.000000,5.000000,-8.000000,-9.000000,-4.000000,-12.000000,-6.000000
1297546.747578,-15.000000,-54.000000,-13.000000,20.000000,2.000000,-4.000000,-5.000000,-8.000000
1297546.748635,-9.000000,-5.000000,-15.000000,-19.000000,5.000000,1.000000,-1.000000,3.000000
1297546.748659,19.000000,-68.000000,-8.000000,10.000000,1.000000,-3.000000,5.000000,2.000000
1297546.749501,-33.000000,1.000000,-5.000000,-3.000000,-4.000000,-4.000000,-4.000000,-6.000000
1297546.749546,7.000000,-13.000000,9.000000,8.000000,3.000000,2.000000,0.000000,-6.000000
1297546.767660,1.000000,-3.000000,-50.000000,-8.000000,-1.000000,-1.000000,2.000000,-1.000000
1297546.767768,1.000000,-16.000000,-6.000000,-25.000000,3.000000,0.000000,0.000000,-4.000000
1297546.775436,-38.000000,11.000000,2.000000,14.000000,-11.000000,-4.000000,-1.000000,-9.000000
1297546.775472,6.000000,44.000000,6.000000,-1.000000,0.000000,-5.000000,-8.000000,-1.000000
1297546.790070,22.000000,-5.000000,31.000000,7.000000,1.000000,-2.000000,0.000000,4.000000
1297546.790109,10.000000,-2.000000,-10.000000,14.000000,9.000000,6.000000,8.000000,4.000000
1297546.812409,2.000000,56.000000,9.000000,-17.000000,-4.000000,-1.000000,2.000000,-5.000000
1297546.812589,12.000000,-1.000000,-75.000000,-6.000000,8.000000,-2.000000,-1.000000,3.000000
1297546.814110,-1.000000,-53.000000,2.000000,-12.000000,8.000000,1.000000,1.000000,2.000000
1297546.814195,8.000000,28.000000,12.000000,39.000000,-4.000000,1.000000,-3.000000,0.000000
1297546.814481,-10.000000,11.000000,-7.000000,-23.000000,-9.000000,-4.000000,-1.000000,-2.000000
1297546.814504,-1.000000,-33.000000,10.000000,0.000000,-3.000000,-2.000000,-3.000000,0.000000
1297546.820192,-4.000000,-16.000000,-26.000000,-9.000000,-4.000000,-5.000000,2.000000,1.000000
1297546.820221,-24.000000,35.000000,16.000000,3.000000,2.000000,2.000000,2.000000,-5.000000
1297546.827621,14.000000,-1.000000,-7.000000,10.000000,-11.000000,-5.000000,-1.000000,1.000000
1297546.827657,-22.000000,-10.000000,-3.000000,-23.000000,-2.000000,4.000000,3.000000,-2.000000
1297546.858579,-14.000000,-18.000000,-16.000000,-3.000000,-8.000000,-3.000000,-8.000000,-8.000000
1297546.858613,-20.000000,-53.000000,-8.000000,6.000000,0.000000,-2.000000,-1.000000,-1.000000
1297546.858805,-20.000000,0.000000,29.000000,-15.000000,3.000000,5.000000,2.000000,1.000000
1297546.858840,20.000000,-14.000000,13.000000,7.000000,1.000000,-6.000000,0.000000,-1.000000
1297546.860284,15.000000,-13.000000,-4.000000,34.000000,-4.000000,4.000000,3.000000,1.000000
1297546.860348,-8.000000,-35.000000,-59.000000,-32.000000,-5.000000,-4.000000,-5.000000,-2.000000
1297546.864857,-12.000000,13.000000,-6.000000,-2.000000,-1.000000,-4.000000,4.000000,0.000000
1297546.864891,-8.000000,7.000000,22.000000,-14.000000,-3.000000,0.000000,0.000000,0.000000
1297546.895083,12.000000,34.000000,0.000000,6.000000,3.000000,5.000000,-4.000000,-3.000000
1297546.895103,-2.000000,2.000000,-2.000000,-5.000000,0.000000,-10.000000,-6.000000,-1.000000
1297546.902427,17.000000,-26.000000,4.000000,27.000000,3.000000,2.000000,2.000000,3.000000
1297546.902445,17.000000,4.000000,3.000000,-12.000000,1.000000,2.000000,7.000000,3.000000
1297546.917336,-11.000000,-3.000000,5.000000,17.000000,-5.000000,-1.000000,-7.000000,-5.000000
1297546.917372,0.000000,5.000000,-22.000000,-23.000000,-1.000000,0.000000,0.000000,3.000000
1297546.932932,-33.000000,-7.000000,9.000000,10.000000,-5.000000,1.000000,1.000000,-4.000000
1297546.933024,18.000000,-41.000000,-27.000000,-18.000000,1.000000,-2.000000,1.000000,3.000000
1297546.934423,-4.000000,-32.000000,5.000000,12.000000,4.000000,3.000000,3.000000,4.000000
1297546.934462,-6.000000,-1.000000,-26.000000,13.000000,2.000000,0.000000,0.000000,0.000000
1297546.934787,11.000000,-1.000000,12.000000,18.000000,1.000000,1.000000,1.000000,2.000000
1297546.934862,-31.000000,-128.000000,-37.000000,-22.000000,-8.000000,1.000000,-3.000000,-7.000000
1297546.939887,-4.000000,-16.000000,-29.000000,-1.000000,-9.000000,-2.000000,-6.000000,-5.000000
1297546.939978,-57.000000,12.000000,10.000000,9.000000,-5.000000,2.000000,-1.000000,-5.000000
1297546.947601,-6.000000,4.000000,17.000000,3.000000,2.000000,-2.000000,1.000000,-1.000000
1297546.947645,5.000000,-6.000000,-23.000000,14.000000,-4.000000,0.000000,-3.000000,-4.000000
1297546.977862,0.000000,0.000000,8.000000,-41.000000,-5.000000,-2.000000,3.000000,3.000000
1297546.978083,4.000000,-14.000000,-2.000000,14.000000,0.000000,-1.000000,-3.000000,-2.000000
1297546.978519,11.000000,10.000000,9.000000,-48.000000,-2.000000,2.000000,2.000000,5.000000
1297546.978548,-35.000000,-11.000000,-12.000000,18.000000,-2.000000,-5.000000,-5.000000,-7.000000
1297546.980322,-39.000000,5.000000,-5.000000,5.000000,0.000000,4.000000,5.000000,-3.000000
1297546.980349,5.000000,6.000000,-17.000000,-6.000000,-1.000000,-4.000000,-4.000000,-2.000000
1297546.984901,5.000000,5.000000,-4.000000,11.000000,-1.000000,0.000000,-11.000000,-11.000000
1297546.984931,-8.000000,-128.000000,-20.000000,-18.000000,3.000000,1.000000,0.000000,-3.000000
1297547.014790,0.000000,92.000000,27.000000,-5.000000,-1.000000,0.000000,6.000000,6.000000
1297547.014825,-1.000000,-5.000000,-8.000000,35.000000,-13.000000,-3.000000,-8.000000,0.000000
1297547.022406,-8.000000,-12.000000,-32.000000,-8.000000,-3.000000,-5.000000,-4.000000,-1.000000
1297547.022424,-25.000000,7.000000,27.000000,-17.000000,4.000000,-3.000000,1.000000,-1.000000
1297547.059979,32.000000,75.000000,6.000000,29.000000,11.000000,3.000000,12.000000,10.000000
1297547.060176,-20.000000,21.000000,10.000000,-26.000000,-5.000000,-3.000000,-8.000000,-6.000000
1297547.060523,33.000000,-4.000000,-10.000000,-49.000000,-8.000000,-10.000000,-14.000000,-8.000000
1297547.060560,-47.000000,-39.000000,-4.000000,16.000000,-8.000000,1.000000,1.000000,-4.000000
1297547.061820,21.000000,4.000000,11.000000,28.000000,-4.000000,3.000000,5.000000,5.000000
1297547.061849,3.000000,-1.000000,-14.000000,-4.000000,-1.000000,-3.000000,0.000000,-1.000000
1297547.062511,20.000000,0.000000,13.000000,10.000000,2.000000,-2.000000,-6.000000,1.000000
1297547.062537,-8.000000,3.000000,-20.000000,-1.000000,-1.000000,0.000000,4.000000,0.000000
1297547.067401,-29.000000,-3.000000,-13.000000,-30.000000,-1.000000,-10.000000,-10.000000,-12.000000
1297547.067418,11.000000,19.000000,-10.000000,5.000000,3.000000,-1.000000,6.000000,4.000000
1297547.097776,10.000000,-12.000000,8.000000,33.000000,-1.000000,2.000000,7.000000,9.000000
1297547.097802,71.000000,86.000000,-1.000000,-47.000000,-3.000000,-4.000000,-5.000000,-4.000000
1297547.098496,-36.000000,98.000000,21.000000,-3.000000,9.000000,6.000000,5.000000,-3.000000
1297547.098529,25.000000,-22.000000,-2.000000,-15.000000,1.000000,-4.000000,-4.000000,0.000000
1297547.099455,-22.000000,3.000000,-2.000000,20.000000,-4.000000,0.000000,8.000000,6.000000
1297547.099479,20.000000,3.000000,16.000000,25.000000,1.000000,3.000000,0.000000,0.000000
1297547.104839,-3.000000,5.000000,3.000000,-20.000000,0.000000,-10.000000,-14.000000,-8.000000
1297547.104856,-2.000000,-25.000000,4.000000,20.000000,5.000000,5.000000,7.000000,3.000000
1297547.134928,12.000000,-15.000000,7.000000,-4.000000,-5.000000,0.000000,1.000000,2.000000
1297547.134948,-52.000000,-12.000000,-14.000000,-14.000000,-7.000000,-2.000000,-1.000000,-4.000000
1297547.142517,-7.000000,32.000000,2.000000,21.000000,2.000000,1.000000,4.000000,1.000000
1297547.142537,-9.000000,-10.000000,-1.000000,-8.000000,1.000000,1.000000,-5.000000,-3.000000
1297547.172394,11.000000,7.000000,13.000000,42.000000,9.000000,3.000000,0.000000,4.000000
1297547.172414,-35.000000,-26.000000,-6.000000,-4.000000,-9.000000,0.000000,6.000000,-5.000000
1297547.173195,22.000000,63.000000,49.000000,1.000000,-5.000000,-7.000000,-5.000000,-8.000000
1297547.173224,0.000000,41.000000,-14.000000,-10.000000,-4.000000,-2.000000,0.000000,2.000000
1297547.174663,24.000000,7.000000,19.000000,14.000000,11.000000,5.000000,4.000000,5.000000
1297547.174908,-30.000000,-18.000000,3.000000,31.000000,2.000000,1.000000,6.000000,4.000000
1297547.175358,-13.000000,14.000000,7.000000,23.000000,-6.000000,-3.000000,-5.000000,-5.000000
1297547.175388,13.000000,6.000000,5.000000,-13.000000,-6.000000,0.000000,1.000000,2.000000
1297547.179935,-9.000000,72.000000,37.000000,-7.000000,10.000000,7.000000,3.000000,1.000000
1297547.179955,21.000000,13.000000,6.000000,56.000000,7.000000,3.000000,2.000000,5.000000
1297547.187425,14.000000,119.000000,1.000000,-55.000000,-6.000000,-2.000000,-6.000000,-6.000000
1297547.187458,-3.000000,-65.000000,-12.000000,4.000000,1.000000,-4.000000,-5.000000,-4.000000
1297547.210720,16.000000,13.000000,7.000000,38.000000,2.000000,1.000000,1.000000,6.000000
1297547.210741,-11.000000,11.000000,19.000000,-10.000000,-5.000000,0.000000,1.000000,3.000000
1297547.210831,10.000000,-16.000000,-9.000000,0.000000,1.000000,-2.000000,-1.000000,-1.000000
1297547.210842,-11.000000,-17.000000,-16.000000,-19.000000,-6.000000,-4.000000,-5.000000,-6.000000
1297547.217648,1.000000,6.000000,0.000000,8.000000,6.000000,3.000000,5.000000,3.000000
1297547.217666,3.000000,21.000000,9.000000,16.000000,-6.000000,0.000000,-2.000000,2.000000
1297547.239926,-14.000000,-104.000000,-10.000000,-47.000000,-2.000000,-1.000000,-7.000000,-8.000000
1297547.239959,2.000000,-6.000000,-5.000000,4.000000,-4.000000,-2.000000,-1.000000,0.000000
1297547.255025,6.000000,11.000000,15.000000,-7.000000,-7.000000,1.000000,2.000000,1.000000
1297547.255052,14.000000,23.000000,-24.000000,-19.000000,-9.000000,-5.000000,-6.000000,0.000000
1297547.262558,7.000000,-5.000000,-3.000000,21.000000,7.000000,0.000000,2.000000,3.000000
1297547.262583,20.000000,6.000000,16.000000,16.000000,-1.000000,1.000000,2.000000,0.000000
1297547.293333,-31.000000,5.000000,4.000000,-54.000000,8.000000,1.000000,5.000000,-5.000000
1297547.293357,32.000000,127.000000,16.000000,21.000000,1.000000,2.000000,-2.000000,0.000000
1297547.294235,10.000000,18.000000,7.000000,15.000000,1.000000,2.000000,-5.000000,2.000000
1297547.294274,-29.000000,-14.000000,-11.000000,12.000000,0.000000,1.000000,3.000000,5.000000
1297547.300101,33.000000,-24.000000,-37.000000,-9.000000,-7.000000,3.000000,3.000000,5.000000
1297547.300457,-1.000000,22.000000,12.000000,6.000000,-1.000000,-3.000000,-10.000000,-5.000000
1297547.301168,4.000000,68.000000,19.000000,15.000000,3.000000,0.000000,-4.000000,4.000000
1297547.301185,8.000000,4.000000,5.000000,-21.000000,0.000000,3.000000,7.000000,4.000000
1297547.301844,7.000000,34.000000,7.000000,1.000000,-3.000000,-5.000000,1.000000,2.000000
1297547.301861,19.000000,-7.000000,14.000000,12.000000,-6.000000,-1.000000,-7.000000,-8.000000
1297547.307410,-12.000000,3.000000,-2.000000,22.000000,4.000000,1.000000,-2.000000,0.000000
1297547.307435,-41.000000,-24.000000,11.000000,16.000000,7.000000,4.000000,6.000000,4.000000
1297547.322278,-14.000000,-54.000000,8.000000,13.000000,-3.000000,1.000000,-3.000000,1.000000
1297547.322312,8.000000,-3.000000,17.000000,36.000000,0.000000,-4.000000,3.000000,4.000000
1297547.329852,-1.000000,1.000000,-22.000000,-15.000000,-8.000000,2.000000,-3.000000,-5.000000
1297547.329873,-24.000000,-128.000000,8.000000,-10.000000,4.000000,-5.000000,-3.000000,-4.000000
1297547.337300,11.000000,2.000000,-3.000000,-5.000000,-7.000000,-4.000000,4.000000,4.000000
1297547.337326,11.000000,-17.000000,11.000000,30.000000,-7.000000,2.000000,2.000000,8.000000
1297547.360212,-18.000000,-46.000000,-23.000000,-24.000000,-9.000000,1.000000,-10.000000,-15.000000
1297547.360234,-2.000000,-15.000000,18.000000,8.000000,14.000000,-2.000000,-9.000000,-6.000000
1297547.374878,28.000000,13.000000,-2.000000,9.000000,-4.000000,1.000000,4.000000,8.000000
1297547.374915,-27.000000,1.000000,2.000000,6.000000,0.000000,2.000000,4.000000,0.000000
1297547.382269,-2.000000,-52.000000,-18.000000,11.000000,-4.000000,-4.000000,-4.000000,-6.000000
1297547.382304,12.000000,35.000000,25.000000,-9.000000,-2.000000,-2.000000,-9.000000,0.000000
1297547.419698,8.000000,-49.000000,-1.000000,11.000000,-5.000000,-3.000000,-1.000000,-1.000000
1297547.419719,-3.000000,-9.000000,-12.000000,-28.000000,-2.000000,0.000000,-4.000000,1.000000
1297547.427536,10.000000,-1.000000,6.000000,-4.000000,3.000000,-1.000000,-2.000000,-3.000000
1297547.427555,-25.000000,-10.000000,9.000000,4.000000,-7.000000,-3.000000,2.000000,-2.000000
1297547.450938,4.000000,43.000000,-1.000000,-8.000000,13.000000,0.000000,5.000000,2.000000
1297547.451033,-12.000000,23.000000,22.000000,14.000000,-4.000000,2.000000,-4.000000,-6.000000
1297547.451365,0.000000,127.000000,-48.000000,-17.000000,8.000000,0.000000,1.000000,3.000000
1297547.451663,20.000000,-3.000000,12.000000,16.000000,-3.000000,2.000000,-2.000000,2.000000
1297547.453138,12.000000,68.000000,17.000000,-8.000000,5.000000,-1.000000,0.000000,-5.000000
1297547.453163,37.000000,98.000000,18.000000,16.000000,-1.000000,4.000000,-3.000000,6.000000
1297547.453798,15.000000,-55.000000,-5.000000,22.000000,9.000000,2.000000,5.000000,6.000000
1297547.453816,-15.000000,-14.000000,-31.000000,-46.000000,-6.000000,-7.000000,-8.000000,-8.000000
1297547.458217,28.000000,105.000000,22.000000,-37.000000,11.000000,1.000000,9.000000,8.000000
1297547.458248,12.000000,61.000000,13.000000,24.000000,18.000000,6.000000,10.000000,7.000000
1297547.479813,21.000000,-24.000000,0.000000,15.000000,-8.000000,-7.000000,-9.000000,-6.000000
1297547.479837,-7.000000,-14.000000,-6.000000,1.000000,-4.000000,0.000000,-3.000000,-5.000000
1297547.502418,3.000000,-7.000000,13.000000,-13.000000,4.000000,-1.000000,-1.000000,2.000000
1297547.502452,20.000000,4.000000,-11.000000,19.000000,-3.000000,5.000000,9.000000,9.000000
1297547.532452,26.000000,4.000000,-10.000000,-6.000000,-3.000000,-1.000000,-5.000000,-4.000000
1297547.532678,-45.000000,-17.000000,-18.000000,2.000000,-4.000000,-7.000000,-9.000000,-8.000000
1297547.533746,4.000000,44.000000,2.000000,-28.000000,4.000000,4.000000,11.000000,7.000000
1297547.534078,-17.000000,15.000000,8.000000,-8.000000,-5.000000,-4.000000,-7.000000,-10.000000
1297547.534476,3.000000,3.000000,-53.000000,13.000000,-7.000000,-6.000000,-6.000000,-9.000000
1297547.534495,-12.000000,-14.000000,7.000000,-34.000000,-1.000000,-3.000000,2.000000,2.000000
1297547.535689,20.000000,1.000000,-39.000000,9.000000,5.000000,-1.000000,4.000000,4.000000
1297547.535714,61.000000,127.000000,34.000000,21.000000,10.000000,6.000000,6.000000,8.000000
1297547.536231,-1.000000,-89.000000,10.000000,34.000000,-5.000000,3.000000,3.000000,6.000000
1297547.536253,3.000000,14.000000,-23.000000,-44.000000,-7.000000,-9.000000,-6.000000,-7.000000
1297547.539738,20.000000,120.000000,-1.000000,-15.000000,12.000000,-1.000000,-7.000000,-10.000000
1297547.539762,4.000000,62.000000,15.000000,15.000000,7.000000,7.000000,7.000000,12.000000
1297547.547329,14.000000,11.000000,4.000000,11.000000,2.000000,8.000000,8.000000,3.000000
1297547.547348,-45.000000,-39.000000,-13.000000,12.000000,-6.000000,-1.000000,-2.000000,-10.000000
1297547.570084,18.000000,-22.000000,-8.000000,-37.000000,2.000000,4.000000,5.000000,3.000000
1297547.570164,4.000000,-4.000000,-18.000000,8.000000,7.000000,-1.000000,-5.000000,0.000000
1297547.570536,16.000000,1.000000,7.000000,-14.000000,2.000000,-2.000000,-7.000000,-9.000000
1297547.570557,-1.000000,23.000000,-23.000000,3.000000,6.000000,1.000000,-3.000000,4.000000
1297547.577204,16.000000,8.000000,26.000000,7.000000,-3.000000,2.000000,6.000000,6.000000
1297547.577222,20.000000,84.000000,11.000000,22.000000,3.000000,2.000000,2.000000,1.000000
1297547.607985,-12.000000,-91.000000,-14.000000,-46.000000,-10.000000,-7.000000,-12.000000,-13.000000
1297547.608022,-12.000000,12.000000,7.000000,5.000000,4.000000,-2.000000,-4.000000,0.000000
1297547.622261,7.000000,-5.000000,5.000000,13.000000,7.000000,4.000000,3.000000,3.000000
1297547.622278,10.000000,-8.000000,15.000000,27.000000,5.000000,1.000000,3.000000,0.000000
1297547.652749,-12.000000,17.000000,-10.000000,-1.000000,-6.000000,-7.000000,-4.000000,2.000000
1297547.652778,-5.000000,4.000000,-5.000000,-20.000000,2.000000,2.000000,1.000000,3.000000
1297547.654220,0.000000,10.000000,6.000000,20.000000,-1.000000,-2.000000,-9.000000,-11.000000
1297547.654257,3.000000,-19.000000,-41.000000,-15.000000,-1.000000,-5.000000,-1.000000,-4.000000
1297547.654647,31.000000,-49.000000,2.000000,21.000000,0.000000,0.000000,1.000000,1.000000
1297547.654675,-37.000000,-12.000000,0.000000,-8.000000,-4.000000,-2.000000,0.000000,-7.000000
1297547.655547,17.000000,9.000000,7.000000,36.000000,4.000000,0.000000,-2.000000,1.000000
1297547.655569,18.000000,-24.000000,-18.000000,-28.000000,-2.000000,6.000000,1.000000,4.000000
1297547.656183,-17.000000,-45.000000,-6.000000,-26.000000,2.000000,-9.000000,-4.000000,-3.000000
1297547.656200,1.000000,3.000000,6.000000,21.000000,-6.000000,-1.000000,-3.000000,1.000000
1297547.660030,-21.000000,97.000000,8.000000,14.000000,5.000000,-3.000000,-2.000000,-1.000000
1297547.660059,25.000000,38.000000,-5.000000,-18.000000,10.000000,5.000000,0.000000,1.000000
1297547.675409,18.000000,32.000000,17.000000,25.000000,4.000000,1.000000,6.000000,5.000000
1297547.675470,-9.000000,-16.000000,8.000000,-24.000000,-4.000000,5.000000,6.000000,0.000000
1297547.689874,-22.000000,-18.000000,11.000000,-1.000000,-1.000000,-4.000000,-15.000000,-12.000000
1297547.690017,-6.000000,35.000000,7.000000,-1.000000,-4.000000,-6.000000,-4.000000,0.000000
1297547.690431,-1.000000,-5.000000,0.000000,16.000000,2.000000,1.000000,5.000000,-1.000000
1297547.690457,-35.000000,-95.000000,-2.000000,6.000000,1.000000,3.000000,-2.000000,-3.000000
1297547.697297,-1.000000,15.000000,2.000000,-33.000000,-3.000000,-7.000000,-3.000000,-2.000000
1297547.697329,-29.000000,-21.000000,-48.000000,2.000000,-2.000000,-1.000000,-7.000000,-5.000000
1297547.727370,5.000000,-29.000000,-9.000000,11.000000,-9.000000,-5.000000,0.000000,-5.000000
1297547.727389,10.000000,6.000000,6.000000,-7.000000,-12.000000,-2.000000,5.000000,3.000000
1297547.742445,-29.000000,6.000000,-4.000000,26.000000,-2.000000,-2.000000,-4.000000,-9.000000
1297547.742470,11.000000,-44.000000,7.000000,-6.000000,-15.000000,-10.000000,-14.000000,-10.000000
1297547.749906,-29.000000,-8.000000,2.000000,-17.000000,-6.000000,-1.000000,0.000000,1.000000
1297547.749936,13.000000,0.000000,3.000000,12.000000,0.000000,4.000000,4.000000,2.000000
1297547.765644,19.000000,-67.000000,-13.000000,-20.000000,0.000000,-8.000000,-5.000000,-1.000000
1297547.765680,5.000000,17.000000,8.000000,16.000000,-3.000000,3.000000,3.000000,4.000000
1297547.766614,17.000000,-19.000000,-25.000000,-31.000000,4.000000,0.000000,0.000000,5.000000
1297547.766647,-19.000000,35.000000,1.000000,18.000000,-6.000000,-4.000000,-4.000000,-7.000000
1297547.767304,10.000000,-7.000000,4.000000,-23.000000,1.000000,-3.000000,-10.000000,-8.000000
1297547.767343,3.000000,11.000000,-39.000000,-7.000000,-3.000000,-4.000000,-6.000000,-1.000000
1297547.772163,22.000000,-38.000000,-6.000000,20.000000,-3.000000,-3.000000,1.000000,0.000000
1297547.772180,-10.000000,14.000000,13.000000,32.000000,-1.000000,1.000000,5.000000,3.000000
1297547.779828,-29.000000,20.000000,22.000000,-6.000000,1.000000,2.000000,-7.000000,-4.000000
1297547.779847,8.000000,-35.000000,-9.000000,-19.000000,0.000000,-3.000000,-5.000000,1.000000
1297547.809886,0.000000,-2.000000,-4.000000,23.000000,-8.000000,3.000000,5.000000,5.000000
1297547.810071,-9.000000,-44.000000,-15.000000,-57.000000,-7.000000,-3.000000,3.000000,0.000000
1297547.811013,13.000000,-16.000000,6.000000,21.000000,-3.000000,-1.000000,-8.000000,-10.000000
1297547.811041,22.000000,79.000000,-11.000000,-22.000000,0.000000,-6.000000,-9.000000,-5.000000
1297547.812565,3.000000,5.000000,-7.000000,11.000000,1.000000,-2.000000,5.000000,3.000000
1297547.812597,-4.000000,-29.000000,-8.000000,-9.000000,1.000000,-1.000000,1.000000,1.000000
1297547.817178,17.000000,-23.000000,3.000000,69.000000,-4.000000,3.000000,8.000000,9.000000
1297547.817196,-10.000000,-12.000000,-16.000000,6.000000,-7.000000,-1.000000,2.000000,-6.000000
1297547.854885,-29.000000,-74.000000,-15.000000,-42.000000,3.000000,-8.000000,-14.000000,-10.000000
1297547.854905,-1.000000,-14.000000,-3.000000,11.000000,0.000000,-2.000000,-4.000000,-1.000000
1297547.862559,3.000000,30.000000,3.000000,16.000000,-3.000000,0.000000,1.000000,2.000000
1297547.862673,16.000000,-20.000000,9.000000,17.000000,0.000000,-2.000000,-1.000000,-1.000000
1297547.877591,3.000000,4.000000,-20.000000,-17.000000,-2.000000,-2.000000,-1.000000,2.000000
1297547.877611,23.000000,4.000000,-13.000000,3.000000,0.000000,2.000000,-3.000000,-1.000000
1297547.884785,1.000000,16.000000,10.000000,-7.000000,-3.000000,0.000000,-1.000000,-1.000000
1297547.884811,-12.000000,-34.000000,-14.000000,-18.000000,9.000000,1.000000,4.000000,1.000000
1297547.899909,8.000000,6.000000,2.000000,19.000000,-5.000000,-2.000000,2.000000,0.000000
1297547.899942,5.000000,5.000000,7.000000,49.000000,-8.000000,-2.000000,-2.000000,3.000000
1297547.914980,23.000000,68.000000,1.000000,-36.000000,2.000000,-1.000000,-1.000000,-3.000000
1297547.914998,-9.000000,-4.000000,-6.000000,-6.000000,12.000000,2.000000,-3.000000,1.000000
1297547.923424,11.000000,0.000000,1.000000,24.000000,-7.000000,-3.000000,0.000000,3.000000
1297547.923660,32.000000,74.000000,37.000000,24.000000,-5.000000,-1.000000,-2.000000,4.000000
1297547.923998,-3.000000,39.000000,3.000000,24.000000,13.000000,5.000000,6.000000,-2.000000
1297547.924023,19.000000,-13.000000,5.000000,-17.000000,-4.000000,0.000000,3.000000,5.000000
1297547.930209,-2.000000,0.000000,-8.000000,-5.000000,1.000000,2.000000,-3.000000,-2.000000
1297547.930484,-11.000000,64.000000,38.000000,30.000000,-3.000000,-1.000000,-4.000000,0.000000
1297547.931088,-19.000000,-9.000000,1.000000,-12.000000,-4.000000,-3.000000,-1.000000,-2.000000
1297547.931117,-6.000000,-9.000000,-8.000000,16.000000,-3.000000,2.000000,-4.000000,-5.000000
1297547.931818,7.000000,7.000000,13.000000,22.000000,-3.000000,-2.000000,2.000000,2.000000
1297547.931853,16.000000,3.000000,-27.000000,-13.000000,-1.000000,-3.000000,4.000000,1.000000
1297547.937354,-21.000000,-128.000000,12.000000,-1.000000,-1.000000,-3.000000,-8.000000,-7.000000
1297547.937381,14.000000,55.000000,-35.000000,-11.000000,3.000000,0.000000,-2.000000,4.000000
1297547.967820,-48.000000,-113.000000,-7.000000,6.000000,-11.000000,-7.000000,-1.000000,-6.000000
1297547.967840,-7.000000,13.000000,7.000000,46.000000,-6.000000,3.000000,1.000000,3.000000
1297547.975510,8.000000,-21.000000,-17.000000,-57.000000,-4.000000,-6.000000,-3.000000,0.000000
1297547.975538,11.000000,-5.000000,0.000000,2.000000,12.000000,1.000000,-2.000000,-5.000000
1297548.004916,1.000000,59.000000,17.000000,25.000000,-2.000000,2.000000,7.000000,8.000000
1297548.004949,0.000000,43.000000,-19.000000,-14.000000,-13.000000,-3.000000,-7.000000,-8.000000
1297548.012582,-5.000000,-18.000000,-22.000000,-2.000000,1.000000,-5.000000,-5.000000,-3.000000
1297548.012601,3.000000,-6.000000,3.000000,10.000000,-5.000000,-2.000000,2.000000,7.000000
1297548.043829,16.000000,-34.000000,-20.000000,-1.000000,-4.000000,1.000000,0.000000,-3.000000
1297548.044140,10.000000,-6.000000,15.000000,30.000000,4.000000,-1.000000,-4.000000,-2.000000
1297548.044603,-24.000000,-128.000000,-4.000000,10.000000,0.000000,-1.000000,-3.000000,-2.000000
1297548.044642,11.000000,28.000000,5.000000,-27.000000,3.000000,1.000000,2.000000,2.000000
1297548.046151,-9.000000,-42.000000,-23.000000,-5.000000,-4.000000,2.000000,-1.000000,-3.000000
1297548.046172,7.000000,33.000000,14.000000,-18.000000,5.000000,0.000000,-3.000000,-1.000000
1297548.046294,-3.000000,-49.000000,-16.000000,5.000000,-6.000000,2.000000,-1.000000,2.000000
1297548.046309,21.000000,15.000000,31.000000,16.000000,0.000000,1.000000,4.000000,2.000000
1297548.050476,-30.000000,-71.000000,16.000000,-20.000000,-6.000000,-5.000000,-7.000000,-7.000000
1297548.050509,11.000000,-9.000000,12.000000,23.000000,-7.000000,-2.000000,4.000000,4.000000
1297548.057566,15.000000,64.000000,-4.000000,-87.000000,-3.000000,-2.000000,-8.000000,-7.000000
1297548.057591,-15.000000,-11.000000,5.000000,25.000000,-8.000000,-5.000000,-1.000000,-4.000000
1297548.094855,10.000000,3.000000,-4.000000,4.000000,-4.000000,-2.000000,-1.000000,0.000000
1297548.094891,24.000000,2.000000,-12.000000,24.000000,4.000000,5.000000,8.000000,7.000000
1297548.125044,-4.000000,12.000000,-10.000000,-66.000000,-1.000000,-4.000000,-1.000000,3.000000
1297548.125063,-7.000000,-50.000000,-10.000000,9.000000,7.000000,-3.000000,-10.000000,-5.000000
1297548.132962,-18.000000,-91.000000,16.000000,19.000000,-1.000000,-3.000000,-1.000000,-9.000000
1297548.132998,-14.000000,-38.000000,-5.000000,43.000000,3.000000,7.000000,6.000000,-1.000000
1297548.133689,-9.000000,-34.000000,-63.000000,-49.000000,-2.000000,5.000000,3.000000,-4.000000
1297548.133727,10.000000,42.000000,-35.000000,0.000000,-3.000000,-5.000000,-9.000000,-3.000000
1297548.134879,7.000000,127.000000,-11.000000,-4.000000,11.000000,6.000000,3.000000,1.000000
1297548.134902,-8.000000,-72.000000,11.000000,26.000000,-1.000000,0.000000,2.000000,2.000000
1297548.135359,-8.000000,-35.000000,-21.000000,-40.000000,-8.000000,-3.000000,3.000000,-1.000000
1297548.135395,-21.000000,-31.000000,1.000000,18.000000,3.000000,-2.000000,-4.000000,-4.000000
1297548.139865,1.000000,-9.000000,-27.000000,0.000000,9.000000,0.000000,4.000000,6.000000
1297548.139891,-19.000000,3.000000,17.000000,27.000000,-1.000000,-2.000000,0.000000,-2.000000
1297548.162743,-18.000000,7.000000,4.000000,10.000000,1.000000,-2.000000,-4.000000,-3.000000
1297548.162792,12.000000,38.000000,16.000000,-5.000000,-3.000000,3.000000,3.000000,6.000000
1297548.163343,-46.000000,9.000000,0.000000,-4.000000,9.000000,6.000000,2.000000,-5.000000
1297548.163375,-16.000000,-92.000000,-8.000000,22.000000,-6.000000,-7.000000,-9.000000,-3.000000
1297548.199886,-11.000000,7.000000,-18.000000,-36.000000,-6.000000,-3.000000,-1.000000,1.000000
1297548.199922,43.000000,39.000000,12.000000,32.000000,13.000000,4.000000,8.000000,13.000000
1297548.207486,-41.000000,0.000000,9.000000,21.000000,4.000000,-1.000000,6.000000,-3.000000
1297548.207573,7.000000,55.000000,5.000000,-26.000000,1.000000,-5.000000,-6.000000,-6.000000
1297548.244805,-4.000000,-23.000000,-18.000000,4.000000,-6.000000,1.000000,-1.000000,0.000000
1297548.244831,-21.000000,123.000000,26.000000,23.000000,7.000000,0.000000,6.000000,9.000000
1297548.245286,-10.000000,-128.000000,-5.000000,-10.000000,-7.000000,-4.000000,-12.000000,-15.000000
1297548.245328,-5.000000,4.000000,9.000000,-2.000000,0.000000,0.000000,-7.000000,-5.000000
1297548.246472,7.000000,57.000000,-3.000000,16.000000,8.000000,4.000000,6.000000,4.000000
1297548.246503,-6.000000,-5.000000,1.000000,1.000000,0.000000,-5.000000,-2.000000,-2.000000
1297548.247109,-11.000000,-26.000000,8.000000,-12.000000,3.000000,-1.000000,5.000000,5.000000
1297548.247142,-9.000000,-128.000000,-25.000000,4.000000,-11.000000,-4.000000,-6.000000,-9.000000
1297548.248547,-33.000000,66.000000,8.000000,-26.000000,-4.000000,2.000000,3.000000,0.000000
1297548.248579,21.000000,-63.000000,-1.000000,-8.000000,-12.000000,-5.000000,-1.000000,1.000000
1297548.252864,4.000000,-5.000000,-14.000000,-32.000000,-1.000000,-7.000000,-6.000000,-3.000000
1297548.252900,-20.000000,-25.000000,-13.000000,-54.000000,1.000000,2.000000,2.000000,-1.000000
1297548.259915,15.000000,-4.000000,0.000000,-11.000000,-4.000000,2.000000,3.000000,3.000000
1297548.259949,11.000000,13.000000,10.000000,8.000000,-5.000000,-2.000000,0.000000,4.000000
1297548.283452,-25.000000,-22.000000,-5.000000,31.000000,-8.000000,-5.000000,-3.000000,-7.000000
1297548.283476,2.000000,29.000000,7.000000,-47.000000,-1.000000,-8.000000,0.000000,4.000000
1297548.284007,-26.000000,46.000000,27.000000,17.000000,6.000000,2.000000,3.000000,1.000000
1297548.284024,-9.000000,0.000000,16.000000,3.000000,-2.000000,0.000000,4.000000,-6.000000
1297548.297400,-29.000000,-16.000000,-20.000000,-40.000000,-7.000000,-7.000000,-9.000000,-12.000000
1297548.297436,-8.000000,-95.000000,-43.000000,-5.000000,-3.000000,-2.000000,-4.000000,-3.000000
1297548.304700,-52.000000,66.000000,11.000000,-5.000000,-11.000000,-4.000000,-1.000000,-11.000000
1297548.304741,12.000000,-34.000000,-5.000000,0.000000,-3.000000,-7.000000,-7.000000,0.000000
1297548.327143,9.000000,-1.000000,-4.000000,27.000000,1.000000,-5.000000,0.000000,7.000000
1297548.327162,-8.000000,12.000000,-8.000000,-19.000000,-14.000000,0.000000,2.000000,-9.000000
1297548.334823,6.000000,-4.000000,-4.000000,-16.000000,3.000000,-2.000000,-7.000000,-6.000000
1297548.334857,-3.000000,5.000000,25.000000,3.000000,-1.000000,1.000000,-1.000000,3.000000
1297548.365433,24.000000,46.000000,11.000000,50.000000,3.000000,2.000000,3.000000,3.000000
1297548.365698,-15.000000,26.000000,-1.000000,-45.000000,2.000000,-6.000000,3.000000,5.000000
1297548.366101,-6.000000,39.000000,-3.000000,14.000000,5.000000,-2.000000,-1.000000,-1.000000
1297548.366140,5.000000,-15.000000,-31.000000,1.000000,-6.000000,3.000000,0.000000,3.000000
1297548.367225,-21.000000,5.000000,-6.000000,2.000000,0.000000,1.000000,0.000000,-3.000000
1297548.367252,13.000000,-5.000000,-18.000000,45.000000,-7.000000,-4.000000,-3.000000,-2.000000
1297548.368039,-41.000000,-3.000000,0.000000,-20.000000,-2.000000,1.000000,1.000000,-1.000000
1297548.368072,8.000000,16.000000,0.000000,-17.000000,-5.000000,3.000000,0.000000,2.000000
1297548.373081,-34.000000,4.000000,-7.000000,-24.000000,-9.000000,-5.000000,-11.000000,-8.000000
1297548.373161,-17.000000,-7.000000,10.000000,-8.000000,-1.000000,0.000000,0.000000,-3.000000
1297548.402797,-12.000000,0.000000,-8.000000,12.000000,-2.000000,-2.000000,-7.000000,-5.000000
1297548.402887,6.000000,-46.000000,-24.000000,-36.000000,-1.000000,-3.000000,1.000000,2.000000
1297548.403677,6.000000,-3.000000,9.000000,-7.000000,3.000000,4.000000,5.000000,3.000000
1297548.403700,-17.000000,-87.000000,-8.000000,-9.000000,-5.000000,-1.000000,0.000000,-5.000000
1297548.404099,7.000000,10.000000,3.000000,-17.000000,-9.000000,-2.000000,-14.000000,-13.000000
1297548.404171,-1.000000,-4.000000,-1.000000,8.000000,1.000000,-1.000000,-4.000000,-1.000000
1297548.417354,17.000000,1.000000,8.000000,-10.000000,5.000000,5.000000,0.000000,9.000000
1297548.417393,-11.000000,-6.000000,-48.000000,3.000000,-3.000000,-3.000000,-3.000000,-7.000000
1297548.440145,0.000000,7.000000,1.000000,-3.000000,-1.000000,-1.000000,-1.000000,-2.000000
1297548.440288,-22.000000,-104.000000,7.000000,36.000000,-1.000000,-4.000000,-1.000000,-1.000000
1297548.455356,31.000000,81.000000,3.000000,-62.000000,3.000000,1.000000,-1.000000,6.000000
1297548.455401,-3.000000,19.000000,0.000000,30.000000,-5.000000,0.000000,5.000000,1.000000
1297548.485881,-6.000000,-7.000000,-14.000000,-4.000000,-5.000000,0.000000,-5.000000,-3.000000
1297548.486118,3.000000,-52.000000,-17.000000,-18.000000,8.000000,-3.000000,-3.000000,-4.000000
1297548.487168,-14.000000,78.000000,31.000000,3.000000,-3.000000,0.000000,-2.000000,-8.000000
1297548.487221,3.000000,-9.000000,-12.000000,12.000000,-8.000000,-2.000000,-1.000000,-1.000000
1297548.493514,24.000000,-6.000000,-13.000000,-13.000000,1.000000,-4.000000,1.000000,5.000000
1297548.493742,15.000000,18.000000,29.000000,12.000000,-3.000000,-4.000000,-1.000000,1.000000
1297548.495407,1.000000,49.000000,3.000000,-13.000000,-3.000000,0.000000,-6.000000,-3.000000
1297548.495470,1.000000,5.000000,3.000000,5.000000,1.000000,0.000000,-5.000000,0.000000
1297548.495716,5.000000,28.000000,15.000000,30.000000,5.000000,2.000000,6.000000,1.000000
1297548.495743,-31.000000,-106.000000,-22.000000,-47.000000,-11.000000,-7.000000,-2.000000,-7.000000
1297548.496979,12.000000,2.000000,4.000000,6.000000,-4.000000,-2.000000,-5.000000,-6.000000
1297548.497007,-13.000000,51.000000,-2.000000,-1.000000,-1.000000,-4.000000,-1.000000,-1.000000
1297548.500451,16.000000,-27.000000,-3.000000,-13.000000,6.000000,2.000000,5.000000,2.000000
1297548.500480,10.000000,12.000000,12.000000,35.000000,0.000000,-2.000000,4.000000,5.000000
1297548.530623,-6.000000,-24.000000,10.000000,-25.000000,5.000000,-2.000000,-6.000000,-8.000000
1297548.530653,7.000000,0.000000,-3.000000,-23.000000,-5.000000,-4.000000,-1.000000,1.000000
1297548.537811,2.000000,29.000000,8.000000,25.000000,0.000000,3.000000,8.000000,4.000000
1297548.537836,-1.000000,-31.000000,-8.000000,5.000000,-4.000000,-2.000000,-7.000000,-4.000000
1297548.567693,-3.000000,-67.000000,-12.000000,3.000000,0.000000,-8.000000,-7.000000,-1.000000
1297548.567740,-33.000000,72.000000,27.000000,11.000000,1.000000,3.000000,0.000000,-4.000000
1297548.575298,13.000000,-6.000000,9.000000,7.000000,0.000000,4.000000,1.000000,0.000000
1297548.575347,9.000000,-13.000000,-6.000000,-19.000000,-4.000000,-5.000000,-3.000000,3.000000
1297548.599026,2.000000,-56.000000,-20.000000,13.000000,5.000000,0.000000,-10.000000,-14.000000
1297548.599365,-4.000000,-37.000000,-13.000000,-26.000000,-5.000000,-4.000000,-2.000000,0.000000
1297548.599693,-7.000000,30.000000,2.000000,-1.000000,-2.000000,1.000000,0.000000,0.000000
1297548.599715,11.000000,26.000000,1.000000,-6.000000,-4.000000,1.000000,10.000000,3.000000
1297548.600914,-14.000000,-2.000000,-1.000000,10.000000,-1.000000,-1.000000,-11.000000,-6.000000
1297548.600938,4.000000,-17.000000,-10.000000,-56.000000,-2.000000,-4.000000,-3.000000,-1.000000
1297548.601297,2.000000,-8.000000,28.000000,21.000000,1.000000,-1.000000,0.000000,-1.000000
1297548.601338,27.000000,-14.000000,15.000000,24.000000,2.000000,1.000000,2.000000,5.000000
1297548.605958,26.000000,46.000000,8.000000,20.000000,2.000000,-4.000000,-6.000000,-4.000000
1297548.606127,-61.000000,-78.000000,5.000000,6.000000,-8.000000,0.000000,-3.000000,-5.000000
1297548.613346,0.000000,12.000000,7.000000,-12.000000,3.000000,5.000000,8.000000,4.000000
1297548.613394,20.000000,30.000000,1.000000,5.000000,-4.000000,-1.000000,-1.000000,-1.000000
1297548.642927,-1.000000,-33.000000,0.000000,10.000000,1.000000,-4.000000,-1.000000,-3.000000
1297548.642975,7.000000,45.000000,20.000000,-6.000000,-3.000000,1.000000,4.000000,4.000000
1297548.665454,-8.000000,-25.000000,8.000000,-14.000000,5.000000,-2.000000,-12.000000,-6.000000
1297548.665512,7.000000,23.000000,-12.000000,-4.000000,6.000000,0.000000,3.000000,-3.000000
1297548.672746,8.000000,-28.000000,1.000000,15.000000,4.000000,1.000000,4.000000,2.000000
1297548.672801,1.000000,1.000000,2.000000,-19.000000,-1.000000,0.000000,1.000000,1.000000
1297548.687813,33.000000,-20.000000,1.000000,-7.000000,-5.000000,-10.000000,-4.000000,1.000000
1297548.687839,-22.000000,-36.000000,-40.000000,9.000000,-3.000000,-3.000000,-7.000000,-5.000000
1297548.695157,-33.000000,8.000000,6.000000,36.000000,-1.000000,-4.000000,-2.000000,-9.000000
1297548.695206,42.000000,-8.000000,-9.000000,-21.000000,0.000000,2.000000,3.000000,4.000000
1297548.719061,4.000000,-104.000000,-8.000000,-56.000000,6.000000,1.000000,-1.000000,0.000000
1297548.719270,13.000000,-9.000000,-4.000000,32.000000,-3.000000,2.000000,7.000000,9.000000
1297548.719524,-4.000000,15.000000,9.000000,15.000000,-4.000000,-3.000000,-2.000000,0.000000
1297548.719575,-37.000000,3.000000,16.000000,34.000000,-14.000000,-9.000000,-12.000000,-15.000000
1297548.721295,1.000000,-6.000000,4.000000,3.000000,-2.000000,0.000000,1.000000,-3.000000
1297548.721344,13.000000,-19.000000,-19.000000,-26.000000,-1.000000,-6.000000,-12.000000,-14.000000
1297548.722199,5.000000,7.000000,28.000000,16.000000,3.000000,-2.000000,-6.000000,1.000000
1297548.722314,1.000000,-31.000000,-11.000000,3.000000,1.000000,5.000000,7.000000,3.000000
1297548.725657,2.000000,-21.000000,8.000000,5.000000,-4.000000,-4.000000,-1.000000,3.000000
1297548.725683,-16.000000,126.000000,15.000000,-1.000000,9.000000,6.000000,5.000000,-4.000000
1297548.734630,-28.000000,-128.000000,-19.000000,-19.000000,-8.000000,1.000000,-1.000000,-3.000000
1297548.734655,33.000000,123.000000,7.000000,-1.000000,13.000000,5.000000,1.000000,3.000000
1297548.747926,-22.000000,-14.000000,12.000000,-7.000000,-6.000000,-4.000000,-3.000000,1.000000
1297548.747951,3.000000,-14.000000,-26.000000,-21.000000,-1.000000,-4.000000,-3.000000,-3.000000
1297548.756319,3.000000,3.000000,5.000000,-11.000000,-10.000000,-2.000000,-2.000000,1.000000
1297548.756346,2.000000,2.000000,17.000000,29.000000,4.000000,2.000000,-3.000000,1.000000
1297548.762881,28.000000,1.000000,-4.000000,-17.000000,-10.000000,3.000000,2.000000,2.000000
1297548.762907,-40.000000,13.000000,13.000000,-30.000000,-7.000000,-6.000000,-3.000000,-4.000000
1297548.777625,12.000000,-8.000000,-13.000000,30.000000,-3.000000,-6.000000,-10.000000,-5.000000
1297548.777674,-15.000000,-59.000000,5.000000,-5.000000,11.000000,2.000000,1.000000,-3.000000
1297548.785230,21.000000,-30.000000,-27.000000,10.000000,-2.000000,-6.000000,0.000000,2.000000
1297548.785270,6.000000,41.000000,23.000000,14.000000,-4.000000,-1.000000,-1.000000,4.000000
1297548.800526,11.000000,92.000000,18.000000,26.000000,3.000000,3.000000,6.000000,5.000000
1297548.800579,2.000000,4.000000,-5.000000,-12.000000,5.000000,1.000000,-2.000000,1.000000
1297548.808144,1.000000,-6.000000,17.000000,24.000000,0.000000,-3.000000,-1.000000,-2.000000
1297548.808594,-9.000000,53.000000,-6.000000,-11.000000,7.000000,5.000000,4.000000,5.000000
1297548.815406,15.000000,74.000000,29.000000,4.000000,2.000000,5.000000,9.000000,3.000000
1297548.815459,-8.000000,4.000000,-24.000000,-12.000000,-2.000000,-4.000000,-9.000000,-5.000000
1297548.838578,-19.000000,-6.000000,-1.000000,3.000000,0.000000,0.000000,-8.000000,-10.000000
1297548.838656,-18.000000,-26.000000,-6.000000,13.000000,-5.000000,3.000000,-3.000000,-6.000000
1297548.840016,-3.000000,19.000000,11.000000,-11.000000,-1.000000,2.000000,6.000000,3.000000
1297548.840057,18.000000,8.000000,24.000000,43.000000,2.000000,-1.000000,3.000000,3.000000
1297548.845146,2.000000,-75.000000,-26.000000,-31.000000,-7.000000,-4.000000,-6.000000,-6.000000
1297548.845209,-34.000000,-128.000000,-2.000000,13.000000,2.000000,-5.000000,-4.000000,-9.000000
1297548.853505,3.000000,-6.000000,-11.000000,5.000000,-3.000000,2.000000,1.000000,2.000000
1297548.853551,6.000000,68.000000,4.000000,-2.000000,-4.000000,-1.000000,3.000000,7.000000
1297548.860149,-46.000000,-63.000000,5.000000,6.000000,5.000000,5.000000,1.000000,0.000000
1297548.860175,0.000000,3.000000,12.000000,8.000000,-2.000000,-3.000000,-8.000000,-13.000000
1297548.875830,-4.000000,17.000000,-1.000000,-13.000000,-5.000000,-6.000000,-4.000000,-3.000000
1297548.875876,-1.000000,-7.000000,1.000000,11.000000,7.000000,0.000000,0.000000,-2.000000
1297548.882925,21.000000,9.000000,1.000000,19.000000,0.000000,0.000000,-5.000000,1.000000
1297548.883038,-30.000000,-20.000000,-53.000000,-14.000000,-3.000000,-3.000000,2.000000,1.000000
1297548.920160,33.000000,-5.000000,7.000000,19.000000,6.000000,-1.000000,-3.000000,8.000000
1297548.920209,-4.000000,-128.000000,6.000000,-45.000000,-5.000000,2.000000,2.000000,-6.000000
1297548.927879,-14.000000,23.000000,5.000000,28.000000,-6.000000,-1.000000,0.000000,3.000000
1297548.927919,8.000000,-8.000000,0.000000,-8.000000,0.000000,1.000000,-1.000000,-1.000000
1297548.928976,-14.000000,-5.000000,-23.000000,-52.000000,0.000000,-2.000000,0.000000,-1.000000
1297548.929002,13.000000,116.000000,6.000000,8.000000,6.000000,2.000000,-1.000000,1.000000
1297548.930457,20.000000,-2.000000,16.000000,14.000000,-8.000000,-5.000000,-8.000000,2.000000
1297548.930600,5.000000,4.000000,0.000000,2.000000,-4.000000,0.000000,6.000000,5.000000
1297548.950646,-36.000000,11.000000,2.000000,-3.000000,-6.000000,0.000000,-1.000000,-15.000000
1297548.950679,-4.000000,5.000000,-20.000000,-95.000000,-9.000000,-8.000000,-10.000000,-8.000000
1297548.951007,13.000000,-42.000000,15.000000,14.000000,1.000000,-1.000000,3.000000,4.000000
1297548.951059,29.000000,-31.000000,-46.000000,-16.000000,-2.000000,1.000000,5.000000,4.000000
1297548.958186,22.000000,10.000000,10.000000,25.000000,-5.000000,-1.000000,1.000000,3.000000
1297548.958238,-15.000000,-20.000000,-25.000000,6.000000,0.000000,3.000000,-3.000000,-5.000000
1297548.965194,18.000000,-11.000000,-13.000000,-27.000000,-3.000000,-3.000000,-2.000000,0.000000
1297548.965247,21.000000,81.000000,14.000000,23.000000,11.000000,4.000000,-3.000000,6.000000
1297548.974013,20.000000,23.000000,9.000000,-27.000000,-2.000000,2.000000,4.000000,2.000000
1297548.974062,3.000000,-21.000000,-11.000000,24.000000,-4.000000,1.000000,2.000000,4.000000
1297548.995422,0.000000,-15.000000,17.000000,-37.000000,-1.000000,-6.000000,2.000000,-3.000000
1297548.995450,-24.000000,-8.000000,-27.000000,-3.000000,-7.000000,-5.000000,-9.000000,-14.000000
1297548.996927,-9.000000,1.000000,2.000000,-22.000000,1.000000,-1.000000,-5.000000,0.000000
1297548.996978,4.000000,-9.000000,7.000000,31.000000,-4.000000,1.000000,2.000000,4.000000
1297549.002691,4.000000,6.000000,21.000000,-3.000000,0.000000,2.000000,4.000000,2.000000
1297549.002717,6.000000,64.000000,-15.000000,17.000000,3.000000,-2.000000,-1.000000,0.000000
1297549.025467,-28.000000,21.000000,27.000000,15.000000,5.000000,2.000000,1.000000,-2.000000
1297549.025494,-29.000000,-41.000000,2.000000,3.000000,-2.000000,-1.000000,2.000000,-4.000000
1297549.041233,7.000000,127.000000,21.000000,14.000000,16.000000,2.000000,6.000000,8.000000
1297549.041284,-18.000000,21.000000,4.000000,-17.000000,-4.000000,-5.000000,-7.000000,-2.000000
1297549.055832,1.000000,19.000000,0.000000,-6.000000,4.000000,-1.000000,-9.000000,-9.000000
1297549.055880,-14.000000,-95.000000,-4.000000,4.000000,-6.000000,-3.000000,0.000000,-2.000000
1297549.063548,16.000000,35.000000,19.000000,22.000000,-1.000000,-2.000000,3.000000,4.000000
1297549.063582,-8.000000,14.000000,-16.000000,21.000000,-3.000000,-1.000000,-7.000000,-5.000000
1297549.078191,7.000000,-4.000000,6.000000,-17.000000,-6.000000,2.000000,1.000000,-6.000000
1297549.078527,15.000000,3.000000,3.000000,-12.000000,8.000000,1.000000,-4.000000,-2.000000
1297549.078755,18.000000,-32.000000,9.000000,-17.000000,-7.000000,-3.000000,-5.000000,4.000000
1297549.078780,-11.000000,13.000000,-20.000000,19.000000,-1.000000,-3.000000,-2.000000,2.000000
1297549.080270,13.000000,18.000000,19.000000,26.000000,4.000000,6.000000,6.000000,2.000000
1297549.080295,-2.000000,18.000000,10.000000,-55.000000,5.000000,0.000000,-7.000000,-8.000000
1297549.085375,-2.000000,-108.000000,-25.000000,0.000000,-4.000000,-2.000000,-3.000000,-8.000000
1297549.085425,10.000000,12.000000,15.000000,18.000000,0.000000,1.000000,6.000000,3.000000
1297549.093921,-1.000000,24.000000,4.000000,19.000000,-7.000000,0.000000,-1.000000,1.000000
1297549.093972,26.000000,20.000000,16.000000,-67.000000,-8.000000,-4.000000,-9.000000,-6.000000
1297549.118787,-45.000000,28.000000,1.000000,-7.000000,6.000000,6.000000,0.000000,-4.000000
1297549.118825,-8.000000,-16.000000,2.000000,63.000000,-7.000000,0.000000,4.000000,0.000000
1297549.119061,14.000000,-5.000000,4.000000,-21.000000,-3.000000,1.000000,2.000000,4.000000
1297549.119081,13.000000,-47.000000,-60.000000,17.000000,-4.000000,-13.000000,-13.000000,-13.000000
1297549.122587,-11.000000,15.000000,14.000000,-46.000000,-9.000000,1.000000,-2.000000,-1.000000
1297549.122645,-1.000000,-70.000000,-54.000000,-9.000000,-2.000000,-7.000000,-1.000000,-6.000000
1297549.153019,-4.000000,41.000000,33.000000,5.000000,-4.000000,4.000000,4.000000,2.000000
1297549.153073,8.000000,-3.000000,4.000000,6.000000,4.000000,1.000000,3.000000,0.000000
1297549.160669,-14.000000,7.000000,7.000000,18.000000,-5.000000,-1.000000,1.000000,-3.000000
1297549.160696,-8.000000,15.000000,-6.000000,-42.000000,-6.000000,-4.000000,-9.000000,-4.000000
1297549.198094,15.000000,-3.000000,-1.000000,-17.000000,2.000000,5.000000,4.000000,4.000000
1297549.198149,-12.000000,5.000000,9.000000,22.000000,4.000000,1.000000,3.000000,4.000000
1297549.205345,11.000000,17.000000,9.000000,14.000000,5.000000,2.000000,2.000000,-2.000000
1297549.205393,-18.000000,-128.000000,-2.000000,-16.000000,-10.000000,-8.000000,-10.000000,-7.000000
1297549.206824,-13.000000,2.000000,8.000000,11.000000,-4.000000,-5.000000,-3.000000,-10.000000
1297549.206873,17.000000,21.000000,-12.000000,-4.000000,1.000000,-3.000000,3.000000,10.000000
1297549.208025,-24.000000,-18.000000,1.000000,18.000000,10.000000,4.000000,2.000000,4.000000
1297549.208114,-7.000000,17.000000,14.000000,7.000000,-3.000000,2.000000,0.000000,1.000000
1297549.209275,-38.000000,1.000000,4.000000,1.000000,-2.000000,1.000000,-6.000000,-6.000000
1297549.209324,-10.000000,-45.000000,-15.000000,6.000000,2.000000,-5.000000,1.000000,3.000000
1297549.243084,6.000000,-93.000000,-17.000000,-20.000000,-5.000000,-2.000000,-1.000000,2.000000
1297549.243138,-19.000000,-1.000000,10.000000,20.000000,0.000000,-2.000000,1.000000,-3.000000
1297549.250441,13.000000,50.000000,11.000000,-6.000000,1.000000,-2.000000,1.000000,5.000000
1297549.250488,0.000000,-16.000000,-18.000000,-9.000000,4.000000,-5.000000,1.000000,1.000000
1297549.280510,12.000000,-1.000000,3.000000,26.000000,-10.000000,-8.000000,-7.000000,-4.000000
1297549.280536,-15.000000,-1.000000,3.000000,-8.000000,5.000000,4.000000,4.000000,2.000000
1297549.288105,-1.000000,3.000000,-2.000000,-13.000000,0.000000,-2.000000,-6.000000,-11.000000
1297549.288131,10.000000,-29.000000,-2.000000,2.000000,1.000000,-3.000000,2.000000,6.000000
1297549.310545,-25.000000,-12.000000,-2.000000,1.000000,9.000000,4.000000,3.000000,-3.000000
1297549.310597,9.000000,-12.000000,-11.000000,-20.000000,-2.000000,2.000000,-2.000000,2.000000
1297549.318031,47.000000,95.000000,34.000000,27.000000,9.000000,5.000000,-2.000000,5.000000
1297549.318082,-2.000000,16.000000,6.000000,-34.000000,-6.000000,-2.000000,0.000000,1.000000
1297549.327018,23.000000,11.000000,-7.000000,-15.000000,-17.000000,-7.000000,-5.000000,-2.000000
1297549.327076,26.000000,-44.000000,-9.000000,-14.000000,6.000000,0.000000,0.000000,-5.000000
1297549.327960,10.000000,-9.000000,2.000000,21.000000,-4.000000,-3.000000,-5.000000,1.000000
1297549.328474,24.000000,47.000000,-3.000000,6.000000,1.000000,-1.000000,3.000000,9.000000
1297549.329059,3.000000,-10.000000,-4.000000,5.000000,-4.000000,-4.000000,3.000000,1.000000
1297549.329082,25.000000,-18.000000,-8.000000,0.000000,3.000000,3.000000,10.000000,7.000000
1297549.329331,16.000000,-3.000000,-1.000000,9.000000,-9.000000,-8.000000,-14.000000,-12.000000
1297549.329370,-10.000000,-30.000000,9.000000,-20.000000,2.000000,0.000000,2.000000,-5.000000
1297549.329550,-68.000000,-1.000000,-4.000000,-16.000000,0.000000,-5.000000,-7.000000,-14.000000
1297549.329575,32.000000,64.000000,35.000000,13.000000,-1.000000,-5.000000,0.000000,8.000000
1297549.341713,-6.000000,-6.000000,-14.000000,-31.000000,-1.000000,2.000000,0.000000,-1.000000
1297549.341758,14.000000,46.000000,18.000000,67.000000,8.000000,1.000000,3.000000,4.000000
1297549.355438,-7.000000,2.000000,-14.000000,-34.000000,-5.000000,1.000000,-4.000000,-4.000000
1297549.355546,-32.000000,-34.000000,0.000000,3.000000,3.000000,2.000000,0.000000,-4.000000
1297549.370173,-2.000000,5.000000,13.000000,30.000000,-6.000000,-1.000000,3.000000,0.000000
1297549.370199,29.000000,65.000000,7.000000,-3.000000,-5.000000,-5.000000,-1.000000,0.000000
1297549.393003,-46.000000,-128.000000,12.000000,-5.000000,2.000000,-2.000000,-7.000000,-5.000000
1297549.393030,-4.000000,-3.000000,-14.000000,11.000000,-3.000000,-4.000000,-1.000000,-2.000000
1297549.408316,15.000000,-10.000000,-6.000000,4.000000,-7.000000,-5.000000,-6.000000,-7.000000
1297549.409231,7.000000,-8.000000,-4.000000,-1.000000,9.000000,5.000000,10.000000,11.000000
1297549.410124,8.000000,-10.000000,-36.000000,-1.000000,1.000000,-1.000000,-2.000000,-13.000000
1297549.410430,6.000000,7.000000,7.000000,11.000000,-7.000000,-7.000000,-17.000000,-7.000000
1297549.410786,2.000000,-25.000000,-14.000000,-22.000000,-2.000000,-3.000000,1.000000,0.000000
1297549.410807,-6.000000,-18.000000,-3.000000,4.000000,-1.000000,-3.000000,-4.000000,-5.000000
1297549.411240,-91.000000,-75.000000,0.000000,33.000000,7.000000,3.000000,0.000000,-5.000000
1297549.411351,4.000000,26.000000,7.000000,-32.000000,-1.000000,-1.000000,2.000000,5.000000
1297549.415423,7.000000,-10.000000,3.000000,-38.000000,6.000000,1.000000,0.000000,0.000000
1297549.415477,41.000000,127.000000,17.000000,-4.000000,2.000000,1.000000,3.000000,10.000000
1297549.430494,-6.000000,5.000000,16.000000,41.000000,1.000000,1.000000,8.000000,2.000000
1297549.430520,3.000000,-1.000000,0.000000,-27.000000,-1.000000,-3.000000,-3.000000,-3.000000
1297549.437790,-22.000000,-23.000000,-7.000000,-2.000000,0.000000,0.000000,-4.000000,-5.000000
1297549.437833,-8.000000,10.000000,26.000000,41.000000,7.000000,3.000000,0.000000,0.000000
1297549.445290,8.000000,56.000000,8.000000,-7.000000,0.000000,1.000000,-3.000000,0.000000
1297549.445333,-24.000000,-5.000000,8.000000,27.000000,-3.000000,4.000000,4.000000,3.000000
1297549.475351,-19.000000,-18.000000,8.000000,-28.000000,13.000000,2.000000,0.000000,0.000000
1297549.475380,-16.000000,0.000000,5.000000,20.000000,-1.000000,-2.000000,-3.000000,-2.000000
1297549.482938,-10.000000,-22.000000,-21.000000,-7.000000,-6.000000,-2.000000,-2.000000,-1.000000
1297549.483017,1.000000,18.000000,9.000000,4.000000,-7.000000,-2.000000,-1.000000,4.000000
1297549.520366,19.000000,-1.000000,-1.000000,-15.000000,4.000000,2.000000,0.000000,4.000000
1297549.520421,10.000000,62.000000,13.000000,20.000000,4.000000,-4.000000,6.000000,13.000000
1297549.528342,15.000000,-13.000000,-13.000000,-70.000000,-3.000000,3.000000,4.000000,-2.000000
1297549.528486,-39.000000,-26.000000,-13.000000,-9.000000,-6.000000,-6.000000,-13.000000,-16.000000
1297549.550227,41.000000,48.000000,8.000000,40.000000,-3.000000,-5.000000,-5.000000,3.000000
1297549.550291,-10.000000,16.000000,-8.000000,-41.000000,-1.000000,0.000000,4.000000,3.000000
1297549.551674,6.000000,11.000000,10.000000,15.000000,-2.000000,1.000000,5.000000,2.000000
1297549.551934,23.000000,3.000000,12.000000,-24.000000,-7.000000,0.000000,-2.000000,0.000000
1297549.553315,30.000000,17.000000,-3.000000,-37.000000,6.000000,-2.000000,-2.000000,1.000000
1297549.553347,7.000000,-15.000000,10.000000,4.000000,4.000000,3.000000,4.000000,7.000000
1297549.553628,-1.000000,-3.000000,-9.000000,-11.000000,-2.000000,0.000000,0.000000,4.000000
1297549.553672,11.000000,21.000000,-4.000000,1.000000,-1.000000,2.000000,-8.000000,-4.000000
1297549.553885,-13.000000,7.000000,13.000000,-5.000000,11.000000,7.000000,7.000000,1.000000
1297549.553930,-13.000000,-3.000000,11.000000,8.000000,-8.000000,-3.000000,-1.000000,0.000000
1297549.557894,18.000000,-10.000000,-1.000000,23.000000,2.000000,2.000000,5.000000,7.000000
1297549.557945,-3.000000,-11.000000,17.000000,-52.000000,-1.000000,0.000000,4.000000,3.000000
1297549.565205,12.000000,36.000000,-5.000000,-55.000000,0.000000,0.000000,-5.000000,-11.000000
1297549.565229,-29.000000,-16.000000,1.000000,23.000000,-5.000000,-4.000000,-8.000000,-3.000000
1297549.587871,10.000000,12.000000,5.000000,27.000000,7.000000,2.000000,3.000000,4.000000
1297549.587907,-22.000000,-45.000000,-1.000000,-9.000000,-2.000000,-4.000000,-13.000000,-9.000000
1297549.595631,11.000000,-19.000000,-17.000000,-16.000000,6.000000,3.000000,3.000000,5.000000
1297549.595677,9.000000,21.000000,20.000000,46.000000,1.000000,2.000000,3.000000,3.000000
1297549.610718,26.000000,-15.000000,0.000000,-17.000000,0.000000,-2.000000,-4.000000,-2.000000
1297549.610863,-22.000000,-12.000000,-2.000000,1.000000,-4.000000,-5.000000,-7.000000,-5.000000
1297549.632785,-16.000000,-15.000000,4.000000,8.000000,1.000000,-3.000000,0.000000,0.000000
1297549.632835,25.000000,-6.000000,2.000000,-11.000000,0.000000,-4.000000,-3.000000,-3.000000
1297549.648278,5.000000,66.000000,20.000000,13.000000,-6.000000,-4.000000,3.000000,0.000000
1297549.648599,-6.000000,8.000000,1.000000,-33.000000,2.000000,5.000000,0.000000,0.000000
1297549.649308,-15.000000,-86.000000,-13.000000,2.000000,-6.000000,-6.000000,-9.000000,-11.000000
1297549.649349,7.000000,7.000000,24.000000,29.000000,11.000000,-3.000000,-3.000000,0.000000
1297549.651071,-2.000000,-94.000000,-28.000000,-4.000000,-3.000000,-4.000000,2.000000,1.000000
1297549.651182,6.000000,1.000000,-1.000000,26.000000,5.000000,2.000000,-6.000000,-4.000000
1297549.651445,-11.000000,57.000000,2.000000,13.000000,2.000000,4.000000,2.000000,-3.000000
1297549.651468,-11.000000,-105.000000,18.000000,-15.000000,-6.000000,2.000000,-3.000000,-2.000000
1297549.662917,-27.000000,6.000000,-5.000000,31.000000,0.000000,-1.000000,-5.000000,-1.000000
1297549.662968,14.000000,-11.000000,10.000000,-1.000000,-2.000000,1.000000,3.000000,0.000000
1297549.670319,-8.000000,-10.000000,10.000000,-13.000000,-9.000000,-7.000000,-5.000000,-10.000000
1297549.670345,5.000000,-30.000000,-30.000000,21.000000,13.000000,2.000000,1.000000,3.000000
1297549.678610,27.000000,13.000000,6.000000,24.000000,-1.000000,1.000000,1.000000,5.000000
1297549.678636,16.000000,5.000000,13.000000,-2.000000,-5.000000,-2.000000,3.000000,1.000000
1297549.685148,-33.000000,-63.000000,-51.000000,-43.000000,-8.000000,-7.000000,-10.000000,-16.000000
1297549.685173,12.000000,17.000000,2.000000,18.000000,-2.000000,-2.000000,-5.000000,-6.000000
1297549.693704,8.000000,46.000000,18.000000,21.000000,-1.000000,7.000000,8.000000,12.000000
1297549.693750,-19.000000,21.000000,-12.000000,14.000000,1.000000,-6.000000,-1.000000,-1.000000
1297549.715295,2.000000,-32.000000,-7.000000,-24.000000,-8.000000,-10.000000,-14.000000,-6.000000
1297549.715347,-3.000000,6.000000,-3.000000,-31.000000,2.000000,6.000000,2.000000,0.000000
1297549.752835,6.000000,-5.000000,-12.000000,-40.000000,-5.000000,1.000000,4.000000,-1.000000
1297549.753270,-34.000000,-62.000000,-4.000000,46.000000,-3.000000,-5.000000,-4.000000,-4.000000
1297549.754471,6.000000,12.000000,18.000000,-8.000000,-3.000000,-1.000000,-1.000000,1.000000
1297549.754783,15.000000,-32.000000,5.000000,-45.000000,9.000000,-5.000000,0.000000,-5.000000
1297549.755631,-7.000000,-9.000000,7.000000,9.000000,-7.000000,-5.000000,-6.000000,-6.000000
1297549.755670,9.000000,11.000000,-1.000000,12.000000,-1.000000,1.000000,2.000000,2.000000
1297549.755903,0.000000,20.000000,5.000000,-45.000000,-3.000000,1.000000,4.000000,2.000000
1297549.756150,7.000000,8.000000,6.000000,-7.000000,-1.000000,0.000000,-1.000000,3.000000
1297549.757205,20.000000,-24.000000,-13.000000,27.000000,-2.000000,-1.000000,-2.000000,0.000000
1297549.757249,-22.000000,126.000000,23.000000,-13.000000,11.000000,3.000000,-3.000000,-3.000000
1297549.783745,3.000000,4.000000,7.000000,-1.000000,-2.000000,2.000000,1.000000,4.000000
1297549.783841,-28.000000,-84.000000,5.000000,22.000000,0.000000,3.000000,4.000000,4.000000
1297549.790860,-21.000000,-128.000000,-46.000000,-19.000000,-5.000000,-8.000000,-9.000000,-15.000000
1297549.790904,-82.000000,75.000000,8.000000,-29.000000,4.000000,3.000000,2.000000,-4.000000
1297549.792363,-15.000000,-21.000000,0.000000,11.000000,7.000000,5.000000,7.000000,7.000000
1297549.792406,10.000000,32.000000,36.000000,8.000000,-1.000000,1.000000,0.000000,-4.000000
1297549.797840,-15.000000,-21.000000,0.000000,-30.000000,-10.000000,-3.000000,-1.000000,1.000000
1297549.797866,3.000000,-32.000000,-1.000000,5.000000,3.000000,-1.000000,0.000000,-5.000000
1297549.805385,-3.000000,9.000000,-14.000000,7.000000,-3.000000,-4.000000,-6.000000,-2.000000
1297549.805411,8.000000,7.000000,32.000000,9.000000,3.000000,1.000000,-1.000000,1.000000
1297549.820436,9.000000,1.000000,2.000000,3.000000,-3.000000,0.000000,6.000000,3.000000
1297549.820474,-17.000000,-10.000000,5.000000,22.000000,2.000000,-3.000000,3.000000,-1.000000
1297549.827675,-41.000000,-128.000000,-31.000000,-20.000000,-4.000000,-6.000000,-11.000000,-15.000000
1297549.827727,11.000000,-15.000000,-4.000000,6.000000,2.000000,-1.000000,-3.000000,-4.000000
1297549.842810,-10.000000,120.000000,15.000000,6.000000,2.000000,0.000000,7.000000,5.000000
1297549.842860,4.000000,-6.000000,7.000000,6.000000,-6.000000,-3.000000,2.000000,1.000000
1297549.865326,19.000000,64.000000,-8.000000,48.000000,3.000000,3.000000,5.000000,5.000000
1297549.865364,-10.000000,-29.000000,25.000000,-75.000000,1.000000,-2.000000,-5.000000,-6.000000
1297549.880100,28.000000,10.000000,6.000000,-5.000000,5.000000,-4.000000,-2.000000,-1.000000
1297549.880129,-10.000000,-15.000000,-5.000000,16.000000,-1.000000,0.000000,0.000000,3.000000
1297549.881218,-19.000000,-47.000000,1.000000,18.000000,-7.000000,-1.000000,0.000000,-6.000000
1297549.881241,-12.000000,-31.000000,-8.000000,-19.000000,2.000000,-5.000000,-10.000000,-6.000000
1297549.882405,-3.000000,0.000000,-2.000000,23.000000,10.000000,6.000000,7.000000,4.000000
1297549.882452,18.000000,6.000000,-18.000000,-5.000000,-7.000000,-1.000000,1.000000,2.000000
1297549.887543,5.000000,8.000000,2.000000,3.000000,-3.000000,2.000000,-6.000000,0.000000
1297549.887593,-14.000000,-10.000000,5.000000,0.000000,-6.000000,-4.000000,-1.000000,-4.000000
1297549.910180,7.000000,68.000000,-52.000000,4.000000,0.000000,-1.000000,6.000000,3.000000
1297549.910229,12.000000,0.000000,4.000000,2.000000,-3.000000,3.000000,4.000000,2.000000
1297549.917742,-3.000000,-22.000000,-1.000000,10.000000,-3.000000,-3.000000,2.000000,1.000000
1297549.917791,11.000000,-37.000000,14.000000,-29.000000,-3.000000,-4.000000,-7.000000,-5.000000
1297549.947935,-13.000000,-43.000000,-13.000000,-6.000000,-5.000000,3.000000,1.000000,0.000000
1297549.947982,18.000000,111.000000,4.000000,55.000000,-2.000000,-1.000000,-5.000000,-9.000000
1297549.955234,-18.000000,-10.000000,3.000000,-49.000000,-2.000000,1.000000,-2.000000,-2.000000
1297549.955285,21.000000,25.000000,-5.000000,-13.000000,4.000000,-4.000000,0.000000,7.000000
1297549.970192,-27.000000,-14.000000,-5.000000,-20.000000,-6.000000,-4.000000,-9.000000,-6.000000
1297549.970215,32.000000,-35.000000,-4.000000,-3.000000,0.000000,0.000000,2.000000,6.000000
1297549.985769,-27.000000,28.000000,19.000000,27.000000,-10.000000,-1.000000,5.000000,-1.000000
1297549.986169,5.000000,-24.000000,-11.000000,33.000000,1.000000,0.000000,-5.000000,-6.000000
1297549.987179,3.000000,7.000000,17.000000,-18.000000,4.000000,-2.000000,1.000000,6.000000
1297549.987230,-29.000000,2.000000,3.000000,3.000000,-4.000000,-3.000000,0.000000,1.000000
1297549.988512,3.000000,-2.000000,8.000000,26.000000,-6.000000,2.000000,0.000000,-4.000000
1297549.988578,-10.000000,-49.000000,-8.000000,-14.000000,0.000000,4.000000,6.000000,3.000000
1297549.988846,16.000000,62.000000,18.000000,22.000000,-4.000000,-6.000000,-7.000000,-7.000000
1297549.988895,18.000000,3.000000,-11.000000,-16.000000,1.000000,-7.000000,-2.000000,6.000000
1297549.990042,-1.000000,1.000000,-26.000000,-16.000000,-1.000000,0.000000,-2.000000,-6.000000
1297549.990069,27.000000,46.000000,12.000000,26.000000,2.000000,2.000000,8.000000,2.000000
1297549.993538,-29.000000,-92.000000,12.000000,21.000000,-14.000000,-3.000000,-5.000000,-9.000000
1297549.993599,-7.000000,7.000000,-57.000000,-73.000000,-2.000000,-6.000000,-6.000000,-2.000000
1297550.015391,1.000000,5.000000,-14.000000,18.000000,8.000000,2.000000,-1.000000,1.000000
1297550.015600,7.000000,19.000000,13.000000,-10.000000,0.000000,-1.000000,7.000000,3.000000
1297550.031969,-11.000000,-12.000000,8.000000,30.000000,1.000000,3.000000,-1.000000,0.000000
1297550.032208,21.000000,18.000000,-4.000000,6.000000,-4.000000,2.000000,-2.000000,1.000000
1297550.032606,6.000000,-5.000000,-14.000000,-3.000000,-6.000000,-1.000000,-7.000000,-4.000000
1297550.032662,-7.000000,11.000000,-8.000000,-8.000000,-1.000000,-3.000000,-2.000000,1.000000
1297550.037486,-25.000000,-4.000000,13.000000,26.000000,-6.000000,0.000000,4.000000,-7.000000
