# participant_id: P4
# gesture: soft
# trial_number: 2
# stream_name: Myo_EMG
# stream_type: emg
# timestamp: 20260420_135223
# samples: 5664
# duration_sec: 30.525
# nominal_sample_rate: 200.0
# effective_sample_rate: 185.52
#
timestamp,emg_1,emg_2,emg_3,emg_4,emg_5,emg_6,emg_7,emg_8
1297835.705184,1.000000,-10.000000,-3.000000,2.000000,1.000000,2.000000,1.000000,-3.000000
1297835.705216,17.000000,-1.000000,1.000000,24.000000,-9.000000,-3.000000,4.000000,11.000000
1297835.734760,-7.000000,-3.000000,4.000000,66.000000,5.000000,-1.000000,-1.000000,-1.000000
1297835.734779,-14.000000,-4.000000,-33.000000,-128.000000,-17.000000,-3.000000,-8.000000,-9.000000
1297835.735695,-11.000000,-36.000000,-28.000000,-2.000000,1.000000,-4.000000,2.000000,8.000000
1297835.735723,4.000000,-15.000000,5.000000,48.000000,4.000000,-4.000000,-1.000000,-1.000000
1297835.736447,24.000000,13.000000,15.000000,-33.000000,-4.000000,-2.000000,3.000000,4.000000
1297835.736463,-16.000000,12.000000,-10.000000,24.000000,6.000000,3.000000,1.000000,-1.000000
1297835.737694,33.000000,8.000000,-1.000000,-10.000000,-16.000000,-6.000000,-14.000000,-9.000000
1297835.737702,21.000000,-9.000000,-10.000000,-38.000000,6.000000,4.000000,0.000000,5.000000
1297835.738545,-28.000000,-30.000000,-16.000000,7.000000,3.000000,0.000000,4.000000,1.000000
1297835.738554,0.000000,-3.000000,21.000000,40.000000,-9.000000,-5.000000,6.000000,6.000000
1297835.757535,-7.000000,16.000000,1.000000,6.000000,-2.000000,-7.000000,-11.000000,-13.000000
1297835.757574,-1.000000,-12.000000,8.000000,26.000000,8.000000,1.000000,1.000000,10.000000
1297835.772289,15.000000,64.000000,23.000000,-17.000000,1.000000,2.000000,0.000000,-13.000000
1297835.772323,1.000000,-5.000000,23.000000,24.000000,-5.000000,-2.000000,1.000000,7.000000
1297835.773981,2.000000,-26.000000,-26.000000,14.000000,-3.000000,-2.000000,9.000000,0.000000
1297835.774002,-9.000000,-27.000000,20.000000,-17.000000,3.000000,-2.000000,-12.000000,-10.000000
1297835.780615,26.000000,-5.000000,-21.000000,-11.000000,-4.000000,6.000000,5.000000,10.000000
1297835.780657,-72.000000,29.000000,13.000000,35.000000,0.000000,0.000000,0.000000,-1.000000
1297835.809696,-7.000000,-29.000000,-19.000000,14.000000,-2.000000,-1.000000,7.000000,8.000000
1297835.809706,15.000000,-11.000000,12.000000,21.000000,4.000000,0.000000,-11.000000,-7.000000
1297835.818117,10.000000,-6.000000,-12.000000,-74.000000,-4.000000,-2.000000,2.000000,3.000000
1297835.818158,-30.000000,9.000000,13.000000,-1.000000,-2.000000,-5.000000,-2.000000,-8.000000
1297835.832341,1.000000,14.000000,18.000000,35.000000,-6.000000,-2.000000,4.000000,1.000000
1297835.832363,-11.000000,-14.000000,-25.000000,-21.000000,-4.000000,-4.000000,-8.000000,-9.000000
1297835.847133,39.000000,43.000000,13.000000,-11.000000,9.000000,1.000000,-6.000000,8.000000
1297835.847144,-40.000000,-2.000000,15.000000,8.000000,-2.000000,7.000000,7.000000,-14.000000
1297835.848201,12.000000,3.000000,-8.000000,-12.000000,-7.000000,2.000000,9.000000,7.000000
1297835.848210,19.000000,1.000000,1.000000,30.000000,-1.000000,3.000000,-5.000000,-4.000000
1297835.848858,29.000000,-1.000000,1.000000,-3.000000,2.000000,-1.000000,-4.000000,1.000000
1297835.848875,0.000000,-8.000000,-16.000000,-9.000000,7.000000,3.000000,1.000000,-6.000000
1297835.850318,-42.000000,20.000000,6.000000,13.000000,2.000000,-1.000000,6.000000,-3.000000
1297835.850327,-2.000000,13.000000,8.000000,44.000000,-2.000000,-3.000000,-6.000000,-2.000000
1297835.854642,-10.000000,1.000000,-1.000000,-60.000000,-5.000000,0.000000,1.000000,-1.000000
1297835.854658,28.000000,53.000000,15.000000,17.000000,11.000000,7.000000,6.000000,2.000000
1297835.870595,-71.000000,-128.000000,-44.000000,-2.000000,-12.000000,-6.000000,-3.000000,-5.000000
1297835.870635,-1.000000,7.000000,15.000000,22.000000,3.000000,-5.000000,-13.000000,-14.000000
1297835.892219,31.000000,22.000000,14.000000,23.000000,-2.000000,2.000000,5.000000,11.000000
1297835.892239,13.000000,8.000000,2.000000,32.000000,5.000000,7.000000,5.000000,3.000000
1297835.893408,-43.000000,-29.000000,-48.000000,-47.000000,-10.000000,-7.000000,-3.000000,-5.000000
1297835.893424,28.000000,28.000000,-1.000000,0.000000,-9.000000,1.000000,-4.000000,-4.000000
1297835.899568,-15.000000,8.000000,29.000000,-9.000000,4.000000,4.000000,8.000000,9.000000
1297835.899577,34.000000,0.000000,10.000000,58.000000,3.000000,-5.000000,-5.000000,-3.000000
1297835.929979,-28.000000,-38.000000,4.000000,-6.000000,-10.000000,-1.000000,-3.000000,-5.000000
1297835.929990,-18.000000,-31.000000,-39.000000,-42.000000,-9.000000,-3.000000,-4.000000,-7.000000
1297835.937149,20.000000,32.000000,7.000000,16.000000,4.000000,-4.000000,4.000000,11.000000
1297835.937162,-1.000000,-4.000000,8.000000,34.000000,-1.000000,-6.000000,-10.000000,-9.000000
1297835.968585,-19.000000,14.000000,9.000000,-20.000000,5.000000,3.000000,1.000000,-4.000000
1297835.968617,-2.000000,-5.000000,-5.000000,14.000000,6.000000,0.000000,-1.000000,2.000000
1297835.968802,-10.000000,2.000000,12.000000,20.000000,2.000000,5.000000,2.000000,-3.000000
1297835.968851,-4.000000,-31.000000,-18.000000,-35.000000,-9.000000,1.000000,2.000000,-4.000000
1297835.970122,-14.000000,5.000000,18.000000,-1.000000,-1.000000,-5.000000,0.000000,3.000000
1297835.970162,-2.000000,106.000000,9.000000,18.000000,1.000000,1.000000,-5.000000,-3.000000
1297835.970846,-13.000000,4.000000,-31.000000,0.000000,-3.000000,4.000000,5.000000,1.000000
1297835.970883,9.000000,11.000000,11.000000,1.000000,4.000000,2.000000,4.000000,0.000000
1297835.972234,6.000000,-1.000000,-12.000000,-51.000000,-13.000000,-4.000000,2.000000,3.000000
1297835.972264,11.000000,2.000000,5.000000,-25.000000,2.000000,3.000000,6.000000,3.000000
1297835.975729,20.000000,14.000000,-17.000000,14.000000,6.000000,-3.000000,-8.000000,-1.000000
1297835.975772,-23.000000,-4.000000,33.000000,43.000000,1.000000,-1.000000,-1.000000,-3.000000
1297836.014027,3.000000,-71.000000,-5.000000,-75.000000,-5.000000,0.000000,-5.000000,-3.000000
1297836.014251,13.000000,76.000000,-3.000000,13.000000,2.000000,3.000000,8.000000,6.000000
1297836.014585,7.000000,10.000000,15.000000,51.000000,-3.000000,4.000000,10.000000,7.000000
1297836.014604,1.000000,7.000000,9.000000,11.000000,0.000000,-6.000000,-5.000000,-5.000000
1297836.015326,-1.000000,-58.000000,16.000000,-3.000000,11.000000,-1.000000,-5.000000,-1.000000
1297836.015342,18.000000,-11.000000,-24.000000,21.000000,-9.000000,-7.000000,-4.000000,-4.000000
1297836.020584,-4.000000,0.000000,9.000000,51.000000,12.000000,4.000000,4.000000,7.000000
1297836.020632,-16.000000,-17.000000,2.000000,7.000000,2.000000,0.000000,-3.000000,-4.000000
1297836.050470,1.000000,-1.000000,0.000000,-24.000000,7.000000,8.000000,7.000000,7.000000
1297836.050513,-1.000000,-2.000000,12.000000,37.000000,-3.000000,-1.000000,7.000000,6.000000
1297836.058258,-23.000000,-20.000000,-22.000000,-73.000000,-13.000000,-10.000000,-20.000000,-18.000000
1297836.058295,18.000000,1.000000,7.000000,12.000000,5.000000,-1.000000,4.000000,15.000000
1297836.089262,-60.000000,-18.000000,-7.000000,3.000000,0.000000,-2.000000,3.000000,-8.000000
1297836.089558,3.000000,8.000000,-20.000000,-67.000000,-25.000000,-13.000000,-22.000000,-15.000000
1297836.090087,17.000000,-29.000000,-1.000000,10.000000,2.000000,0.000000,-2.000000,3.000000
1297836.090106,-19.000000,-19.000000,6.000000,6.000000,3.000000,1.000000,3.000000,7.000000
1297836.091298,18.000000,7.000000,6.000000,31.000000,2.000000,-1.000000,3.000000,5.000000
1297836.091328,-20.000000,111.000000,-1.000000,-27.000000,-4.000000,0.000000,1.000000,-5.000000
1297836.091496,40.000000,120.000000,15.000000,32.000000,5.000000,7.000000,11.000000,13.000000
1297836.091514,-61.000000,-13.000000,-12.000000,-60.000000,-12.000000,-3.000000,-4.000000,-9.000000
1297836.095252,0.000000,-13.000000,17.000000,86.000000,8.000000,0.000000,6.000000,1.000000
1297836.095274,-34.000000,-4.000000,-37.000000,-85.000000,-26.000000,-10.000000,-25.000000,-17.000000
1297836.125747,-10.000000,-9.000000,-9.000000,25.000000,6.000000,2.000000,5.000000,4.000000
1297836.125772,-7.000000,-40.000000,5.000000,57.000000,5.000000,1.000000,6.000000,0.000000
1297836.126627,-13.000000,6.000000,-14.000000,-73.000000,-13.000000,-3.000000,-5.000000,-10.000000
1297836.126658,5.000000,10.000000,31.000000,28.000000,4.000000,-4.000000,5.000000,14.000000
1297836.127636,-23.000000,-81.000000,-28.000000,-44.000000,-12.000000,-7.000000,-15.000000,-31.000000
1297836.127679,-16.000000,-110.000000,-1.000000,22.000000,4.000000,-4.000000,-5.000000,-5.000000
1297836.140711,-24.000000,-4.000000,6.000000,23.000000,2.000000,-1.000000,3.000000,-1.000000
1297836.140764,23.000000,38.000000,3.000000,15.000000,2.000000,1.000000,6.000000,7.000000
1297836.162968,-10.000000,12.000000,27.000000,27.000000,2.000000,6.000000,11.000000,11.000000
1297836.163010,22.000000,-10.000000,-16.000000,-17.000000,-2.000000,-2.000000,-1.000000,-4.000000
1297836.170289,-27.000000,-7.000000,-5.000000,-2.000000,-1.000000,-8.000000,-16.000000,-14.000000
1297836.170332,23.000000,17.000000,8.000000,11.000000,4.000000,-1.000000,7.000000,5.000000
1297836.185502,8.000000,8.000000,10.000000,8.000000,0.000000,2.000000,-4.000000,0.000000
1297836.185544,3.000000,8.000000,6.000000,-26.000000,-12.000000,-2.000000,0.000000,1.000000
1297836.208441,-21.000000,4.000000,3.000000,-24.000000,4.000000,4.000000,7.000000,2.000000
1297836.208781,3.000000,-20.000000,-30.000000,40.000000,-5.000000,-3.000000,3.000000,-3.000000
1297836.209854,-1.000000,59.000000,5.000000,-54.000000,3.000000,-4.000000,-6.000000,4.000000
1297836.209899,-14.000000,29.000000,31.000000,18.000000,2.000000,-6.000000,-13.000000,-9.000000
1297836.210619,-6.000000,-116.000000,-19.000000,-19.000000,-13.000000,-6.000000,-4.000000,-10.000000
1297836.210650,-13.000000,-115.000000,23.000000,-8.000000,-5.000000,-2.000000,2.000000,-1.000000
1297836.211589,7.000000,-5.000000,-20.000000,35.000000,2.000000,0.000000,0.000000,4.000000
1297836.211610,-26.000000,-8.000000,5.000000,0.000000,0.000000,7.000000,6.000000,3.000000
1297836.215489,-8.000000,-11.000000,18.000000,47.000000,-3.000000,-3.000000,2.000000,2.000000
1297836.215533,8.000000,10.000000,-20.000000,-52.000000,-6.000000,-5.000000,-11.000000,-13.000000
1297836.237997,19.000000,96.000000,13.000000,-8.000000,2.000000,-3.000000,-6.000000,5.000000
1297836.238021,16.000000,13.000000,12.000000,23.000000,7.000000,5.000000,9.000000,7.000000
1297836.245407,-2.000000,7.000000,-12.000000,33.000000,1.000000,2.000000,2.000000,1.000000
1297836.245451,23.000000,-2.000000,-13.000000,-30.000000,-2.000000,3.000000,-3.000000,-6.000000
1297836.253603,-63.000000,-20.000000,-3.000000,-19.000000,-3.000000,-7.000000,-14.000000,-14.000000
1297836.253648,9.000000,3.000000,-11.000000,-9.000000,3.000000,-1.000000,-3.000000,0.000000
1297836.260701,18.000000,17.000000,-5.000000,15.000000,4.000000,9.000000,21.000000,16.000000
1297836.260789,23.000000,37.000000,12.000000,62.000000,12.000000,4.000000,11.000000,19.000000
1297836.297901,-77.000000,-66.000000,-48.000000,-128.000000,-43.000000,-26.000000,-48.000000,-50.000000
1297836.297923,15.000000,59.000000,17.000000,39.000000,10.000000,1.000000,5.000000,4.000000
1297836.328039,26.000000,6.000000,-8.000000,-22.000000,3.000000,5.000000,11.000000,12.000000
1297836.328079,-27.000000,-14.000000,-21.000000,-16.000000,-3.000000,-6.000000,-3.000000,-1.000000
1297836.329928,8.000000,123.000000,25.000000,-14.000000,3.000000,4.000000,5.000000,5.000000
1297836.329972,12.000000,10.000000,-8.000000,-20.000000,-1.000000,3.000000,0.000000,2.000000
1297836.330243,-12.000000,34.000000,2.000000,2.000000,-4.000000,0.000000,2.000000,0.000000
1297836.330477,7.000000,-1.000000,11.000000,6.000000,0.000000,0.000000,-1.000000,5.000000
1297836.331667,4.000000,4.000000,7.000000,18.000000,1.000000,-1.000000,1.000000,3.000000
1297836.331712,12.000000,-2.000000,-1.000000,-16.000000,2.000000,2.000000,2.000000,1.000000
1297836.332156,-40.000000,-5.000000,2.000000,-21.000000,-3.000000,-6.000000,-7.000000,-5.000000
1297836.332196,5.000000,11.000000,-6.000000,7.000000,0.000000,-3.000000,-6.000000,-2.000000
1297836.335355,-43.000000,25.000000,-10.000000,-75.000000,-6.000000,-6.000000,-10.000000,-24.000000
1297836.335404,-20.000000,-15.000000,-15.000000,-55.000000,10.000000,-4.000000,-22.000000,-20.000000
1297836.351514,70.000000,127.000000,47.000000,72.000000,8.000000,8.000000,28.000000,42.000000
1297836.351550,-53.000000,-60.000000,-9.000000,-8.000000,-7.000000,-7.000000,-16.000000,-18.000000
1297836.365486,3.000000,3.000000,-40.000000,-53.000000,-8.000000,-16.000000,-22.000000,-20.000000
1297836.365669,10.000000,-21.000000,15.000000,64.000000,11.000000,6.000000,8.000000,18.000000
1297836.366874,10.000000,-6.000000,-15.000000,-25.000000,-7.000000,4.000000,15.000000,15.000000
1297836.366909,5.000000,2.000000,4.000000,-72.000000,-10.000000,5.000000,8.000000,0.000000
1297836.388435,9.000000,-2.000000,6.000000,9.000000,-1.000000,-6.000000,-12.000000,-2.000000
1297836.388495,-17.000000,-28.000000,12.000000,46.000000,5.000000,7.000000,8.000000,4.000000
1297836.411386,-8.000000,-20.000000,-18.000000,89.000000,6.000000,0.000000,3.000000,4.000000
1297836.411419,-4.000000,2.000000,-47.000000,-128.000000,-27.000000,-16.000000,-20.000000,-31.000000
1297836.418783,13.000000,127.000000,27.000000,-31.000000,5.000000,-3.000000,-15.000000,-8.000000
1297836.418825,8.000000,44.000000,19.000000,89.000000,8.000000,1.000000,6.000000,9.000000
1297836.448685,-39.000000,-24.000000,-12.000000,44.000000,-1.000000,0.000000,2.000000,2.000000
1297836.448842,14.000000,-24.000000,-8.000000,-9.000000,-3.000000,-2.000000,3.000000,-1.000000
1297836.456320,-12.000000,-7.000000,2.000000,-21.000000,-2.000000,0.000000,4.000000,0.000000
1297836.456384,16.000000,-39.000000,-9.000000,18.000000,5.000000,8.000000,12.000000,12.000000
1297836.479116,-8.000000,17.000000,20.000000,17.000000,1.000000,1.000000,10.000000,7.000000
1297836.479186,16.000000,-21.000000,-4.000000,-22.000000,0.000000,-9.000000,-25.000000,-15.000000
1297836.480378,-18.000000,-9.000000,-19.000000,41.000000,-4.000000,-1.000000,-3.000000,-20.000000
1297836.480503,45.000000,-42.000000,7.000000,-60.000000,2.000000,3.000000,8.000000,12.000000
1297836.486338,-18.000000,-42.000000,-14.000000,14.000000,4.000000,0.000000,5.000000,-3.000000
1297836.486411,-58.000000,-8.000000,16.000000,32.000000,8.000000,3.000000,-5.000000,-6.000000
1297836.493938,30.000000,16.000000,1.000000,2.000000,2.000000,2.000000,7.000000,12.000000
1297836.494133,-38.000000,-128.000000,-17.000000,18.000000,-2.000000,-2.000000,1.000000,0.000000
1297836.500897,-4.000000,10.000000,16.000000,24.000000,4.000000,3.000000,10.000000,5.000000
1297836.500950,-54.000000,-12.000000,-25.000000,-55.000000,-22.000000,-10.000000,-23.000000,-25.000000
1297836.531086,8.000000,-6.000000,-12.000000,-4.000000,11.000000,-5.000000,-7.000000,-2.000000
1297836.531252,16.000000,-3.000000,5.000000,35.000000,7.000000,2.000000,5.000000,5.000000
1297836.569330,48.000000,21.000000,27.000000,8.000000,9.000000,8.000000,14.000000,20.000000
1297836.569394,-83.000000,-54.000000,-29.000000,4.000000,-16.000000,-7.000000,1.000000,-25.000000
1297836.570513,-28.000000,-128.000000,-36.000000,-58.000000,-7.000000,-8.000000,-11.000000,-14.000000
1297836.571085,18.000000,-12.000000,-28.000000,-63.000000,-7.000000,-4.000000,-4.000000,8.000000
1297836.571822,12.000000,-3.000000,8.000000,4.000000,-1.000000,0.000000,-5.000000,-9.000000
1297836.571877,-4.000000,-22.000000,6.000000,2.000000,-1.000000,-1.000000,0.000000,5.000000
1297836.573266,-8.000000,13.000000,-11.000000,-85.000000,-11.000000,-3.000000,-4.000000,-7.000000
1297836.573407,1.000000,5.000000,10.000000,24.000000,10.000000,2.000000,0.000000,-1.000000
1297836.573909,0.000000,-20.000000,0.000000,10.000000,-2.000000,-2.000000,0.000000,0.000000
1297836.573954,-6.000000,73.000000,6.000000,16.000000,7.000000,9.000000,5.000000,5.000000
1297836.583550,17.000000,-13.000000,-10.000000,8.000000,3.000000,-2.000000,4.000000,2.000000
1297836.583601,-20.000000,6.000000,-5.000000,10.000000,-10.000000,-5.000000,-9.000000,-9.000000
1297836.608134,-9.000000,9.000000,-37.000000,-63.000000,-2.000000,-2.000000,5.000000,-1.000000
1297836.608368,6.000000,-2.000000,0.000000,8.000000,-2.000000,-5.000000,-8.000000,-7.000000
1297836.608867,6.000000,95.000000,33.000000,28.000000,1.000000,3.000000,8.000000,7.000000
1297836.608925,9.000000,11.000000,7.000000,11.000000,4.000000,3.000000,13.000000,9.000000
1297836.613565,-27.000000,-32.000000,-62.000000,-100.000000,-8.000000,-7.000000,-19.000000,-23.000000
1297836.613594,-8.000000,-14.000000,5.000000,24.000000,-2.000000,-7.000000,-4.000000,-5.000000
1297836.629072,3.000000,2.000000,-3.000000,9.000000,7.000000,5.000000,8.000000,4.000000
1297836.629102,9.000000,15.000000,5.000000,10.000000,-1.000000,0.000000,3.000000,3.000000
1297836.651368,36.000000,22.000000,27.000000,41.000000,3.000000,4.000000,12.000000,14.000000
1297836.651430,-12.000000,-25.000000,-43.000000,-44.000000,-12.000000,-3.000000,-1.000000,-3.000000
1297836.658695,-37.000000,-8.000000,14.000000,-21.000000,-7.000000,-5.000000,-15.000000,-18.000000
1297836.658727,10.000000,100.000000,-3.000000,-10.000000,7.000000,0.000000,0.000000,3.000000
1297836.681911,27.000000,28.000000,11.000000,6.000000,6.000000,6.000000,9.000000,12.000000
1297836.682296,38.000000,24.000000,19.000000,94.000000,1.000000,7.000000,21.000000,27.000000
1297836.683471,-22.000000,-21.000000,-42.000000,-95.000000,-2.000000,-9.000000,-33.000000,-53.000000
1297836.683530,-52.000000,-17.000000,2.000000,-1.000000,8.000000,-6.000000,-15.000000,-13.000000
1297836.684231,12.000000,-2.000000,1.000000,30.000000,0.000000,1.000000,6.000000,9.000000
1297836.684304,39.000000,17.000000,26.000000,21.000000,-2.000000,3.000000,9.000000,14.000000
1297836.685347,-24.000000,15.000000,23.000000,30.000000,-2.000000,3.000000,6.000000,5.000000
1297836.685406,1.000000,61.000000,-9.000000,-33.000000,-8.000000,-6.000000,-4.000000,-8.000000
1297836.689863,2.000000,-5.000000,0.000000,-9.000000,5.000000,0.000000,-1.000000,4.000000
1297836.689922,0.000000,11.000000,19.000000,12.000000,5.000000,2.000000,3.000000,8.000000
1297836.703399,-4.000000,-88.000000,-10.000000,69.000000,-3.000000,-4.000000,1.000000,0.000000
1297836.703425,-28.000000,-9.000000,-12.000000,-128.000000,-16.000000,-6.000000,-7.000000,-12.000000
1297836.727242,-16.000000,-1.000000,2.000000,29.000000,7.000000,1.000000,0.000000,-2.000000
1297836.727583,-1.000000,-76.000000,-55.000000,-10.000000,-7.000000,-6.000000,-9.000000,-10.000000
1297836.728435,28.000000,112.000000,14.000000,47.000000,5.000000,7.000000,12.000000,20.000000
1297836.728485,1.000000,10.000000,1.000000,-32.000000,-10.000000,-1.000000,10.000000,6.000000
1297836.733305,-62.000000,-54.000000,-13.000000,-5.000000,-7.000000,-13.000000,-37.000000,-34.000000
1297836.733369,3.000000,-8.000000,7.000000,-17.000000,7.000000,-4.000000,-10.000000,-26.000000
1297836.741184,-5.000000,11.000000,3.000000,-8.000000,-7.000000,-1.000000,-2.000000,4.000000
1297836.741241,11.000000,-11.000000,-8.000000,-25.000000,6.000000,1.000000,2.000000,6.000000
1297836.771322,9.000000,26.000000,25.000000,14.000000,2.000000,-2.000000,6.000000,9.000000
1297836.771383,5.000000,10.000000,1.000000,20.000000,5.000000,6.000000,5.000000,7.000000
1297836.778741,5.000000,-11.000000,-10.000000,27.000000,-1.000000,0.000000,1.000000,3.000000
1297836.779132,20.000000,13.000000,24.000000,4.000000,-4.000000,-2.000000,2.000000,1.000000
1297836.781488,-70.000000,-10.000000,-23.000000,-67.000000,-16.000000,-5.000000,0.000000,-8.000000
1297836.781529,20.000000,4.000000,12.000000,32.000000,5.000000,-5.000000,-8.000000,-5.000000
1297836.781929,34.000000,106.000000,15.000000,-6.000000,2.000000,0.000000,5.000000,6.000000
1297836.781980,23.000000,10.000000,6.000000,5.000000,0.000000,6.000000,13.000000,16.000000
1297836.795120,-81.000000,-81.000000,-7.000000,34.000000,6.000000,2.000000,-6.000000,-16.000000
1297836.795196,1.000000,0.000000,41.000000,-45.000000,-7.000000,-10.000000,-20.000000,-17.000000
1297836.801160,14.000000,4.000000,-20.000000,11.000000,0.000000,-1.000000,-6.000000,3.000000
1297836.801219,-1.000000,-13.000000,0.000000,14.000000,8.000000,1.000000,5.000000,8.000000
1297836.809320,3.000000,14.000000,31.000000,-5.000000,-2.000000,3.000000,11.000000,11.000000
1297836.809376,7.000000,4.000000,4.000000,8.000000,-6.000000,-2.000000,-2.000000,-3.000000
1297836.831523,8.000000,-15.000000,-16.000000,1.000000,-6.000000,-4.000000,-6.000000,-5.000000
1297836.831578,-7.000000,18.000000,24.000000,24.000000,18.000000,2.000000,0.000000,-2.000000
1297836.846155,4.000000,0.000000,7.000000,30.000000,-4.000000,3.000000,8.000000,13.000000
1297836.846441,-25.000000,3.000000,-14.000000,-86.000000,-9.000000,-1.000000,-9.000000,-26.000000
1297836.847347,6.000000,23.000000,5.000000,-65.000000,-5.000000,-6.000000,-11.000000,-3.000000
1297836.847375,-6.000000,-10.000000,-15.000000,13.000000,-2.000000,-1.000000,6.000000,4.000000
1297836.853346,-31.000000,69.000000,40.000000,22.000000,-1.000000,-1.000000,1.000000,1.000000
1297836.853409,16.000000,37.000000,23.000000,18.000000,-5.000000,-4.000000,-10.000000,-9.000000
1297836.868361,10.000000,4.000000,19.000000,-14.000000,3.000000,-1.000000,4.000000,0.000000
1297836.868417,3.000000,-3.000000,-7.000000,13.000000,6.000000,4.000000,12.000000,14.000000
1297836.890839,12.000000,-17.000000,-12.000000,10.000000,0.000000,2.000000,-1.000000,-3.000000
1297836.890899,-9.000000,-2.000000,13.000000,3.000000,-2.000000,-3.000000,-10.000000,-7.000000
1297836.921224,-19.000000,1.000000,-3.000000,-3.000000,1.000000,2.000000,3.000000,0.000000
1297836.921277,13.000000,-2.000000,-1.000000,26.000000,3.000000,-1.000000,2.000000,1.000000
1297836.923222,12.000000,-79.000000,-5.000000,-8.000000,-2.000000,-3.000000,-1.000000,3.000000
1297836.923652,3.000000,4.000000,-7.000000,15.000000,-4.000000,-5.000000,-3.000000,-6.000000
1297836.924260,-8.000000,-45.000000,6.000000,5.000000,-7.000000,1.000000,-4.000000,-6.000000
1297836.924313,0.000000,0.000000,-11.000000,-25.000000,5.000000,4.000000,12.000000,22.000000
1297836.925277,4.000000,-12.000000,10.000000,-5.000000,-8.000000,-7.000000,-15.000000,-45.000000
1297836.925301,-54.000000,-6.000000,-4.000000,-8.000000,0.000000,-7.000000,-16.000000,-13.000000
1297836.925793,11.000000,-7.000000,-12.000000,4.000000,10.000000,3.000000,3.000000,11.000000
1297836.925850,2.000000,-22.000000,2.000000,14.000000,1.000000,5.000000,9.000000,12.000000
1297836.928934,23.000000,127.000000,32.000000,52.000000,-2.000000,2.000000,11.000000,11.000000
1297836.928988,-7.000000,10.000000,-26.000000,-128.000000,-10.000000,-5.000000,-6.000000,-9.000000
1297836.943793,6.000000,-13.000000,30.000000,6.000000,-3.000000,-5.000000,-5.000000,-3.000000
1297836.943939,4.000000,-8.000000,-23.000000,8.000000,2.000000,4.000000,9.000000,8.000000
1297836.958835,6.000000,-24.000000,-1.000000,45.000000,7.000000,1.000000,4.000000,1.000000
1297836.958960,-17.000000,-101.000000,-4.000000,-12.000000,-13.000000,-10.000000,-8.000000,-10.000000
1297836.959448,-9.000000,-24.000000,4.000000,-40.000000,-1.000000,-4.000000,-6.000000,5.000000
1297836.959472,17.000000,10.000000,1.000000,5.000000,6.000000,2.000000,9.000000,13.000000
1297837.003334,15.000000,-10.000000,0.000000,6.000000,-6.000000,-1.000000,-17.000000,-26.000000
1297837.003393,-14.000000,0.000000,6.000000,-11.000000,-12.000000,-1.000000,0.000000,1.000000
1297837.010995,-9.000000,-93.000000,-7.000000,-18.000000,-1.000000,-4.000000,-11.000000,-11.000000
1297837.011069,-3.000000,-2.000000,-9.000000,3.000000,1.000000,3.000000,3.000000,8.000000
1297837.033560,-34.000000,-40.000000,-11.000000,-25.000000,0.000000,-2.000000,7.000000,1.000000
1297837.033854,-10.000000,18.000000,4.000000,41.000000,3.000000,-4.000000,3.000000,1.000000
1297837.034380,-28.000000,-8.000000,12.000000,-9.000000,2.000000,5.000000,-8.000000,-7.000000
1297837.034432,4.000000,-1.000000,-3.000000,-12.000000,-2.000000,-2.000000,5.000000,4.000000
1297837.041037,3.000000,-31.000000,-12.000000,36.000000,-2.000000,0.000000,-2.000000,-3.000000
1297837.041088,17.000000,8.000000,-18.000000,19.000000,0.000000,0.000000,-4.000000,0.000000
1297837.042428,2.000000,-5.000000,22.000000,9.000000,9.000000,4.000000,5.000000,0.000000
1297837.042466,-3.000000,13.000000,10.000000,-21.000000,-4.000000,2.000000,4.000000,12.000000
1297837.043500,34.000000,10.000000,6.000000,17.000000,-1.000000,-2.000000,-10.000000,-27.000000
1297837.043539,-26.000000,5.000000,6.000000,3.000000,-5.000000,0.000000,-3.000000,-1.000000
1297837.044296,11.000000,-78.000000,-24.000000,-59.000000,-7.000000,-2.000000,3.000000,5.000000
1297837.044348,-24.000000,83.000000,11.000000,17.000000,-1.000000,-4.000000,-4.000000,0.000000
1297837.049155,10.000000,-18.000000,-12.000000,-10.000000,-9.000000,-7.000000,-3.000000,-2.000000
1297837.049208,-4.000000,5.000000,16.000000,23.000000,2.000000,2.000000,2.000000,5.000000
1297837.071265,18.000000,-4.000000,-9.000000,14.000000,0.000000,1.000000,0.000000,2.000000
1297837.071320,-11.000000,21.000000,26.000000,15.000000,5.000000,10.000000,8.000000,-5.000000
1297837.072878,-2.000000,-19.000000,-25.000000,-16.000000,-12.000000,-5.000000,-7.000000,-1.000000
1297837.072923,22.000000,7.000000,20.000000,6.000000,3.000000,0.000000,-11.000000,-6.000000
1297837.078312,-47.000000,-8.000000,3.000000,11.000000,-4.000000,-5.000000,-6.000000,-6.000000
1297837.078459,19.000000,18.000000,0.000000,-6.000000,3.000000,1.000000,4.000000,6.000000
1297837.093433,-25.000000,-4.000000,-25.000000,-58.000000,-12.000000,-3.000000,-8.000000,-13.000000
1297837.093461,-4.000000,18.000000,14.000000,18.000000,9.000000,0.000000,6.000000,9.000000
1297837.123250,6.000000,-3.000000,-12.000000,1.000000,3.000000,-1.000000,4.000000,4.000000
1297837.123302,6.000000,1.000000,-15.000000,16.000000,-4.000000,5.000000,5.000000,0.000000
1297837.138146,-28.000000,-115.000000,4.000000,5.000000,-6.000000,-1.000000,1.000000,2.000000
1297837.138291,2.000000,63.000000,-6.000000,-44.000000,-7.000000,-9.000000,-6.000000,-5.000000
1297837.146311,-8.000000,-19.000000,3.000000,12.000000,9.000000,1.000000,-2.000000,-6.000000
1297837.146561,8.000000,22.000000,-13.000000,20.000000,-4.000000,-2.000000,-2.000000,2.000000
1297837.161372,2.000000,3.000000,-8.000000,-54.000000,-3.000000,5.000000,10.000000,10.000000
1297837.161972,-8.000000,-23.000000,-2.000000,-58.000000,-7.000000,-3.000000,-6.000000,-8.000000
1297837.163777,-17.000000,-2.000000,9.000000,36.000000,5.000000,-1.000000,0.000000,-9.000000
1297837.163891,21.000000,2.000000,10.000000,3.000000,0.000000,3.000000,5.000000,6.000000
1297837.164442,-10.000000,-6.000000,-21.000000,2.000000,-6.000000,-2.000000,-1.000000,-1.000000
1297837.164497,-9.000000,53.000000,2.000000,-13.000000,1.000000,-2.000000,-16.000000,-8.000000
1297837.164898,-33.000000,-12.000000,1.000000,-13.000000,-12.000000,-8.000000,-17.000000,-12.000000
1297837.164921,41.000000,-15.000000,-13.000000,31.000000,2.000000,7.000000,11.000000,10.000000
1297837.169355,-40.000000,11.000000,15.000000,-24.000000,6.000000,5.000000,5.000000,4.000000
1297837.169378,37.000000,11.000000,-1.000000,32.000000,-5.000000,-2.000000,-3.000000,0.000000
1297837.183841,-23.000000,-28.000000,-15.000000,-73.000000,-3.000000,-4.000000,-7.000000,-9.000000
1297837.183891,9.000000,2.000000,6.000000,15.000000,11.000000,-2.000000,5.000000,0.000000
1297837.199439,7.000000,-22.000000,-7.000000,27.000000,-4.000000,-1.000000,4.000000,3.000000
1297837.199768,21.000000,92.000000,27.000000,7.000000,3.000000,1.000000,-3.000000,5.000000
1297837.200260,-3.000000,13.000000,13.000000,41.000000,4.000000,8.000000,15.000000,13.000000
1297837.200308,5.000000,-16.000000,-51.000000,-62.000000,-9.000000,-7.000000,-10.000000,-8.000000
1297837.221071,-23.000000,7.000000,4.000000,0.000000,5.000000,-2.000000,-5.000000,-7.000000
1297837.221123,-19.000000,-4.000000,10.000000,20.000000,-1.000000,-2.000000,7.000000,6.000000
1297837.228347,19.000000,-3.000000,4.000000,7.000000,3.000000,1.000000,-2.000000,-1.000000
1297837.228403,-17.000000,-2.000000,-11.000000,3.000000,-10.000000,-5.000000,-7.000000,-2.000000
1297837.251153,-44.000000,-5.000000,-11.000000,-34.000000,0.000000,2.000000,4.000000,2.000000
1297837.251183,40.000000,46.000000,20.000000,28.000000,12.000000,9.000000,14.000000,14.000000
1297837.280913,-26.000000,-47.000000,-19.000000,16.000000,-5.000000,-2.000000,-15.000000,-19.000000
1297837.280969,-19.000000,-24.000000,-9.000000,-43.000000,-4.000000,-10.000000,-6.000000,-7.000000
1297837.295630,-4.000000,9.000000,-4.000000,28.000000,7.000000,7.000000,11.000000,12.000000
1297837.295658,-17.000000,-35.000000,35.000000,43.000000,1.000000,6.000000,7.000000,7.000000
1297837.311532,5.000000,6.000000,-13.000000,25.000000,5.000000,-5.000000,-14.000000,-13.000000
1297837.311596,31.000000,2.000000,3.000000,-7.000000,-6.000000,-3.000000,-10.000000,-11.000000
1297837.312615,-4.000000,-2.000000,-8.000000,-31.000000,-5.000000,0.000000,2.000000,4.000000
1297837.312662,-1.000000,-61.000000,-11.000000,17.000000,2.000000,-2.000000,2.000000,13.000000
1297837.318668,-25.000000,-6.000000,14.000000,22.000000,-10.000000,0.000000,1.000000,-18.000000
1297837.318698,-1.000000,-14.000000,-25.000000,-86.000000,-14.000000,-7.000000,-6.000000,-10.000000
1297837.319445,23.000000,-46.000000,6.000000,64.000000,1.000000,-1.000000,-1.000000,-2.000000
1297837.319562,-32.000000,-41.000000,-52.000000,-76.000000,-19.000000,-6.000000,1.000000,-6.000000
1297837.325868,5.000000,-1.000000,-4.000000,11.000000,2.000000,-2.000000,2.000000,4.000000
1297837.325926,3.000000,37.000000,9.000000,7.000000,2.000000,0.000000,0.000000,4.000000
1297837.333570,5.000000,-6.000000,2.000000,20.000000,-9.000000,0.000000,3.000000,-1.000000
1297837.333618,-14.000000,3.000000,2.000000,-25.000000,3.000000,-2.000000,-14.000000,-10.000000
1297837.363154,12.000000,41.000000,10.000000,-1.000000,1.000000,-2.000000,1.000000,3.000000
1297837.363181,0.000000,-10.000000,-1.000000,18.000000,-4.000000,0.000000,3.000000,8.000000
1297837.370997,0.000000,8.000000,-2.000000,24.000000,8.000000,0.000000,9.000000,5.000000
1297837.371046,-12.000000,-7.000000,8.000000,-55.000000,-12.000000,-10.000000,-23.000000,-16.000000
1297837.402537,-7.000000,13.000000,-9.000000,37.000000,-2.000000,-5.000000,-13.000000,-19.000000
1297837.402581,32.000000,90.000000,28.000000,32.000000,7.000000,3.000000,10.000000,15.000000
1297837.403346,-16.000000,-14.000000,-33.000000,-27.000000,-7.000000,5.000000,8.000000,3.000000
1297837.403406,-11.000000,-19.000000,-21.000000,-22.000000,-2.000000,-3.000000,-4.000000,1.000000
1297837.405388,3.000000,11.000000,8.000000,-26.000000,-1.000000,3.000000,4.000000,2.000000
1297837.405439,-12.000000,0.000000,2.000000,16.000000,-1.000000,0.000000,-10.000000,-13.000000
1297837.405722,13.000000,-12.000000,7.000000,-27.000000,2.000000,-1.000000,1.000000,0.000000
1297837.405778,0.000000,-4.000000,-12.000000,35.000000,-7.000000,0.000000,-7.000000,-2.000000
1297837.409069,-17.000000,-20.000000,-33.000000,13.000000,-6.000000,-10.000000,-19.000000,-13.000000
1297837.409122,8.000000,-3.000000,6.000000,-39.000000,-7.000000,1.000000,0.000000,2.000000
1297837.438651,-23.000000,-8.000000,-4.000000,-15.000000,0.000000,2.000000,5.000000,6.000000
1297837.438700,4.000000,8.000000,9.000000,27.000000,5.000000,3.000000,1.000000,-3.000000
1297837.461115,21.000000,9.000000,11.000000,35.000000,9.000000,1.000000,-5.000000,-1.000000
1297837.461171,-6.000000,-7.000000,-1.000000,-12.000000,1.000000,2.000000,5.000000,4.000000
1297837.476048,8.000000,3.000000,4.000000,-5.000000,-3.000000,-1.000000,4.000000,4.000000
1297837.476076,-30.000000,-96.000000,-11.000000,24.000000,5.000000,-3.000000,-7.000000,-6.000000
1297837.490798,-21.000000,0.000000,18.000000,0.000000,-4.000000,0.000000,-3.000000,-8.000000
1297837.490948,-15.000000,-52.000000,-9.000000,9.000000,-6.000000,-5.000000,-7.000000,-6.000000
1297837.498989,-14.000000,-64.000000,-5.000000,-20.000000,2.000000,-3.000000,-5.000000,-3.000000
1297837.499363,27.000000,39.000000,2.000000,3.000000,7.000000,-3.000000,9.000000,16.000000
1297837.500113,-1.000000,-5.000000,4.000000,-2.000000,-8.000000,2.000000,-2.000000,-9.000000
1297837.500159,5.000000,-3.000000,-24.000000,-11.000000,0.000000,-2.000000,-3.000000,-1.000000
1297837.513851,11.000000,42.000000,10.000000,26.000000,6.000000,1.000000,4.000000,1.000000
1297837.513901,5.000000,-5.000000,-8.000000,20.000000,-3.000000,-2.000000,0.000000,7.000000
1297837.514992,9.000000,-8.000000,-24.000000,-31.000000,1.000000,4.000000,1.000000,-4.000000
1297837.515406,-1.000000,3.000000,15.000000,11.000000,2.000000,-6.000000,-13.000000,-7.000000
1297837.516085,3.000000,16.000000,10.000000,-3.000000,1.000000,4.000000,10.000000,8.000000
1297837.516111,17.000000,0.000000,-11.000000,20.000000,-9.000000,1.000000,5.000000,4.000000
1297837.517397,-37.000000,-16.000000,-19.000000,-64.000000,-14.000000,-4.000000,-2.000000,-12.000000
1297837.517423,2.000000,2.000000,-10.000000,-13.000000,8.000000,3.000000,-4.000000,-1.000000
1297837.520766,8.000000,10.000000,8.000000,20.000000,1.000000,-7.000000,-10.000000,-2.000000
1297837.520821,7.000000,5.000000,2.000000,-1.000000,2.000000,2.000000,3.000000,1.000000
1297837.550827,20.000000,-26.000000,-14.000000,31.000000,1.000000,3.000000,9.000000,4.000000
1297837.550892,-24.000000,-14.000000,3.000000,-36.000000,-5.000000,-2.000000,2.000000,7.000000
1297837.558318,-7.000000,-35.000000,-22.000000,32.000000,-3.000000,-7.000000,-3.000000,-27.000000
1297837.558347,-2.000000,57.000000,26.000000,30.000000,-9.000000,-4.000000,-4.000000,1.000000
1297837.573287,-21.000000,-114.000000,-32.000000,-45.000000,-3.000000,-3.000000,-14.000000,-16.000000
1297837.573336,-15.000000,15.000000,35.000000,42.000000,9.000000,4.000000,9.000000,5.000000
1297837.588164,3.000000,-15.000000,-41.000000,-1.000000,-7.000000,-4.000000,-10.000000,-3.000000
1297837.588187,-20.000000,-16.000000,10.000000,7.000000,6.000000,-3.000000,-3.000000,-1.000000
1297837.603321,-24.000000,-23.000000,-26.000000,-8.000000,-9.000000,0.000000,8.000000,4.000000
1297837.603381,-7.000000,-15.000000,-14.000000,-12.000000,0.000000,1.000000,-7.000000,-9.000000
1297837.612289,22.000000,-13.000000,-5.000000,3.000000,0.000000,1.000000,4.000000,1.000000
1297837.612792,-32.000000,-6.000000,-2.000000,-66.000000,-3.000000,1.000000,1.000000,-1.000000
1297837.614388,-5.000000,3.000000,4.000000,23.000000,5.000000,2.000000,4.000000,7.000000
1297837.614436,-3.000000,1.000000,1.000000,25.000000,-8.000000,-4.000000,-5.000000,0.000000
1297837.614891,18.000000,127.000000,-15.000000,-114.000000,-3.000000,3.000000,3.000000,-7.000000
1297837.614945,0.000000,-8.000000,-7.000000,6.000000,7.000000,-5.000000,-11.000000,-7.000000
1297837.615917,11.000000,43.000000,2.000000,20.000000,2.000000,-2.000000,2.000000,1.000000
1297837.615972,5.000000,3.000000,0.000000,20.000000,-5.000000,1.000000,3.000000,3.000000
1297837.634748,4.000000,-108.000000,-15.000000,-38.000000,-7.000000,0.000000,0.000000,3.000000
1297837.634813,-70.000000,-128.000000,-18.000000,51.000000,-8.000000,-5.000000,-10.000000,-21.000000
1297837.636309,-5.000000,3.000000,4.000000,25.000000,-9.000000,-7.000000,0.000000,6.000000
1297837.636368,4.000000,7.000000,-2.000000,-84.000000,-4.000000,0.000000,8.000000,6.000000
1297837.641243,23.000000,-2.000000,7.000000,5.000000,11.000000,-2.000000,0.000000,-4.000000
1297837.641370,14.000000,6.000000,14.000000,38.000000,2.000000,3.000000,-6.000000,1.000000
1297837.663172,-3.000000,-3.000000,-8.000000,-13.000000,-5.000000,-3.000000,1.000000,-7.000000
1297837.663223,-16.000000,-30.000000,-48.000000,1.000000,2.000000,-5.000000,-5.000000,-4.000000
1297837.678145,8.000000,20.000000,22.000000,12.000000,0.000000,-2.000000,7.000000,5.000000
1297837.678174,4.000000,28.000000,5.000000,19.000000,3.000000,5.000000,9.000000,14.000000
1297837.701372,2.000000,-31.000000,-2.000000,4.000000,-9.000000,-2.000000,-4.000000,1.000000
1297837.701551,-24.000000,-7.000000,2.000000,-29.000000,-14.000000,-8.000000,-14.000000,-25.000000
1297837.701966,17.000000,9.000000,1.000000,-4.000000,4.000000,2.000000,-2.000000,14.000000
1297837.702000,21.000000,6.000000,0.000000,-24.000000,5.000000,2.000000,11.000000,0.000000
1297837.723551,1.000000,4.000000,21.000000,20.000000,3.000000,0.000000,-11.000000,-4.000000
1297837.723605,6.000000,-25.000000,-26.000000,39.000000,8.000000,0.000000,0.000000,4.000000
1297837.738392,-8.000000,-2.000000,-7.000000,-62.000000,-5.000000,1.000000,6.000000,7.000000
1297837.738444,9.000000,-31.000000,-9.000000,25.000000,-2.000000,-1.000000,1.000000,2.000000
1297837.760520,-7.000000,0.000000,4.000000,13.000000,-2.000000,-3.000000,-2.000000,-5.000000
1297837.760569,6.000000,14.000000,-5.000000,15.000000,-7.000000,2.000000,4.000000,3.000000
1297837.768196,-3.000000,-98.000000,-22.000000,-20.000000,-6.000000,-4.000000,0.000000,-2.000000
1297837.768531,4.000000,-3.000000,-11.000000,-51.000000,2.000000,-4.000000,-8.000000,-3.000000
1297837.770115,-10.000000,-13.000000,2.000000,41.000000,9.000000,4.000000,3.000000,2.000000
1297837.770162,7.000000,2.000000,6.000000,-19.000000,-2.000000,2.000000,4.000000,3.000000
1297837.770672,13.000000,-2.000000,-10.000000,18.000000,4.000000,4.000000,1.000000,2.000000
1297837.770727,-1.000000,-2.000000,-2.000000,-39.000000,-12.000000,-6.000000,-3.000000,-2.000000
1297837.772071,11.000000,8.000000,7.000000,56.000000,8.000000,-3.000000,0.000000,-1.000000
1297837.772128,-20.000000,10.000000,-20.000000,-24.000000,-1.000000,2.000000,-4.000000,1.000000
1297837.791439,17.000000,-6.000000,-10.000000,4.000000,-5.000000,0.000000,0.000000,2.000000
1297837.791486,-44.000000,-22.000000,18.000000,27.000000,1.000000,3.000000,2.000000,-5.000000
1297837.792357,6.000000,-2.000000,-1.000000,-8.000000,-3.000000,1.000000,-1.000000,3.000000
1297837.792419,11.000000,-1.000000,-7.000000,4.000000,3.000000,-2.000000,5.000000,5.000000
1297837.798300,10.000000,7.000000,6.000000,44.000000,0.000000,0.000000,-1.000000,3.000000
1297837.798350,-11.000000,4.000000,-8.000000,-56.000000,-6.000000,3.000000,0.000000,-4.000000
1297837.805675,-2.000000,-8.000000,15.000000,28.000000,-3.000000,-3.000000,-9.000000,-13.000000
1297837.805725,-4.000000,6.000000,-18.000000,3.000000,5.000000,-1.000000,-4.000000,-3.000000
1297837.835749,11.000000,-5.000000,-1.000000,-16.000000,6.000000,2.000000,6.000000,5.000000
1297837.835806,-6.000000,-12.000000,-2.000000,56.000000,-2.000000,-2.000000,9.000000,13.000000
1297837.843337,-2.000000,-1.000000,17.000000,-50.000000,-10.000000,-3.000000,-8.000000,-7.000000
1297837.843399,-9.000000,1.000000,-15.000000,-18.000000,6.000000,1.000000,-4.000000,-1.000000
1297837.844974,-16.000000,-28.000000,-16.000000,-4.000000,-1.000000,3.000000,9.000000,10.000000
1297837.845011,12.000000,9.000000,0.000000,20.000000,0.000000,3.000000,13.000000,9.000000
1297837.846430,15.000000,67.000000,-5.000000,-6.000000,-5.000000,-4.000000,-11.000000,-9.000000
1297837.846489,22.000000,-5.000000,11.000000,-14.000000,-10.000000,-7.000000,-11.000000,-1.000000
1297837.865665,-37.000000,-24.000000,-31.000000,-12.000000,-3.000000,3.000000,5.000000,2.000000
1297837.865719,46.000000,5.000000,11.000000,15.000000,2.000000,3.000000,3.000000,-2.000000
1297837.873667,-4.000000,6.000000,7.000000,-9.000000,-2.000000,-3.000000,4.000000,4.000000
1297837.873889,1.000000,10.000000,-2.000000,15.000000,1.000000,-3.000000,-12.000000,-16.000000
1297837.874921,12.000000,0.000000,8.000000,2.000000,0.000000,5.000000,11.000000,12.000000
1297837.874971,-23.000000,-8.000000,-37.000000,-14.000000,1.000000,0.000000,6.000000,6.000000
1297837.880822,14.000000,7.000000,4.000000,58.000000,7.000000,-5.000000,-8.000000,-12.000000
1297837.880877,1.000000,-10.000000,-25.000000,-45.000000,-6.000000,0.000000,-6.000000,0.000000
1297837.910727,12.000000,10.000000,6.000000,-52.000000,0.000000,3.000000,10.000000,11.000000
1297837.910779,-22.000000,8.000000,-9.000000,3.000000,8.000000,-1.000000,4.000000,3.000000
1297837.918205,-1.000000,-23.000000,3.000000,-2.000000,1.000000,-4.000000,-11.000000,-10.000000
1297837.918253,-58.000000,-23.000000,1.000000,27.000000,-2.000000,-2.000000,0.000000,-3.000000
1297837.955857,3.000000,11.000000,4.000000,-6.000000,-6.000000,-2.000000,3.000000,-1.000000
1297837.955907,-6.000000,-8.000000,-1.000000,-16.000000,3.000000,0.000000,2.000000,2.000000
1297837.963295,9.000000,6.000000,0.000000,2.000000,-4.000000,-2.000000,7.000000,7.000000
1297837.963347,2.000000,7.000000,6.000000,44.000000,2.000000,-3.000000,-7.000000,-12.000000
1297837.978501,-2.000000,-11.000000,-13.000000,-14.000000,-2.000000,-5.000000,-9.000000,-6.000000
1297837.978562,4.000000,-2.000000,-3.000000,-17.000000,1.000000,2.000000,5.000000,2.000000
1297837.993172,3.000000,-18.000000,-18.000000,-30.000000,-3.000000,-6.000000,-7.000000,-11.000000
1297837.993589,8.000000,24.000000,-5.000000,30.000000,7.000000,4.000000,3.000000,3.000000
1297837.995483,12.000000,19.000000,31.000000,-3.000000,-5.000000,-4.000000,3.000000,3.000000
1297837.995824,17.000000,-10.000000,-29.000000,6.000000,-4.000000,-2.000000,-2.000000,8.000000
1297837.996091,10.000000,4.000000,-4.000000,-31.000000,1.000000,3.000000,9.000000,10.000000
1297837.996131,-20.000000,-2.000000,11.000000,23.000000,-3.000000,-2.000000,-2.000000,-8.000000
1297837.996636,-1.000000,1.000000,-7.000000,9.000000,-5.000000,0.000000,-1.000000,-2.000000
1297837.996684,-41.000000,-6.000000,4.000000,-23.000000,-5.000000,-3.000000,6.000000,-2.000000
1297837.997670,18.000000,13.000000,-5.000000,-31.000000,-10.000000,-7.000000,-1.000000,2.000000
1297837.997722,-19.000000,2.000000,7.000000,75.000000,2.000000,1.000000,3.000000,5.000000
1297838.000473,3.000000,-13.000000,-19.000000,-41.000000,11.000000,2.000000,-11.000000,-14.000000
1297838.000629,7.000000,16.000000,17.000000,17.000000,3.000000,-2.000000,-2.000000,1.000000
1297838.030458,10.000000,-4.000000,-14.000000,19.000000,-3.000000,-1.000000,0.000000,6.000000
1297838.030486,-22.000000,-9.000000,13.000000,4.000000,-6.000000,0.000000,6.000000,1.000000
1297838.038372,5.000000,-11.000000,-19.000000,8.000000,0.000000,-1.000000,-1.000000,0.000000
1297838.038424,-33.000000,0.000000,17.000000,-35.000000,-6.000000,-4.000000,-7.000000,-8.000000
1297838.068340,10.000000,5.000000,19.000000,-10.000000,-1.000000,-7.000000,-9.000000,-3.000000
1297838.068384,9.000000,17.000000,-16.000000,18.000000,-3.000000,-6.000000,-11.000000,-11.000000
1297838.070081,-1.000000,-22.000000,-5.000000,9.000000,2.000000,4.000000,7.000000,0.000000
1297838.070444,-23.000000,-106.000000,-13.000000,-13.000000,-5.000000,2.000000,7.000000,5.000000
1297838.071804,7.000000,-6.000000,-8.000000,-14.000000,-5.000000,-2.000000,-4.000000,0.000000
1297838.071860,3.000000,-8.000000,-9.000000,-6.000000,-2.000000,-1.000000,-15.000000,-9.000000
1297838.072075,-13.000000,-3.000000,0.000000,22.000000,0.000000,1.000000,-4.000000,-7.000000
1297838.072122,-16.000000,-7.000000,-9.000000,-4.000000,-1.000000,-1.000000,4.000000,3.000000
1297838.075708,4.000000,5.000000,-2.000000,-5.000000,-2.000000,0.000000,4.000000,4.000000
1297838.075760,5.000000,3.000000,-2.000000,-13.000000,5.000000,4.000000,1.000000,1.000000
1297838.083235,11.000000,7.000000,6.000000,21.000000,1.000000,-3.000000,3.000000,3.000000
1297838.083261,-13.000000,-11.000000,-7.000000,-3.000000,-5.000000,0.000000,-4.000000,-10.000000
1297838.090580,19.000000,3.000000,5.000000,-40.000000,-7.000000,-3.000000,0.000000,2.000000
1297838.090607,-23.000000,-18.000000,-63.000000,-16.000000,-4.000000,-3.000000,-7.000000,-6.000000
1297838.113218,-2.000000,7.000000,12.000000,25.000000,7.000000,9.000000,1.000000,2.000000
1297838.113685,8.000000,14.000000,8.000000,5.000000,-2.000000,1.000000,12.000000,15.000000
1297838.115260,-6.000000,-18.000000,0.000000,-62.000000,-8.000000,-7.000000,-23.000000,-33.000000
1297838.115311,1.000000,6.000000,10.000000,46.000000,9.000000,-5.000000,-13.000000,-9.000000
1297838.120914,16.000000,12.000000,4.000000,-10.000000,-7.000000,-1.000000,10.000000,11.000000
1297838.120977,36.000000,12.000000,0.000000,15.000000,3.000000,3.000000,17.000000,17.000000
1297838.151046,-76.000000,-33.000000,3.000000,-28.000000,-8.000000,-7.000000,-16.000000,-13.000000
1297838.151109,8.000000,-9.000000,-21.000000,-14.000000,-3.000000,-3.000000,-8.000000,-8.000000
1297838.158368,27.000000,16.000000,11.000000,12.000000,5.000000,4.000000,5.000000,7.000000
1297838.158397,-5.000000,-4.000000,-31.000000,3.000000,8.000000,6.000000,9.000000,6.000000
1297838.181003,15.000000,-26.000000,-9.000000,-7.000000,-5.000000,-5.000000,-2.000000,-5.000000
1297838.181059,-9.000000,-6.000000,3.000000,-7.000000,-2.000000,-2.000000,2.000000,-3.000000
1297838.188628,11.000000,10.000000,5.000000,1.000000,-1.000000,-4.000000,3.000000,0.000000
1297838.188681,-3.000000,46.000000,5.000000,-26.000000,-3.000000,-1.000000,1.000000,7.000000
1297838.203162,-15.000000,-13.000000,-23.000000,26.000000,1.000000,-4.000000,-6.000000,-3.000000
1297838.203217,-9.000000,2.000000,-13.000000,6.000000,0.000000,-2.000000,-4.000000,-6.000000
1297838.218292,-7.000000,0.000000,0.000000,-38.000000,-1.000000,-3.000000,-1.000000,1.000000
1297838.218347,5.000000,17.000000,18.000000,13.000000,3.000000,2.000000,0.000000,4.000000
1297838.234434,5.000000,7.000000,1.000000,-18.000000,-5.000000,-3.000000,3.000000,-2.000000
1297838.234485,17.000000,2.000000,4.000000,49.000000,4.000000,-1.000000,-9.000000,-7.000000
1297838.235349,-10.000000,-7.000000,-36.000000,4.000000,-8.000000,1.000000,5.000000,2.000000
1297838.236206,-2.000000,-45.000000,-15.000000,-65.000000,-1.000000,-5.000000,-10.000000,-19.000000
1297838.237833,1.000000,18.000000,16.000000,35.000000,22.000000,4.000000,0.000000,6.000000
1297838.237884,-19.000000,-13.000000,-3.000000,-23.000000,-11.000000,-6.000000,-6.000000,-9.000000
1297838.238102,15.000000,-9.000000,0.000000,21.000000,2.000000,4.000000,13.000000,11.000000
1297838.238139,2.000000,9.000000,-17.000000,51.000000,9.000000,7.000000,5.000000,2.000000
1297838.241298,7.000000,8.000000,-6.000000,1.000000,6.000000,3.000000,14.000000,12.000000
1297838.241365,5.000000,11.000000,27.000000,12.000000,1.000000,-3.000000,-2.000000,-3.000000
1297838.263076,-26.000000,-24.000000,5.000000,7.000000,2.000000,-1.000000,-10.000000,-9.000000
1297838.263106,4.000000,2.000000,-4.000000,-8.000000,0.000000,-2.000000,3.000000,3.000000
1297838.270778,9.000000,-19.000000,6.000000,43.000000,6.000000,4.000000,11.000000,15.000000
1297838.270811,26.000000,12.000000,-6.000000,36.000000,0.000000,-1.000000,-1.000000,3.000000
1297838.308248,-23.000000,2.000000,-4.000000,-65.000000,0.000000,0.000000,-1.000000,-7.000000
1297838.308299,27.000000,-10.000000,13.000000,4.000000,5.000000,1.000000,-4.000000,2.000000
1297838.315886,20.000000,21.000000,19.000000,41.000000,-1.000000,5.000000,11.000000,14.000000
1297838.315939,-18.000000,-15.000000,-16.000000,-2.000000,-14.000000,-3.000000,-7.000000,-8.000000
1297838.318499,-19.000000,-4.000000,-16.000000,-92.000000,1.000000,-5.000000,-21.000000,-23.000000
1297838.318523,-8.000000,2.000000,15.000000,22.000000,8.000000,4.000000,4.000000,7.000000
1297838.318689,27.000000,36.000000,26.000000,55.000000,3.000000,6.000000,13.000000,19.000000
1297838.318705,-15.000000,-11.000000,-10.000000,-45.000000,-9.000000,-2.000000,-14.000000,-20.000000
1297838.319718,-5.000000,-18.000000,-44.000000,-15.000000,0.000000,-5.000000,-13.000000,-7.000000
1297838.319744,4.000000,-6.000000,-5.000000,29.000000,5.000000,1.000000,4.000000,7.000000
1297838.324161,2.000000,2.000000,11.000000,0.000000,-5.000000,1.000000,5.000000,5.000000
1297838.324210,-20.000000,14.000000,13.000000,8.000000,-6.000000,1.000000,4.000000,-3.000000
1297838.345533,12.000000,-21.000000,0.000000,-19.000000,4.000000,4.000000,8.000000,10.000000
1297838.345766,11.000000,-9.000000,-14.000000,17.000000,3.000000,-2.000000,-8.000000,-6.000000
1297838.347113,2.000000,35.000000,-1.000000,-23.000000,-2.000000,-5.000000,-11.000000,-5.000000
1297838.347135,-35.000000,-12.000000,-3.000000,2.000000,-1.000000,0.000000,-5.000000,-4.000000
1297838.353022,6.000000,-3.000000,2.000000,42.000000,3.000000,1.000000,4.000000,12.000000
1297838.353071,12.000000,-2.000000,-14.000000,-41.000000,-7.000000,-2.000000,-4.000000,-3.000000
1297838.390779,5.000000,8.000000,6.000000,-19.000000,4.000000,-1.000000,7.000000,8.000000
1297838.390831,-16.000000,-3.000000,24.000000,30.000000,-3.000000,-1.000000,-5.000000,-9.000000
1297838.398393,2.000000,-4.000000,-2.000000,46.000000,-6.000000,-4.000000,-7.000000,-3.000000
1297838.398421,4.000000,-46.000000,-3.000000,-41.000000,-4.000000,1.000000,6.000000,4.000000
1297838.428298,-21.000000,6.000000,-7.000000,-16.000000,2.000000,0.000000,1.000000,3.000000
1297838.428344,2.000000,-19.000000,0.000000,12.000000,-3.000000,-1.000000,4.000000,4.000000
1297838.429736,17.000000,2.000000,2.000000,4.000000,-3.000000,-3.000000,3.000000,3.000000
1297838.429762,6.000000,-1.000000,3.000000,21.000000,-1.000000,1.000000,-8.000000,-7.000000
1297838.430854,5.000000,0.000000,1.000000,-14.000000,-7.000000,-4.000000,1.000000,9.000000
1297838.430911,-8.000000,-3.000000,-7.000000,-31.000000,2.000000,-3.000000,-14.000000,-25.000000
1297838.431821,12.000000,-20.000000,7.000000,22.000000,4.000000,0.000000,1.000000,0.000000
1297838.432158,-7.000000,3.000000,-5.000000,-9.000000,2.000000,5.000000,4.000000,6.000000
1297838.432889,24.000000,20.000000,11.000000,32.000000,5.000000,2.000000,9.000000,16.000000
1297838.432910,-19.000000,-37.000000,13.000000,5.000000,-1.000000,4.000000,5.000000,-4.000000
1297838.435566,-16.000000,-40.000000,-36.000000,-60.000000,-12.000000,-4.000000,-17.000000,-28.000000
1297838.435592,7.000000,6.000000,-9.000000,22.000000,2.000000,-1.000000,-1.000000,3.000000
1297838.443882,13.000000,15.000000,5.000000,16.000000,1.000000,2.000000,8.000000,11.000000
1297838.443904,13.000000,15.000000,16.000000,-9.000000,-7.000000,0.000000,1.000000,3.000000
1297838.466007,-3.000000,-61.000000,-18.000000,54.000000,-5.000000,-11.000000,-20.000000,-14.000000
1297838.466060,-7.000000,1.000000,-23.000000,-52.000000,-1.000000,1.000000,4.000000,3.000000
1297838.467295,1.000000,-8.000000,-9.000000,2.000000,-8.000000,-1.000000,4.000000,5.000000
1297838.467345,20.000000,12.000000,11.000000,24.000000,7.000000,6.000000,6.000000,3.000000
1297838.473406,-9.000000,-16.000000,-14.000000,-58.000000,-6.000000,-8.000000,-5.000000,-2.000000
1297838.473461,24.000000,18.000000,18.000000,-2.000000,-2.000000,2.000000,8.000000,12.000000
1297838.511453,-78.000000,-24.000000,-40.000000,22.000000,-9.000000,-12.000000,-19.000000,-12.000000
1297838.511500,-14.000000,-3.000000,7.000000,3.000000,4.000000,0.000000,1.000000,2.000000
1297838.518263,19.000000,14.000000,31.000000,40.000000,2.000000,2.000000,-1.000000,-9.000000
1297838.518318,-6.000000,-10.000000,-41.000000,-88.000000,-8.000000,-1.000000,4.000000,7.000000
1297838.555631,30.000000,28.000000,12.000000,-15.000000,-4.000000,-2.000000,4.000000,6.000000
1297838.555657,7.000000,1.000000,13.000000,20.000000,6.000000,-7.000000,-7.000000,-4.000000
1297838.563172,-6.000000,4.000000,10.000000,15.000000,-3.000000,-4.000000,-13.000000,-8.000000
1297838.563226,8.000000,-9.000000,-1.000000,50.000000,0.000000,2.000000,5.000000,6.000000
1297838.586114,-4.000000,8.000000,7.000000,-73.000000,1.000000,0.000000,4.000000,4.000000
1297838.586141,4.000000,-31.000000,7.000000,16.000000,1.000000,-4.000000,-3.000000,2.000000
1297838.593203,30.000000,21.000000,-5.000000,1.000000,7.000000,0.000000,6.000000,10.000000
1297838.593253,-27.000000,-2.000000,8.000000,51.000000,-2.000000,-5.000000,-6.000000,-16.000000
1297838.609177,14.000000,-2.000000,-3.000000,-12.000000,-2.000000,0.000000,-1.000000,2.000000
1297838.609222,10.000000,-2.000000,-2.000000,12.000000,0.000000,-4.000000,-11.000000,-12.000000
1297838.610763,-19.000000,-8.000000,0.000000,-30.000000,-4.000000,-4.000000,-2.000000,-4.000000
1297838.610812,18.000000,6.000000,9.000000,42.000000,5.000000,5.000000,6.000000,7.000000
1297838.631094,-5.000000,-2.000000,-2.000000,3.000000,-10.000000,-11.000000,-19.000000,-18.000000
1297838.631143,13.000000,-25.000000,5.000000,6.000000,1.000000,-2.000000,4.000000,11.000000
1297838.638832,5.000000,-59.000000,-8.000000,18.000000,4.000000,3.000000,-1.000000,-4.000000
1297838.639094,-12.000000,4.000000,-11.000000,-12.000000,-4.000000,-3.000000,-3.000000,1.000000
1297838.676716,8.000000,-6.000000,2.000000,15.000000,-4.000000,1.000000,5.000000,5.000000
1297838.677135,6.000000,12.000000,14.000000,9.000000,-4.000000,5.000000,3.000000,10.000000
1297838.677669,0.000000,-6.000000,-8.000000,-5.000000,6.000000,1.000000,6.000000,6.000000
1297838.677759,25.000000,11.000000,9.000000,0.000000,-4.000000,-4.000000,-10.000000,-8.000000
1297838.679721,-5.000000,10.000000,7.000000,30.000000,2.000000,-5.000000,-2.000000,0.000000
1297838.680016,-1.000000,-22.000000,-12.000000,-64.000000,-5.000000,-4.000000,-3.000000,-4.000000
1297838.680682,-8.000000,11.000000,-13.000000,-3.000000,-2.000000,-3.000000,3.000000,5.000000
1297838.680728,30.000000,17.000000,10.000000,76.000000,8.000000,4.000000,11.000000,6.000000
1297838.698292,14.000000,0.000000,0.000000,34.000000,12.000000,2.000000,-1.000000,-1.000000
1297838.698520,1.000000,-6.000000,-1.000000,-23.000000,-10.000000,-2.000000,3.000000,11.000000
1297838.699086,4.000000,-7.000000,-6.000000,30.000000,8.000000,2.000000,2.000000,-1.000000
1297838.699123,25.000000,16.000000,7.000000,12.000000,-10.000000,0.000000,1.000000,4.000000
1297838.706278,-35.000000,-46.000000,-8.000000,-18.000000,8.000000,-3.000000,3.000000,-3.000000
1297838.706302,-28.000000,4.000000,2.000000,33.000000,3.000000,-6.000000,-5.000000,-8.000000
1297838.713175,28.000000,11.000000,7.000000,-20.000000,-2.000000,3.000000,4.000000,4.000000
1297838.713295,-11.000000,3.000000,-1.000000,15.000000,-1.000000,5.000000,8.000000,7.000000
1297838.758358,-18.000000,-24.000000,-24.000000,-27.000000,-7.000000,-3.000000,-7.000000,-11.000000
1297838.758413,-27.000000,-16.000000,-5.000000,-8.000000,-7.000000,-6.000000,-12.000000,-13.000000
1297838.773096,-21.000000,13.000000,12.000000,-1.000000,-6.000000,-5.000000,-3.000000,-1.000000
1297838.773177,9.000000,-3.000000,6.000000,15.000000,9.000000,3.000000,11.000000,11.000000
1297838.795623,14.000000,19.000000,6.000000,8.000000,4.000000,1.000000,7.000000,17.000000
1297838.795675,24.000000,-8.000000,-13.000000,-5.000000,-7.000000,-6.000000,-21.000000,-36.000000
1297838.827187,-41.000000,0.000000,-5.000000,-26.000000,-12.000000,-6.000000,1.000000,-8.000000
1297838.827239,16.000000,-14.000000,3.000000,-22.000000,-4.000000,-2.000000,4.000000,8.000000
1297838.828861,-4.000000,8.000000,0.000000,20.000000,3.000000,3.000000,5.000000,5.000000
1297838.828911,-3.000000,-18.000000,-7.000000,-7.000000,5.000000,3.000000,3.000000,3.000000
1297838.830026,17.000000,-5.000000,-6.000000,4.000000,-19.000000,-6.000000,-4.000000,-7.000000
1297838.830051,-11.000000,17.000000,11.000000,5.000000,4.000000,0.000000,2.000000,4.000000
1297838.830784,-19.000000,-4.000000,-5.000000,3.000000,6.000000,0.000000,4.000000,4.000000
1297838.830815,-24.000000,28.000000,2.000000,12.000000,-4.000000,-1.000000,-7.000000,-17.000000
1297838.833310,-5.000000,8.000000,10.000000,0.000000,2.000000,2.000000,5.000000,5.000000
1297838.833335,17.000000,-23.000000,10.000000,16.000000,-4.000000,2.000000,1.000000,-2.000000
1297838.849220,-23.000000,-1.000000,13.000000,2.000000,0.000000,-7.000000,-6.000000,-6.000000
1297838.849264,18.000000,13.000000,-7.000000,8.000000,0.000000,1.000000,2.000000,4.000000
1297838.863151,1.000000,3.000000,-7.000000,-35.000000,-4.000000,0.000000,1.000000,3.000000
1297838.863199,9.000000,7.000000,5.000000,15.000000,1.000000,2.000000,0.000000,-3.000000
1297838.878215,5.000000,3.000000,-3.000000,12.000000,-1.000000,1.000000,-4.000000,0.000000
1297838.878254,-13.000000,-6.000000,-5.000000,-53.000000,-9.000000,-7.000000,-6.000000,-8.000000
1297838.901429,14.000000,-1.000000,-9.000000,-6.000000,5.000000,1.000000,0.000000,4.000000
1297838.901732,4.000000,8.000000,21.000000,53.000000,1.000000,-2.000000,8.000000,11.000000
1297838.903336,28.000000,-6.000000,-52.000000,-52.000000,0.000000,0.000000,-9.000000,-30.000000
1297838.903410,-25.000000,-16.000000,3.000000,3.000000,1.000000,-4.000000,-1.000000,-5.000000
1297838.904077,25.000000,14.000000,-1.000000,21.000000,4.000000,0.000000,-1.000000,5.000000
1297838.904131,0.000000,0.000000,21.000000,-2.000000,0.000000,2.000000,4.000000,7.000000
1297838.909259,-7.000000,2.000000,3.000000,6.000000,-2.000000,-3.000000,-2.000000,-3.000000
1297838.909310,-4.000000,-22.000000,-9.000000,-31.000000,-8.000000,-6.000000,-2.000000,-8.000000
1297838.916416,8.000000,-10.000000,-11.000000,42.000000,2.000000,-1.000000,2.000000,8.000000
1297838.916466,18.000000,7.000000,5.000000,13.000000,2.000000,2.000000,9.000000,3.000000
1297838.947128,-23.000000,-9.000000,0.000000,0.000000,-4.000000,-7.000000,-13.000000,-9.000000
1297838.947440,-17.000000,-20.000000,-14.000000,-44.000000,-6.000000,-1.000000,-3.000000,-4.000000
1297838.947922,23.000000,9.000000,3.000000,21.000000,0.000000,-3.000000,6.000000,2.000000
1297838.947982,17.000000,6.000000,13.000000,-14.000000,-4.000000,-1.000000,-6.000000,2.000000
1297838.949478,-23.000000,-14.000000,-14.000000,-1.000000,-9.000000,-3.000000,-5.000000,-2.000000
1297838.949534,-23.000000,-3.000000,13.000000,45.000000,9.000000,-2.000000,-3.000000,-2.000000
1297838.953582,28.000000,4.000000,-11.000000,-92.000000,-13.000000,-2.000000,-1.000000,0.000000
1297838.953676,15.000000,-20.000000,2.000000,13.000000,9.000000,0.000000,-4.000000,-3.000000
1297838.990997,12.000000,3.000000,-15.000000,-2.000000,-5.000000,-3.000000,-2.000000,-2.000000
1297838.991051,-20.000000,-18.000000,4.000000,-32.000000,-14.000000,-4.000000,-4.000000,-5.000000
1297838.998463,-27.000000,-16.000000,-6.000000,-36.000000,-3.000000,5.000000,7.000000,1.000000
1297838.998515,-7.000000,17.000000,15.000000,22.000000,5.000000,2.000000,6.000000,7.000000
1297839.028505,15.000000,3.000000,1.000000,20.000000,7.000000,0.000000,4.000000,7.000000
1297839.028554,29.000000,-4.000000,-8.000000,-22.000000,-10.000000,-7.000000,-13.000000,-10.000000
1297839.035786,-18.000000,-5.000000,-2.000000,27.000000,0.000000,0.000000,-3.000000,2.000000
1297839.035811,13.000000,-35.000000,-16.000000,-4.000000,-4.000000,1.000000,4.000000,8.000000
1297839.065655,3.000000,5.000000,-33.000000,-100.000000,-3.000000,-5.000000,-4.000000,-2.000000
1297839.065714,4.000000,37.000000,5.000000,0.000000,2.000000,-3.000000,4.000000,3.000000
1297839.073324,-1.000000,45.000000,18.000000,82.000000,0.000000,-1.000000,-1.000000,3.000000
1297839.073353,32.000000,14.000000,7.000000,-38.000000,-7.000000,2.000000,5.000000,3.000000
1297839.126115,16.000000,8.000000,10.000000,21.000000,-3.000000,-3.000000,3.000000,8.000000
1297839.126216,-14.000000,6.000000,13.000000,13.000000,-1.000000,0.000000,-1.000000,-2.000000
1297839.141594,14.000000,2.000000,12.000000,-13.000000,1.000000,2.000000,2.000000,4.000000
1297839.141634,-10.000000,-4.000000,10.000000,77.000000,6.000000,5.000000,15.000000,12.000000
1297839.143475,20.000000,22.000000,3.000000,22.000000,-5.000000,0.000000,4.000000,8.000000
1297839.143505,-26.000000,-8.000000,7.000000,26.000000,9.000000,2.000000,8.000000,9.000000
1297839.144370,8.000000,10.000000,-7.000000,6.000000,-5.000000,3.000000,6.000000,7.000000
1297839.144434,-27.000000,-36.000000,-16.000000,-13.000000,-5.000000,-4.000000,-17.000000,-33.000000
1297839.149167,27.000000,30.000000,33.000000,2.000000,3.000000,-3.000000,6.000000,6.000000
1297839.149221,3.000000,17.000000,0.000000,25.000000,0.000000,6.000000,8.000000,2.000000
1297839.155740,-13.000000,-25.000000,-3.000000,24.000000,-3.000000,2.000000,7.000000,7.000000
1297839.155792,-19.000000,-12.000000,-3.000000,-38.000000,-14.000000,-12.000000,-34.000000,-32.000000
1297839.164421,5.000000,0.000000,-6.000000,9.000000,8.000000,1.000000,11.000000,12.000000
1297839.164469,15.000000,3.000000,19.000000,1.000000,-4.000000,2.000000,5.000000,11.000000
1297839.178570,4.000000,3.000000,4.000000,11.000000,-4.000000,3.000000,0.000000,-3.000000
1297839.178631,3.000000,3.000000,9.000000,-17.000000,3.000000,2.000000,1.000000,2.000000
1297839.193977,-10.000000,-12.000000,-18.000000,-6.000000,-3.000000,1.000000,1.000000,3.000000
1297839.194121,4.000000,-5.000000,1.000000,-18.000000,-5.000000,3.000000,5.000000,1.000000
1297839.216337,-24.000000,5.000000,3.000000,16.000000,14.000000,0.000000,1.000000,2.000000
1297839.216387,18.000000,0.000000,-3.000000,-7.000000,8.000000,2.000000,1.000000,5.000000
1297839.231024,-20.000000,-1.000000,0.000000,22.000000,-5.000000,-2.000000,-7.000000,-4.000000
1297839.231219,-29.000000,-36.000000,-29.000000,-38.000000,-6.000000,-5.000000,-6.000000,-6.000000
1297839.260813,22.000000,1.000000,0.000000,3.000000,1.000000,5.000000,6.000000,7.000000
1297839.260867,-21.000000,1.000000,-13.000000,9.000000,-1.000000,5.000000,7.000000,2.000000
1297839.269401,6.000000,-30.000000,-14.000000,-10.000000,4.000000,-3.000000,-3.000000,-4.000000
1297839.269619,-43.000000,6.000000,4.000000,-38.000000,-6.000000,-4.000000,-17.000000,-15.000000
1297839.271916,4.000000,-23.000000,-14.000000,59.000000,4.000000,2.000000,3.000000,1.000000
1297839.271985,11.000000,28.000000,3.000000,-59.000000,-1.000000,1.000000,-3.000000,-2.000000
1297839.272935,9.000000,8.000000,11.000000,7.000000,-3.000000,-4.000000,-2.000000,-2.000000
1297839.273393,-9.000000,-27.000000,-13.000000,6.000000,-3.000000,1.000000,5.000000,0.000000
1297839.274600,11.000000,16.000000,-4.000000,-39.000000,-7.000000,5.000000,8.000000,13.000000
1297839.274677,19.000000,-38.000000,8.000000,6.000000,-5.000000,-4.000000,-5.000000,-3.000000
1297839.276288,-17.000000,-2.000000,-8.000000,-6.000000,0.000000,1.000000,5.000000,2.000000
1297839.276327,16.000000,0.000000,-17.000000,-13.000000,-5.000000,-2.000000,-9.000000,-9.000000
1297839.299760,-42.000000,-7.000000,6.000000,10.000000,3.000000,-1.000000,-7.000000,-3.000000
1297839.300017,-14.000000,5.000000,0.000000,-8.000000,2.000000,1.000000,2.000000,4.000000
1297839.300377,1.000000,-46.000000,-2.000000,11.000000,-2.000000,-5.000000,-5.000000,-6.000000
1297839.300425,7.000000,2.000000,5.000000,34.000000,3.000000,3.000000,3.000000,3.000000
1297839.306603,5.000000,9.000000,-3.000000,-36.000000,-2.000000,2.000000,3.000000,0.000000
1297839.306631,11.000000,-6.000000,-6.000000,19.000000,0.000000,-3.000000,-1.000000,0.000000
1297839.313388,-5.000000,13.000000,-15.000000,34.000000,-8.000000,-6.000000,-4.000000,-3.000000
1297839.313415,4.000000,30.000000,-5.000000,-47.000000,1.000000,3.000000,5.000000,7.000000
1297839.350755,4.000000,-22.000000,-6.000000,13.000000,-5.000000,-5.000000,-4.000000,-8.000000
1297839.350806,-7.000000,-6.000000,-1.000000,-30.000000,-6.000000,-2.000000,2.000000,13.000000
1297839.358470,-1.000000,-12.000000,-38.000000,-36.000000,-2.000000,-1.000000,-12.000000,-16.000000
1297839.358525,-1.000000,1.000000,10.000000,27.000000,3.000000,1.000000,-1.000000,2.000000
1297839.388382,25.000000,16.000000,17.000000,35.000000,4.000000,-1.000000,5.000000,9.000000
1297839.388443,-11.000000,9.000000,-1.000000,-11.000000,-5.000000,5.000000,2.000000,0.000000
1297839.403176,0.000000,11.000000,18.000000,-5.000000,-8.000000,-4.000000,-4.000000,0.000000
1297839.403200,20.000000,15.000000,3.000000,-16.000000,-4.000000,-2.000000,7.000000,5.000000
1297839.419561,13.000000,-17.000000,-16.000000,-3.000000,-1.000000,-3.000000,-4.000000,-6.000000
1297839.419586,-6.000000,-6.000000,-10.000000,-49.000000,-10.000000,-1.000000,-6.000000,-4.000000
1297839.419832,11.000000,15.000000,-1.000000,7.000000,-2.000000,-1.000000,6.000000,4.000000
1297839.419867,16.000000,12.000000,8.000000,26.000000,1.000000,-2.000000,3.000000,4.000000
1297839.422276,-2.000000,-6.000000,-4.000000,14.000000,10.000000,-1.000000,-1.000000,-8.000000
1297839.422316,7.000000,1.000000,-9.000000,22.000000,0.000000,-1.000000,-6.000000,1.000000
1297839.422719,2.000000,42.000000,11.000000,-1.000000,-2.000000,-1.000000,5.000000,7.000000
1297839.422765,38.000000,11.000000,7.000000,10.000000,-3.000000,0.000000,8.000000,18.000000
1297839.426380,6.000000,5.000000,7.000000,26.000000,5.000000,0.000000,2.000000,7.000000
1297839.426427,-5.000000,0.000000,-2.000000,-23.000000,-8.000000,-6.000000,-3.000000,1.000000
1297839.456010,6.000000,-1.000000,9.000000,30.000000,2.000000,1.000000,6.000000,7.000000
1297839.456038,0.000000,-3.000000,-36.000000,-47.000000,-7.000000,0.000000,1.000000,2.000000
1297839.470589,7.000000,-14.000000,-15.000000,-7.000000,6.000000,2.000000,-6.000000,-8.000000
1297839.470616,13.000000,10.000000,-3.000000,20.000000,7.000000,5.000000,-3.000000,3.000000
1297839.478230,-16.000000,-40.000000,0.000000,16.000000,-3.000000,-5.000000,-5.000000,-8.000000
1297839.478274,-12.000000,-8.000000,3.000000,38.000000,-2.000000,-3.000000,-1.000000,-3.000000
1297839.508608,-14.000000,1.000000,-4.000000,-6.000000,-1.000000,2.000000,3.000000,6.000000
1297839.508895,51.000000,19.000000,29.000000,18.000000,4.000000,-1.000000,1.000000,1.000000
1297839.509523,-37.000000,-36.000000,-42.000000,-24.000000,-4.000000,0.000000,-4.000000,-5.000000
1297839.509573,25.000000,-8.000000,4.000000,9.000000,6.000000,-2.000000,0.000000,-5.000000
1297839.511743,-4.000000,9.000000,3.000000,31.000000,0.000000,-4.000000,-12.000000,-7.000000
1297839.511770,8.000000,4.000000,-5.000000,-26.000000,-2.000000,-1.000000,-3.000000,7.000000
1297839.512477,16.000000,18.000000,13.000000,-2.000000,7.000000,3.000000,4.000000,-17.000000
1297839.512505,-18.000000,4.000000,9.000000,-4.000000,-4.000000,-3.000000,3.000000,4.000000
1297839.515629,-28.000000,9.000000,-16.000000,-43.000000,-10.000000,-2.000000,-6.000000,-3.000000
1297839.515652,-15.000000,-9.000000,4.000000,10.000000,0.000000,-5.000000,4.000000,4.000000
1297839.539846,16.000000,16.000000,9.000000,-9.000000,-3.000000,0.000000,4.000000,5.000000
1297839.539894,7.000000,2.000000,-3.000000,-27.000000,-6.000000,-1.000000,1.000000,2.000000
1297839.540108,-15.000000,1.000000,1.000000,-20.000000,-1.000000,1.000000,3.000000,4.000000
1297839.540135,25.000000,2.000000,7.000000,28.000000,0.000000,-2.000000,2.000000,5.000000
1297839.546485,-14.000000,-20.000000,-29.000000,-32.000000,-10.000000,-6.000000,-11.000000,-14.000000
1297839.546533,22.000000,10.000000,11.000000,-17.000000,3.000000,1.000000,6.000000,2.000000
1297839.568241,8.000000,-3.000000,-8.000000,-13.000000,-5.000000,1.000000,3.000000,2.000000
1297839.568287,-13.000000,-24.000000,1.000000,38.000000,7.000000,2.000000,-6.000000,-1.000000
1297839.583148,26.000000,15.000000,-15.000000,26.000000,7.000000,5.000000,10.000000,4.000000
1297839.583174,-7.000000,-3.000000,2.000000,-32.000000,-2.000000,-3.000000,-16.000000,-14.000000
1297839.590871,2.000000,4.000000,-9.000000,2.000000,-2.000000,-2.000000,2.000000,3.000000
1297839.590897,-35.000000,-4.000000,22.000000,34.000000,1.000000,-1.000000,1.000000,0.000000
1297839.622069,1.000000,-14.000000,-14.000000,-26.000000,-1.000000,-1.000000,5.000000,0.000000
1297839.622103,-38.000000,-19.000000,-26.000000,-90.000000,-18.000000,-6.000000,-8.000000,-10.000000
1297839.623832,41.000000,68.000000,11.000000,-11.000000,4.000000,4.000000,0.000000,6.000000
1297839.624358,-20.000000,1.000000,-27.000000,18.000000,-5.000000,1.000000,3.000000,0.000000
1297839.625322,-10.000000,-30.000000,-12.000000,-50.000000,-1.000000,-1.000000,0.000000,1.000000
1297839.625373,8.000000,8.000000,14.000000,12.000000,-7.000000,0.000000,-1.000000,0.000000
1297839.625862,2.000000,-10.000000,7.000000,18.000000,-5.000000,-1.000000,0.000000,-2.000000
1297839.625947,18.000000,6.000000,-2.000000,35.000000,3.000000,3.000000,3.000000,4.000000
1297839.629595,6.000000,0.000000,-1.000000,4.000000,3.000000,-5.000000,-7.000000,-3.000000
1297839.629647,-10.000000,-6.000000,-19.000000,-16.000000,-7.000000,-3.000000,-9.000000,-3.000000
1297839.635808,-38.000000,0.000000,11.000000,11.000000,8.000000,4.000000,7.000000,7.000000
1297839.635840,16.000000,7.000000,-7.000000,13.000000,-2.000000,1.000000,2.000000,1.000000
1297839.658292,2.000000,-16.000000,-10.000000,-62.000000,-11.000000,0.000000,-1.000000,5.000000
1297839.658408,-21.000000,9.000000,6.000000,12.000000,-1.000000,2.000000,1.000000,-5.000000
1297839.659207,-19.000000,-6.000000,-10.000000,-29.000000,-6.000000,0.000000,-5.000000,-3.000000
1297839.659234,8.000000,4.000000,3.000000,4.000000,7.000000,4.000000,1.000000,2.000000
1297839.666778,28.000000,1.000000,19.000000,-10.000000,0.000000,-3.000000,-2.000000,3.000000
1297839.666827,-19.000000,-87.000000,-32.000000,39.000000,-2.000000,-9.000000,-4.000000,-1.000000
1297839.680683,-2.000000,0.000000,6.000000,-15.000000,-4.000000,0.000000,5.000000,4.000000
1297839.680712,16.000000,-7.000000,-10.000000,-19.000000,-2.000000,2.000000,-3.000000,0.000000
1297839.703537,-24.000000,51.000000,11.000000,-6.000000,-2.000000,-4.000000,3.000000,3.000000
1297839.703585,1.000000,13.000000,7.000000,20.000000,3.000000,0.000000,-8.000000,-10.000000
1297839.710807,41.000000,12.000000,-3.000000,7.000000,-8.000000,2.000000,5.000000,9.000000
1297839.710833,-16.000000,-19.000000,0.000000,15.000000,-6.000000,-6.000000,-8.000000,-12.000000
1297839.733192,14.000000,-1.000000,-3.000000,9.000000,3.000000,-2.000000,-1.000000,8.000000
1297839.733244,-21.000000,5.000000,-1.000000,34.000000,5.000000,1.000000,3.000000,3.000000
1297839.740538,-23.000000,-4.000000,-10.000000,-58.000000,1.000000,-4.000000,-7.000000,-36.000000
1297839.740566,13.000000,1.000000,4.000000,14.000000,4.000000,1.000000,-3.000000,5.000000
1297839.748868,22.000000,5.000000,8.000000,19.000000,4.000000,2.000000,4.000000,4.000000
1297839.748893,20.000000,9.000000,23.000000,24.000000,-3.000000,1.000000,1.000000,7.000000
1297839.749840,-24.000000,-43.000000,-53.000000,-45.000000,2.000000,2.000000,-1.000000,-1.000000
1297839.749886,-31.000000,-5.000000,8.000000,19.000000,-3.000000,-9.000000,-17.000000,-12.000000
1297839.750993,13.000000,6.000000,4.000000,-11.000000,-1.000000,-1.000000,-2.000000,-1.000000
1297839.751034,7.000000,8.000000,2.000000,19.000000,2.000000,1.000000,8.000000,7.000000
1297839.755378,17.000000,2.000000,10.000000,63.000000,6.000000,2.000000,10.000000,7.000000
1297839.755427,-8.000000,-7.000000,-18.000000,-64.000000,-1.000000,-1.000000,-8.000000,-10.000000
1297839.778830,-10.000000,-1.000000,10.000000,9.000000,7.000000,-5.000000,-9.000000,-12.000000
1297839.779166,5.000000,-8.000000,2.000000,13.000000,-3.000000,-3.000000,-4.000000,7.000000
1297839.779659,32.000000,12.000000,-7.000000,22.000000,-5.000000,-4.000000,-1.000000,-6.000000
1297839.779705,-21.000000,-13.000000,-15.000000,-40.000000,-13.000000,1.000000,-1.000000,-9.000000
1297839.786660,-6.000000,1.000000,-10.000000,29.000000,5.000000,0.000000,0.000000,-5.000000
1297839.786711,-3.000000,-3.000000,-7.000000,-5.000000,-3.000000,-4.000000,-2.000000,0.000000
1297839.815639,42.000000,23.000000,6.000000,-12.000000,1.000000,3.000000,12.000000,15.000000
1297839.815691,-4.000000,8.000000,13.000000,54.000000,-3.000000,-11.000000,-8.000000,-15.000000
1297839.830856,0.000000,-1.000000,-5.000000,-104.000000,-11.000000,-2.000000,-6.000000,-4.000000
1297839.830908,17.000000,-10.000000,-2.000000,-4.000000,3.000000,0.000000,7.000000,6.000000
1297839.853217,-21.000000,0.000000,8.000000,31.000000,7.000000,-1.000000,-1.000000,-2.000000
1297839.853267,13.000000,1.000000,1.000000,-10.000000,-8.000000,-6.000000,1.000000,1.000000
1297839.868426,-19.000000,-21.000000,-39.000000,18.000000,-1.000000,2.000000,0.000000,-2.000000
1297839.868485,2.000000,2.000000,3.000000,-24.000000,-2.000000,-1.000000,-9.000000,-5.000000
1297839.898658,7.000000,8.000000,1.000000,44.000000,-1.000000,2.000000,6.000000,5.000000
1297839.898991,37.000000,18.000000,7.000000,-22.000000,2.000000,1.000000,13.000000,23.000000
1297839.899916,-94.000000,-29.000000,3.000000,-9.000000,2.000000,-3.000000,-7.000000,-21.000000
1297839.899959,11.000000,9.000000,8.000000,-1.000000,4.000000,-1.000000,-18.000000,-13.000000
1297839.901270,-15.000000,3.000000,-9.000000,20.000000,-1.000000,-3.000000,-4.000000,5.000000
1297839.901310,27.000000,11.000000,9.000000,4.000000,1.000000,1.000000,13.000000,12.000000
1297839.901538,-15.000000,-12.000000,15.000000,3.000000,-1.000000,6.000000,5.000000,-1.000000
1297839.901574,5.000000,13.000000,2.000000,-9.000000,-2.000000,-9.000000,-13.000000,0.000000
1297839.902934,-5.000000,-4.000000,0.000000,-34.000000,-11.000000,-5.000000,-5.000000,-1.000000
1297839.902987,23.000000,68.000000,21.000000,18.000000,9.000000,1.000000,7.000000,5.000000
1297839.906825,5.000000,19.000000,17.000000,-9.000000,-9.000000,-4.000000,-1.000000,3.000000
1297839.906877,19.000000,5.000000,-10.000000,-18.000000,-1.000000,-1.000000,-1.000000,8.000000
1297839.935571,14.000000,6.000000,16.000000,-2.000000,-2.000000,-2.000000,-2.000000,-6.000000
1297839.935622,-12.000000,0.000000,-10.000000,-15.000000,-10.000000,-8.000000,-19.000000,-14.000000
1297839.974082,-8.000000,-13.000000,-14.000000,6.000000,0.000000,0.000000,6.000000,7.000000
1297839.974130,15.000000,12.000000,18.000000,-10.000000,-3.000000,0.000000,6.000000,9.000000
1297839.974468,-32.000000,10.000000,11.000000,43.000000,11.000000,6.000000,11.000000,-1.000000
1297839.975048,4.000000,-14.000000,-11.000000,-21.000000,-5.000000,-1.000000,-8.000000,-7.000000
1297839.976744,12.000000,48.000000,-29.000000,-22.000000,0.000000,2.000000,-1.000000,2.000000
1297839.976769,19.000000,7.000000,13.000000,42.000000,3.000000,3.000000,8.000000,10.000000
1297839.977336,10.000000,10.000000,8.000000,21.000000,4.000000,-1.000000,1.000000,4.000000
1297839.977370,-53.000000,-11.000000,-1.000000,-17.000000,-8.000000,-8.000000,-12.000000,-15.000000
1297839.978032,6.000000,2.000000,7.000000,2.000000,-2.000000,-5.000000,-4.000000,-6.000000
1297839.978097,10.000000,5.000000,-2.000000,-8.000000,3.000000,5.000000,5.000000,8.000000
1297839.980611,26.000000,19.000000,17.000000,41.000000,2.000000,0.000000,10.000000,9.000000
1297839.980667,-48.000000,-23.000000,-1.000000,-3.000000,-4.000000,-2.000000,-1.000000,-2.000000
1297839.989325,-22.000000,-13.000000,-25.000000,-51.000000,-6.000000,-8.000000,-19.000000,-22.000000
1297839.989354,14.000000,9.000000,5.000000,-22.000000,-2.000000,-4.000000,3.000000,7.000000
1297839.995401,-12.000000,7.000000,11.000000,28.000000,0.000000,4.000000,10.000000,11.000000
1297839.995424,8.000000,8.000000,15.000000,-17.000000,1.000000,-1.000000,-5.000000,-6.000000
1297840.010860,10.000000,-18.000000,-34.000000,-33.000000,-12.000000,-5.000000,-8.000000,-13.000000
1297840.010887,-33.000000,8.000000,25.000000,21.000000,1.000000,4.000000,0.000000,4.000000
1297840.018270,-27.000000,-17.000000,-1.000000,16.000000,-3.000000,-1.000000,-10.000000,-9.000000
1297840.018299,15.000000,-3.000000,-12.000000,-1.000000,-3.000000,-4.000000,-4.000000,1.000000
1297840.026657,11.000000,16.000000,6.000000,-10.000000,10.000000,-1.000000,2.000000,9.000000
1297840.026704,14.000000,14.000000,18.000000,16.000000,-7.000000,3.000000,4.000000,3.000000
1297840.055722,8.000000,-9.000000,12.000000,34.000000,-4.000000,-3.000000,-1.000000,-7.000000
1297840.055773,-43.000000,6.000000,-36.000000,-32.000000,0.000000,-3.000000,-3.000000,-6.000000
1297840.086693,-2.000000,-4.000000,-9.000000,-63.000000,-4.000000,-7.000000,-9.000000,-7.000000
1297840.086720,14.000000,70.000000,16.000000,23.000000,4.000000,-1.000000,2.000000,6.000000
1297840.087029,-10.000000,-1.000000,-5.000000,11.000000,-5.000000,-3.000000,1.000000,1.000000
1297840.087050,9.000000,10.000000,-20.000000,14.000000,4.000000,3.000000,1.000000,4.000000
1297840.093139,4.000000,32.000000,1.000000,-51.000000,-10.000000,2.000000,6.000000,4.000000
1297840.093168,-10.000000,-7.000000,-16.000000,2.000000,0.000000,-2.000000,-10.000000,-11.000000
1297840.094290,-6.000000,10.000000,23.000000,-20.000000,-15.000000,-8.000000,-9.000000,-4.000000
1297840.094350,-13.000000,-6.000000,-3.000000,9.000000,8.000000,0.000000,1.000000,-2.000000
1297840.095620,-2.000000,0.000000,-11.000000,25.000000,0.000000,3.000000,4.000000,7.000000
1297840.095667,16.000000,26.000000,5.000000,-19.000000,-4.000000,-1.000000,-1.000000,1.000000
1297840.100601,10.000000,-11.000000,-3.000000,4.000000,-5.000000,-3.000000,1.000000,4.000000
1297840.100655,-24.000000,5.000000,-3.000000,-7.000000,-2.000000,0.000000,-1.000000,-8.000000
1297840.108228,17.000000,-6.000000,-24.000000,-1.000000,-5.000000,-5.000000,-15.000000,-2.000000
1297840.108280,-68.000000,-7.000000,2.000000,22.000000,4.000000,3.000000,9.000000,1.000000
1297840.123622,17.000000,7.000000,11.000000,-14.000000,0.000000,-1.000000,2.000000,8.000000
1297840.123689,28.000000,12.000000,5.000000,29.000000,1.000000,1.000000,5.000000,-15.000000
1297840.130790,-33.000000,11.000000,2.000000,-3.000000,3.000000,-2.000000,-3.000000,0.000000
1297840.130843,-44.000000,-62.000000,-17.000000,-86.000000,-17.000000,-17.000000,-22.000000,-33.000000
1297840.138499,13.000000,10.000000,1.000000,26.000000,6.000000,-1.000000,4.000000,12.000000
1297840.138550,6.000000,2.000000,-3.000000,-26.000000,-4.000000,0.000000,9.000000,7.000000
1297840.146674,6.000000,13.000000,25.000000,58.000000,6.000000,8.000000,8.000000,5.000000
1297840.146726,2.000000,-19.000000,-24.000000,-54.000000,0.000000,0.000000,-4.000000,-2.000000
1297840.175910,26.000000,1.000000,7.000000,6.000000,2.000000,-1.000000,0.000000,0.000000
1297840.175962,-34.000000,-26.000000,2.000000,8.000000,-5.000000,0.000000,3.000000,-6.000000
1297840.190713,-15.000000,-12.000000,-16.000000,-4.000000,-2.000000,0.000000,-3.000000,0.000000
1297840.190765,21.000000,13.000000,7.000000,3.000000,-1.000000,0.000000,6.000000,4.000000
1297840.213689,-56.000000,-2.000000,6.000000,27.000000,-6.000000,-6.000000,-15.000000,-18.000000
1297840.213984,5.000000,1.000000,-4.000000,-21.000000,1.000000,0.000000,-4.000000,1.000000
1297840.216383,17.000000,9.000000,3.000000,12.000000,6.000000,8.000000,13.000000,16.000000
1297840.216442,-5.000000,2.000000,12.000000,30.000000,2.000000,-2.000000,12.000000,15.000000
1297840.217216,-43.000000,-18.000000,-24.000000,-63.000000,-18.000000,-12.000000,-39.000000,-53.000000
1297840.217258,-25.000000,-11.000000,-4.000000,-27.000000,5.000000,-1.000000,0.000000,0.000000
1297840.217891,24.000000,-1.000000,15.000000,18.000000,5.000000,1.000000,8.000000,16.000000
1297840.217924,42.000000,2.000000,-21.000000,40.000000,-5.000000,-1.000000,3.000000,2.000000
1297840.221223,-19.000000,-2.000000,-3.000000,-17.000000,-7.000000,-2.000000,-2.000000,-6.000000
1297840.221257,12.000000,13.000000,12.000000,-12.000000,7.000000,5.000000,3.000000,0.000000
1297840.236875,-6.000000,-17.000000,6.000000,15.000000,-3.000000,-3.000000,-2.000000,-5.000000
1297840.237262,9.000000,16.000000,-4.000000,-1.000000,-5.000000,-2.000000,1.000000,3.000000
1297840.238026,20.000000,12.000000,9.000000,-23.000000,6.000000,0.000000,-2.000000,-1.000000
1297840.238055,-52.000000,-15.000000,-20.000000,5.000000,-1.000000,-4.000000,-5.000000,-8.000000
1297840.258309,6.000000,9.000000,1.000000,17.000000,6.000000,3.000000,6.000000,4.000000
1297840.258544,11.000000,-26.000000,9.000000,33.000000,3.000000,2.000000,4.000000,1.000000
1297840.259142,-23.000000,12.000000,3.000000,12.000000,-7.000000,1.000000,-4.000000,-6.000000
1297840.259192,26.000000,9.000000,2.000000,-25.000000,-1.000000,1.000000,-1.000000,0.000000
1297840.266900,-18.000000,-4.000000,0.000000,12.000000,1.000000,-2.000000,-3.000000,2.000000
1297840.266940,-67.000000,-27.000000,-26.000000,5.000000,-3.000000,-3.000000,-4.000000,-25.000000
1297840.280940,12.000000,9.000000,8.000000,3.000000,1.000000,0.000000,6.000000,7.000000
1297840.280980,9.000000,9.000000,20.000000,5.000000,-4.000000,-2.000000,-2.000000,3.000000
1297840.296803,-3.000000,22.000000,27.000000,29.000000,-3.000000,0.000000,2.000000,5.000000
1297840.296843,-5.000000,-5.000000,-27.000000,-58.000000,-14.000000,-9.000000,-9.000000,-9.000000
1297840.304268,-10.000000,53.000000,3.000000,4.000000,9.000000,1.000000,-5.000000,-4.000000
1297840.304427,6.000000,-3.000000,1.000000,-38.000000,-5.000000,-1.000000,0.000000,3.000000
1297840.341487,6.000000,2.000000,-1.000000,10.000000,2.000000,2.000000,-1.000000,5.000000
1297840.341539,17.000000,13.000000,11.000000,52.000000,7.000000,5.000000,14.000000,15.000000
1297840.363694,-22.000000,-10.000000,-22.000000,-53.000000,-9.000000,-3.000000,-2.000000,-7.000000
1297840.363722,2.000000,-11.000000,-16.000000,-43.000000,-4.000000,-8.000000,-19.000000,-11.000000
1297840.373277,0.000000,6.000000,-29.000000,35.000000,1.000000,3.000000,6.000000,5.000000
1297840.373333,23.000000,8.000000,11.000000,-6.000000,-8.000000,-2.000000,3.000000,1.000000
1297840.374029,-11.000000,-15.000000,-1.000000,-8.000000,3.000000,2.000000,0.000000,-4.000000
1297840.374593,7.000000,8.000000,26.000000,13.000000,-1.000000,2.000000,3.000000,8.000000
1297840.375861,-71.000000,-9.000000,6.000000,-29.000000,0.000000,1.000000,-6.000000,-11.000000
1297840.375900,13.000000,-30.000000,3.000000,7.000000,6.000000,-1.000000,-3.000000,1.000000
1297840.378277,-35.000000,1.000000,-20.000000,-23.000000,-11.000000,-11.000000,-26.000000,-27.000000
1297840.378326,-13.000000,-2.000000,-6.000000,-22.000000,0.000000,0.000000,-1.000000,2.000000
1297840.378848,17.000000,15.000000,7.000000,10.000000,0.000000,3.000000,8.000000,9.000000
1297840.378893,16.000000,8.000000,-1.000000,26.000000,-3.000000,2.000000,9.000000,10.000000
1297840.379622,-1.000000,5.000000,0.000000,-5.000000,2.000000,5.000000,5.000000,8.000000
1297840.379658,6.000000,-5.000000,0.000000,14.000000,1.000000,0.000000,4.000000,3.000000
1297840.401254,21.000000,18.000000,23.000000,50.000000,5.000000,6.000000,27.000000,36.000000
1297840.401312,-8.000000,0.000000,1.000000,6.000000,9.000000,0.000000,-12.000000,-28.000000
1297840.408925,-14.000000,-57.000000,-19.000000,-57.000000,-6.000000,-17.000000,-35.000000,-32.000000
1297840.408982,0.000000,4.000000,25.000000,12.000000,4.000000,0.000000,4.000000,9.000000
1297840.423711,45.000000,19.000000,7.000000,33.000000,5.000000,5.000000,16.000000,22.000000
1297840.423772,-14.000000,12.000000,17.000000,24.000000,-1.000000,6.000000,11.000000,7.000000
1297840.453734,-59.000000,-76.000000,-58.000000,-128.000000,-18.000000,-17.000000,-29.000000,-37.000000
1297840.453779,5.000000,11.000000,2.000000,0.000000,-1.000000,-3.000000,0.000000,1.000000
1297840.490974,19.000000,20.000000,3.000000,16.000000,-3.000000,1.000000,3.000000,5.000000
1297840.491012,18.000000,17.000000,14.000000,15.000000,2.000000,3.000000,4.000000,6.000000
1297840.498668,7.000000,7.000000,3.000000,50.000000,-2.000000,1.000000,7.000000,1.000000
1297840.498716,-15.000000,-22.000000,-68.000000,-84.000000,-6.000000,-4.000000,-6.000000,-8.000000
1297840.500575,21.000000,-19.000000,21.000000,-13.000000,8.000000,1.000000,-3.000000,-3.000000
1297840.500902,20.000000,8.000000,6.000000,38.000000,-1.000000,-2.000000,12.000000,14.000000
1297840.501347,3.000000,10.000000,10.000000,6.000000,1.000000,-2.000000,-16.000000,-27.000000
1297840.501688,-52.000000,-41.000000,-24.000000,-73.000000,-19.000000,-13.000000,-23.000000,-20.000000
1297840.502611,-12.000000,2.000000,10.000000,34.000000,6.000000,3.000000,5.000000,7.000000
1297840.502666,15.000000,1.000000,-21.000000,-13.000000,-7.000000,4.000000,15.000000,19.000000
1297840.502886,14.000000,15.000000,10.000000,48.000000,6.000000,2.000000,11.000000,0.000000
1297840.502926,-9.000000,49.000000,-1.000000,-5.000000,-7.000000,-10.000000,-22.000000,-23.000000
1297840.535608,11.000000,-13.000000,12.000000,7.000000,-5.000000,0.000000,-3.000000,-2.000000
1297840.535657,0.000000,6.000000,6.000000,-18.000000,6.000000,2.000000,-4.000000,-10.000000
1297840.543028,16.000000,43.000000,-4.000000,24.000000,2.000000,-1.000000,4.000000,3.000000
1297840.543079,-9.000000,-9.000000,-24.000000,-50.000000,-13.000000,-2.000000,-6.000000,-7.000000
1297840.565721,-44.000000,0.000000,15.000000,-51.000000,-10.000000,-3.000000,1.000000,-1.000000
1297840.565774,26.000000,-19.000000,-10.000000,20.000000,-1.000000,-4.000000,-6.000000,-1.000000
1297840.573317,20.000000,-1.000000,-20.000000,-24.000000,-6.000000,-2.000000,-7.000000,-4.000000
1297840.573865,0.000000,17.000000,24.000000,52.000000,6.000000,5.000000,17.000000,10.000000
1297840.575881,-7.000000,-2.000000,3.000000,3.000000,0.000000,1.000000,-5.000000,-4.000000
1297840.576179,25.000000,10.000000,3.000000,12.000000,1.000000,-2.000000,0.000000,-4.000000
1297840.576445,25.000000,17.000000,-16.000000,-17.000000,1.000000,0.000000,0.000000,-2.000000
1297840.576495,-16.000000,-12.000000,7.000000,-1.000000,-5.000000,-8.000000,-14.000000,-9.000000
1297840.577345,-10.000000,32.000000,8.000000,24.000000,1.000000,0.000000,3.000000,1.000000
1297840.577394,14.000000,5.000000,9.000000,-5.000000,-3.000000,1.000000,1.000000,5.000000
1297840.580889,-8.000000,-5.000000,1.000000,-10.000000,4.000000,4.000000,4.000000,-3.000000
1297840.580913,7.000000,-2.000000,4.000000,6.000000,5.000000,-3.000000,0.000000,-2.000000
1297840.588047,3.000000,0.000000,6.000000,-9.000000,-6.000000,-4.000000,-7.000000,-1.000000
1297840.588098,0.000000,-30.000000,-18.000000,9.000000,0.000000,0.000000,2.000000,4.000000
1297840.611204,4.000000,5.000000,-1.000000,-14.000000,6.000000,4.000000,-4.000000,-7.000000
1297840.611258,-20.000000,-9.000000,0.000000,6.000000,-1.000000,-1.000000,0.000000,-4.000000
1297840.612295,8.000000,61.000000,15.000000,22.000000,0.000000,3.000000,0.000000,3.000000
1297840.612319,4.000000,-26.000000,-8.000000,-22.000000,-9.000000,-4.000000,1.000000,-2.000000
1297840.618187,-26.000000,1.000000,5.000000,7.000000,-9.000000,0.000000,5.000000,5.000000
1297840.618212,2.000000,-3.000000,-27.000000,-41.000000,-2.000000,-1.000000,-7.000000,-5.000000
1297840.648400,-5.000000,-5.000000,-9.000000,-3.000000,-9.000000,-7.000000,-2.000000,-4.000000
1297840.648456,28.000000,34.000000,15.000000,9.000000,3.000000,-1.000000,4.000000,9.000000
1297840.656112,-16.000000,-16.000000,-7.000000,4.000000,-4.000000,-4.000000,-10.000000,-11.000000
1297840.656240,5.000000,-6.000000,3.000000,9.000000,3.000000,-4.000000,-5.000000,-1.000000
1297840.686125,20.000000,22.000000,13.000000,12.000000,7.000000,1.000000,4.000000,6.000000
1297840.686334,31.000000,-23.000000,-9.000000,0.000000,-2.000000,6.000000,9.000000,6.000000
1297840.693259,-9.000000,3.000000,4.000000,-12.000000,-1.000000,-2.000000,-5.000000,-7.000000
1297840.693287,-8.000000,-2.000000,-4.000000,35.000000,5.000000,-2.000000,-6.000000,-5.000000
1297840.731785,-27.000000,-35.000000,-17.000000,-75.000000,-5.000000,-3.000000,0.000000,0.000000
1297840.732623,21.000000,2.000000,9.000000,14.000000,-1.000000,4.000000,6.000000,5.000000
1297840.732916,11.000000,-21.000000,-33.000000,-8.000000,-1.000000,3.000000,9.000000,8.000000
1297840.732963,15.000000,18.000000,21.000000,22.000000,2.000000,3.000000,4.000000,2.000000
1297840.733942,9.000000,-6.000000,-19.000000,-16.000000,-3.000000,-3.000000,-10.000000,-5.000000
1297840.733990,-38.000000,-6.000000,-1.000000,25.000000,0.000000,-5.000000,-8.000000,-12.000000
1297840.734145,-10.000000,-9.000000,-3.000000,-16.000000,-3.000000,1.000000,4.000000,4.000000
1297840.734168,59.000000,51.000000,13.000000,19.000000,12.000000,4.000000,5.000000,10.000000
1297840.734374,-14.000000,-6.000000,-10.000000,5.000000,4.000000,1.000000,2.000000,0.000000
1297840.734399,5.000000,-3.000000,3.000000,11.000000,-7.000000,-3.000000,1.000000,-7.000000
1297840.735193,15.000000,-18.000000,9.000000,-52.000000,-1.000000,3.000000,-2.000000,4.000000
1297840.735241,31.000000,-20.000000,-29.000000,-1.000000,10.000000,-1.000000,1.000000,6.000000
1297840.738231,13.000000,12.000000,8.000000,10.000000,5.000000,1.000000,8.000000,7.000000
1297840.738282,-8.000000,-6.000000,6.000000,9.000000,-8.000000,-6.000000,-10.000000,-14.000000
1297840.768846,-17.000000,6.000000,1.000000,10.000000,5.000000,0.000000,2.000000,0.000000
1297840.769008,4.000000,17.000000,16.000000,-3.000000,-3.000000,-4.000000,-5.000000,0.000000
1297840.776049,-4.000000,-8.000000,-5.000000,30.000000,-5.000000,-7.000000,-6.000000,-3.000000
1297840.776100,10.000000,7.000000,-9.000000,-33.000000,3.000000,2.000000,5.000000,0.000000
1297840.806484,13.000000,2.000000,9.000000,14.000000,0.000000,-1.000000,-1.000000,-3.000000
1297840.806981,-35.000000,-35.000000,-1.000000,-14.000000,-9.000000,-3.000000,-3.000000,-8.000000
1297840.807464,9.000000,-3.000000,-11.000000,-15.000000,2.000000,-3.000000,0.000000,-2.000000
1297840.807493,8.000000,4.000000,2.000000,25.000000,3.000000,4.000000,-1.000000,-1.000000
1297840.809254,-2.000000,13.000000,29.000000,29.000000,-3.000000,-4.000000,3.000000,0.000000
1297840.809375,-31.000000,-13.000000,-10.000000,11.000000,-6.000000,-6.000000,-11.000000,-15.000000
1297840.809899,6.000000,52.000000,5.000000,28.000000,6.000000,0.000000,2.000000,4.000000
1297840.809948,1.000000,-3.000000,3.000000,11.000000,3.000000,2.000000,4.000000,2.000000
1297840.813264,12.000000,-2.000000,-9.000000,-27.000000,5.000000,4.000000,-2.000000,0.000000
1297840.813321,7.000000,-26.000000,-17.000000,-25.000000,-9.000000,-6.000000,-6.000000,-7.000000
1297840.820876,-1.000000,6.000000,2.000000,14.000000,-5.000000,-5.000000,-13.000000,-2.000000
1297840.821107,-29.000000,-12.000000,-20.000000,-81.000000,-15.000000,-3.000000,-7.000000,-27.000000
1297840.842905,7.000000,6.000000,16.000000,23.000000,4.000000,4.000000,7.000000,7.000000
1297840.843172,9.000000,-8.000000,6.000000,20.000000,8.000000,1.000000,3.000000,4.000000
1297840.843673,10.000000,-3.000000,-3.000000,8.000000,-6.000000,0.000000,5.000000,3.000000
1297840.843711,-11.000000,1.000000,6.000000,-29.000000,-5.000000,-5.000000,-6.000000,-3.000000
1297840.850211,-9.000000,4.000000,-6.000000,10.000000,-5.000000,2.000000,-4.000000,-1.000000
1297840.850244,-15.000000,-28.000000,-21.000000,-1.000000,8.000000,2.000000,3.000000,-2.000000
1297840.857708,20.000000,-4.000000,4.000000,3.000000,3.000000,2.000000,-1.000000,1.000000
1297840.857726,-22.000000,11.000000,7.000000,13.000000,4.000000,-1.000000,-3.000000,-1.000000
1297840.880386,10.000000,10.000000,-3.000000,-40.000000,-4.000000,-1.000000,-2.000000,1.000000
1297840.880406,2.000000,37.000000,3.000000,6.000000,2.000000,1.000000,-2.000000,-1.000000
1297840.888006,21.000000,4.000000,9.000000,1.000000,-7.000000,-1.000000,2.000000,-2.000000
1297840.888033,-18.000000,-2.000000,8.000000,26.000000,0.000000,0.000000,2.000000,-1.000000
1297840.902812,24.000000,18.000000,9.000000,14.000000,6.000000,2.000000,3.000000,10.000000
1297840.902847,-53.000000,-78.000000,-21.000000,-11.000000,-2.000000,-3.000000,-5.000000,-7.000000
1297840.918024,-17.000000,-8.000000,-8.000000,19.000000,-2.000000,-3.000000,-4.000000,-7.000000
1297840.918043,18.000000,5.000000,11.000000,-9.000000,-4.000000,-1.000000,4.000000,5.000000
1297840.926329,15.000000,2.000000,0.000000,-42.000000,-6.000000,-8.000000,-6.000000,-4.000000
1297840.926356,-6.000000,20.000000,17.000000,20.000000,5.000000,0.000000,1.000000,6.000000
1297840.926702,-8.000000,-27.000000,-5.000000,25.000000,-1.000000,-3.000000,-3.000000,-6.000000
1297840.926740,9.000000,-2.000000,-9.000000,26.000000,2.000000,-1.000000,1.000000,-3.000000
1297840.932707,13.000000,7.000000,4.000000,-27.000000,-4.000000,-3.000000,3.000000,7.000000
1297840.932745,1.000000,-16.000000,4.000000,-2.000000,0.000000,-1.000000,-7.000000,-9.000000
1297840.940171,3.000000,-8.000000,-12.000000,-13.000000,2.000000,-4.000000,-4.000000,-6.000000
1297840.940189,0.000000,10.000000,3.000000,-3.000000,6.000000,1.000000,-5.000000,1.000000
1297840.955238,1.000000,1.000000,-13.000000,-46.000000,-10.000000,0.000000,6.000000,2.000000
1297840.955278,-13.000000,5.000000,-4.000000,19.000000,1.000000,-5.000000,-5.000000,-2.000000
1297840.962554,-26.000000,-36.000000,-19.000000,-85.000000,-14.000000,-3.000000,2.000000,2.000000
1297840.962601,10.000000,15.000000,16.000000,9.000000,-1.000000,-2.000000,0.000000,2.000000
1297840.970166,-29.000000,-34.000000,4.000000,21.000000,17.000000,7.000000,3.000000,3.000000
1297840.970204,-5.000000,8.000000,2.000000,25.000000,-1.000000,-2.000000,-1.000000,-4.000000
1297840.977678,-9.000000,10.000000,-13.000000,-93.000000,-19.000000,-3.000000,1.000000,2.000000
1297840.977696,7.000000,-17.000000,-43.000000,32.000000,6.000000,-5.000000,-6.000000,-2.000000
1297841.015379,23.000000,17.000000,10.000000,8.000000,-1.000000,1.000000,3.000000,-1.000000
1297841.015407,18.000000,-9.000000,-9.000000,-53.000000,-3.000000,2.000000,2.000000,1.000000
1297841.030258,-19.000000,-17.000000,-30.000000,13.000000,6.000000,-1.000000,-5.000000,-5.000000
1297841.030279,9.000000,4.000000,18.000000,-9.000000,-3.000000,1.000000,-5.000000,2.000000
1297841.046290,-1.000000,16.000000,-1.000000,11.000000,1.000000,0.000000,0.000000,-6.000000
1297841.046320,-16.000000,-23.000000,-5.000000,34.000000,0.000000,-4.000000,-6.000000,-6.000000
1297841.046728,-1.000000,10.000000,1.000000,-15.000000,-2.000000,1.000000,-2.000000,0.000000
1297841.046979,3.000000,3.000000,0.000000,-10.000000,-5.000000,-4.000000,-2.000000,2.000000
1297841.048336,22.000000,-2.000000,-5.000000,13.000000,1.000000,0.000000,2.000000,0.000000
1297841.048354,-24.000000,2.000000,8.000000,10.000000,-6.000000,2.000000,7.000000,-2.000000
1297841.048653,-21.000000,6.000000,0.000000,-20.000000,-9.000000,-2.000000,4.000000,7.000000
1297841.048683,1.000000,-21.000000,-24.000000,-13.000000,-2.000000,-1.000000,-7.000000,-4.000000
1297841.052934,30.000000,10.000000,-11.000000,-49.000000,5.000000,2.000000,4.000000,6.000000
1297841.052955,-9.000000,-11.000000,-2.000000,-11.000000,8.000000,-2.000000,-5.000000,-9.000000
1297841.067523,-54.000000,-60.000000,10.000000,12.000000,-8.000000,-10.000000,-20.000000,-15.000000
1297841.067555,23.000000,59.000000,21.000000,58.000000,8.000000,6.000000,11.000000,19.000000
1297841.083587,27.000000,8.000000,-11.000000,-17.000000,-3.000000,5.000000,12.000000,12.000000
1297841.083604,-32.000000,-8.000000,6.000000,-29.000000,-9.000000,-2.000000,-7.000000,-16.000000
1297841.084309,-3.000000,2.000000,3.000000,-21.000000,0.000000,0.000000,-4.000000,-1.000000
1297841.084340,-14.000000,1.000000,5.000000,24.000000,0.000000,-3.000000,-8.000000,1.000000
1297841.090480,18.000000,1.000000,-10.000000,-12.000000,-4.000000,-5.000000,0.000000,4.000000
1297841.090513,20.000000,15.000000,15.000000,37.000000,8.000000,1.000000,4.000000,4.000000
1297841.097974,-25.000000,-6.000000,-3.000000,-25.000000,-9.000000,-2.000000,2.000000,-1.000000
1297841.098004,0.000000,-5.000000,-15.000000,-15.000000,-6.000000,-4.000000,-6.000000,-7.000000
1297841.112644,-4.000000,2.000000,-3.000000,40.000000,2.000000,0.000000,-3.000000,2.000000
1297841.112783,26.000000,5.000000,7.000000,-14.000000,1.000000,3.000000,3.000000,3.000000
1297841.120446,-10.000000,0.000000,6.000000,20.000000,0.000000,-5.000000,-1.000000,-1.000000
1297841.120474,-21.000000,2.000000,11.000000,5.000000,-2.000000,-4.000000,-2.000000,-4.000000
1297841.135459,-20.000000,-9.000000,6.000000,3.000000,9.000000,6.000000,-9.000000,-19.000000
1297841.135479,4.000000,20.000000,18.000000,27.000000,0.000000,-2.000000,8.000000,11.000000
1297841.165475,26.000000,2.000000,1.000000,16.000000,-3.000000,-6.000000,-10.000000,-1.000000
1297841.165515,0.000000,-13.000000,-17.000000,-4.000000,-8.000000,-4.000000,-8.000000,-11.000000
1297841.180364,-51.000000,-6.000000,-1.000000,3.000000,0.000000,-1.000000,1.000000,0.000000
1297841.180425,-14.000000,-45.000000,2.000000,-1.000000,-9.000000,-5.000000,0.000000,0.000000
1297841.195649,14.000000,0.000000,15.000000,-11.000000,3.000000,0.000000,10.000000,10.000000
1297841.195680,0.000000,-10.000000,-25.000000,-11.000000,-7.000000,-7.000000,-6.000000,-11.000000
1297841.196815,15.000000,-11.000000,-8.000000,-12.000000,3.000000,-6.000000,-4.000000,-5.000000
1297841.196850,9.000000,-5.000000,13.000000,24.000000,0.000000,-3.000000,2.000000,-3.000000
1297841.197104,3.000000,1.000000,2.000000,-29.000000,-5.000000,-1.000000,3.000000,2.000000
1297841.197137,-4.000000,2.000000,4.000000,8.000000,-1.000000,1.000000,0.000000,4.000000
1297841.203489,5.000000,-8.000000,6.000000,-4.000000,-9.000000,-6.000000,-1.000000,-6.000000
1297841.203525,4.000000,-1.000000,-6.000000,-26.000000,3.000000,-3.000000,-4.000000,-4.000000
1297841.204275,3.000000,-4.000000,-6.000000,4.000000,-4.000000,2.000000,2.000000,0.000000
1297841.204489,-48.000000,3.000000,9.000000,35.000000,1.000000,-6.000000,-8.000000,-13.000000
1297841.210397,7.000000,-6.000000,0.000000,-3.000000,-3.000000,-6.000000,-4.000000,-3.000000
1297841.210529,11.000000,3.000000,3.000000,22.000000,8.000000,5.000000,13.000000,13.000000
1297841.218167,10.000000,13.000000,0.000000,-28.000000,-6.000000,-1.000000,-6.000000,-12.000000
1297841.218199,-2.000000,-11.000000,0.000000,-29.000000,6.000000,-2.000000,-9.000000,-5.000000
1297841.247802,4.000000,-17.000000,-23.000000,4.000000,-3.000000,-2.000000,1.000000,8.000000
1297841.247820,0.000000,2.000000,2.000000,7.000000,2.000000,-1.000000,6.000000,2.000000
1297841.255421,4.000000,6.000000,16.000000,-8.000000,-2.000000,-5.000000,0.000000,2.000000
1297841.255460,11.000000,-41.000000,-31.000000,14.000000,-4.000000,-1.000000,0.000000,-2.000000
1297841.285214,-6.000000,-1.000000,0.000000,-26.000000,-10.000000,-2.000000,-3.000000,2.000000
1297841.285250,6.000000,-1.000000,-15.000000,-35.000000,-2.000000,5.000000,-1.000000,-1.000000
1297841.292634,0.000000,-5.000000,-5.000000,-14.000000,-5.000000,-1.000000,-2.000000,-3.000000
1297841.292652,-8.000000,5.000000,13.000000,29.000000,-3.000000,0.000000,-3.000000,-3.000000
1297841.293897,-17.000000,-10.000000,4.000000,5.000000,-7.000000,-4.000000,-3.000000,-8.000000
1297841.293930,7.000000,5.000000,6.000000,-8.000000,-3.000000,5.000000,5.000000,7.000000
1297841.294410,3.000000,6.000000,-6.000000,-19.000000,-3.000000,-1.000000,11.000000,12.000000
1297841.294445,2.000000,-3.000000,-9.000000,26.000000,1.000000,-7.000000,-17.000000,-15.000000
1297841.295965,-11.000000,2.000000,-7.000000,-14.000000,-14.000000,-8.000000,-10.000000,-15.000000
1297841.295998,16.000000,-3.000000,1.000000,-19.000000,3.000000,1.000000,8.000000,7.000000
1297841.315371,-4.000000,13.000000,18.000000,-7.000000,1.000000,0.000000,1.000000,1.000000
1297841.315406,5.000000,18.000000,13.000000,27.000000,-6.000000,3.000000,11.000000,15.000000
1297841.323977,9.000000,-12.000000,3.000000,63.000000,3.000000,1.000000,-2.000000,-2.000000
1297841.324105,2.000000,-20.000000,-13.000000,-49.000000,-7.000000,-4.000000,-10.000000,-14.000000
1297841.324280,-22.000000,-3.000000,14.000000,33.000000,8.000000,1.000000,3.000000,1.000000
1297841.324310,-4.000000,6.000000,0.000000,-15.000000,-5.000000,0.000000,2.000000,4.000000
1297841.330452,35.000000,10.000000,-1.000000,13.000000,-2.000000,2.000000,3.000000,6.000000
1297841.330486,22.000000,11.000000,8.000000,44.000000,6.000000,2.000000,3.000000,7.000000
1297841.360443,-47.000000,-44.000000,-10.000000,-22.000000,-9.000000,-4.000000,-4.000000,-9.000000
1297841.360462,11.000000,9.000000,0.000000,-31.000000,-1.000000,-6.000000,0.000000,2.000000
1297841.375463,-28.000000,-30.000000,-49.000000,-11.000000,-1.000000,2.000000,4.000000,3.000000
1297841.375502,21.000000,3.000000,4.000000,31.000000,-2.000000,-2.000000,-5.000000,-9.000000
1297841.382810,12.000000,-2.000000,-1.000000,-13.000000,-6.000000,-2.000000,3.000000,5.000000
1297841.382854,-12.000000,-1.000000,-5.000000,1.000000,6.000000,-4.000000,-7.000000,-3.000000
1297841.397923,26.000000,9.000000,12.000000,-5.000000,-5.000000,1.000000,-1.000000,0.000000
1297841.397952,-7.000000,-11.000000,1.000000,18.000000,4.000000,2.000000,0.000000,-1.000000
1297841.405451,6.000000,-41.000000,-19.000000,20.000000,-4.000000,3.000000,3.000000,2.000000
1297841.405618,-15.000000,-5.000000,-15.000000,-33.000000,-2.000000,-4.000000,-10.000000,-7.000000
1297841.406980,21.000000,14.000000,13.000000,-73.000000,-8.000000,-6.000000,-5.000000,-6.000000
1297841.407073,30.000000,72.000000,11.000000,21.000000,5.000000,6.000000,11.000000,9.000000
1297841.407200,6.000000,10.000000,14.000000,26.000000,-2.000000,1.000000,-9.000000,-1.000000
1297841.407222,8.000000,-5.000000,-31.000000,-33.000000,-6.000000,-5.000000,-3.000000,-2.000000
1297841.412836,-38.000000,-11.000000,-2.000000,-3.000000,-5.000000,2.000000,3.000000,3.000000
1297841.412855,9.000000,6.000000,11.000000,16.000000,3.000000,-3.000000,-3.000000,-2.000000
1297841.427854,6.000000,-22.000000,5.000000,2.000000,2.000000,3.000000,10.000000,5.000000
1297841.427887,-6.000000,6.000000,7.000000,17.000000,5.000000,-2.000000,4.000000,2.000000
1297841.444079,22.000000,-9.000000,-9.000000,-11.000000,3.000000,0.000000,-3.000000,-7.000000
1297841.444117,1.000000,-4.000000,-7.000000,8.000000,-7.000000,-6.000000,-14.000000,-8.000000
1297841.444809,8.000000,-22.000000,2.000000,-22.000000,-2.000000,0.000000,5.000000,6.000000
1297841.444825,-26.000000,0.000000,-10.000000,3.000000,-4.000000,1.000000,2.000000,2.000000
1297841.450364,33.000000,5.000000,23.000000,10.000000,-8.000000,-4.000000,-7.000000,-3.000000
1297841.450400,-7.000000,-35.000000,-19.000000,61.000000,3.000000,-3.000000,-3.000000,-8.000000
1297841.480521,-18.000000,5.000000,4.000000,-29.000000,2.000000,1.000000,2.000000,7.000000
1297841.480557,1.000000,21.000000,7.000000,-1.000000,-4.000000,-3.000000,0.000000,1.000000
1297841.487949,16.000000,21.000000,-9.000000,5.000000,6.000000,4.000000,1.000000,3.000000
1297841.487982,7.000000,7.000000,6.000000,43.000000,8.000000,3.000000,0.000000,2.000000
1297841.510304,-26.000000,-18.000000,3.000000,-20.000000,-2.000000,-2.000000,-2.000000,-4.000000
1297841.510323,-2.000000,4.000000,-3.000000,-14.000000,-8.000000,-3.000000,-4.000000,-4.000000
1297841.518146,-6.000000,-14.000000,10.000000,15.000000,-6.000000,0.000000,8.000000,10.000000
1297841.518179,26.000000,16.000000,5.000000,10.000000,12.000000,1.000000,3.000000,-5.000000
1297841.519352,4.000000,15.000000,8.000000,-12.000000,-8.000000,-8.000000,-10.000000,-5.000000
1297841.519380,-3.000000,0.000000,2.000000,0.000000,2.000000,-4.000000,-9.000000,-1.000000
1297841.520017,19.000000,6.000000,-12.000000,-26.000000,-8.000000,0.000000,8.000000,11.000000
1297841.520045,-6.000000,-10.000000,-9.000000,-7.000000,-1.000000,0.000000,-2.000000,0.000000
1297841.526323,5.000000,1.000000,5.000000,-14.000000,0.000000,-3.000000,1.000000,-3.000000
1297841.526354,-15.000000,7.000000,12.000000,5.000000,-4.000000,3.000000,7.000000,8.000000
1297841.533309,13.000000,7.000000,-6.000000,9.000000,1.000000,-1.000000,-4.000000,2.000000
1297841.533341,-27.000000,-7.000000,21.000000,-36.000000,-4.000000,-2.000000,-5.000000,-8.000000
1297841.564141,-16.000000,-21.000000,-16.000000,13.000000,-3.000000,-3.000000,-5.000000,-11.000000
1297841.564325,9.000000,10.000000,-1.000000,-33.000000,-7.000000,1.000000,0.000000,2.000000
1297841.564653,14.000000,-7.000000,-2.000000,25.000000,7.000000,1.000000,3.000000,3.000000
1297841.564678,-43.000000,1.000000,20.000000,-13.000000,-6.000000,-1.000000,-6.000000,-1.000000
1297841.565491,-16.000000,1.000000,-9.000000,-8.000000,3.000000,2.000000,1.000000,-5.000000
1297841.565526,-34.000000,-11.000000,1.000000,20.000000,4.000000,0.000000,-10.000000,-10.000000
1297841.570324,4.000000,-9.000000,-2.000000,-18.000000,-16.000000,-4.000000,-2.000000,-1.000000
1297841.570343,6.000000,-15.000000,-16.000000,-8.000000,5.000000,4.000000,7.000000,3.000000
1297841.622945,16.000000,-1.000000,-4.000000,-21.000000,-3.000000,-3.000000,-4.000000,1.000000
1297841.623044,-20.000000,-17.000000,4.000000,55.000000,2.000000,0.000000,6.000000,2.000000
1297841.638061,2.000000,13.000000,-5.000000,-51.000000,-3.000000,0.000000,9.000000,9.000000
1297841.638095,3.000000,-1.000000,-5.000000,11.000000,-1.000000,-5.000000,-14.000000,-14.000000
1297841.652772,29.000000,6.000000,4.000000,8.000000,-2.000000,-2.000000,-2.000000,4.000000
1297841.652805,-11.000000,9.000000,11.000000,9.000000,4.000000,6.000000,10.000000,8.000000
1297841.660114,10.000000,3.000000,-3.000000,-11.000000,-5.000000,-1.000000,-6.000000,-10.000000
1297841.660132,-25.000000,-1.000000,-9.000000,22.000000,-2.000000,-10.000000,-16.000000,-7.000000
1297841.675880,3.000000,-61.000000,-15.000000,-40.000000,-11.000000,-1.000000,-1.000000,4.000000
1297841.676111,15.000000,14.000000,1.000000,-20.000000,-3.000000,-1.000000,3.000000,1.000000
1297841.677182,27.000000,11.000000,-4.000000,-50.000000,-10.000000,-3.000000,-1.000000,0.000000
1297841.677391,-33.000000,-2.000000,4.000000,25.000000,12.000000,-3.000000,3.000000,-2.000000
1297841.678450,-2.000000,5.000000,-7.000000,-46.000000,-3.000000,4.000000,18.000000,16.000000
1297841.678466,14.000000,28.000000,-4.000000,-15.000000,3.000000,0.000000,-3.000000,-3.000000
1297841.683467,15.000000,-10.000000,16.000000,-14.000000,-3.000000,-8.000000,-24.000000,-11.000000
1297841.683497,1.000000,7.000000,12.000000,33.000000,0.000000,-3.000000,2.000000,6.000000
1297841.690040,0.000000,-1.000000,5.000000,-17.000000,-1.000000,-1.000000,3.000000,5.000000
1297841.690059,-6.000000,-1.000000,-7.000000,29.000000,0.000000,7.000000,13.000000,8.000000
1297841.727600,-3.000000,4.000000,-5.000000,15.000000,8.000000,2.000000,2.000000,-2.000000
1297841.727670,-9.000000,-14.000000,7.000000,-20.000000,-5.000000,-4.000000,-20.000000,-19.000000
1297841.728341,31.000000,59.000000,6.000000,-1.000000,-3.000000,-3.000000,4.000000,2.000000
1297841.728373,-13.000000,-8.000000,0.000000,12.000000,-1.000000,-3.000000,-4.000000,0.000000
1297841.729402,7.000000,2.000000,-1.000000,0.000000,3.000000,1.000000,4.000000,7.000000
1297841.729419,14.000000,15.000000,9.000000,-3.000000,-6.000000,-4.000000,0.000000,3.000000
1297841.735222,-14.000000,7.000000,-3.000000,2.000000,-4.000000,-4.000000,-1.000000,-5.000000
1297841.735261,-13.000000,-29.000000,-22.000000,-16.000000,-3.000000,0.000000,-1.000000,-1.000000
1297841.757999,-48.000000,-13.000000,-4.000000,-26.000000,-5.000000,-5.000000,1.000000,-11.000000
1297841.758040,6.000000,6.000000,28.000000,11.000000,-1.000000,-5.000000,-12.000000,-16.000000
1297841.765140,-4.000000,-19.000000,-23.000000,-20.000000,-8.000000,1.000000,-1.000000,0.000000
1297841.765158,13.000000,12.000000,9.000000,21.000000,4.000000,3.000000,1.000000,8.000000
1297841.773502,-3.000000,4.000000,5.000000,-24.000000,-10.000000,-3.000000,5.000000,5.000000
1297841.773545,12.000000,6.000000,3.000000,10.000000,2.000000,3.000000,7.000000,1.000000
1297841.774107,0.000000,4.000000,-10.000000,-14.000000,-8.000000,-6.000000,-7.000000,-1.000000
1297841.774125,-3.000000,23.000000,13.000000,34.000000,9.000000,-3.000000,-5.000000,-4.000000
1297841.795772,1.000000,1.000000,-6.000000,3.000000,0.000000,4.000000,8.000000,-3.000000
1297841.795856,14.000000,23.000000,15.000000,-23.000000,-5.000000,-4.000000,-5.000000,3.000000
1297841.796463,-11.000000,-75.000000,-51.000000,-3.000000,-1.000000,-3.000000,-11.000000,-8.000000
1297841.796497,7.000000,11.000000,17.000000,31.000000,10.000000,3.000000,10.000000,9.000000
1297841.810309,2.000000,0.000000,-1.000000,-15.000000,-2.000000,-2.000000,5.000000,-2.000000
1297841.810328,-47.000000,-14.000000,-5.000000,22.000000,-6.000000,-9.000000,-14.000000,-13.000000
1297841.832882,42.000000,-3.000000,-17.000000,1.000000,1.000000,5.000000,0.000000,1.000000
1297841.832917,-31.000000,16.000000,21.000000,-31.000000,0.000000,7.000000,10.000000,11.000000
1297841.847781,9.000000,-4.000000,1.000000,-4.000000,-2.000000,-4.000000,-1.000000,-5.000000
1297841.847816,19.000000,10.000000,20.000000,22.000000,1.000000,3.000000,2.000000,1.000000
1297841.877883,-19.000000,-8.000000,-8.000000,-1.000000,-1.000000,-6.000000,1.000000,1.000000
1297841.877903,16.000000,15.000000,2.000000,-35.000000,4.000000,1.000000,2.000000,6.000000
1297841.885822,-33.000000,3.000000,7.000000,-6.000000,-1.000000,1.000000,0.000000,0.000000
1297841.885842,-6.000000,8.000000,12.000000,16.000000,-1.000000,-2.000000,-11.000000,-14.000000
1297841.886427,1.000000,-34.000000,-46.000000,-45.000000,-1.000000,0.000000,0.000000,4.000000
1297841.886450,3.000000,5.000000,5.000000,16.000000,8.000000,-4.000000,3.000000,2.000000
1297841.887787,11.000000,6.000000,8.000000,-14.000000,-11.000000,-4.000000,0.000000,0.000000
1297841.887817,-26.000000,-15.000000,-6.000000,-7.000000,-2.000000,2.000000,1.000000,-3.000000
1297841.888440,-13.000000,0.000000,-15.000000,15.000000,2.000000,-1.000000,-2.000000,-3.000000
1297841.888457,28.000000,18.000000,2.000000,3.000000,1.000000,-1.000000,4.000000,0.000000
1297841.900227,1.000000,3.000000,-7.000000,17.000000,2.000000,-6.000000,-7.000000,-1.000000
1297841.900266,-6.000000,-5.000000,8.000000,-1.000000,12.000000,5.000000,5.000000,7.000000
1297841.916064,21.000000,10.000000,9.000000,17.000000,2.000000,-4.000000,4.000000,1.000000
1297841.916240,-6.000000,-2.000000,8.000000,-61.000000,-11.000000,1.000000,1.000000,-1.000000
1297841.916715,-9.000000,-31.000000,-3.000000,29.000000,-3.000000,-6.000000,1.000000,4.000000
1297841.916789,39.000000,6.000000,-3.000000,19.000000,2.000000,0.000000,-1.000000,2.000000
1297841.923590,-56.000000,-5.000000,23.000000,36.000000,-2.000000,0.000000,-6.000000,-23.000000
1297841.923608,4.000000,8.000000,3.000000,-44.000000,6.000000,4.000000,3.000000,7.000000
1297841.930037,-8.000000,18.000000,3.000000,-17.000000,-3.000000,0.000000,9.000000,7.000000
1297841.930054,19.000000,10.000000,5.000000,-23.000000,-10.000000,-4.000000,0.000000,-3.000000
1297841.952964,4.000000,6.000000,5.000000,36.000000,-4.000000,1.000000,5.000000,3.000000
1297841.952984,17.000000,-2.000000,-4.000000,-22.000000,1.000000,-3.000000,3.000000,2.000000
1297841.960431,-26.000000,4.000000,2.000000,2.000000,1.000000,-4.000000,-6.000000,-3.000000
1297841.960463,-9.000000,3.000000,-8.000000,40.000000,3.000000,-4.000000,-7.000000,-4.000000
1297841.997595,1.000000,-10.000000,13.000000,-21.000000,-1.000000,2.000000,7.000000,-1.000000
1297841.997618,1.000000,-18.000000,-44.000000,14.000000,0.000000,5.000000,1.000000,4.000000
1297841.998231,-17.000000,1.000000,-9.000000,-27.000000,-2.000000,-6.000000,-14.000000,-12.000000
1297841.998254,19.000000,10.000000,15.000000,-1.000000,-1.000000,-2.000000,4.000000,12.000000
1297841.999379,2.000000,-3.000000,-6.000000,13.000000,-2.000000,-2.000000,-2.000000,-7.000000
1297841.999535,12.000000,3.000000,2.000000,-5.000000,1.000000,1.000000,-3.000000,0.000000
1297842.000301,-42.000000,-5.000000,9.000000,-17.000000,-1.000000,-3.000000,1.000000,-9.000000
1297842.000334,9.000000,-9.000000,-25.000000,18.000000,8.000000,-4.000000,-4.000000,1.000000
1297842.005872,-10.000000,6.000000,8.000000,27.000000,-6.000000,-2.000000,1.000000,5.000000
1297842.005905,-2.000000,-4.000000,-24.000000,-65.000000,-8.000000,4.000000,6.000000,3.000000
1297842.035054,13.000000,19.000000,14.000000,2.000000,-5.000000,-2.000000,-2.000000,5.000000
1297842.035072,17.000000,5.000000,2.000000,18.000000,-1.000000,-2.000000,5.000000,-3.000000
1297842.036320,-37.000000,12.000000,6.000000,-27.000000,-3.000000,2.000000,-4.000000,-1.000000
1297842.036336,19.000000,7.000000,1.000000,37.000000,4.000000,1.000000,4.000000,5.000000
1297842.037295,-15.000000,-13.000000,-15.000000,-27.000000,-1.000000,2.000000,-1.000000,0.000000
1297842.037310,31.000000,17.000000,6.000000,-1.000000,1.000000,0.000000,13.000000,14.000000
1297842.043249,-35.000000,2.000000,34.000000,21.000000,-10.000000,-10.000000,-20.000000,-20.000000
1297842.043281,-53.000000,-9.000000,-14.000000,11.000000,-3.000000,0.000000,-5.000000,-6.000000
1297842.050230,20.000000,12.000000,20.000000,-27.000000,5.000000,3.000000,9.000000,13.000000
1297842.050263,-11.000000,55.000000,-19.000000,-7.000000,6.000000,2.000000,4.000000,5.000000
1297842.080108,3.000000,11.000000,16.000000,31.000000,-10.000000,-12.000000,-20.000000,-10.000000
1297842.080143,0.000000,35.000000,19.000000,-3.000000,0.000000,2.000000,-4.000000,-22.000000
1297842.087968,-11.000000,17.000000,-11.000000,1.000000,1.000000,3.000000,2.000000,7.000000
1297842.087993,9.000000,4.000000,7.000000,29.000000,-1.000000,0.000000,4.000000,7.000000
1297842.119099,-8.000000,1.000000,6.000000,7.000000,2.000000,3.000000,8.000000,0.000000
1297842.119364,1.000000,-7.000000,-13.000000,4.000000,3.000000,2.000000,-7.000000,-5.000000
1297842.119534,8.000000,6.000000,11.000000,-5.000000,0.000000,-1.000000,-1.000000,3.000000
1297842.119551,1.000000,-1.000000,-5.000000,23.000000,6.000000,-1.000000,0.000000,0.000000
1297842.120694,9.000000,1.000000,-1.000000,2.000000,-4.000000,-3.000000,-3.000000,-3.000000
1297842.120913,13.000000,-18.000000,-5.000000,-1.000000,3.000000,-3.000000,1.000000,-1.000000
1297842.121249,-53.000000,-7.000000,-5.000000,8.000000,1.000000,1.000000,-2.000000,-8.000000
1297842.121264,3.000000,-2.000000,1.000000,3.000000,-3.000000,-1.000000,-1.000000,-3.000000
1297842.125856,15.000000,17.000000,19.000000,39.000000,2.000000,1.000000,4.000000,8.000000
1297842.125880,9.000000,-8.000000,-47.000000,-56.000000,-10.000000,0.000000,-3.000000,-8.000000
1297842.140357,-29.000000,-67.000000,-8.000000,-17.000000,1.000000,-5.000000,-3.000000,-6.000000
1297842.140375,-41.000000,-10.000000,-14.000000,-6.000000,-5.000000,-7.000000,-2.000000,-1.000000
1297842.155798,-1.000000,6.000000,13.000000,20.000000,4.000000,0.000000,4.000000,6.000000
1297842.155828,-6.000000,-10.000000,-2.000000,-17.000000,-6.000000,-2.000000,-11.000000,-13.000000
1297842.156493,21.000000,8.000000,-7.000000,6.000000,3.000000,-1.000000,2.000000,1.000000
1297842.156526,4.000000,-15.000000,6.000000,31.000000,1.000000,-2.000000,-2.000000,-2.000000
1297842.192793,6.000000,10.000000,3.000000,-20.000000,4.000000,1.000000,5.000000,7.000000
1297842.192830,5.000000,-13.000000,1.000000,32.000000,-1.000000,5.000000,2.000000,-2.000000
1297842.200495,-11.000000,-1.000000,-3.000000,-22.000000,-5.000000,0.000000,-2.000000,-3.000000
1297842.200532,17.000000,9.000000,26.000000,53.000000,4.000000,2.000000,-1.000000,3.000000
1297842.230468,-19.000000,-11.000000,-29.000000,-32.000000,-10.000000,-1.000000,2.000000,-5.000000
1297842.230502,14.000000,0.000000,10.000000,-20.000000,6.000000,1.000000,1.000000,4.000000
1297842.231414,27.000000,22.000000,18.000000,4.000000,-7.000000,-6.000000,-4.000000,-2.000000
1297842.231451,-63.000000,-15.000000,-1.000000,18.000000,2.000000,3.000000,2.000000,-3.000000
1297842.232594,-25.000000,2.000000,4.000000,23.000000,0.000000,3.000000,3.000000,1.000000
1297842.232629,-6.000000,0.000000,-6.000000,-4.000000,-13.000000,-8.000000,-15.000000,-13.000000
1297842.232798,11.000000,-23.000000,-8.000000,-17.000000,-5.000000,-4.000000,-7.000000,3.000000
1297842.232831,18.000000,-3.000000,0.000000,23.000000,2.000000,4.000000,15.000000,12.000000
1297842.238001,9.000000,-9.000000,-6.000000,-3.000000,-5.000000,-8.000000,-1.000000,-2.000000
1297842.238035,6.000000,-4.000000,-28.000000,-50.000000,-6.000000,1.000000,4.000000,3.000000
1297842.245762,21.000000,1.000000,3.000000,15.000000,0.000000,0.000000,4.000000,7.000000
1297842.245780,-18.000000,-1.000000,2.000000,18.000000,-4.000000,1.000000,4.000000,6.000000
1297842.252797,12.000000,7.000000,6.000000,29.000000,2.000000,-1.000000,1.000000,-3.000000
1297842.252814,11.000000,-11.000000,-16.000000,-16.000000,-5.000000,-4.000000,-10.000000,-7.000000
1297842.276183,3.000000,3.000000,-17.000000,-20.000000,0.000000,0.000000,0.000000,-1.000000
1297842.276220,6.000000,-3.000000,2.000000,-7.000000,-1.000000,4.000000,5.000000,9.000000
1297842.276858,-8.000000,4.000000,8.000000,34.000000,-2.000000,0.000000,-6.000000,-13.000000
1297842.276874,15.000000,6.000000,1.000000,-6.000000,1.000000,-4.000000,-11.000000,-1.000000
1297842.290333,3.000000,-25.000000,5.000000,8.000000,-1.000000,-2.000000,-5.000000,-6.000000
1297842.290362,-17.000000,-18.000000,-17.000000,-25.000000,-3.000000,-1.000000,5.000000,3.000000
1297842.305784,21.000000,6.000000,-2.000000,15.000000,0.000000,-1.000000,-2.000000,-5.000000
1297842.305813,23.000000,9.000000,-12.000000,53.000000,2.000000,-2.000000,-8.000000,-3.000000
1297842.328097,0.000000,60.000000,20.000000,-36.000000,-1.000000,0.000000,3.000000,6.000000
1297842.328124,-7.000000,-18.000000,-62.000000,-13.000000,0.000000,-5.000000,-5.000000,-23.000000
1297842.342816,-11.000000,8.000000,20.000000,1.000000,-1.000000,-2.000000,0.000000,2.000000
1297842.342922,30.000000,-2.000000,-14.000000,10.000000,-1.000000,4.000000,5.000000,5.000000
1297842.351319,10.000000,10.000000,5.000000,35.000000,4.000000,3.000000,9.000000,10.000000
1297842.351347,-8.000000,-11.000000,-1.000000,-69.000000,-22.000000,-16.000000,-21.000000,-15.000000
1297842.352432,-13.000000,8.000000,3.000000,0.000000,10.000000,1.000000,-2.000000,-5.000000
1297842.352529,4.000000,32.000000,-1.000000,6.000000,2.000000,3.000000,3.000000,11.000000
1297842.353219,30.000000,8.000000,10.000000,-8.000000,2.000000,3.000000,6.000000,12.000000
1297842.353236,18.000000,18.000000,9.000000,41.000000,0.000000,2.000000,0.000000,-2.000000
1297842.357560,-46.000000,-15.000000,5.000000,-27.000000,-11.000000,-6.000000,-17.000000,-22.000000
1297842.357578,-1.000000,8.000000,-4.000000,1.000000,-1.000000,1.000000,-2.000000,-1.000000
1297842.365898,21.000000,-1.000000,-5.000000,5.000000,-1.000000,-3.000000,3.000000,4.000000
1297842.365916,18.000000,17.000000,27.000000,67.000000,1.000000,-1.000000,1.000000,5.000000
1297842.380478,-53.000000,-25.000000,-48.000000,-37.000000,1.000000,1.000000,5.000000,-1.000000
1297842.380505,-5.000000,-18.000000,8.000000,4.000000,-5.000000,-3.000000,0.000000,-6.000000
1297842.402774,-17.000000,-28.000000,-16.000000,-18.000000,-7.000000,0.000000,0.000000,1.000000
1297842.402809,26.000000,18.000000,15.000000,1.000000,-3.000000,-2.000000,-11.000000,-2.000000
1297842.432769,-5.000000,7.000000,-2.000000,17.000000,12.000000,5.000000,3.000000,1.000000
1297842.432805,-33.000000,-16.000000,-8.000000,14.000000,-6.000000,-3.000000,-1.000000,-3.000000
1297842.470134,7.000000,4.000000,0.000000,-12.000000,-5.000000,-6.000000,-2.000000,-3.000000
1297842.470342,8.000000,11.000000,-4.000000,-37.000000,-6.000000,1.000000,-3.000000,3.000000
1297842.470712,3.000000,-11.000000,-6.000000,-21.000000,0.000000,2.000000,4.000000,7.000000
1297842.470737,12.000000,10.000000,5.000000,18.000000,4.000000,4.000000,8.000000,6.000000
1297842.472324,-16.000000,-10.000000,0.000000,28.000000,-4.000000,-4.000000,-25.000000,-22.000000
1297842.472348,-15.000000,-2.000000,-19.000000,-46.000000,-8.000000,-6.000000,-13.000000,-8.000000
1297842.473164,14.000000,12.000000,0.000000,3.000000,1.000000,1.000000,5.000000,12.000000
1297842.473198,-10.000000,-1.000000,2.000000,30.000000,8.000000,-2.000000,2.000000,4.000000
1297842.473648,18.000000,-1.000000,-1.000000,-29.000000,-4.000000,4.000000,4.000000,4.000000
1297842.473666,-9.000000,-19.000000,-32.000000,-23.000000,-7.000000,0.000000,7.000000,-1.000000
1297842.474254,9.000000,-3.000000,-7.000000,43.000000,-6.000000,-9.000000,-10.000000,-12.000000
1297842.474271,12.000000,15.000000,13.000000,-6.000000,3.000000,-2.000000,-7.000000,-1.000000
1297842.477776,7.000000,9.000000,4.000000,21.000000,2.000000,-3.000000,-3.000000,-1.000000
1297842.477811,2.000000,-29.000000,-31.000000,-3.000000,6.000000,0.000000,3.000000,0.000000
1297842.486021,-24.000000,-12.000000,-17.000000,14.000000,3.000000,-5.000000,-7.000000,1.000000
1297842.486053,14.000000,17.000000,28.000000,-1.000000,0.000000,4.000000,2.000000,2.000000
1297842.508681,10.000000,-6.000000,-26.000000,-3.000000,-2.000000,-6.000000,-3.000000,0.000000
1297842.508920,17.000000,7.000000,6.000000,-6.000000,4.000000,6.000000,2.000000,-3.000000
1297842.509375,-20.000000,3.000000,4.000000,-60.000000,-7.000000,5.000000,7.000000,8.000000
1297842.509406,17.000000,-1.000000,8.000000,16.000000,-1.000000,0.000000,4.000000,2.000000
1297842.515206,-30.000000,-21.000000,7.000000,-37.000000,-13.000000,-5.000000,-7.000000,-2.000000
1297842.515234,7.000000,2.000000,1.000000,-8.000000,6.000000,1.000000,0.000000,5.000000
1297842.530223,17.000000,12.000000,3.000000,28.000000,-3.000000,-5.000000,-8.000000,-4.000000
1297842.530258,-1.000000,1.000000,15.000000,5.000000,2.000000,-4.000000,-6.000000,-3.000000
1297842.545572,-19.000000,-17.000000,-22.000000,-2.000000,-1.000000,-3.000000,4.000000,-1.000000
1297842.545608,-8.000000,4.000000,-17.000000,-3.000000,1.000000,1.000000,-1.000000,-3.000000
