# participant_id: P10
# gesture: soft
# trial_number: 1
# stream_name: Myo_EMG
# stream_type: emg
# timestamp: 20260420_161110
# samples: 5531
# duration_sec: 30.466
# nominal_sample_rate: 200.0
# effective_sample_rate: 181.51
#
timestamp,emg_1,emg_2,emg_3,emg_4,emg_5,emg_6,emg_7,emg_8
1306161.903621,-5.000000,-5.000000,4.000000,9.000000,2.000000,-2.000000,-7.000000,1.000000
1306161.903631,-2.000000,-4.000000,-6.000000,-7.000000,-1.000000,-2.000000,0.000000,0.000000
1306161.941504,0.000000,-5.000000,-3.000000,-6.000000,1.000000,1.000000,1.000000,-4.000000
1306161.941514,-2.000000,7.000000,5.000000,8.000000,0.000000,3.000000,-7.000000,0.000000
1306161.948920,2.000000,7.000000,-6.000000,-15.000000,1.000000,-3.000000,-2.000000,0.000000
1306161.948949,-1.000000,-1.000000,-3.000000,-12.000000,-1.000000,-1.000000,0.000000,-2.000000
1306161.986158,2.000000,3.000000,-2.000000,9.000000,3.000000,0.000000,-5.000000,2.000000
1306161.986180,2.000000,-10.000000,-2.000000,-3.000000,0.000000,-3.000000,-3.000000,-1.000000
1306161.986935,-4.000000,-7.000000,-4.000000,-12.000000,1.000000,0.000000,4.000000,-6.000000
1306161.986962,-1.000000,4.000000,2.000000,3.000000,3.000000,2.000000,-3.000000,-4.000000
1306161.987818,4.000000,3.000000,1.000000,7.000000,3.000000,-2.000000,-7.000000,2.000000
1306161.987827,-1.000000,-10.000000,-5.000000,-20.000000,-7.000000,1.000000,3.000000,-5.000000
1306161.988602,-3.000000,2.000000,-3.000000,-5.000000,4.000000,5.000000,0.000000,-3.000000
1306161.988612,4.000000,4.000000,3.000000,1.000000,-4.000000,-4.000000,-8.000000,-1.000000
1306161.990121,-2.000000,9.000000,-1.000000,5.000000,3.000000,2.000000,-1.000000,1.000000
1306161.990159,-2.000000,-1.000000,-7.000000,-7.000000,-3.000000,-4.000000,3.000000,1.000000
1306162.001384,-1.000000,1.000000,5.000000,17.000000,-1.000000,2.000000,-5.000000,2.000000
1306162.001401,-4.000000,-13.000000,-1.000000,-10.000000,-5.000000,-5.000000,3.000000,-4.000000
1306162.023915,-3.000000,-3.000000,-2.000000,0.000000,3.000000,0.000000,-1.000000,-3.000000
1306162.023926,-3.000000,0.000000,0.000000,2.000000,1.000000,2.000000,-11.000000,0.000000
1306162.024217,-1.000000,2.000000,-3.000000,-7.000000,-1.000000,-3.000000,1.000000,-2.000000
1306162.024228,-4.000000,2.000000,-7.000000,-3.000000,-3.000000,2.000000,3.000000,-1.000000
1306162.038751,-3.000000,1.000000,5.000000,-7.000000,-10.000000,-2.000000,-3.000000,-4.000000
1306162.038761,6.000000,-16.000000,2.000000,3.000000,1.000000,-3.000000,-2.000000,0.000000
1306162.046378,2.000000,-6.000000,-6.000000,-14.000000,-2.000000,-6.000000,-1.000000,-3.000000
1306162.046388,-2.000000,2.000000,-2.000000,5.000000,1.000000,2.000000,-1.000000,-5.000000
1306162.083643,0.000000,5.000000,1.000000,5.000000,-2.000000,-7.000000,-6.000000,-1.000000
1306162.083654,1.000000,-11.000000,-4.000000,0.000000,-5.000000,0.000000,3.000000,2.000000
1306162.084052,3.000000,5.000000,1.000000,4.000000,2.000000,0.000000,-3.000000,1.000000
1306162.084068,-4.000000,1.000000,-7.000000,0.000000,0.000000,-1.000000,-7.000000,0.000000
1306162.085595,-5.000000,-10.000000,-2.000000,-16.000000,-12.000000,-1.000000,1.000000,-3.000000
1306162.085606,6.000000,-6.000000,0.000000,-6.000000,-4.000000,-1.000000,1.000000,-1.000000
1306162.099000,4.000000,11.000000,-3.000000,8.000000,2.000000,5.000000,-3.000000,3.000000
1306162.099013,-3.000000,-4.000000,-4.000000,-4.000000,-6.000000,-6.000000,-1.000000,-4.000000
1306162.099912,-2.000000,-9.000000,-1.000000,-2.000000,-6.000000,0.000000,-1.000000,-3.000000
1306162.099922,-4.000000,3.000000,-4.000000,1.000000,-1.000000,3.000000,4.000000,0.000000
1306162.100645,3.000000,-7.000000,5.000000,-2.000000,-1.000000,2.000000,-4.000000,-1.000000
1306162.100654,10.000000,-8.000000,-7.000000,-14.000000,-3.000000,-7.000000,-2.000000,-4.000000
1306162.107087,-4.000000,3.000000,-3.000000,-16.000000,-3.000000,-2.000000,0.000000,-2.000000
1306162.107099,3.000000,2.000000,12.000000,42.000000,10.000000,1.000000,-2.000000,6.000000
1306162.121262,1.000000,-2.000000,-4.000000,-3.000000,0.000000,2.000000,0.000000,1.000000
1306162.121286,-7.000000,3.000000,-8.000000,-8.000000,2.000000,1.000000,-1.000000,-4.000000
1306162.144021,-1.000000,10.000000,3.000000,1.000000,-1.000000,4.000000,-4.000000,2.000000
1306162.144031,6.000000,-5.000000,0.000000,-7.000000,-1.000000,-3.000000,0.000000,1.000000
1306162.151517,-4.000000,-7.000000,-8.000000,-3.000000,2.000000,1.000000,4.000000,-4.000000
1306162.151528,-4.000000,10.000000,1.000000,14.000000,3.000000,3.000000,-4.000000,2.000000
1306162.166375,-2.000000,-1.000000,0.000000,-7.000000,-2.000000,-3.000000,-1.000000,0.000000
1306162.166386,2.000000,-5.000000,10.000000,25.000000,1.000000,-6.000000,8.000000,0.000000
1306162.181187,-3.000000,-2.000000,1.000000,-6.000000,-6.000000,0.000000,-1.000000,1.000000
1306162.181199,-3.000000,-4.000000,-1.000000,-2.000000,1.000000,5.000000,-1.000000,-1.000000
1306162.204092,0.000000,-6.000000,0.000000,-6.000000,-5.000000,0.000000,4.000000,2.000000
1306162.204104,1.000000,-2.000000,-2.000000,-18.000000,-1.000000,6.000000,-2.000000,0.000000
1306162.218887,-5.000000,2.000000,2.000000,27.000000,6.000000,8.000000,-3.000000,3.000000
1306162.218902,5.000000,-4.000000,6.000000,13.000000,-3.000000,-5.000000,-3.000000,0.000000
1306162.219851,-1.000000,-4.000000,1.000000,-6.000000,-2.000000,-1.000000,2.000000,-3.000000
1306162.219860,3.000000,8.000000,1.000000,-3.000000,0.000000,1.000000,0.000000,0.000000
1306162.220356,-8.000000,-1.000000,3.000000,15.000000,2.000000,4.000000,1.000000,-1.000000
1306162.220373,1.000000,-6.000000,-7.000000,2.000000,-2.000000,-2.000000,5.000000,-3.000000
1306162.221710,-7.000000,2.000000,2.000000,1.000000,8.000000,5.000000,0.000000,-4.000000
1306162.221730,2.000000,1.000000,1.000000,-3.000000,1.000000,-1.000000,-5.000000,1.000000
1306162.222545,1.000000,-4.000000,-2.000000,5.000000,0.000000,4.000000,1.000000,2.000000
1306162.222553,-3.000000,3.000000,4.000000,-21.000000,-9.000000,-4.000000,-2.000000,-3.000000
1306162.233849,4.000000,11.000000,1.000000,8.000000,3.000000,7.000000,-8.000000,1.000000
1306162.233859,-2.000000,2.000000,-3.000000,-9.000000,-4.000000,-4.000000,0.000000,0.000000
1306162.241255,-2.000000,3.000000,-4.000000,-1.000000,-1.000000,-4.000000,5.000000,-2.000000
1306162.241266,1.000000,2.000000,1.000000,10.000000,11.000000,5.000000,-1.000000,2.000000
1306162.263739,-3.000000,-5.000000,6.000000,8.000000,1.000000,0.000000,-2.000000,0.000000
1306162.263778,-1.000000,-1.000000,-3.000000,-11.000000,-6.000000,-4.000000,1.000000,-5.000000
1306162.264237,4.000000,9.000000,3.000000,-1.000000,-1.000000,-1.000000,-3.000000,-3.000000
1306162.264246,-5.000000,6.000000,-2.000000,-12.000000,-9.000000,1.000000,-5.000000,2.000000
1306162.271203,4.000000,-5.000000,5.000000,28.000000,5.000000,2.000000,6.000000,4.000000
1306162.271213,0.000000,12.000000,-4.000000,-18.000000,-7.000000,-3.000000,0.000000,-5.000000
1306162.278813,-1.000000,15.000000,1.000000,-7.000000,-2.000000,3.000000,-7.000000,-2.000000
1306162.278823,-2.000000,-2.000000,4.000000,-3.000000,-6.000000,-4.000000,0.000000,-1.000000
1306162.316289,3.000000,-3.000000,-2.000000,-5.000000,-4.000000,1.000000,3.000000,-3.000000
1306162.316300,1.000000,0.000000,2.000000,-2.000000,-4.000000,-5.000000,-5.000000,-1.000000
1306162.323483,1.000000,-9.000000,1.000000,-12.000000,-4.000000,0.000000,1.000000,1.000000
1306162.323511,-3.000000,-6.000000,-3.000000,2.000000,-5.000000,-6.000000,1.000000,-3.000000
1306162.324811,4.000000,0.000000,-1.000000,11.000000,7.000000,2.000000,-1.000000,2.000000
1306162.324830,2.000000,3.000000,2.000000,-4.000000,-2.000000,0.000000,-3.000000,0.000000
1306162.325321,6.000000,4.000000,1.000000,-1.000000,2.000000,-5.000000,-1.000000,0.000000
1306162.325329,-6.000000,4.000000,-5.000000,2.000000,1.000000,0.000000,-1.000000,0.000000
1306162.339002,-3.000000,7.000000,4.000000,-2.000000,0.000000,6.000000,-1.000000,2.000000
1306162.339013,-2.000000,5.000000,3.000000,4.000000,-1.000000,-7.000000,0.000000,0.000000
1306162.361199,-4.000000,-1.000000,-5.000000,-3.000000,8.000000,-3.000000,1.000000,-6.000000
1306162.361209,-10.000000,-3.000000,-9.000000,-5.000000,-7.000000,0.000000,-8.000000,-5.000000
1306162.376592,8.000000,-4.000000,12.000000,30.000000,9.000000,5.000000,0.000000,7.000000
1306162.376601,2.000000,-6.000000,-8.000000,-20.000000,-6.000000,-8.000000,4.000000,0.000000
1306162.377234,-3.000000,9.000000,-2.000000,-2.000000,-3.000000,-5.000000,-5.000000,-3.000000
1306162.377361,1.000000,-1.000000,0.000000,0.000000,-1.000000,-1.000000,-4.000000,-2.000000
1306162.379223,1.000000,-2.000000,-2.000000,-8.000000,-3.000000,-3.000000,-2.000000,-5.000000
1306162.379234,4.000000,1.000000,1.000000,13.000000,-2.000000,-1.000000,2.000000,-4.000000
1306162.383837,0.000000,2.000000,2.000000,3.000000,2.000000,2.000000,-7.000000,0.000000
1306162.383854,-6.000000,-12.000000,-1.000000,16.000000,-2.000000,4.000000,-3.000000,-1.000000
1306162.399061,5.000000,4.000000,0.000000,-11.000000,-2.000000,-1.000000,2.000000,2.000000
1306162.399072,0.000000,6.000000,1.000000,-2.000000,3.000000,-1.000000,0.000000,-1.000000
1306162.421424,-5.000000,-10.000000,-1.000000,5.000000,-5.000000,-4.000000,-4.000000,-2.000000
1306162.421434,-2.000000,-3.000000,-7.000000,-1.000000,0.000000,-1.000000,3.000000,-4.000000
1306162.458927,-3.000000,1.000000,-2.000000,-2.000000,-1.000000,0.000000,0.000000,-3.000000
1306162.458958,-2.000000,1.000000,-1.000000,1.000000,-1.000000,-1.000000,-4.000000,0.000000
1306162.473591,0.000000,-5.000000,-1.000000,-6.000000,-9.000000,-5.000000,4.000000,-3.000000
1306162.473620,0.000000,2.000000,1.000000,-1.000000,-3.000000,-1.000000,-1.000000,-2.000000
1306162.482083,-7.000000,8.000000,-3.000000,-2.000000,5.000000,3.000000,-6.000000,0.000000
1306162.482095,-3.000000,-17.000000,-11.000000,-6.000000,-7.000000,2.000000,4.000000,-1.000000
1306162.482414,3.000000,3.000000,6.000000,23.000000,0.000000,0.000000,-1.000000,0.000000
1306162.482424,-5.000000,-1.000000,-1.000000,1.000000,1.000000,-5.000000,0.000000,3.000000
1306162.483649,0.000000,2.000000,0.000000,-4.000000,1.000000,2.000000,-4.000000,-2.000000
1306162.483659,1.000000,-7.000000,-2.000000,2.000000,-7.000000,-5.000000,-2.000000,1.000000
1306162.484214,0.000000,-8.000000,-2.000000,-4.000000,-5.000000,-3.000000,2.000000,-3.000000
1306162.484224,0.000000,7.000000,-3.000000,0.000000,2.000000,-4.000000,-3.000000,0.000000
1306162.485153,-1.000000,4.000000,3.000000,3.000000,1.000000,6.000000,-5.000000,0.000000
1306162.485163,8.000000,-11.000000,-6.000000,-3.000000,-3.000000,0.000000,6.000000,5.000000
1306162.496591,1.000000,-4.000000,-9.000000,-5.000000,-1.000000,-5.000000,2.000000,5.000000
1306162.496604,0.000000,11.000000,4.000000,-14.000000,3.000000,2.000000,0.000000,-2.000000
1306162.503754,0.000000,-3.000000,11.000000,33.000000,3.000000,-2.000000,1.000000,0.000000
1306162.503765,-5.000000,-9.000000,-2.000000,-10.000000,-5.000000,-6.000000,1.000000,-7.000000
1306162.518863,1.000000,3.000000,-4.000000,-13.000000,0.000000,0.000000,-3.000000,-2.000000
1306162.518875,1.000000,0.000000,-5.000000,-5.000000,-1.000000,-6.000000,-2.000000,0.000000
1306162.541362,0.000000,-6.000000,-1.000000,-5.000000,-3.000000,-1.000000,-1.000000,-1.000000
1306162.541373,-4.000000,5.000000,2.000000,3.000000,4.000000,0.000000,2.000000,-1.000000
1306162.578975,-4.000000,10.000000,0.000000,-1.000000,3.000000,3.000000,-3.000000,2.000000
1306162.579009,3.000000,-2.000000,0.000000,3.000000,1.000000,-2.000000,3.000000,7.000000
1306162.579346,4.000000,3.000000,2.000000,1.000000,9.000000,-2.000000,1.000000,3.000000
1306162.579376,-2.000000,9.000000,1.000000,7.000000,5.000000,6.000000,-1.000000,-2.000000
1306162.580646,0.000000,5.000000,0.000000,-4.000000,-5.000000,-1.000000,-1.000000,0.000000
1306162.580660,-1.000000,-12.000000,-5.000000,-12.000000,-7.000000,-4.000000,0.000000,-4.000000
1306162.581277,0.000000,-6.000000,-1.000000,1.000000,5.000000,-4.000000,-3.000000,1.000000
1306162.581287,-2.000000,-1.000000,-2.000000,-3.000000,-2.000000,-4.000000,-8.000000,3.000000
1306162.582694,-1.000000,-6.000000,-5.000000,-4.000000,-2.000000,-5.000000,4.000000,-4.000000
1306162.582722,-10.000000,-3.000000,-2.000000,-8.000000,-9.000000,-3.000000,-6.000000,-5.000000
1306162.594437,-5.000000,10.000000,-1.000000,-12.000000,-3.000000,-2.000000,1.000000,-6.000000
1306162.594448,-6.000000,5.000000,-3.000000,3.000000,1.000000,4.000000,-4.000000,-2.000000
1306162.601044,2.000000,-2.000000,-4.000000,-3.000000,1.000000,-3.000000,0.000000,-4.000000
1306162.601055,-2.000000,-7.000000,-3.000000,-12.000000,-3.000000,-2.000000,3.000000,-1.000000
1306162.616515,0.000000,-4.000000,-2.000000,-1.000000,-1.000000,-1.000000,-4.000000,-1.000000
1306162.616526,-1.000000,-4.000000,2.000000,-7.000000,-10.000000,0.000000,-1.000000,-2.000000
1306162.638876,-4.000000,-7.000000,-4.000000,3.000000,3.000000,-3.000000,2.000000,-1.000000
1306162.638888,-1.000000,-3.000000,0.000000,-9.000000,2.000000,-1.000000,-2.000000,1.000000
1306162.661209,-2.000000,1.000000,5.000000,20.000000,3.000000,-2.000000,-9.000000,3.000000
1306162.661219,-6.000000,-6.000000,-3.000000,-10.000000,-6.000000,-8.000000,-4.000000,-4.000000
1306162.676496,-5.000000,3.000000,-1.000000,-7.000000,-4.000000,3.000000,0.000000,-1.000000
1306162.676508,-4.000000,5.000000,-1.000000,11.000000,1.000000,6.000000,-1.000000,4.000000
1306162.706146,-3.000000,-1.000000,1.000000,-4.000000,0.000000,-4.000000,0.000000,-2.000000
1306162.706157,0.000000,10.000000,0.000000,13.000000,-4.000000,-3.000000,1.000000,-3.000000
1306162.713907,-2.000000,-6.000000,6.000000,6.000000,2.000000,-4.000000,-7.000000,-1.000000
1306162.713919,3.000000,-2.000000,-1.000000,-11.000000,-2.000000,1.000000,-1.000000,1.000000
1306162.714821,-4.000000,-4.000000,-1.000000,3.000000,-7.000000,-5.000000,3.000000,-4.000000
1306162.714830,3.000000,1.000000,1.000000,-7.000000,-2.000000,-2.000000,0.000000,1.000000
1306162.715390,5.000000,2.000000,3.000000,18.000000,3.000000,4.000000,-4.000000,4.000000
1306162.715398,-4.000000,3.000000,-6.000000,-12.000000,-1.000000,-9.000000,-5.000000,-4.000000
1306162.716025,-5.000000,-1.000000,-4.000000,-2.000000,-6.000000,1.000000,1.000000,-6.000000
1306162.716033,3.000000,7.000000,3.000000,-8.000000,0.000000,3.000000,-2.000000,4.000000
1306162.716906,3.000000,-1.000000,-4.000000,-1.000000,-1.000000,3.000000,-1.000000,-3.000000
1306162.716915,-3.000000,-2.000000,-3.000000,-3.000000,-2.000000,-2.000000,-7.000000,-3.000000
1306162.721457,2.000000,-5.000000,-1.000000,-8.000000,-4.000000,-3.000000,4.000000,0.000000
1306162.721469,-4.000000,2.000000,-4.000000,2.000000,1.000000,6.000000,-3.000000,-3.000000
1306162.736425,1.000000,-5.000000,-1.000000,3.000000,-3.000000,-2.000000,-7.000000,3.000000
1306162.736445,2.000000,-2.000000,4.000000,6.000000,5.000000,-2.000000,3.000000,2.000000
1306162.758956,-5.000000,-2.000000,-5.000000,-6.000000,0.000000,0.000000,1.000000,-4.000000
1306162.758967,1.000000,-6.000000,2.000000,19.000000,8.000000,0.000000,-4.000000,4.000000
1306162.781379,-2.000000,-8.000000,-8.000000,-1.000000,2.000000,2.000000,0.000000,-1.000000
1306162.781391,1.000000,3.000000,-9.000000,-10.000000,-3.000000,-5.000000,3.000000,-4.000000
1306162.788796,-4.000000,-1.000000,2.000000,-6.000000,-4.000000,3.000000,-4.000000,-2.000000
1306162.788854,-1.000000,0.000000,-7.000000,-2.000000,2.000000,0.000000,0.000000,-2.000000
1306162.796716,1.000000,-14.000000,5.000000,-7.000000,-4.000000,-3.000000,4.000000,0.000000
1306162.796748,-1.000000,2.000000,-7.000000,-8.000000,-3.000000,0.000000,-2.000000,-2.000000
1306162.797334,-5.000000,-3.000000,3.000000,1.000000,3.000000,2.000000,-3.000000,1.000000
1306162.797342,-3.000000,-1.000000,0.000000,-2.000000,-1.000000,-1.000000,0.000000,-3.000000
1306162.798863,3.000000,4.000000,-1.000000,-7.000000,-5.000000,2.000000,-1.000000,-2.000000
1306162.798885,-3.000000,7.000000,5.000000,5.000000,-5.000000,-1.000000,-3.000000,1.000000
1306162.818929,1.000000,-4.000000,-8.000000,-10.000000,-1.000000,-4.000000,0.000000,-2.000000
1306162.818941,-6.000000,-4.000000,-7.000000,-17.000000,-6.000000,-6.000000,2.000000,-1.000000
1306162.819879,-4.000000,-1.000000,-3.000000,1.000000,-4.000000,-1.000000,-9.000000,1.000000
1306162.819887,-3.000000,-7.000000,-4.000000,-4.000000,0.000000,-5.000000,-5.000000,1.000000
1306162.820629,-1.000000,-14.000000,-4.000000,-6.000000,-11.000000,-7.000000,3.000000,-4.000000
1306162.820638,-1.000000,3.000000,-2.000000,-7.000000,-4.000000,2.000000,-7.000000,-3.000000
1306162.833781,3.000000,3.000000,4.000000,15.000000,0.000000,-1.000000,-5.000000,1.000000
1306162.833801,-5.000000,-5.000000,-4.000000,-12.000000,-1.000000,-2.000000,4.000000,-2.000000
1306162.856571,4.000000,7.000000,0.000000,-3.000000,2.000000,0.000000,3.000000,2.000000
1306162.856815,4.000000,4.000000,-1.000000,-2.000000,1.000000,1.000000,-6.000000,1.000000
1306162.858002,-2.000000,-7.000000,-3.000000,-1.000000,-3.000000,-2.000000,0.000000,0.000000
1306162.858042,-3.000000,-1.000000,-3.000000,-11.000000,-3.000000,0.000000,2.000000,-4.000000
1306162.871316,3.000000,-3.000000,2.000000,7.000000,0.000000,0.000000,-2.000000,0.000000
1306162.871327,4.000000,2.000000,-4.000000,0.000000,2.000000,-5.000000,0.000000,-2.000000
1306162.893785,-5.000000,-8.000000,-4.000000,-7.000000,-1.000000,-5.000000,6.000000,-7.000000
1306162.893795,-5.000000,5.000000,-7.000000,-3.000000,-7.000000,3.000000,1.000000,-6.000000
1306162.916280,1.000000,-6.000000,0.000000,-3.000000,-1.000000,2.000000,-8.000000,3.000000
1306162.916291,-2.000000,-3.000000,-2.000000,6.000000,0.000000,-2.000000,-2.000000,-2.000000
1306162.917304,-3.000000,1.000000,-1.000000,-3.000000,6.000000,8.000000,0.000000,-5.000000
1306162.917314,-1.000000,5.000000,2.000000,12.000000,2.000000,0.000000,-5.000000,0.000000
1306162.917953,1.000000,-13.000000,-1.000000,6.000000,-1.000000,-6.000000,-1.000000,1.000000
1306162.917963,1.000000,5.000000,-1.000000,-1.000000,13.000000,3.000000,4.000000,-2.000000
1306162.919521,-1.000000,2.000000,-4.000000,-6.000000,1.000000,-6.000000,-6.000000,-3.000000
1306162.919530,-3.000000,-10.000000,-2.000000,2.000000,-3.000000,-10.000000,-3.000000,-2.000000
1306162.931276,0.000000,-9.000000,-4.000000,-24.000000,-10.000000,-4.000000,4.000000,1.000000
1306162.931296,-5.000000,0.000000,6.000000,30.000000,2.000000,2.000000,-6.000000,-3.000000
1306162.932443,0.000000,-3.000000,-5.000000,-5.000000,0.000000,-1.000000,-5.000000,0.000000
1306162.932471,5.000000,-8.000000,-1.000000,-10.000000,0.000000,0.000000,2.000000,3.000000
1306162.938704,-8.000000,4.000000,-8.000000,-3.000000,3.000000,2.000000,-4.000000,-4.000000
1306162.938732,2.000000,4.000000,1.000000,6.000000,1.000000,1.000000,-6.000000,0.000000
1306162.954517,0.000000,2.000000,-6.000000,-9.000000,2.000000,-4.000000,-3.000000,0.000000
1306162.954526,-4.000000,5.000000,0.000000,-11.000000,-4.000000,-5.000000,5.000000,-5.000000
1306162.961435,8.000000,1.000000,9.000000,38.000000,11.000000,7.000000,0.000000,8.000000
1306162.961447,-3.000000,0.000000,-3.000000,-12.000000,-2.000000,-2.000000,0.000000,2.000000
1306162.983693,-8.000000,-5.000000,-5.000000,-8.000000,-4.000000,-8.000000,0.000000,-7.000000
1306162.983722,-4.000000,-5.000000,1.000000,-3.000000,1.000000,-2.000000,-4.000000,1.000000
1306162.991439,-3.000000,-6.000000,1.000000,3.000000,-4.000000,-4.000000,-2.000000,3.000000
1306162.991455,-1.000000,-10.000000,-1.000000,-5.000000,0.000000,1.000000,-2.000000,-1.000000
1306163.013991,-4.000000,-1.000000,0.000000,-6.000000,-5.000000,1.000000,-5.000000,-3.000000
1306163.014003,4.000000,0.000000,3.000000,-8.000000,9.000000,1.000000,-5.000000,0.000000
1306163.036590,-4.000000,-6.000000,6.000000,34.000000,-2.000000,2.000000,2.000000,-1.000000
1306163.036602,-2.000000,2.000000,0.000000,-6.000000,-4.000000,2.000000,4.000000,-7.000000
1306163.051588,2.000000,1.000000,-2.000000,-9.000000,4.000000,-6.000000,-3.000000,3.000000
1306163.051600,-8.000000,-3.000000,-8.000000,-6.000000,-3.000000,-5.000000,1.000000,-6.000000
1306163.059171,3.000000,-11.000000,0.000000,18.000000,0.000000,1.000000,3.000000,0.000000
1306163.059182,1.000000,-5.000000,-1.000000,-4.000000,1.000000,2.000000,-2.000000,-2.000000
1306163.059841,-1.000000,-9.000000,-1.000000,0.000000,-3.000000,3.000000,-4.000000,-1.000000
1306163.059852,-3.000000,-6.000000,-4.000000,-7.000000,-6.000000,-3.000000,-3.000000,-5.000000
1306163.061169,-3.000000,2.000000,-1.000000,-3.000000,3.000000,-2.000000,-2.000000,-2.000000
1306163.061181,-2.000000,5.000000,1.000000,2.000000,-3.000000,-2.000000,0.000000,4.000000
1306163.062138,-1.000000,-10.000000,0.000000,0.000000,2.000000,-7.000000,-5.000000,-1.000000
1306163.062148,-2.000000,10.000000,-3.000000,-6.000000,-2.000000,3.000000,0.000000,-6.000000
1306163.074131,1.000000,4.000000,0.000000,-3.000000,0.000000,4.000000,-6.000000,-3.000000
1306163.074160,-3.000000,-3.000000,-1.000000,-6.000000,-4.000000,3.000000,-1.000000,-6.000000
1306163.074995,0.000000,-8.000000,-3.000000,-7.000000,-11.000000,-7.000000,6.000000,-2.000000
1306163.075012,2.000000,-1.000000,3.000000,15.000000,8.000000,6.000000,-1.000000,-4.000000
1306163.096495,-3.000000,0.000000,0.000000,-5.000000,-1.000000,-6.000000,-7.000000,-5.000000
1306163.096508,-1.000000,-19.000000,-7.000000,-2.000000,-7.000000,-3.000000,5.000000,-3.000000
1306163.097076,-4.000000,1.000000,-4.000000,9.000000,-2.000000,-1.000000,0.000000,0.000000
1306163.097085,-1.000000,3.000000,-3.000000,-16.000000,-2.000000,0.000000,-5.000000,2.000000
1306163.134078,3.000000,0.000000,-3.000000,-5.000000,-7.000000,-4.000000,1.000000,0.000000
1306163.134089,-5.000000,0.000000,1.000000,-13.000000,-1.000000,-2.000000,-1.000000,-4.000000
1306163.149079,0.000000,9.000000,-3.000000,0.000000,-5.000000,0.000000,-3.000000,-1.000000
1306163.149093,0.000000,-3.000000,-1.000000,-4.000000,-3.000000,1.000000,-3.000000,-1.000000
1306163.171133,2.000000,-4.000000,1.000000,-1.000000,-1.000000,-3.000000,3.000000,-4.000000
1306163.171145,-1.000000,4.000000,-1.000000,0.000000,-3.000000,-4.000000,-6.000000,1.000000
1306163.171685,-3.000000,-1.000000,1.000000,-2.000000,-5.000000,-1.000000,-4.000000,-1.000000
1306163.171699,-5.000000,-8.000000,-5.000000,-8.000000,-6.000000,-10.000000,2.000000,-3.000000
1306163.172862,1.000000,10.000000,-5.000000,1.000000,1.000000,-1.000000,1.000000,2.000000
1306163.172889,3.000000,6.000000,5.000000,3.000000,4.000000,2.000000,-5.000000,1.000000
1306163.173505,-3.000000,-1.000000,-3.000000,-3.000000,1.000000,-1.000000,-1.000000,-4.000000
1306163.173534,-3.000000,1.000000,-4.000000,-6.000000,-4.000000,3.000000,2.000000,-2.000000
1306163.175036,-9.000000,-12.000000,-8.000000,6.000000,-3.000000,-4.000000,4.000000,-8.000000
1306163.175062,1.000000,1.000000,6.000000,8.000000,9.000000,3.000000,4.000000,3.000000
1306163.193984,0.000000,-1.000000,-1.000000,-10.000000,-5.000000,1.000000,-1.000000,4.000000
1306163.193999,-7.000000,-12.000000,-4.000000,-12.000000,-10.000000,-5.000000,4.000000,-3.000000
1306163.194552,-2.000000,8.000000,-1.000000,-2.000000,-4.000000,1.000000,0.000000,-2.000000
1306163.194561,5.000000,-1.000000,2.000000,6.000000,-2.000000,7.000000,-1.000000,3.000000
1306163.215991,1.000000,-4.000000,0.000000,6.000000,2.000000,-5.000000,-1.000000,2.000000
1306163.216001,-3.000000,1.000000,-5.000000,-7.000000,-2.000000,0.000000,1.000000,-4.000000
1306163.216896,-14.000000,11.000000,-9.000000,-5.000000,4.000000,8.000000,-1.000000,-4.000000
1306163.216905,3.000000,-2.000000,6.000000,8.000000,1.000000,-6.000000,2.000000,-1.000000
1306163.269013,2.000000,-5.000000,-5.000000,-8.000000,0.000000,-4.000000,3.000000,0.000000
1306163.269024,-4.000000,12.000000,1.000000,-6.000000,4.000000,-1.000000,-3.000000,0.000000
1306163.276503,-2.000000,-8.000000,-1.000000,0.000000,-2.000000,-4.000000,-2.000000,1.000000
1306163.276513,0.000000,-5.000000,-3.000000,-6.000000,-4.000000,-3.000000,0.000000,-5.000000
1306163.291896,-1.000000,-1.000000,-3.000000,2.000000,-2.000000,1.000000,2.000000,-3.000000
1306163.291907,-3.000000,1.000000,-2.000000,-3.000000,-5.000000,1.000000,-7.000000,4.000000
1306163.292359,2.000000,-5.000000,3.000000,-10.000000,-5.000000,-2.000000,1.000000,0.000000
1306163.292370,-4.000000,4.000000,-2.000000,-1.000000,-2.000000,4.000000,2.000000,-4.000000
1306163.293669,0.000000,12.000000,7.000000,10.000000,4.000000,3.000000,-3.000000,-2.000000
1306163.293680,2.000000,11.000000,1.000000,-4.000000,-3.000000,-4.000000,-1.000000,-3.000000
1306163.295166,-7.000000,3.000000,-5.000000,0.000000,-1.000000,3.000000,1.000000,-5.000000
1306163.295177,1.000000,2.000000,1.000000,1.000000,2.000000,-1.000000,-1.000000,-1.000000
1306163.313768,9.000000,-5.000000,-2.000000,-1.000000,-7.000000,-4.000000,4.000000,4.000000
1306163.313791,1.000000,5.000000,5.000000,-13.000000,-4.000000,-4.000000,-4.000000,-7.000000
1306163.328971,-10.000000,1.000000,-9.000000,7.000000,-2.000000,2.000000,-6.000000,-1.000000
1306163.328984,-6.000000,-7.000000,-5.000000,-14.000000,-6.000000,0.000000,-1.000000,-2.000000
1306163.330069,-1.000000,-5.000000,5.000000,13.000000,4.000000,1.000000,1.000000,-1.000000
1306163.330078,-1.000000,-2.000000,-3.000000,3.000000,-7.000000,-1.000000,-3.000000,2.000000
1306163.336443,2.000000,-1.000000,-4.000000,-7.000000,-6.000000,-4.000000,-5.000000,1.000000
1306163.336458,-4.000000,-1.000000,-3.000000,-8.000000,-1.000000,-6.000000,1.000000,-2.000000
1306163.366510,-1.000000,0.000000,1.000000,11.000000,-1.000000,3.000000,2.000000,-2.000000
1306163.366521,-7.000000,10.000000,-3.000000,0.000000,4.000000,0.000000,-9.000000,-2.000000
1306163.381580,2.000000,2.000000,0.000000,-7.000000,-3.000000,-4.000000,2.000000,-2.000000
1306163.381592,5.000000,5.000000,6.000000,11.000000,-8.000000,-1.000000,-2.000000,2.000000
1306163.411506,2.000000,12.000000,7.000000,9.000000,6.000000,2.000000,-5.000000,1.000000
1306163.411520,0.000000,17.000000,4.000000,-1.000000,-4.000000,4.000000,-3.000000,-4.000000
1306163.411914,-5.000000,0.000000,-4.000000,-11.000000,-11.000000,-6.000000,3.000000,-5.000000
1306163.411924,0.000000,7.000000,-2.000000,-5.000000,-4.000000,-2.000000,-1.000000,0.000000
1306163.412983,-2.000000,-7.000000,-3.000000,-4.000000,-2.000000,-4.000000,-7.000000,2.000000
1306163.412993,-2.000000,8.000000,-1.000000,2.000000,-3.000000,-4.000000,5.000000,2.000000
1306163.413586,-2.000000,3.000000,-8.000000,-7.000000,2.000000,5.000000,-3.000000,-2.000000
1306163.413599,4.000000,-7.000000,1.000000,9.000000,2.000000,3.000000,-5.000000,4.000000
1306163.415581,1.000000,-2.000000,2.000000,-6.000000,0.000000,-7.000000,3.000000,-3.000000
1306163.415594,-1.000000,-2.000000,-3.000000,-7.000000,-4.000000,1.000000,-5.000000,0.000000
1306163.433894,1.000000,1.000000,4.000000,12.000000,0.000000,-3.000000,0.000000,-1.000000
1306163.433906,-1.000000,-13.000000,-4.000000,-7.000000,2.000000,-3.000000,-3.000000,-4.000000
1306163.448824,-2.000000,0.000000,-9.000000,0.000000,-7.000000,-3.000000,-4.000000,0.000000
1306163.448835,-5.000000,-7.000000,5.000000,8.000000,2.000000,-1.000000,1.000000,-5.000000
1306163.471595,0.000000,8.000000,-6.000000,-16.000000,-1.000000,4.000000,1.000000,-1.000000
1306163.471608,-3.000000,-3.000000,-1.000000,-1.000000,0.000000,-4.000000,-2.000000,-4.000000
1306163.486408,-2.000000,-4.000000,-2.000000,7.000000,-3.000000,1.000000,-1.000000,-1.000000
1306163.486419,-6.000000,5.000000,2.000000,-9.000000,-2.000000,-3.000000,5.000000,-4.000000
1306163.509001,1.000000,1.000000,1.000000,-10.000000,-2.000000,0.000000,-8.000000,3.000000
1306163.509015,-4.000000,0.000000,-6.000000,-4.000000,-8.000000,-8.000000,2.000000,-3.000000
1306163.509400,-5.000000,3.000000,-4.000000,-4.000000,0.000000,-6.000000,-3.000000,-6.000000
1306163.509410,0.000000,9.000000,1.000000,-1.000000,-4.000000,6.000000,-5.000000,0.000000
1306163.510440,-2.000000,2.000000,3.000000,1.000000,-2.000000,-4.000000,-1.000000,0.000000
1306163.510450,-1.000000,3.000000,-5.000000,-4.000000,2.000000,-1.000000,4.000000,-1.000000
1306163.511092,2.000000,4.000000,-1.000000,-4.000000,3.000000,4.000000,0.000000,1.000000
1306163.511102,-3.000000,3.000000,4.000000,19.000000,4.000000,-3.000000,-7.000000,2.000000
1306163.531379,7.000000,5.000000,0.000000,1.000000,-6.000000,3.000000,-2.000000,4.000000
1306163.531390,5.000000,-7.000000,1.000000,15.000000,1.000000,-4.000000,4.000000,3.000000
1306163.532287,-1.000000,2.000000,-5.000000,-10.000000,0.000000,0.000000,-3.000000,-4.000000
1306163.532309,2.000000,2.000000,-3.000000,-3.000000,-2.000000,5.000000,-5.000000,-2.000000
1306163.533306,-4.000000,-7.000000,-1.000000,-2.000000,-4.000000,-4.000000,-1.000000,-2.000000
1306163.533316,-1.000000,3.000000,-5.000000,-3.000000,1.000000,-5.000000,3.000000,-1.000000
1306163.546924,-3.000000,1.000000,-2.000000,-5.000000,-7.000000,1.000000,-6.000000,-2.000000
1306163.546932,0.000000,1.000000,-3.000000,5.000000,-5.000000,2.000000,-7.000000,3.000000
1306163.553991,1.000000,-6.000000,-2.000000,-5.000000,-3.000000,-3.000000,-3.000000,-2.000000
1306163.554002,-9.000000,0.000000,-6.000000,7.000000,14.000000,10.000000,-3.000000,-1.000000
1306163.569455,-3.000000,6.000000,5.000000,1.000000,2.000000,3.000000,-3.000000,0.000000
1306163.569483,-4.000000,-12.000000,-3.000000,17.000000,5.000000,-3.000000,1.000000,-4.000000
1306163.576283,-4.000000,3.000000,-3.000000,-14.000000,-5.000000,-5.000000,2.000000,0.000000
1306163.576293,-4.000000,9.000000,-4.000000,4.000000,-5.000000,0.000000,-2.000000,-2.000000
1306163.591222,1.000000,2.000000,-2.000000,-15.000000,-12.000000,-1.000000,3.000000,3.000000
1306163.591251,0.000000,-15.000000,0.000000,2.000000,-8.000000,-4.000000,4.000000,-4.000000
1306163.606581,-4.000000,5.000000,-2.000000,-6.000000,6.000000,0.000000,-11.000000,-1.000000
1306163.606591,-4.000000,1.000000,1.000000,18.000000,3.000000,4.000000,-4.000000,2.000000
1306163.630275,4.000000,-4.000000,1.000000,-6.000000,-8.000000,1.000000,2.000000,2.000000
1306163.630309,-1.000000,9.000000,-2.000000,4.000000,3.000000,3.000000,0.000000,0.000000
1306163.653355,-3.000000,-1.000000,5.000000,-1.000000,-1.000000,0.000000,-6.000000,2.000000
1306163.653433,-7.000000,-8.000000,-5.000000,0.000000,3.000000,-1.000000,0.000000,-3.000000
1306163.667644,3.000000,3.000000,4.000000,-3.000000,-6.000000,-5.000000,2.000000,0.000000
1306163.667683,-3.000000,11.000000,1.000000,5.000000,2.000000,6.000000,-2.000000,-1.000000
1306163.705267,-2.000000,1.000000,1.000000,-7.000000,0.000000,-2.000000,-1.000000,0.000000
1306163.705375,-2.000000,-8.000000,-3.000000,-12.000000,-2.000000,-1.000000,5.000000,-5.000000
1306163.726822,3.000000,-6.000000,7.000000,19.000000,7.000000,-4.000000,0.000000,1.000000
1306163.726845,2.000000,7.000000,-4.000000,3.000000,-1.000000,0.000000,2.000000,1.000000
1306163.741583,-3.000000,-14.000000,-2.000000,-12.000000,-5.000000,-6.000000,4.000000,-3.000000
1306163.741602,-1.000000,6.000000,3.000000,10.000000,2.000000,3.000000,-2.000000,-5.000000
1306163.749351,1.000000,1.000000,-1.000000,-6.000000,-3.000000,2.000000,-3.000000,-3.000000
1306163.749364,1.000000,14.000000,0.000000,-3.000000,-4.000000,5.000000,-4.000000,4.000000
1306163.751273,1.000000,1.000000,1.000000,1.000000,-1.000000,5.000000,3.000000,0.000000
1306163.751285,-7.000000,10.000000,0.000000,3.000000,5.000000,3.000000,0.000000,0.000000
1306163.763936,-2.000000,-12.000000,-2.000000,-8.000000,-6.000000,-10.000000,3.000000,-2.000000
1306163.763958,1.000000,-4.000000,0.000000,-1.000000,-6.000000,4.000000,-1.000000,0.000000
1306163.765066,-3.000000,-2.000000,5.000000,6.000000,4.000000,-7.000000,-4.000000,-1.000000
1306163.765077,3.000000,9.000000,-2.000000,-9.000000,-1.000000,-1.000000,2.000000,-1.000000
1306163.771191,-6.000000,-2.000000,-1.000000,-3.000000,-4.000000,5.000000,-2.000000,-4.000000
1306163.771203,0.000000,8.000000,-1.000000,2.000000,0.000000,6.000000,-4.000000,-1.000000
1306163.786992,0.000000,-3.000000,0.000000,-1.000000,-5.000000,-2.000000,-2.000000,-1.000000
1306163.787035,-3.000000,8.000000,-15.000000,-4.000000,0.000000,4.000000,3.000000,-5.000000
1306163.809029,-3.000000,0.000000,6.000000,13.000000,2.000000,1.000000,0.000000,-3.000000
1306163.809062,3.000000,-2.000000,-5.000000,1.000000,0.000000,-5.000000,-2.000000,3.000000
1306163.810130,-3.000000,-5.000000,-3.000000,-15.000000,-4.000000,-7.000000,2.000000,-3.000000
1306163.810139,-4.000000,4.000000,-4.000000,-1.000000,-3.000000,0.000000,-4.000000,-1.000000
1306163.823848,0.000000,-1.000000,4.000000,4.000000,-1.000000,0.000000,-6.000000,-3.000000
1306163.823880,1.000000,2.000000,5.000000,9.000000,-7.000000,-1.000000,-2.000000,3.000000
1306163.846534,0.000000,9.000000,-4.000000,-9.000000,1.000000,0.000000,-1.000000,-2.000000
1306163.846545,-1.000000,4.000000,2.000000,8.000000,13.000000,3.000000,-7.000000,1.000000
1306163.861293,1.000000,-9.000000,0.000000,-4.000000,-6.000000,-5.000000,-1.000000,0.000000
1306163.861302,-4.000000,5.000000,-5.000000,1.000000,-3.000000,-3.000000,1.000000,-5.000000
1306163.869166,-3.000000,-3.000000,2.000000,6.000000,-3.000000,-6.000000,-7.000000,-3.000000
1306163.869176,3.000000,6.000000,1.000000,-1.000000,1.000000,0.000000,-2.000000,-2.000000
1306163.869819,-5.000000,-10.000000,-6.000000,-11.000000,-13.000000,-6.000000,3.000000,-5.000000
1306163.869827,3.000000,10.000000,5.000000,27.000000,15.000000,10.000000,2.000000,2.000000
1306163.871402,6.000000,5.000000,0.000000,-1.000000,-2.000000,2.000000,-5.000000,1.000000
1306163.871411,-6.000000,-3.000000,-5.000000,2.000000,2.000000,-6.000000,0.000000,-3.000000
1306163.883661,-2.000000,-1.000000,-2.000000,-6.000000,-4.000000,2.000000,3.000000,-2.000000
1306163.883672,-3.000000,10.000000,-1.000000,3.000000,0.000000,2.000000,-6.000000,-1.000000
1306163.885221,-8.000000,5.000000,-4.000000,0.000000,-4.000000,0.000000,0.000000,-4.000000
1306163.885232,1.000000,-4.000000,-2.000000,11.000000,-2.000000,-4.000000,5.000000,-3.000000
1306163.891330,0.000000,4.000000,-1.000000,-11.000000,-7.000000,-6.000000,-4.000000,3.000000
1306163.891340,-2.000000,-15.000000,-4.000000,-8.000000,-2.000000,0.000000,-3.000000,-2.000000
1306163.907167,-6.000000,-14.000000,0.000000,-1.000000,-7.000000,-1.000000,4.000000,-3.000000
1306163.907180,0.000000,-3.000000,0.000000,7.000000,8.000000,-2.000000,-2.000000,-1.000000
1306163.928821,-3.000000,0.000000,-2.000000,-8.000000,0.000000,-3.000000,-3.000000,2.000000
1306163.928830,0.000000,5.000000,5.000000,-7.000000,-12.000000,-11.000000,3.000000,-1.000000
1306163.951261,-2.000000,1.000000,-6.000000,-9.000000,0.000000,0.000000,0.000000,-2.000000
1306163.951270,2.000000,9.000000,1.000000,-4.000000,2.000000,0.000000,-5.000000,2.000000
1306163.966288,0.000000,-2.000000,-3.000000,-8.000000,3.000000,-3.000000,-2.000000,-2.000000
1306163.966297,-6.000000,-2.000000,-6.000000,-7.000000,-4.000000,-3.000000,3.000000,-4.000000
1306163.988587,-2.000000,4.000000,2.000000,-3.000000,-5.000000,1.000000,-3.000000,1.000000
1306163.988601,-4.000000,-5.000000,3.000000,14.000000,2.000000,-3.000000,-2.000000,-2.000000
1306164.003757,4.000000,0.000000,0.000000,-5.000000,-2.000000,-6.000000,5.000000,-3.000000
1306164.003801,2.000000,5.000000,-3.000000,-14.000000,-8.000000,2.000000,0.000000,1.000000
1306164.005140,-2.000000,0.000000,3.000000,15.000000,10.000000,0.000000,-2.000000,2.000000
1306164.005159,-6.000000,0.000000,4.000000,19.000000,1.000000,-2.000000,1.000000,1.000000
1306164.005779,2.000000,6.000000,-4.000000,-7.000000,-4.000000,3.000000,0.000000,-2.000000
1306164.005794,1.000000,9.000000,-1.000000,-1.000000,-1.000000,0.000000,-3.000000,2.000000
1306164.006888,-5.000000,-8.000000,3.000000,12.000000,3.000000,5.000000,-2.000000,-4.000000
1306164.006911,-3.000000,-11.000000,-10.000000,-12.000000,-9.000000,-7.000000,-3.000000,0.000000
1306164.018734,-3.000000,-2.000000,-1.000000,4.000000,1.000000,-3.000000,-5.000000,1.000000
1306164.018763,-1.000000,-8.000000,2.000000,7.000000,6.000000,-3.000000,2.000000,-2.000000
1306164.026878,-2.000000,5.000000,-8.000000,-22.000000,-7.000000,-1.000000,-2.000000,1.000000
1306164.026886,0.000000,-5.000000,1.000000,18.000000,9.000000,1.000000,-6.000000,-3.000000
1306164.041355,-1.000000,-10.000000,-4.000000,-12.000000,-6.000000,-2.000000,2.000000,-5.000000
1306164.041388,-1.000000,4.000000,3.000000,19.000000,4.000000,-1.000000,-2.000000,-1.000000
1306164.063851,-1.000000,2.000000,0.000000,3.000000,-2.000000,4.000000,-4.000000,-2.000000
1306164.063879,1.000000,-5.000000,-4.000000,-7.000000,0.000000,-3.000000,1.000000,1.000000
1306164.071281,4.000000,-3.000000,-6.000000,-13.000000,-2.000000,-3.000000,9.000000,-1.000000
1306164.071291,-2.000000,2.000000,-5.000000,-11.000000,-3.000000,0.000000,-1.000000,-2.000000
1306164.101827,0.000000,-2.000000,1.000000,22.000000,3.000000,4.000000,-6.000000,1.000000
1306164.101837,-6.000000,-4.000000,-3.000000,-7.000000,-4.000000,-7.000000,-1.000000,-4.000000
1306164.108660,1.000000,1.000000,-4.000000,-4.000000,-1.000000,3.000000,-1.000000,-2.000000
1306164.108688,4.000000,4.000000,0.000000,-2.000000,2.000000,-2.000000,-9.000000,1.000000
1306164.124193,-1.000000,-8.000000,-1.000000,0.000000,-3.000000,-2.000000,0.000000,-4.000000
1306164.124201,0.000000,1.000000,1.000000,-6.000000,0.000000,-3.000000,3.000000,-5.000000
1306164.124825,-1.000000,4.000000,1.000000,22.000000,1.000000,2.000000,0.000000,0.000000
1306164.124833,-1.000000,-4.000000,-1.000000,-10.000000,-3.000000,-5.000000,1.000000,5.000000
1306164.126085,-6.000000,-6.000000,-6.000000,3.000000,-5.000000,-3.000000,5.000000,-3.000000
1306164.126093,5.000000,-4.000000,4.000000,20.000000,14.000000,6.000000,1.000000,5.000000
1306164.126802,-2.000000,-12.000000,-4.000000,-4.000000,-3.000000,1.000000,-5.000000,0.000000
1306164.126810,-2.000000,-5.000000,-2.000000,-10.000000,-3.000000,-5.000000,1.000000,-4.000000
1306164.146364,-1.000000,-4.000000,0.000000,-4.000000,2.000000,-6.000000,0.000000,0.000000
1306164.146381,0.000000,2.000000,-4.000000,-6.000000,-5.000000,1.000000,0.000000,0.000000
1306164.147434,-5.000000,3.000000,-3.000000,-3.000000,2.000000,8.000000,2.000000,2.000000
1306164.147443,2.000000,-3.000000,0.000000,1.000000,-1.000000,0.000000,-1.000000,1.000000
1306164.161448,0.000000,0.000000,-8.000000,-17.000000,-3.000000,-8.000000,3.000000,-7.000000
1306164.161461,0.000000,-1.000000,2.000000,-21.000000,-6.000000,2.000000,-1.000000,0.000000
1306164.176378,3.000000,-4.000000,7.000000,63.000000,22.000000,3.000000,-3.000000,3.000000
1306164.176395,-2.000000,-9.000000,-4.000000,-15.000000,-6.000000,-4.000000,3.000000,-1.000000
1306164.183883,-1.000000,0.000000,-2.000000,-12.000000,-4.000000,-4.000000,-2.000000,-4.000000
1306164.183894,-8.000000,1.000000,-1.000000,-6.000000,0.000000,1.000000,-6.000000,-1.000000
1306164.221541,-4.000000,-4.000000,-3.000000,0.000000,-4.000000,-3.000000,1.000000,0.000000
1306164.221552,1.000000,2.000000,-1.000000,0.000000,4.000000,-2.000000,4.000000,2.000000
1306164.243764,-5.000000,5.000000,0.000000,2.000000,-1.000000,5.000000,-5.000000,0.000000
1306164.243784,1.000000,-8.000000,-4.000000,1.000000,-3.000000,-1.000000,-3.000000,1.000000
1306164.244835,3.000000,0.000000,-3.000000,-6.000000,-6.000000,-3.000000,8.000000,-1.000000
1306164.244862,0.000000,4.000000,-1.000000,8.000000,4.000000,1.000000,-1.000000,0.000000
1306164.245441,-1.000000,-1.000000,-2.000000,2.000000,-3.000000,1.000000,-5.000000,0.000000
1306164.245468,-4.000000,-6.000000,1.000000,-6.000000,-3.000000,-5.000000,2.000000,-4.000000
1306164.259019,-2.000000,-5.000000,-2.000000,-2.000000,2.000000,3.000000,1.000000,-1.000000
1306164.259030,3.000000,5.000000,3.000000,0.000000,2.000000,4.000000,-6.000000,3.000000
1306164.266536,-2.000000,-7.000000,-6.000000,-8.000000,-7.000000,-1.000000,0.000000,-4.000000
1306164.266548,-6.000000,-3.000000,1.000000,6.000000,0.000000,-2.000000,4.000000,-2.000000
1306164.281576,-6.000000,0.000000,-4.000000,2.000000,-5.000000,-4.000000,2.000000,-1.000000
1306164.281588,-5.000000,-1.000000,-1.000000,9.000000,11.000000,2.000000,-1.000000,-1.000000
1306164.318810,4.000000,-1.000000,6.000000,23.000000,8.000000,-1.000000,-4.000000,4.000000
1306164.318821,-5.000000,-6.000000,-3.000000,-13.000000,-7.000000,-4.000000,5.000000,-3.000000
1306164.326332,3.000000,9.000000,-1.000000,-21.000000,-11.000000,-3.000000,-4.000000,-2.000000
1306164.326342,0.000000,0.000000,1.000000,8.000000,3.000000,5.000000,-6.000000,3.000000
1306164.341176,1.000000,-7.000000,2.000000,-1.000000,-4.000000,-2.000000,3.000000,-2.000000
1306164.341186,0.000000,4.000000,2.000000,-2.000000,2.000000,0.000000,-4.000000,-2.000000
1306164.342253,3.000000,11.000000,0.000000,-5.000000,0.000000,0.000000,-2.000000,-2.000000
1306164.342277,0.000000,-2.000000,-2.000000,12.000000,-2.000000,1.000000,4.000000,0.000000
1306164.364183,-2.000000,-6.000000,-3.000000,-8.000000,-7.000000,-4.000000,-5.000000,-2.000000
1306164.364194,0.000000,-13.000000,-7.000000,-9.000000,-6.000000,-3.000000,8.000000,-1.000000
1306164.364781,-1.000000,3.000000,7.000000,-1.000000,-1.000000,-4.000000,0.000000,-1.000000
1306164.364789,-4.000000,3.000000,0.000000,-12.000000,1.000000,2.000000,1.000000,-8.000000
1306164.366072,1.000000,4.000000,3.000000,6.000000,0.000000,3.000000,-6.000000,2.000000
1306164.366081,2.000000,-4.000000,-1.000000,-3.000000,-6.000000,-8.000000,0.000000,-1.000000
1306164.366848,-4.000000,0.000000,-4.000000,-12.000000,-3.000000,-1.000000,4.000000,-7.000000
1306164.366857,1.000000,1.000000,-2.000000,9.000000,0.000000,-3.000000,-4.000000,1.000000
1306164.378723,0.000000,0.000000,-4.000000,0.000000,-2.000000,-2.000000,2.000000,0.000000
1306164.378742,2.000000,7.000000,6.000000,3.000000,4.000000,-1.000000,-5.000000,1.000000
1306164.386320,-5.000000,-2.000000,-3.000000,-11.000000,-2.000000,-3.000000,5.000000,0.000000
1306164.386349,-9.000000,5.000000,-4.000000,-1.000000,-4.000000,1.000000,3.000000,1.000000
1306164.401620,0.000000,9.000000,5.000000,30.000000,6.000000,6.000000,-7.000000,-1.000000
1306164.401632,1.000000,-5.000000,0.000000,-4.000000,-9.000000,-3.000000,4.000000,0.000000
1306164.438909,3.000000,-4.000000,0.000000,-5.000000,-1.000000,-5.000000,2.000000,-3.000000
1306164.438931,2.000000,8.000000,0.000000,-9.000000,-4.000000,6.000000,-4.000000,1.000000
1306164.446391,2.000000,-3.000000,2.000000,2.000000,0.000000,-3.000000,-5.000000,0.000000
1306164.446401,-3.000000,-1.000000,-5.000000,-17.000000,-3.000000,-6.000000,-1.000000,-5.000000
1306164.483701,0.000000,11.000000,2.000000,-3.000000,-3.000000,2.000000,-2.000000,-3.000000
1306164.483712,1.000000,-3.000000,5.000000,21.000000,7.000000,2.000000,-4.000000,1.000000
1306164.484098,3.000000,-9.000000,-5.000000,-6.000000,-8.000000,-5.000000,-1.000000,-1.000000
1306164.484106,-8.000000,9.000000,-1.000000,-5.000000,4.000000,4.000000,-2.000000,-7.000000
1306164.485585,2.000000,6.000000,-1.000000,1.000000,6.000000,3.000000,-4.000000,1.000000
1306164.485597,2.000000,1.000000,-5.000000,-13.000000,-9.000000,-2.000000,1.000000,3.000000
1306164.486205,6.000000,-1.000000,-3.000000,5.000000,0.000000,-1.000000,6.000000,-3.000000
1306164.486222,-4.000000,-1.000000,7.000000,7.000000,9.000000,3.000000,-2.000000,-1.000000
1306164.487859,3.000000,-1.000000,-4.000000,-10.000000,-3.000000,4.000000,0.000000,1.000000
1306164.487870,-1.000000,0.000000,2.000000,18.000000,7.000000,6.000000,-8.000000,0.000000
1306164.498759,0.000000,4.000000,2.000000,1.000000,3.000000,2.000000,-8.000000,5.000000
1306164.498770,-4.000000,-11.000000,-2.000000,-9.000000,0.000000,-4.000000,1.000000,1.000000
1306164.521416,5.000000,1.000000,0.000000,-6.000000,-12.000000,-2.000000,4.000000,0.000000
1306164.521428,-4.000000,0.000000,4.000000,3.000000,-5.000000,-3.000000,-2.000000,-5.000000
1306164.536326,0.000000,-6.000000,-1.000000,-17.000000,0.000000,-4.000000,-5.000000,-3.000000
1306164.536336,1.000000,-8.000000,2.000000,14.000000,-11.000000,-1.000000,6.000000,-3.000000
1306164.558895,-1.000000,5.000000,-2.000000,-8.000000,0.000000,-4.000000,0.000000,5.000000
1306164.558912,-1.000000,3.000000,1.000000,-6.000000,-4.000000,2.000000,-4.000000,0.000000
1306164.566219,-7.000000,-6.000000,1.000000,0.000000,-2.000000,-4.000000,-4.000000,-4.000000
1306164.566234,-1.000000,-5.000000,-3.000000,-7.000000,-4.000000,1.000000,-4.000000,-3.000000
1306164.581677,7.000000,11.000000,0.000000,1.000000,0.000000,1.000000,-6.000000,3.000000
1306164.581688,-5.000000,-9.000000,-3.000000,-7.000000,4.000000,2.000000,2.000000,3.000000
1306164.582243,1.000000,5.000000,2.000000,11.000000,3.000000,-2.000000,4.000000,-3.000000
1306164.582251,-5.000000,3.000000,3.000000,5.000000,1.000000,0.000000,-4.000000,0.000000
1306164.583626,0.000000,-10.000000,0.000000,13.000000,-4.000000,0.000000,2.000000,3.000000
1306164.583634,-1.000000,-4.000000,-1.000000,-12.000000,-7.000000,-1.000000,0.000000,-3.000000
1306164.584339,-3.000000,-2.000000,0.000000,-3.000000,4.000000,3.000000,-2.000000,-4.000000
1306164.584347,-5.000000,-7.000000,-3.000000,3.000000,1.000000,-3.000000,2.000000,1.000000
1306164.596448,0.000000,-8.000000,8.000000,14.000000,5.000000,-4.000000,3.000000,-2.000000
1306164.596461,-1.000000,1.000000,-4.000000,2.000000,3.000000,-1.000000,-3.000000,-1.000000
1306164.597036,4.000000,-8.000000,1.000000,0.000000,2.000000,2.000000,-10.000000,3.000000
1306164.597044,-1.000000,-2.000000,-3.000000,0.000000,-2.000000,3.000000,3.000000,-2.000000
1306164.604548,4.000000,-13.000000,-3.000000,-5.000000,-2.000000,0.000000,-1.000000,2.000000
1306164.604559,-4.000000,2.000000,1.000000,5.000000,4.000000,3.000000,-3.000000,-4.000000
1306164.619016,-3.000000,-6.000000,-2.000000,-6.000000,-7.000000,1.000000,0.000000,1.000000
1306164.619041,-1.000000,-6.000000,-5.000000,-5.000000,-11.000000,-4.000000,3.000000,-4.000000
1306164.663783,-2.000000,4.000000,1.000000,-5.000000,1.000000,-3.000000,-1.000000,-3.000000
1306164.663795,-2.000000,2.000000,-4.000000,0.000000,-1.000000,-2.000000,-5.000000,-1.000000
1306164.678778,2.000000,-14.000000,-3.000000,-16.000000,-3.000000,-3.000000,2.000000,-3.000000
1306164.678787,7.000000,7.000000,5.000000,35.000000,12.000000,3.000000,2.000000,3.000000
1306164.702380,0.000000,4.000000,1.000000,10.000000,9.000000,3.000000,-7.000000,2.000000
1306164.702391,-3.000000,-5.000000,-9.000000,-13.000000,-9.000000,-6.000000,-1.000000,-1.000000
1306164.702598,-1.000000,-2.000000,-5.000000,-8.000000,-5.000000,-1.000000,0.000000,-7.000000
1306164.702605,1.000000,8.000000,1.000000,-3.000000,3.000000,4.000000,1.000000,5.000000
1306164.703639,-4.000000,1.000000,-4.000000,-4.000000,0.000000,-5.000000,-1.000000,0.000000
1306164.703649,3.000000,-8.000000,-5.000000,-6.000000,0.000000,-3.000000,4.000000,-3.000000
1306164.704275,4.000000,-5.000000,0.000000,-2.000000,-1.000000,1.000000,-6.000000,-2.000000
1306164.704285,4.000000,-6.000000,-1.000000,-19.000000,-9.000000,3.000000,0.000000,3.000000
1306164.705203,0.000000,10.000000,0.000000,1.000000,-8.000000,-2.000000,-6.000000,2.000000
1306164.705214,0.000000,-3.000000,-3.000000,3.000000,1.000000,-3.000000,-3.000000,-1.000000
1306164.716365,-2.000000,1.000000,-6.000000,-25.000000,-9.000000,-6.000000,0.000000,-5.000000
1306164.716376,-8.000000,5.000000,-3.000000,0.000000,-5.000000,5.000000,-1.000000,-1.000000
1306164.716927,14.000000,-6.000000,13.000000,53.000000,20.000000,1.000000,5.000000,14.000000
1306164.716935,-2.000000,-3.000000,-8.000000,-28.000000,-14.000000,-9.000000,7.000000,-5.000000
1306164.724322,-5.000000,-2.000000,0.000000,-4.000000,-2.000000,6.000000,-1.000000,-2.000000
1306164.724349,-6.000000,-4.000000,-4.000000,-6.000000,-1.000000,-4.000000,-4.000000,-3.000000
1306164.739022,-1.000000,-11.000000,-2.000000,-8.000000,-5.000000,-5.000000,2.000000,-1.000000
1306164.739032,3.000000,6.000000,2.000000,5.000000,0.000000,-1.000000,2.000000,2.000000
1306164.761285,-1.000000,1.000000,0.000000,1.000000,-3.000000,4.000000,-6.000000,-3.000000
1306164.761299,1.000000,-8.000000,0.000000,11.000000,-4.000000,-3.000000,3.000000,2.000000
1306164.768790,4.000000,0.000000,0.000000,-13.000000,-7.000000,-4.000000,2.000000,0.000000
1306164.768800,-2.000000,7.000000,-6.000000,5.000000,0.000000,2.000000,0.000000,-2.000000
1306164.798858,2.000000,-3.000000,0.000000,-2.000000,-8.000000,-3.000000,1.000000,1.000000
1306164.798872,-4.000000,-4.000000,-10.000000,-24.000000,-10.000000,-5.000000,7.000000,-10.000000
1306164.821442,0.000000,0.000000,-2.000000,1.000000,-10.000000,1.000000,-3.000000,1.000000
1306164.821455,5.000000,-4.000000,-1.000000,5.000000,3.000000,-3.000000,-3.000000,2.000000
1306164.858807,3.000000,-10.000000,-7.000000,-15.000000,-9.000000,-6.000000,2.000000,-3.000000
1306164.858825,2.000000,-1.000000,3.000000,16.000000,15.000000,5.000000,3.000000,4.000000
1306164.859707,-1.000000,4.000000,6.000000,5.000000,2.000000,0.000000,-7.000000,0.000000
1306164.859757,-1.000000,-5.000000,-7.000000,-7.000000,-6.000000,-8.000000,0.000000,-3.000000
1306164.860703,-4.000000,3.000000,-2.000000,-4.000000,-3.000000,-2.000000,5.000000,-4.000000
1306164.860724,-1.000000,11.000000,-2.000000,-9.000000,0.000000,2.000000,-3.000000,-1.000000
1306164.861238,-1.000000,1.000000,0.000000,5.000000,-6.000000,-3.000000,-3.000000,-5.000000
1306164.861255,-4.000000,-6.000000,-7.000000,-6.000000,1.000000,-4.000000,-4.000000,0.000000
1306164.862055,4.000000,-1.000000,-6.000000,-8.000000,-12.000000,-8.000000,1.000000,-1.000000
1306164.862070,-2.000000,-4.000000,2.000000,17.000000,2.000000,1.000000,-2.000000,-5.000000
1306164.862854,2.000000,3.000000,-2.000000,-4.000000,5.000000,1.000000,4.000000,-3.000000
1306164.862871,-2.000000,7.000000,0.000000,5.000000,0.000000,7.000000,-3.000000,3.000000
1306164.873908,1.000000,4.000000,5.000000,0.000000,-4.000000,4.000000,-2.000000,-3.000000
1306164.873961,-4.000000,-6.000000,-4.000000,-3.000000,2.000000,0.000000,4.000000,-3.000000
1306164.881303,0.000000,8.000000,2.000000,-1.000000,0.000000,-5.000000,-3.000000,0.000000
1306164.881313,-1.000000,-2.000000,-2.000000,-4.000000,1.000000,-4.000000,-2.000000,-1.000000
1306164.918798,-1.000000,8.000000,-3.000000,-14.000000,2.000000,-6.000000,6.000000,0.000000
1306164.918809,-1.000000,8.000000,3.000000,13.000000,2.000000,2.000000,-2.000000,4.000000
1306164.934094,2.000000,1.000000,1.000000,-8.000000,-1.000000,0.000000,-7.000000,1.000000
1306164.934121,-2.000000,-3.000000,-4.000000,-14.000000,-7.000000,-7.000000,3.000000,-3.000000
1306164.956605,-2.000000,10.000000,-1.000000,0.000000,-5.000000,1.000000,-6.000000,-4.000000
1306164.956614,4.000000,4.000000,0.000000,9.000000,12.000000,6.000000,-6.000000,6.000000
1306164.963855,3.000000,-4.000000,2.000000,2.000000,-3.000000,-5.000000,1.000000,-3.000000
1306164.963866,-4.000000,-4.000000,-3.000000,-9.000000,-2.000000,-2.000000,2.000000,-7.000000
1306164.979080,1.000000,5.000000,-1.000000,-8.000000,0.000000,-3.000000,-6.000000,1.000000
1306164.979091,-3.000000,-2.000000,3.000000,-2.000000,-1.000000,0.000000,-4.000000,0.000000
1306164.993854,-1.000000,-9.000000,-4.000000,-7.000000,-1.000000,-3.000000,1.000000,-4.000000
1306164.993883,-3.000000,4.000000,4.000000,11.000000,2.000000,0.000000,-3.000000,-1.000000
1306165.001168,-5.000000,-7.000000,-1.000000,17.000000,4.000000,3.000000,-7.000000,1.000000
1306165.001178,3.000000,-5.000000,2.000000,-2.000000,-8.000000,-4.000000,1.000000,3.000000
1306165.016526,1.000000,2.000000,-4.000000,-10.000000,0.000000,4.000000,3.000000,-3.000000
1306165.016538,0.000000,4.000000,0.000000,2.000000,3.000000,-1.000000,-3.000000,-2.000000
1306165.031333,-5.000000,9.000000,-6.000000,5.000000,2.000000,3.000000,-2.000000,-3.000000
1306165.031345,0.000000,-10.000000,0.000000,5.000000,0.000000,-2.000000,-3.000000,2.000000
1306165.053795,-1.000000,-8.000000,-6.000000,-12.000000,-3.000000,-6.000000,1.000000,-5.000000
1306165.053805,-2.000000,1.000000,0.000000,-9.000000,3.000000,-1.000000,-2.000000,0.000000
1306165.076517,-4.000000,0.000000,2.000000,5.000000,-5.000000,1.000000,-10.000000,0.000000
1306165.076531,-4.000000,-6.000000,0.000000,-5.000000,0.000000,-3.000000,0.000000,-5.000000
1306165.091588,3.000000,10.000000,-1.000000,-4.000000,10.000000,4.000000,-4.000000,-2.000000
1306165.091683,0.000000,10.000000,5.000000,6.000000,-1.000000,4.000000,-7.000000,2.000000
1306165.091902,2.000000,3.000000,4.000000,7.000000,5.000000,0.000000,1.000000,-1.000000
1306165.091922,-4.000000,-5.000000,-4.000000,-16.000000,-6.000000,-4.000000,5.000000,-5.000000
1306165.092422,-2.000000,-4.000000,-5.000000,-15.000000,-3.000000,-9.000000,1.000000,-2.000000
1306165.092433,-5.000000,3.000000,1.000000,11.000000,1.000000,0.000000,-1.000000,-1.000000
1306165.092981,1.000000,1.000000,-3.000000,-3.000000,0.000000,0.000000,1.000000,-2.000000
1306165.093001,-8.000000,-4.000000,-3.000000,-4.000000,-3.000000,1.000000,1.000000,1.000000
1306165.093833,1.000000,-5.000000,-3.000000,-8.000000,3.000000,-2.000000,-1.000000,1.000000
1306165.093846,3.000000,0.000000,7.000000,13.000000,6.000000,1.000000,-1.000000,0.000000
1306165.094353,-1.000000,-13.000000,-2.000000,-9.000000,1.000000,-6.000000,-2.000000,-6.000000
1306165.094362,-2.000000,4.000000,-1.000000,-12.000000,1.000000,-4.000000,4.000000,-1.000000
1306165.098973,1.000000,3.000000,-5.000000,-8.000000,0.000000,-3.000000,-6.000000,0.000000
1306165.098983,-5.000000,-4.000000,-2.000000,-2.000000,-3.000000,-4.000000,0.000000,0.000000
1306165.114045,-4.000000,-1.000000,-1.000000,0.000000,2.000000,0.000000,-3.000000,-3.000000
1306165.114057,0.000000,-4.000000,0.000000,-10.000000,1.000000,5.000000,-1.000000,3.000000
1306165.137072,8.000000,0.000000,2.000000,-9.000000,-15.000000,0.000000,5.000000,7.000000
1306165.137111,-1.000000,6.000000,-4.000000,-5.000000,1.000000,-3.000000,-1.000000,-5.000000
1306165.159639,-1.000000,-6.000000,-5.000000,-7.000000,-5.000000,-3.000000,0.000000,0.000000
1306165.159851,-6.000000,-3.000000,-1.000000,-3.000000,-8.000000,-3.000000,-6.000000,-1.000000
1306165.160470,-1.000000,-7.000000,-4.000000,-7.000000,-3.000000,-7.000000,0.000000,-3.000000
1306165.160491,1.000000,1.000000,-2.000000,-3.000000,-8.000000,2.000000,-4.000000,0.000000
1306165.161224,-1.000000,1.000000,2.000000,2.000000,-3.000000,1.000000,-4.000000,0.000000
1306165.161732,0.000000,-13.000000,-3.000000,-4.000000,-4.000000,-7.000000,1.000000,-2.000000
1306165.162247,-3.000000,3.000000,-5.000000,-5.000000,2.000000,3.000000,0.000000,-1.000000
1306165.162264,-1.000000,3.000000,0.000000,1.000000,-2.000000,2.000000,-4.000000,-1.000000
1306165.175193,1.000000,1.000000,3.000000,7.000000,-13.000000,-1.000000,2.000000,0.000000
1306165.175212,1.000000,8.000000,-2.000000,-11.000000,-7.000000,-3.000000,4.000000,2.000000
1306165.196863,0.000000,-3.000000,-9.000000,-9.000000,-3.000000,-1.000000,-3.000000,-2.000000
1306165.196892,-2.000000,-2.000000,2.000000,-9.000000,-6.000000,-2.000000,0.000000,-3.000000
1306165.198010,-4.000000,-13.000000,-4.000000,-2.000000,-1.000000,-5.000000,5.000000,-6.000000
1306165.198028,-5.000000,7.000000,-1.000000,-5.000000,1.000000,0.000000,-7.000000,1.000000
1306165.198859,0.000000,1.000000,1.000000,5.000000,2.000000,-6.000000,-4.000000,0.000000
1306165.198880,-3.000000,-14.000000,-3.000000,-4.000000,-9.000000,-7.000000,1.000000,-2.000000
1306165.212953,0.000000,6.000000,-4.000000,-30.000000,-10.000000,-5.000000,-2.000000,-7.000000
1306165.212975,3.000000,-3.000000,1.000000,1.000000,-5.000000,6.000000,-5.000000,2.000000
1306165.219400,8.000000,-3.000000,0.000000,7.000000,-1.000000,0.000000,5.000000,6.000000
1306165.219424,-1.000000,3.000000,-2.000000,-11.000000,-5.000000,-3.000000,2.000000,-5.000000
1306165.234437,-2.000000,4.000000,1.000000,-4.000000,-1.000000,2.000000,-4.000000,0.000000
1306165.234460,-2.000000,-8.000000,-2.000000,-13.000000,-5.000000,-3.000000,-6.000000,-4.000000
1306165.256691,-2.000000,-12.000000,-3.000000,4.000000,-3.000000,-2.000000,0.000000,-3.000000
1306165.256716,-6.000000,-5.000000,4.000000,-3.000000,-4.000000,0.000000,-2.000000,-3.000000
1306165.279222,3.000000,1.000000,1.000000,13.000000,6.000000,-3.000000,-1.000000,0.000000
1306165.279251,10.000000,-1.000000,2.000000,4.000000,-6.000000,2.000000,1.000000,5.000000
1306165.293819,-2.000000,5.000000,2.000000,-1.000000,6.000000,5.000000,-3.000000,-1.000000
1306165.293857,-3.000000,5.000000,-1.000000,-5.000000,-2.000000,2.000000,-5.000000,0.000000
1306165.316892,-2.000000,0.000000,0.000000,-5.000000,-1.000000,-5.000000,1.000000,0.000000
1306165.316982,-3.000000,2.000000,-3.000000,-9.000000,-3.000000,0.000000,0.000000,0.000000
1306165.317685,2.000000,4.000000,2.000000,1.000000,-7.000000,5.000000,-7.000000,1.000000
1306165.317714,6.000000,2.000000,1.000000,3.000000,1.000000,-3.000000,-2.000000,1.000000
1306165.318762,-6.000000,-4.000000,1.000000,2.000000,10.000000,-6.000000,5.000000,-6.000000
1306165.318771,0.000000,2.000000,-9.000000,-12.000000,-3.000000,0.000000,-4.000000,-1.000000
1306165.319255,0.000000,-3.000000,0.000000,1.000000,-6.000000,-2.000000,-3.000000,1.000000
1306165.319263,-7.000000,-17.000000,-6.000000,0.000000,2.000000,-7.000000,4.000000,-3.000000
1306165.320212,-1.000000,2.000000,-1.000000,0.000000,-4.000000,1.000000,-2.000000,1.000000
1306165.320220,2.000000,4.000000,-4.000000,-9.000000,-3.000000,-3.000000,-6.000000,-1.000000
1306165.331253,0.000000,14.000000,-4.000000,2.000000,-1.000000,3.000000,-3.000000,1.000000
1306165.331282,-8.000000,3.000000,2.000000,-5.000000,0.000000,-8.000000,1.000000,-2.000000
1306165.339013,-7.000000,1.000000,-2.000000,-11.000000,-3.000000,-3.000000,4.000000,-5.000000
1306165.339023,2.000000,2.000000,-3.000000,-6.000000,-4.000000,2.000000,-3.000000,3.000000
1306165.368693,-4.000000,1.000000,-5.000000,0.000000,2.000000,2.000000,-5.000000,-1.000000
1306165.368703,-6.000000,-13.000000,-3.000000,-5.000000,-7.000000,-6.000000,5.000000,-4.000000
1306165.376219,4.000000,6.000000,-3.000000,-1.000000,6.000000,0.000000,-1.000000,-7.000000
1306165.376229,3.000000,8.000000,-4.000000,17.000000,7.000000,3.000000,-4.000000,2.000000
1306165.406443,2.000000,2.000000,1.000000,-10.000000,-12.000000,-6.000000,-3.000000,1.000000
1306165.406457,-3.000000,3.000000,-2.000000,-4.000000,-3.000000,0.000000,-5.000000,-1.000000
1306165.413613,-3.000000,22.000000,1.000000,-1.000000,1.000000,2.000000,-8.000000,-1.000000
1306165.413622,-2.000000,-5.000000,2.000000,4.000000,2.000000,-1.000000,0.000000,-4.000000
1306165.414741,-4.000000,-2.000000,-8.000000,-10.000000,-7.000000,3.000000,8.000000,-5.000000
1306165.414758,-1.000000,12.000000,2.000000,28.000000,3.000000,3.000000,-3.000000,0.000000
1306165.415438,-4.000000,0.000000,-6.000000,-6.000000,-1.000000,-1.000000,-9.000000,-3.000000
1306165.415447,2.000000,-13.000000,-3.000000,-8.000000,-7.000000,-6.000000,1.000000,-4.000000
1306165.416879,0.000000,5.000000,-2.000000,8.000000,-2.000000,3.000000,-5.000000,2.000000
1306165.416888,1.000000,0.000000,0.000000,-3.000000,3.000000,-3.000000,-7.000000,4.000000
1306165.429626,-1.000000,-4.000000,1.000000,-4.000000,0.000000,-3.000000,-3.000000,-5.000000
1306165.429637,-2.000000,-3.000000,1.000000,14.000000,2.000000,6.000000,1.000000,-2.000000
1306165.430642,-2.000000,11.000000,2.000000,10.000000,6.000000,3.000000,-6.000000,-2.000000
1306165.430650,0.000000,-6.000000,-1.000000,-1.000000,-10.000000,-7.000000,4.000000,1.000000
1306165.436555,0.000000,1.000000,-6.000000,-11.000000,-2.000000,-6.000000,2.000000,-4.000000
1306165.436567,3.000000,-2.000000,0.000000,7.000000,1.000000,-2.000000,-1.000000,3.000000
1306165.451802,-1.000000,-7.000000,0.000000,1.000000,-1.000000,2.000000,-4.000000,0.000000
1306165.451813,2.000000,-11.000000,-6.000000,-7.000000,-4.000000,-6.000000,4.000000,1.000000
1306165.475078,-1.000000,9.000000,0.000000,3.000000,3.000000,4.000000,-4.000000,-1.000000
1306165.475114,-5.000000,-1.000000,2.000000,6.000000,3.000000,2.000000,-9.000000,1.000000
1306165.489203,1.000000,2.000000,2.000000,-4.000000,-1.000000,-4.000000,-3.000000,0.000000
1306165.489236,-1.000000,3.000000,-4.000000,-9.000000,-4.000000,1.000000,4.000000,-2.000000
1306165.496516,4.000000,13.000000,6.000000,28.000000,6.000000,8.000000,-1.000000,4.000000
1306165.496533,5.000000,-3.000000,4.000000,-14.000000,-4.000000,-2.000000,-1.000000,-2.000000
1306165.519112,-1.000000,1.000000,-3.000000,-13.000000,-6.000000,-9.000000,7.000000,-5.000000
1306165.519131,-3.000000,0.000000,3.000000,5.000000,-1.000000,-3.000000,-3.000000,3.000000
1306165.534314,1.000000,6.000000,-3.000000,-10.000000,-1.000000,-1.000000,0.000000,-1.000000
1306165.534331,-6.000000,0.000000,2.000000,6.000000,0.000000,-1.000000,2.000000,-4.000000
1306165.556498,0.000000,-2.000000,0.000000,-10.000000,-5.000000,1.000000,-3.000000,2.000000
1306165.556514,0.000000,2.000000,4.000000,21.000000,6.000000,1.000000,-4.000000,1.000000
1306165.571582,2.000000,-5.000000,-8.000000,-9.000000,-7.000000,-1.000000,-2.000000,-3.000000
1306165.571720,-1.000000,2.000000,3.000000,9.000000,11.000000,3.000000,0.000000,-1.000000
1306165.572646,0.000000,8.000000,-1.000000,-1.000000,2.000000,6.000000,-4.000000,2.000000
1306165.572656,-3.000000,-2.000000,-7.000000,4.000000,-3.000000,0.000000,-3.000000,0.000000
1306165.573377,0.000000,-6.000000,1.000000,-1.000000,-6.000000,1.000000,3.000000,-2.000000
1306165.573390,-1.000000,-7.000000,1.000000,3.000000,0.000000,0.000000,-6.000000,-1.000000
1306165.573934,3.000000,1.000000,1.000000,16.000000,7.000000,-3.000000,-4.000000,-1.000000
1306165.573956,-1.000000,-10.000000,-4.000000,-13.000000,-10.000000,-6.000000,0.000000,-4.000000
1306165.575121,4.000000,1.000000,3.000000,-4.000000,-5.000000,0.000000,2.000000,4.000000
1306165.575149,-4.000000,3.000000,0.000000,-4.000000,-6.000000,3.000000,-3.000000,0.000000
1306165.593885,-2.000000,-1.000000,2.000000,-3.000000,-2.000000,1.000000,-5.000000,-1.000000
1306165.593902,-2.000000,-2.000000,0.000000,-9.000000,-4.000000,0.000000,2.000000,-3.000000
1306165.616578,-2.000000,-6.000000,-3.000000,-19.000000,-6.000000,-7.000000,2.000000,-3.000000
1306165.616589,-2.000000,0.000000,0.000000,-17.000000,-7.000000,0.000000,-4.000000,0.000000
1306165.631600,-1.000000,-2.000000,-4.000000,2.000000,-1.000000,-1.000000,-4.000000,-4.000000
1306165.631614,4.000000,-13.000000,-5.000000,-5.000000,-12.000000,-9.000000,2.000000,0.000000
1306165.646754,-2.000000,5.000000,0.000000,-5.000000,-3.000000,6.000000,-2.000000,0.000000
1306165.646767,2.000000,2.000000,8.000000,24.000000,9.000000,5.000000,0.000000,2.000000
1306165.647165,-7.000000,-11.000000,-2.000000,-11.000000,1.000000,-7.000000,-2.000000,-2.000000
1306165.647174,-3.000000,6.000000,-5.000000,-9.000000,-1.000000,-2.000000,-2.000000,-2.000000
1306165.648573,0.000000,10.000000,1.000000,5.000000,-1.000000,4.000000,-6.000000,2.000000
1306165.648587,1.000000,-2.000000,0.000000,10.000000,6.000000,1.000000,-2.000000,-1.000000
1306165.649246,0.000000,-4.000000,-7.000000,-23.000000,-1.000000,2.000000,6.000000,2.000000
1306165.649268,-7.000000,1.000000,-3.000000,8.000000,-1.000000,1.000000,-4.000000,-5.000000
1306165.650081,1.000000,-2.000000,1.000000,-8.000000,-8.000000,-4.000000,0.000000,4.000000
1306165.650112,-1.000000,-4.000000,-6.000000,0.000000,-5.000000,-6.000000,1.000000,-3.000000
1306165.668886,1.000000,-7.000000,-6.000000,-16.000000,0.000000,-2.000000,0.000000,2.000000
1306165.668898,-1.000000,2.000000,4.000000,33.000000,10.000000,0.000000,-10.000000,-1.000000
1306165.691115,-7.000000,8.000000,1.000000,-17.000000,-1.000000,-4.000000,-3.000000,-6.000000
1306165.691129,-3.000000,5.000000,0.000000,4.000000,-6.000000,1.000000,-1.000000,4.000000
1306165.691646,-2.000000,4.000000,-2.000000,1.000000,-1.000000,-3.000000,-2.000000,-2.000000
1306165.691655,0.000000,-7.000000,-10.000000,-16.000000,-7.000000,-3.000000,-2.000000,1.000000
1306165.693097,-1.000000,-9.000000,2.000000,1.000000,1.000000,-1.000000,3.000000,-6.000000
1306165.693117,-2.000000,0.000000,5.000000,11.000000,-1.000000,2.000000,-2.000000,0.000000
1306165.706244,-3.000000,-11.000000,-7.000000,-7.000000,-7.000000,-6.000000,-1.000000,-4.000000
1306165.706254,0.000000,-2.000000,-2.000000,7.000000,-9.000000,-6.000000,1.000000,-3.000000
1306165.728915,1.000000,10.000000,-3.000000,-7.000000,-3.000000,0.000000,-3.000000,-2.000000
1306165.728927,6.000000,-8.000000,-4.000000,-6.000000,4.000000,-4.000000,-3.000000,0.000000
1306165.751315,-1.000000,-10.000000,-5.000000,0.000000,0.000000,0.000000,2.000000,-2.000000
1306165.751344,1.000000,-4.000000,0.000000,-7.000000,-4.000000,1.000000,-2.000000,0.000000
1306165.766885,0.000000,3.000000,5.000000,24.000000,6.000000,7.000000,-6.000000,-3.000000
1306165.766896,-3.000000,-1.000000,1.000000,-2.000000,-12.000000,-4.000000,-3.000000,-6.000000
1306165.767398,-3.000000,-2.000000,2.000000,7.000000,9.000000,-1.000000,5.000000,0.000000
1306165.767406,0.000000,10.000000,-4.000000,-9.000000,-4.000000,1.000000,-6.000000,0.000000
1306165.768627,-1.000000,-2.000000,-1.000000,16.000000,4.000000,-1.000000,-5.000000,-2.000000
1306165.768636,-6.000000,-7.000000,-3.000000,-10.000000,-5.000000,-2.000000,7.000000,-3.000000
1306165.769203,0.000000,7.000000,-3.000000,-4.000000,-1.000000,2.000000,-2.000000,-2.000000
1306165.769212,-3.000000,5.000000,0.000000,0.000000,-5.000000,-6.000000,-1.000000,-3.000000
1306165.770219,0.000000,-10.000000,-4.000000,-3.000000,-5.000000,-2.000000,4.000000,1.000000
1306165.770229,-1.000000,5.000000,0.000000,3.000000,-1.000000,5.000000,-1.000000,-2.000000
1306165.788821,5.000000,11.000000,2.000000,-4.000000,0.000000,2.000000,-5.000000,3.000000
1306165.788840,0.000000,-3.000000,4.000000,3.000000,-6.000000,-2.000000,3.000000,-1.000000
1306165.789993,-2.000000,1.000000,-3.000000,-16.000000,-10.000000,-3.000000,1.000000,1.000000
1306165.790020,0.000000,13.000000,-3.000000,13.000000,2.000000,4.000000,-8.000000,-4.000000
1306165.811486,-2.000000,-7.000000,-3.000000,-5.000000,-4.000000,0.000000,2.000000,2.000000
1306165.811498,4.000000,3.000000,-2.000000,-10.000000,-4.000000,-7.000000,5.000000,-2.000000
1306165.812586,-2.000000,-2.000000,1.000000,-1.000000,1.000000,2.000000,-3.000000,-1.000000
1306165.812594,-2.000000,-7.000000,-6.000000,6.000000,0.000000,1.000000,-3.000000,0.000000
1306165.826469,-4.000000,-24.000000,-9.000000,-8.000000,-10.000000,-7.000000,4.000000,-4.000000
1306165.826481,2.000000,5.000000,-1.000000,-10.000000,1.000000,4.000000,-6.000000,-1.000000
1306165.841285,-3.000000,7.000000,-1.000000,13.000000,1.000000,-6.000000,-1.000000,-2.000000
1306165.841308,3.000000,-3.000000,1.000000,0.000000,5.000000,1.000000,0.000000,-1.000000
1306165.849073,-3.000000,0.000000,2.000000,2.000000,0.000000,0.000000,-2.000000,-2.000000
1306165.849086,4.000000,11.000000,8.000000,19.000000,13.000000,8.000000,-1.000000,1.000000
1306165.871497,-3.000000,-6.000000,-9.000000,-15.000000,-5.000000,-3.000000,-1.000000,0.000000
1306165.871514,-4.000000,-5.000000,-3.000000,1.000000,-2.000000,-2.000000,-1.000000,-4.000000
1306165.886268,-4.000000,-5.000000,-1.000000,1.000000,-6.000000,1.000000,-5.000000,-2.000000
1306165.886287,1.000000,7.000000,1.000000,0.000000,1.000000,-1.000000,-8.000000,-3.000000
1306165.887376,0.000000,-13.000000,-6.000000,-1.000000,-8.000000,-7.000000,-3.000000,-2.000000
1306165.887389,3.000000,6.000000,0.000000,-8.000000,-5.000000,-2.000000,-1.000000,3.000000
1306165.888216,-1.000000,1.000000,1.000000,6.000000,1.000000,2.000000,-4.000000,-5.000000
1306165.888227,-3.000000,-2.000000,-4.000000,0.000000,-2.000000,-7.000000,2.000000,2.000000
1306165.889481,-3.000000,0.000000,0.000000,0.000000,2.000000,-5.000000,4.000000,-1.000000
1306165.889490,-2.000000,13.000000,3.000000,-6.000000,-6.000000,2.000000,-5.000000,-4.000000
1306165.908993,4.000000,-12.000000,2.000000,-6.000000,0.000000,4.000000,-2.000000,1.000000
1306165.909004,0.000000,-1.000000,2.000000,4.000000,10.000000,3.000000,6.000000,-1.000000
1306165.910062,-4.000000,1.000000,0.000000,-3.000000,-2.000000,0.000000,-4.000000,-3.000000
1306165.910071,1.000000,-10.000000,-4.000000,1.000000,-1.000000,1.000000,-1.000000,3.000000
1306165.923740,-4.000000,-13.000000,-4.000000,-6.000000,-12.000000,-7.000000,5.000000,-5.000000
1306165.923750,-1.000000,4.000000,-5.000000,-21.000000,-4.000000,3.000000,0.000000,1.000000
1306165.931164,-1.000000,4.000000,14.000000,63.000000,15.000000,3.000000,1.000000,4.000000
1306165.931174,-9.000000,-6.000000,-12.000000,-17.000000,-3.000000,-3.000000,-3.000000,-4.000000
1306165.946426,-2.000000,2.000000,1.000000,-1.000000,-6.000000,3.000000,2.000000,1.000000
1306165.946455,2.000000,15.000000,3.000000,-2.000000,-2.000000,7.000000,-7.000000,4.000000
1306165.984053,3.000000,-7.000000,-7.000000,-10.000000,-5.000000,-1.000000,1.000000,1.000000
1306165.984082,1.000000,-6.000000,-3.000000,-10.000000,-2.000000,-4.000000,2.000000,-3.000000
1306165.984352,1.000000,1.000000,0.000000,-3.000000,-1.000000,6.000000,-2.000000,-3.000000
1306165.984379,-3.000000,-1.000000,0.000000,5.000000,-1.000000,-1.000000,0.000000,1.000000
1306165.985404,-4.000000,-15.000000,-5.000000,-25.000000,-10.000000,-3.000000,0.000000,-3.000000
1306165.985412,-3.000000,5.000000,6.000000,-3.000000,5.000000,-3.000000,-3.000000,-1.000000
1306165.986019,1.000000,0.000000,-2.000000,13.000000,5.000000,-1.000000,-5.000000,0.000000
1306165.986028,1.000000,-5.000000,0.000000,-4.000000,-4.000000,-3.000000,2.000000,-1.000000
1306165.991283,1.000000,3.000000,-3.000000,-11.000000,-3.000000,5.000000,1.000000,5.000000
1306165.991293,-2.000000,12.000000,2.000000,-7.000000,-4.000000,4.000000,-4.000000,-2.000000
1306166.006247,4.000000,-3.000000,5.000000,3.000000,-2.000000,0.000000,0.000000,1.000000
1306166.006258,-4.000000,-5.000000,-5.000000,-25.000000,-2.000000,-1.000000,1.000000,1.000000
1306166.028834,-4.000000,-1.000000,8.000000,34.000000,6.000000,1.000000,-3.000000,-8.000000
1306166.028844,-2.000000,0.000000,-2.000000,21.000000,8.000000,-4.000000,-3.000000,3.000000
1306166.044020,-1.000000,-16.000000,-2.000000,-14.000000,-3.000000,-3.000000,5.000000,-2.000000
1306166.044031,0.000000,3.000000,0.000000,-2.000000,0.000000,-3.000000,-6.000000,0.000000
1306166.066498,-1.000000,4.000000,2.000000,-6.000000,-5.000000,-6.000000,-8.000000,1.000000
1306166.066520,-6.000000,-5.000000,-5.000000,-3.000000,-5.000000,0.000000,2.000000,-5.000000
1306166.103943,-4.000000,-5.000000,-3.000000,-1.000000,0.000000,5.000000,-1.000000,-6.000000
1306166.103964,-1.000000,8.000000,4.000000,-13.000000,0.000000,7.000000,-1.000000,3.000000
1306166.111612,0.000000,-7.000000,4.000000,42.000000,3.000000,3.000000,-3.000000,0.000000
1306166.111622,-3.000000,-4.000000,-4.000000,-13.000000,-7.000000,-7.000000,4.000000,-3.000000
1306166.126902,8.000000,0.000000,-1.000000,-4.000000,-8.000000,-6.000000,-1.000000,0.000000
1306166.126931,0.000000,-5.000000,-4.000000,-6.000000,-4.000000,5.000000,0.000000,2.000000
1306166.148754,-4.000000,-10.000000,-6.000000,-10.000000,-11.000000,-3.000000,4.000000,-1.000000
1306166.148771,-1.000000,-3.000000,-3.000000,-2.000000,-1.000000,-2.000000,-3.000000,-2.000000
1306166.151211,-4.000000,1.000000,0.000000,6.000000,4.000000,-1.000000,-6.000000,-4.000000
1306166.151239,-5.000000,-4.000000,1.000000,-3.000000,-6.000000,-5.000000,3.000000,-4.000000
1306166.152829,-2.000000,10.000000,5.000000,6.000000,2.000000,1.000000,-2.000000,-2.000000
1306166.152858,1.000000,2.000000,0.000000,-2.000000,3.000000,3.000000,-3.000000,-1.000000
1306166.164610,-2.000000,5.000000,1.000000,-2.000000,0.000000,2.000000,-1.000000,-7.000000
1306166.164623,-1.000000,-11.000000,-2.000000,-11.000000,-1.000000,-4.000000,2.000000,2.000000
1306166.186298,0.000000,-3.000000,6.000000,-3.000000,-6.000000,-7.000000,5.000000,0.000000
1306166.186308,-4.000000,1.000000,1.000000,13.000000,5.000000,3.000000,1.000000,1.000000
1306166.201542,3.000000,-6.000000,1.000000,-15.000000,-2.000000,1.000000,-4.000000,-3.000000
1306166.201572,-1.000000,-7.000000,-5.000000,-8.000000,-4.000000,0.000000,1.000000,-1.000000
1306166.209161,-5.000000,-1.000000,-3.000000,3.000000,-3.000000,6.000000,4.000000,0.000000
1306166.209186,-2.000000,2.000000,2.000000,-4.000000,-6.000000,4.000000,-7.000000,1.000000
1306166.246259,0.000000,-7.000000,-1.000000,5.000000,6.000000,0.000000,1.000000,1.000000
1306166.246282,4.000000,6.000000,1.000000,3.000000,3.000000,-3.000000,4.000000,5.000000
1306166.246890,6.000000,2.000000,-5.000000,1.000000,2.000000,0.000000,-2.000000,-2.000000
1306166.246918,-3.000000,-6.000000,2.000000,4.000000,1.000000,-4.000000,-1.000000,-5.000000
1306166.248117,-3.000000,1.000000,-6.000000,-10.000000,-8.000000,-7.000000,8.000000,-3.000000
1306166.248160,-5.000000,4.000000,-5.000000,-3.000000,6.000000,-3.000000,-3.000000,-2.000000
1306166.248994,2.000000,2.000000,-5.000000,-4.000000,-1.000000,2.000000,-2.000000,0.000000
1306166.249016,-3.000000,-11.000000,-1.000000,-1.000000,2.000000,-4.000000,1.000000,-1.000000
1306166.250147,-4.000000,2.000000,0.000000,-7.000000,0.000000,0.000000,-3.000000,-1.000000
1306166.250156,-4.000000,6.000000,2.000000,1.000000,-1.000000,-1.000000,-11.000000,-2.000000
1306166.261348,2.000000,0.000000,-2.000000,-5.000000,-3.000000,-4.000000,0.000000,0.000000
1306166.261370,-1.000000,-3.000000,-3.000000,-9.000000,2.000000,0.000000,-2.000000,-1.000000
1306166.262510,-2.000000,13.000000,3.000000,23.000000,0.000000,3.000000,-1.000000,-1.000000
1306166.262538,1.000000,-14.000000,1.000000,-1.000000,8.000000,0.000000,2.000000,-3.000000
1306166.268825,-2.000000,-7.000000,-1.000000,-1.000000,-4.000000,-5.000000,5.000000,1.000000
1306166.268834,0.000000,-7.000000,-1.000000,-5.000000,-1.000000,-2.000000,-2.000000,0.000000
1306166.284523,-2.000000,-1.000000,4.000000,13.000000,4.000000,1.000000,-1.000000,1.000000
1306166.284533,2.000000,3.000000,-1.000000,-11.000000,-5.000000,1.000000,2.000000,0.000000
1306166.306255,-1.000000,7.000000,-5.000000,-9.000000,-7.000000,-2.000000,1.000000,-3.000000
1306166.306265,-5.000000,7.000000,-3.000000,1.000000,5.000000,5.000000,-7.000000,-4.000000
1306166.321361,-2.000000,-2.000000,1.000000,-1.000000,4.000000,0.000000,1.000000,-6.000000
1306166.321374,2.000000,-12.000000,-6.000000,-8.000000,-6.000000,3.000000,1.000000,0.000000
1306166.329091,-1.000000,6.000000,-3.000000,-6.000000,0.000000,0.000000,-4.000000,2.000000
1306166.329104,-6.000000,4.000000,-2.000000,-2.000000,-3.000000,-5.000000,-3.000000,-4.000000
1306166.343844,-6.000000,-11.000000,-7.000000,-12.000000,-3.000000,-5.000000,5.000000,-7.000000
1306166.343863,-1.000000,-6.000000,6.000000,14.000000,5.000000,5.000000,2.000000,1.000000
1306166.344305,-4.000000,5.000000,3.000000,23.000000,-1.000000,-2.000000,-3.000000,1.000000
1306166.344326,1.000000,-9.000000,-3.000000,3.000000,0.000000,-4.000000,0.000000,-2.000000
1306166.345706,0.000000,3.000000,0.000000,-14.000000,-5.000000,0.000000,-1.000000,-2.000000
1306166.345715,2.000000,13.000000,3.000000,17.000000,4.000000,3.000000,-2.000000,0.000000
1306166.351344,1.000000,-5.000000,-3.000000,-1.000000,-6.000000,-2.000000,0.000000,3.000000
1306166.351354,-3.000000,-5.000000,-1.000000,-8.000000,1.000000,-2.000000,-4.000000,-4.000000
1306166.366507,-4.000000,12.000000,3.000000,2.000000,-6.000000,8.000000,-1.000000,5.000000
1306166.366532,-2.000000,-1.000000,-2.000000,-1.000000,-1.000000,-3.000000,4.000000,-1.000000
1306166.381302,-1.000000,-5.000000,-6.000000,-12.000000,-5.000000,-5.000000,5.000000,-3.000000
1306166.381314,0.000000,-4.000000,2.000000,4.000000,3.000000,6.000000,0.000000,3.000000
1306166.382639,-3.000000,-6.000000,2.000000,12.000000,-1.000000,0.000000,-1.000000,2.000000
1306166.382659,0.000000,8.000000,-1.000000,-8.000000,-7.000000,-3.000000,1.000000,-5.000000
1306166.389070,-1.000000,-3.000000,-3.000000,-3.000000,0.000000,-4.000000,-1.000000,-1.000000
1306166.389081,1.000000,-1.000000,4.000000,3.000000,-3.000000,-5.000000,-8.000000,4.000000
1306166.404366,-5.000000,-6.000000,-3.000000,-11.000000,1.000000,-7.000000,3.000000,-6.000000
1306166.404375,-4.000000,16.000000,-2.000000,24.000000,1.000000,7.000000,2.000000,-3.000000
1306166.426326,-2.000000,13.000000,0.000000,-5.000000,-2.000000,0.000000,-7.000000,-1.000000
1306166.426336,2.000000,-6.000000,-1.000000,-13.000000,-1.000000,0.000000,-4.000000,-6.000000
1306166.441659,-2.000000,4.000000,0.000000,6.000000,-1.000000,-8.000000,-1.000000,-7.000000
1306166.441669,-2.000000,-8.000000,0.000000,-4.000000,6.000000,7.000000,-3.000000,2.000000
1306166.463785,-4.000000,-3.000000,-1.000000,-5.000000,6.000000,-3.000000,-1.000000,1.000000
1306166.463796,-3.000000,-4.000000,-4.000000,0.000000,-12.000000,-7.000000,5.000000,1.000000
1306166.464707,-3.000000,2.000000,-2.000000,-9.000000,1.000000,1.000000,-2.000000,0.000000
1306166.464715,-1.000000,-2.000000,4.000000,-4.000000,-4.000000,0.000000,-6.000000,0.000000
1306166.465423,4.000000,3.000000,-9.000000,-8.000000,1.000000,-1.000000,-5.000000,-3.000000
1306166.465430,-2.000000,-4.000000,-4.000000,-4.000000,-3.000000,-3.000000,1.000000,1.000000
1306166.466934,1.000000,16.000000,-3.000000,-3.000000,6.000000,5.000000,-10.000000,-3.000000
1306166.466942,-1.000000,-6.000000,2.000000,-6.000000,-8.000000,-4.000000,-3.000000,-2.000000
1306166.478826,-6.000000,7.000000,2.000000,-13.000000,-5.000000,-8.000000,5.000000,2.000000
1306166.478857,7.000000,10.000000,4.000000,23.000000,8.000000,6.000000,-1.000000,5.000000
1306166.480125,0.000000,-12.000000,0.000000,-7.000000,-4.000000,-4.000000,-6.000000,1.000000
1306166.480154,-1.000000,-13.000000,-1.000000,-5.000000,-8.000000,-3.000000,0.000000,-3.000000
1306166.501208,-1.000000,-5.000000,0.000000,-7.000000,1.000000,4.000000,-2.000000,-3.000000
1306166.501218,0.000000,3.000000,0.000000,6.000000,6.000000,4.000000,-5.000000,1.000000
1306166.502464,-6.000000,-7.000000,-6.000000,-11.000000,-5.000000,0.000000,-1.000000,-3.000000
1306166.502473,0.000000,2.000000,1.000000,-9.000000,-8.000000,-2.000000,-1.000000,-2.000000
1306166.508770,1.000000,6.000000,7.000000,29.000000,4.000000,7.000000,-2.000000,3.000000
1306166.508780,-1.000000,-3.000000,-4.000000,-20.000000,-5.000000,-6.000000,0.000000,-5.000000
1306166.524492,-5.000000,-1.000000,-1.000000,-8.000000,0.000000,-5.000000,1.000000,-5.000000
1306166.524520,-3.000000,-1.000000,-2.000000,4.000000,2.000000,-3.000000,-6.000000,2.000000
1306166.539026,-3.000000,-5.000000,0.000000,-11.000000,4.000000,-4.000000,-4.000000,-1.000000
1306166.539046,-6.000000,-9.000000,-4.000000,1.000000,-3.000000,-3.000000,4.000000,-3.000000
1306166.561378,-2.000000,-9.000000,2.000000,5.000000,3.000000,3.000000,1.000000,0.000000
1306166.561408,5.000000,9.000000,2.000000,10.000000,14.000000,-4.000000,-5.000000,1.000000
1306166.591113,-3.000000,-3.000000,-1.000000,-6.000000,-5.000000,-1.000000,0.000000,-1.000000
1306166.591123,-2.000000,-6.000000,1.000000,-10.000000,3.000000,-1.000000,0.000000,-1.000000
1306166.599265,1.000000,11.000000,2.000000,7.000000,0.000000,4.000000,-2.000000,0.000000
1306166.599273,3.000000,-13.000000,0.000000,-11.000000,-6.000000,-4.000000,5.000000,0.000000
1306166.599968,-3.000000,-9.000000,-6.000000,-10.000000,-7.000000,-3.000000,-1.000000,-3.000000
1306166.599995,-2.000000,-1.000000,-2.000000,1.000000,9.000000,-5.000000,-5.000000,1.000000
1306166.601083,-5.000000,-2.000000,-5.000000,0.000000,-5.000000,1.000000,0.000000,-3.000000
1306166.601091,-3.000000,-2.000000,-5.000000,-10.000000,-14.000000,-4.000000,1.000000,-2.000000
1306166.601793,5.000000,7.000000,2.000000,-4.000000,-2.000000,1.000000,-1.000000,3.000000
1306166.601801,1.000000,-1.000000,1.000000,-1.000000,0.000000,-3.000000,-3.000000,5.000000
1306166.621527,3.000000,3.000000,3.000000,31.000000,5.000000,1.000000,-4.000000,2.000000
1306166.621537,2.000000,-1.000000,-4.000000,0.000000,-3.000000,-4.000000,0.000000,1.000000
1306166.622629,-1.000000,7.000000,4.000000,19.000000,10.000000,-3.000000,4.000000,-3.000000
1306166.622642,-1.000000,2.000000,-2.000000,-8.000000,-1.000000,0.000000,-4.000000,-3.000000
1306166.643711,1.000000,-12.000000,-2.000000,8.000000,1.000000,-2.000000,0.000000,-1.000000
1306166.643722,0.000000,-10.000000,1.000000,-14.000000,-2.000000,-5.000000,6.000000,-7.000000
1306166.644957,-2.000000,5.000000,3.000000,26.000000,13.000000,3.000000,-2.000000,1.000000
1306166.644984,2.000000,5.000000,-1.000000,-6.000000,-9.000000,-3.000000,-1.000000,2.000000
1306166.658936,-5.000000,-3.000000,-1.000000,-1.000000,-4.000000,-1.000000,-2.000000,-6.000000
1306166.658964,-2.000000,2.000000,1.000000,-10.000000,-3.000000,5.000000,1.000000,-2.000000
1306166.703893,7.000000,6.000000,4.000000,13.000000,5.000000,-1.000000,-9.000000,5.000000
1306166.703924,-4.000000,-4.000000,-2.000000,-12.000000,-2.000000,-3.000000,1.000000,-1.000000
1306166.704447,-2.000000,2.000000,-1.000000,-6.000000,-5.000000,-6.000000,4.000000,-5.000000
1306166.704457,-3.000000,-6.000000,-1.000000,-2.000000,0.000000,-3.000000,-6.000000,-1.000000
1306166.705613,-3.000000,-10.000000,-7.000000,-3.000000,-5.000000,-5.000000,-2.000000,-1.000000
1306166.705640,0.000000,0.000000,-3.000000,-6.000000,-6.000000,0.000000,6.000000,-5.000000
1306166.706152,-3.000000,-4.000000,-7.000000,-3.000000,4.000000,2.000000,-3.000000,-4.000000
1306166.706178,1.000000,0.000000,4.000000,8.000000,-3.000000,-5.000000,-7.000000,2.000000
1306166.707641,1.000000,-11.000000,2.000000,20.000000,6.000000,-5.000000,1.000000,-2.000000
1306166.707667,0.000000,7.000000,0.000000,-9.000000,-1.000000,1.000000,-5.000000,-1.000000
1306166.719072,-8.000000,9.000000,-3.000000,2.000000,2.000000,6.000000,-5.000000,2.000000
1306166.719212,0.000000,7.000000,-2.000000,-16.000000,-6.000000,-5.000000,1.000000,-1.000000
1306166.720063,2.000000,-3.000000,8.000000,41.000000,3.000000,0.000000,7.000000,-3.000000
1306166.720072,2.000000,6.000000,1.000000,1.000000,1.000000,-1.000000,-2.000000,1.000000
1306166.741288,-3.000000,-1.000000,-2.000000,-11.000000,-8.000000,-8.000000,-1.000000,1.000000
1306166.741298,-1.000000,-3.000000,-7.000000,-11.000000,-2.000000,-8.000000,6.000000,-7.000000
1306166.742502,0.000000,3.000000,-3.000000,-15.000000,-6.000000,-2.000000,-3.000000,-4.000000
1306166.742510,-2.000000,-1.000000,-3.000000,11.000000,1.000000,-5.000000,-5.000000,0.000000
1306166.756459,3.000000,-7.000000,-1.000000,-9.000000,-6.000000,-1.000000,2.000000,-1.000000
1306166.756488,-5.000000,-2.000000,-1.000000,-3.000000,1.000000,1.000000,-3.000000,2.000000
1306166.778985,-5.000000,5.000000,4.000000,8.000000,3.000000,0.000000,-6.000000,2.000000
1306166.779007,0.000000,-7.000000,0.000000,-1.000000,-3.000000,1.000000,0.000000,2.000000
1306166.801317,-4.000000,6.000000,-2.000000,-22.000000,-9.000000,-4.000000,0.000000,-2.000000
1306166.801346,-2.000000,11.000000,-2.000000,-1.000000,-2.000000,-3.000000,-4.000000,2.000000
1306166.802300,1.000000,-5.000000,-1.000000,1.000000,-4.000000,-4.000000,-2.000000,-2.000000
1306166.802326,1.000000,-7.000000,-5.000000,-12.000000,-4.000000,2.000000,2.000000,-6.000000
1306166.802943,-2.000000,-2.000000,0.000000,-2.000000,-2.000000,1.000000,-3.000000,-1.000000
1306166.802951,-4.000000,-1.000000,4.000000,14.000000,4.000000,5.000000,-2.000000,0.000000
1306166.804730,-2.000000,-6.000000,-1.000000,-9.000000,-4.000000,-4.000000,1.000000,-4.000000
1306166.804741,0.000000,1.000000,0.000000,-13.000000,-7.000000,-1.000000,0.000000,0.000000
1306166.816809,2.000000,-6.000000,5.000000,16.000000,4.000000,6.000000,-8.000000,5.000000
1306166.816832,-6.000000,-4.000000,-2.000000,10.000000,-3.000000,-6.000000,1.000000,-8.000000
1306166.839127,1.000000,3.000000,-1.000000,-6.000000,-3.000000,-3.000000,2.000000,-4.000000
1306166.839156,0.000000,3.000000,0.000000,-7.000000,-4.000000,-4.000000,-4.000000,3.000000
1306166.861779,-1.000000,3.000000,-2.000000,2.000000,3.000000,3.000000,-1.000000,-3.000000
1306166.861789,-4.000000,1.000000,-5.000000,-16.000000,-7.000000,-6.000000,1.000000,-6.000000
1306166.876670,2.000000,-3.000000,-3.000000,-15.000000,-4.000000,-4.000000,0.000000,3.000000
1306166.876679,3.000000,-2.000000,-1.000000,7.000000,0.000000,-4.000000,-4.000000,0.000000
1306166.877211,-2.000000,-5.000000,1.000000,-8.000000,-2.000000,-5.000000,5.000000,-2.000000
1306166.877219,1.000000,9.000000,1.000000,14.000000,3.000000,2.000000,-4.000000,3.000000
1306166.878552,-3.000000,9.000000,-3.000000,-5.000000,3.000000,5.000000,-8.000000,0.000000
1306166.878580,-4.000000,-4.000000,0.000000,-3.000000,-3.000000,2.000000,0.000000,-1.000000
1306166.879371,0.000000,-1.000000,-3.000000,-5.000000,0.000000,-5.000000,3.000000,0.000000
1306166.879398,2.000000,3.000000,4.000000,13.000000,2.000000,4.000000,-3.000000,1.000000
1306166.898868,3.000000,-1.000000,-2.000000,-7.000000,0.000000,0.000000,1.000000,2.000000
1306166.898883,-1.000000,-12.000000,-5.000000,-9.000000,-10.000000,-2.000000,4.000000,-4.000000
1306166.921218,-7.000000,1.000000,-3.000000,-16.000000,-5.000000,1.000000,-8.000000,-5.000000
1306166.921228,3.000000,1.000000,3.000000,10.000000,0.000000,-1.000000,0.000000,1.000000
1306166.943754,1.000000,-14.000000,-2.000000,0.000000,6.000000,-4.000000,5.000000,1.000000
1306166.943764,-1.000000,-3.000000,-2.000000,-5.000000,1.000000,0.000000,-3.000000,-1.000000
1306166.944161,1.000000,1.000000,4.000000,0.000000,1.000000,3.000000,-6.000000,3.000000
1306166.944192,-3.000000,2.000000,5.000000,37.000000,6.000000,-1.000000,0.000000,-1.000000
1306166.945494,-2.000000,-3.000000,0.000000,-20.000000,-2.000000,-2.000000,2.000000,-2.000000
1306166.945515,-3.000000,9.000000,-4.000000,-7.000000,-3.000000,-2.000000,-1.000000,-2.000000
1306166.946010,0.000000,-3.000000,-3.000000,-3.000000,0.000000,0.000000,-1.000000,-3.000000
1306166.946032,6.000000,-8.000000,1.000000,-6.000000,-1.000000,-2.000000,5.000000,1.000000
1306166.958800,-3.000000,-16.000000,-3.000000,2.000000,-6.000000,-6.000000,2.000000,0.000000
1306166.958812,-3.000000,11.000000,0.000000,-3.000000,-7.000000,-1.000000,0.000000,3.000000
1306166.981461,0.000000,7.000000,10.000000,-6.000000,1.000000,3.000000,-4.000000,-2.000000
1306166.981476,-4.000000,-5.000000,-3.000000,19.000000,7.000000,0.000000,2.000000,-1.000000
1306166.981819,1.000000,2.000000,0.000000,-11.000000,-6.000000,-2.000000,0.000000,-2.000000
1306166.981828,-2.000000,10.000000,0.000000,5.000000,2.000000,1.000000,-6.000000,0.000000
1306166.983125,1.000000,0.000000,3.000000,10.000000,0.000000,1.000000,-1.000000,1.000000
1306166.983153,2.000000,-3.000000,-5.000000,-17.000000,-8.000000,0.000000,3.000000,-4.000000
1306166.996399,1.000000,7.000000,-1.000000,-4.000000,2.000000,0.000000,-3.000000,-1.000000
1306166.996429,0.000000,6.000000,2.000000,-2.000000,-7.000000,-1.000000,-4.000000,2.000000
1306167.033959,-3.000000,-8.000000,-1.000000,-4.000000,-5.000000,1.000000,3.000000,-3.000000
1306167.033987,-2.000000,6.000000,0.000000,-10.000000,-5.000000,0.000000,-4.000000,0.000000
1306167.041388,2.000000,-1.000000,3.000000,16.000000,10.000000,7.000000,-4.000000,0.000000
1306167.041398,0.000000,-1.000000,-4.000000,-6.000000,-4.000000,-1.000000,-1.000000,-2.000000
1306167.056844,2.000000,2.000000,-5.000000,-11.000000,-2.000000,-2.000000,-1.000000,-3.000000
1306167.056857,1.000000,9.000000,3.000000,6.000000,10.000000,3.000000,-7.000000,0.000000
1306167.057376,0.000000,-1.000000,0.000000,-6.000000,-4.000000,-1.000000,0.000000,0.000000
1306167.057405,-2.000000,-8.000000,-7.000000,-19.000000,-8.000000,-4.000000,0.000000,-7.000000
1306167.058880,-3.000000,3.000000,1.000000,4.000000,-8.000000,-2.000000,-5.000000,-2.000000
1306167.058934,2.000000,-2.000000,-2.000000,-4.000000,3.000000,2.000000,-4.000000,1.000000
1306167.059755,4.000000,-19.000000,3.000000,15.000000,5.000000,-7.000000,4.000000,-1.000000
1306167.059772,-5.000000,4.000000,-5.000000,-3.000000,-1.000000,1.000000,-2.000000,1.000000
1306167.078633,-1.000000,2.000000,4.000000,10.000000,3.000000,2.000000,-9.000000,-4.000000
1306167.078644,2.000000,-11.000000,-1.000000,10.000000,-1.000000,-4.000000,0.000000,1.000000
1306167.079084,-6.000000,-2.000000,-6.000000,-7.000000,8.000000,-1.000000,0.000000,-4.000000
1306167.079093,2.000000,3.000000,-2.000000,-3.000000,1.000000,3.000000,-4.000000,0.000000
1306167.093730,4.000000,-3.000000,4.000000,0.000000,-2.000000,-2.000000,2.000000,0.000000
1306167.093742,-1.000000,4.000000,-3.000000,-5.000000,-2.000000,-2.000000,5.000000,1.000000
1306167.094386,3.000000,5.000000,0.000000,-5.000000,1.000000,-2.000000,-5.000000,4.000000
1306167.094396,-4.000000,-3.000000,-5.000000,0.000000,-3.000000,0.000000,-5.000000,-2.000000
1306167.101905,-1.000000,-7.000000,-1.000000,-5.000000,-6.000000,-11.000000,3.000000,-3.000000
1306167.101927,-2.000000,-5.000000,3.000000,16.000000,10.000000,6.000000,1.000000,0.000000
1306167.116272,-3.000000,6.000000,1.000000,0.000000,2.000000,1.000000,-7.000000,-3.000000
1306167.116301,-5.000000,-7.000000,-1.000000,4.000000,-3.000000,-1.000000,5.000000,-1.000000
1306167.161302,-4.000000,9.000000,-4.000000,-10.000000,1.000000,3.000000,-4.000000,-3.000000
1306167.161312,0.000000,2.000000,0.000000,4.000000,5.000000,0.000000,-5.000000,1.000000
1306167.176406,-5.000000,-7.000000,-7.000000,-10.000000,-5.000000,-5.000000,0.000000,0.000000
1306167.176435,-5.000000,3.000000,2.000000,6.000000,-9.000000,1.000000,0.000000,-7.000000
1306167.192003,1.000000,-2.000000,-1.000000,-6.000000,-1.000000,4.000000,-1.000000,1.000000
1306167.192012,-5.000000,-4.000000,-4.000000,-12.000000,-8.000000,0.000000,-4.000000,0.000000
1306167.198530,-1.000000,-9.000000,-5.000000,-8.000000,-12.000000,-12.000000,1.000000,-1.000000
1306167.198551,-2.000000,6.000000,-5.000000,-3.000000,3.000000,1.000000,-5.000000,-1.000000
1306167.199966,-1.000000,-3.000000,1.000000,-3.000000,-3.000000,1.000000,-6.000000,0.000000
1306167.199984,-2.000000,-8.000000,3.000000,6.000000,3.000000,0.000000,5.000000,-4.000000
1306167.200502,-5.000000,6.000000,-4.000000,-1.000000,5.000000,2.000000,-1.000000,2.000000
1306167.200517,1.000000,7.000000,2.000000,1.000000,6.000000,3.000000,-7.000000,-1.000000
1306167.201243,-1.000000,-3.000000,0.000000,4.000000,-2.000000,0.000000,-1.000000,0.000000
1306167.201252,-4.000000,-4.000000,-5.000000,-10.000000,-9.000000,0.000000,-1.000000,0.000000
1306167.213722,0.000000,-9.000000,-6.000000,-8.000000,-11.000000,-7.000000,4.000000,-2.000000
1306167.213751,3.000000,5.000000,-3.000000,-1.000000,3.000000,2.000000,2.000000,2.000000
1306167.214466,-3.000000,-7.000000,0.000000,5.000000,4.000000,-2.000000,-5.000000,0.000000
1306167.214493,0.000000,-4.000000,-2.000000,-10.000000,-3.000000,-2.000000,3.000000,-1.000000
1306167.222017,-2.000000,6.000000,2.000000,11.000000,2.000000,3.000000,-2.000000,-1.000000
1306167.222026,-1.000000,-7.000000,9.000000,1.000000,4.000000,8.000000,-6.000000,0.000000
1306167.236705,1.000000,-8.000000,-4.000000,-3.000000,-7.000000,-3.000000,2.000000,0.000000
1306167.236742,-4.000000,5.000000,1.000000,4.000000,0.000000,-3.000000,-2.000000,-1.000000
1306167.289519,2.000000,1.000000,-2.000000,0.000000,2.000000,4.000000,0.000000,0.000000
1306167.289540,0.000000,-11.000000,3.000000,0.000000,-1.000000,-2.000000,-4.000000,1.000000
1306167.297055,-4.000000,-16.000000,-3.000000,-6.000000,-5.000000,-1.000000,5.000000,-4.000000
1306167.297075,-2.000000,3.000000,-3.000000,0.000000,0.000000,2.000000,0.000000,-1.000000
1306167.312403,-6.000000,2.000000,-3.000000,0.000000,4.000000,4.000000,-4.000000,2.000000
1306167.312423,-6.000000,-1.000000,-4.000000,-7.000000,-3.000000,-4.000000,-1.000000,-6.000000
1306167.319153,-2.000000,0.000000,5.000000,0.000000,2.000000,2.000000,-1.000000,-1.000000
1306167.319171,0.000000,1.000000,3.000000,3.000000,3.000000,1.000000,-5.000000,3.000000
1306167.348877,-4.000000,-5.000000,-1.000000,15.000000,6.000000,-3.000000,-1.000000,-1.000000
1306167.348895,-1.000000,-3.000000,-5.000000,-4.000000,-1.000000,-2.000000,4.000000,-3.000000
1306167.371604,-3.000000,0.000000,-1.000000,1.000000,1.000000,-3.000000,-5.000000,0.000000
1306167.371621,1.000000,-4.000000,-5.000000,1.000000,-1.000000,-5.000000,0.000000,3.000000
1306167.393817,0.000000,4.000000,-3.000000,-8.000000,3.000000,5.000000,0.000000,-1.000000
1306167.393827,-2.000000,5.000000,1.000000,4.000000,0.000000,3.000000,-6.000000,2.000000
1306167.416553,-3.000000,-4.000000,-5.000000,-6.000000,-2.000000,0.000000,-5.000000,2.000000
1306167.416697,-3.000000,5.000000,-3.000000,-14.000000,-2.000000,-2.000000,3.000000,-7.000000
1306167.417061,2.000000,1.000000,-1.000000,-12.000000,1.000000,-3.000000,4.000000,-1.000000
1306167.417072,1.000000,4.000000,2.000000,18.000000,1.000000,-1.000000,-1.000000,-3.000000
1306167.418116,-5.000000,7.000000,0.000000,10.000000,4.000000,5.000000,0.000000,-1.000000
1306167.418130,-1.000000,5.000000,2.000000,-9.000000,-1.000000,4.000000,-8.000000,4.000000
1306167.418659,8.000000,0.000000,0.000000,-14.000000,-8.000000,-3.000000,1.000000,0.000000
1306167.418687,-3.000000,4.000000,-5.000000,-2.000000,-5.000000,-1.000000,4.000000,-1.000000
1306167.419267,-6.000000,9.000000,1.000000,2.000000,2.000000,1.000000,-4.000000,-1.000000
1306167.419294,6.000000,1.000000,3.000000,1.000000,-7.000000,-8.000000,-3.000000,-2.000000
1306167.420243,-1.000000,-5.000000,2.000000,7.000000,2.000000,5.000000,-1.000000,0.000000
1306167.420252,-7.000000,-14.000000,-5.000000,-4.000000,-1.000000,-1.000000,0.000000,-3.000000
1306167.431731,2.000000,0.000000,-3.000000,-8.000000,-1.000000,2.000000,-1.000000,-3.000000
1306167.431740,0.000000,14.000000,-1.000000,-13.000000,0.000000,-1.000000,-8.000000,0.000000
1306167.432761,-6.000000,-4.000000,2.000000,21.000000,5.000000,4.000000,1.000000,-3.000000
1306167.432773,0.000000,3.000000,-5.000000,-20.000000,-4.000000,-1.000000,4.000000,-5.000000
1306167.454309,3.000000,11.000000,3.000000,5.000000,2.000000,0.000000,-4.000000,2.000000
1306167.454323,3.000000,-1.000000,4.000000,-8.000000,-4.000000,-3.000000,-3.000000,1.000000
1306167.461445,-5.000000,-6.000000,-4.000000,-4.000000,-3.000000,-4.000000,2.000000,-4.000000
1306167.461456,2.000000,4.000000,0.000000,-4.000000,6.000000,3.000000,-6.000000,-3.000000
1306167.476749,3.000000,5.000000,-1.000000,0.000000,0.000000,0.000000,-4.000000,1.000000
1306167.476765,0.000000,-17.000000,-5.000000,-5.000000,-2.000000,-5.000000,3.000000,2.000000
1306167.491297,0.000000,-1.000000,-1.000000,4.000000,4.000000,2.000000,-3.000000,-1.000000
1306167.491307,-2.000000,5.000000,3.000000,-1.000000,3.000000,5.000000,-5.000000,2.000000
1306167.521501,2.000000,0.000000,3.000000,7.000000,-1.000000,-5.000000,-2.000000,-3.000000
1306167.521512,-1.000000,6.000000,-2.000000,-14.000000,2.000000,-1.000000,6.000000,-2.000000
1306167.536610,-1.000000,2.000000,4.000000,11.000000,1.000000,2.000000,-4.000000,1.000000
1306167.536623,-1.000000,3.000000,1.000000,0.000000,-4.000000,-1.000000,-1.000000,-1.000000
1306167.551942,0.000000,1.000000,-1.000000,-9.000000,-1.000000,-4.000000,5.000000,-7.000000
1306167.551953,-3.000000,-2.000000,0.000000,-11.000000,0.000000,-4.000000,-6.000000,-3.000000
1306167.552469,-6.000000,-9.000000,-1.000000,7.000000,0.000000,-3.000000,-1.000000,-3.000000
1306167.552480,5.000000,-21.000000,1.000000,-8.000000,-5.000000,-7.000000,3.000000,1.000000
1306167.553766,-1.000000,5.000000,-6.000000,-5.000000,0.000000,-3.000000,4.000000,-2.000000
1306167.553779,2.000000,7.000000,5.000000,3.000000,-2.000000,2.000000,-4.000000,-2.000000
1306167.554716,-2.000000,-2.000000,0.000000,-5.000000,-2.000000,0.000000,0.000000,-4.000000
1306167.554725,2.000000,7.000000,-3.000000,6.000000,1.000000,7.000000,0.000000,-3.000000
1306167.574191,-1.000000,-7.000000,0.000000,14.000000,-11.000000,-2.000000,-5.000000,-4.000000
1306167.574208,-4.000000,-15.000000,0.000000,21.000000,6.000000,-7.000000,5.000000,-2.000000
1306167.574944,4.000000,6.000000,1.000000,-5.000000,5.000000,-1.000000,-1.000000,0.000000
1306167.574953,1.000000,3.000000,0.000000,11.000000,3.000000,1.000000,-5.000000,0.000000
1306167.589412,2.000000,-10.000000,-6.000000,-12.000000,-2.000000,-3.000000,0.000000,3.000000
1306167.589420,-3.000000,0.000000,-3.000000,-13.000000,2.000000,0.000000,-1.000000,-3.000000
1306167.596567,-3.000000,8.000000,2.000000,16.000000,6.000000,7.000000,-9.000000,-2.000000
1306167.596579,-1.000000,-6.000000,-3.000000,-4.000000,-2.000000,-6.000000,0.000000,-1.000000
1306167.641573,-3.000000,-9.000000,-7.000000,-13.000000,-1.000000,-3.000000,4.000000,-4.000000
1306167.641584,2.000000,1.000000,-2.000000,0.000000,-7.000000,0.000000,-2.000000,1.000000
1306167.649023,-3.000000,-6.000000,-2.000000,4.000000,0.000000,-2.000000,-2.000000,0.000000
1306167.649112,-3.000000,-12.000000,-2.000000,-3.000000,-3.000000,-9.000000,2.000000,-3.000000
1306167.649877,-2.000000,-4.000000,0.000000,-5.000000,0.000000,2.000000,-3.000000,0.000000
1306167.649889,1.000000,-2.000000,0.000000,8.000000,-3.000000,0.000000,-4.000000,3.000000
1306167.650495,-2.000000,3.000000,0.000000,6.000000,3.000000,-2.000000,-2.000000,-1.000000
1306167.650505,-4.000000,1.000000,1.000000,1.000000,0.000000,0.000000,1.000000,0.000000
1306167.656468,2.000000,-3.000000,1.000000,10.000000,-1.000000,-1.000000,3.000000,-1.000000
1306167.656481,-1.000000,3.000000,-2.000000,-6.000000,-1.000000,-1.000000,-2.000000,-1.000000
1306167.671494,-1.000000,-4.000000,-1.000000,1.000000,3.000000,-1.000000,-6.000000,2.000000
1306167.671502,-2.000000,-13.000000,-4.000000,-10.000000,-8.000000,-4.000000,5.000000,-6.000000
1306167.672424,1.000000,0.000000,-2.000000,-13.000000,1.000000,0.000000,0.000000,0.000000
1306167.672432,-2.000000,-4.000000,3.000000,33.000000,-1.000000,3.000000,-5.000000,4.000000
1306167.694387,1.000000,-9.000000,0.000000,11.000000,3.000000,-3.000000,2.000000,-1.000000
1306167.694398,-4.000000,6.000000,-3.000000,-8.000000,-5.000000,2.000000,3.000000,-3.000000
1306167.695021,-1.000000,9.000000,2.000000,0.000000,-1.000000,5.000000,-5.000000,0.000000
1306167.695030,-5.000000,-6.000000,-4.000000,-9.000000,-5.000000,-7.000000,0.000000,0.000000
1306167.716200,-3.000000,1.000000,4.000000,15.000000,5.000000,3.000000,3.000000,-3.000000
1306167.716224,2.000000,0.000000,2.000000,6.000000,2.000000,3.000000,3.000000,1.000000
1306167.731525,0.000000,1.000000,0.000000,4.000000,1.000000,-3.000000,-4.000000,0.000000
1306167.731536,0.000000,-7.000000,1.000000,-7.000000,-6.000000,-5.000000,5.000000,-2.000000
1306167.754182,-2.000000,2.000000,8.000000,29.000000,17.000000,6.000000,0.000000,0.000000
1306167.754211,0.000000,2.000000,4.000000,8.000000,2.000000,6.000000,-3.000000,2.000000
1306167.768663,3.000000,3.000000,-2.000000,-6.000000,-1.000000,-3.000000,2.000000,-2.000000
1306167.768693,4.000000,8.000000,-1.000000,-7.000000,-2.000000,-3.000000,-1.000000,-1.000000
1306167.769754,-3.000000,1.000000,2.000000,7.000000,-4.000000,7.000000,-7.000000,-1.000000
1306167.769764,0.000000,-6.000000,-4.000000,-1.000000,-2.000000,-7.000000,-2.000000,-1.000000
1306167.770792,0.000000,-2.000000,0.000000,-7.000000,-4.000000,1.000000,2.000000,-4.000000
1306167.770801,-1.000000,3.000000,5.000000,18.000000,6.000000,6.000000,-3.000000,1.000000
1306167.771963,10.000000,9.000000,-2.000000,1.000000,4.000000,-3.000000,3.000000,1.000000
1306167.771971,-4.000000,-16.000000,-4.000000,-13.000000,0.000000,-7.000000,5.000000,-3.000000
1306167.776529,-8.000000,1.000000,0.000000,-5.000000,0.000000,1.000000,1.000000,0.000000
1306167.776540,-3.000000,-1.000000,5.000000,0.000000,6.000000,1.000000,-4.000000,1.000000
1306167.791709,0.000000,-5.000000,-1.000000,-13.000000,-6.000000,1.000000,0.000000,0.000000
1306167.791719,-7.000000,4.000000,-2.000000,30.000000,3.000000,7.000000,0.000000,-1.000000
1306167.792577,3.000000,5.000000,-5.000000,-29.000000,-7.000000,6.000000,-8.000000,-1.000000
1306167.792587,0.000000,-3.000000,-3.000000,8.000000,-1.000000,-6.000000,-1.000000,0.000000
1306167.814416,-3.000000,13.000000,3.000000,7.000000,5.000000,1.000000,-2.000000,-3.000000
1306167.814425,-3.000000,1.000000,-4.000000,-10.000000,-5.000000,0.000000,-3.000000,-1.000000
1306167.829066,-1.000000,-10.000000,-1.000000,4.000000,-10.000000,-4.000000,-1.000000,-2.000000
1306167.829077,4.000000,-5.000000,-6.000000,-11.000000,-9.000000,-7.000000,5.000000,-2.000000
1306167.866330,-1.000000,-4.000000,3.000000,-9.000000,3.000000,1.000000,-5.000000,0.000000
1306167.866341,-1.000000,-6.000000,-3.000000,2.000000,2.000000,-5.000000,-1.000000,2.000000
1306167.874071,-2.000000,1.000000,-2.000000,-2.000000,5.000000,2.000000,1.000000,-2.000000
1306167.874083,1.000000,3.000000,-1.000000,-7.000000,-3.000000,4.000000,1.000000,0.000000
1306167.903897,-1.000000,4.000000,3.000000,5.000000,1.000000,-5.000000,-7.000000,0.000000
1306167.903928,2.000000,-3.000000,2.000000,20.000000,-5.000000,-2.000000,0.000000,-2.000000
1306167.911572,1.000000,3.000000,-2.000000,4.000000,14.000000,2.000000,3.000000,-5.000000
1306167.911584,0.000000,4.000000,4.000000,-3.000000,-8.000000,2.000000,-3.000000,-2.000000
1306167.926953,1.000000,1.000000,7.000000,-5.000000,-2.000000,0.000000,1.000000,2.000000
1306167.926964,-3.000000,-1.000000,-6.000000,-9.000000,-6.000000,-8.000000,2.000000,-7.000000
1306167.928011,1.000000,3.000000,-2.000000,2.000000,-1.000000,-1.000000,-3.000000,3.000000
1306167.928022,-5.000000,2.000000,3.000000,2.000000,-7.000000,1.000000,-4.000000,-3.000000
1306167.928663,1.000000,21.000000,-1.000000,0.000000,7.000000,8.000000,0.000000,-1.000000
1306167.928674,6.000000,4.000000,-2.000000,1.000000,-5.000000,-3.000000,-2.000000,1.000000
1306167.929338,-1.000000,-4.000000,-1.000000,-1.000000,-1.000000,-5.000000,1.000000,-1.000000
1306167.929349,-7.000000,-12.000000,-8.000000,-24.000000,-2.000000,-5.000000,3.000000,-2.000000
1306167.930187,2.000000,16.000000,11.000000,41.000000,-1.000000,10.000000,-5.000000,1.000000
1306167.930198,3.000000,-3.000000,-1.000000,5.000000,-1.000000,-3.000000,-4.000000,2.000000
1306167.933884,0.000000,-9.000000,-4.000000,-20.000000,-4.000000,-6.000000,3.000000,2.000000
1306167.933942,-4.000000,9.000000,1.000000,5.000000,-1.000000,2.000000,2.000000,-2.000000
1306167.986530,-1.000000,1.000000,-2.000000,0.000000,3.000000,1.000000,-7.000000,0.000000
1306167.986548,-1.000000,-1.000000,-5.000000,-9.000000,-8.000000,-2.000000,1.000000,2.000000
1306167.993620,-2.000000,-1.000000,-2.000000,-1.000000,7.000000,5.000000,1.000000,-2.000000
1306167.993630,2.000000,12.000000,2.000000,18.000000,1.000000,1.000000,-3.000000,-1.000000
1306168.023735,-5.000000,-15.000000,-5.000000,-4.000000,-6.000000,0.000000,-2.000000,-3.000000
1306168.023748,-3.000000,-11.000000,-3.000000,-5.000000,-3.000000,-5.000000,3.000000,-3.000000
1306168.024158,1.000000,-1.000000,0.000000,1.000000,-2.000000,2.000000,-4.000000,1.000000
1306168.024169,-2.000000,-8.000000,2.000000,14.000000,-1.000000,-5.000000,-5.000000,-6.000000
1306168.031093,2.000000,-25.000000,-2.000000,-5.000000,0.000000,-9.000000,1.000000,2.000000
1306168.031106,1.000000,9.000000,-1.000000,0.000000,2.000000,6.000000,1.000000,-2.000000
1306168.032194,-8.000000,-8.000000,-6.000000,-16.000000,2.000000,-3.000000,2.000000,-1.000000
1306168.032217,1.000000,6.000000,5.000000,21.000000,10.000000,2.000000,-5.000000,3.000000
1306168.033107,-2.000000,-9.000000,6.000000,8.000000,2.000000,1.000000,1.000000,-1.000000
1306168.033119,-2.000000,-9.000000,-23.000000,-21.000000,-5.000000,-1.000000,-1.000000,2.000000
1306168.046211,-3.000000,-8.000000,26.000000,17.000000,-5.000000,-6.000000,3.000000,-5.000000
1306168.046222,-2.000000,6.000000,-10.000000,3.000000,5.000000,1.000000,0.000000,-1.000000
1306168.047859,3.000000,9.000000,-1.000000,-5.000000,-3.000000,6.000000,-5.000000,4.000000
1306168.047870,-4.000000,-2.000000,-1.000000,-11.000000,1.000000,-3.000000,2.000000,-1.000000
1306168.053924,3.000000,-3.000000,6.000000,16.000000,9.000000,4.000000,1.000000,3.000000
1306168.053935,-5.000000,7.000000,2.000000,-1.000000,5.000000,8.000000,-3.000000,-2.000000
1306168.091342,-4.000000,-3.000000,-3.000000,-5.000000,-7.000000,-5.000000,4.000000,-1.000000
1306168.091353,0.000000,-7.000000,-4.000000,-10.000000,-1.000000,-1.000000,4.000000,-4.000000
1306168.106612,-4.000000,-5.000000,-1.000000,0.000000,0.000000,2.000000,-2.000000,-1.000000
1306168.106625,4.000000,0.000000,1.000000,11.000000,0.000000,-3.000000,-2.000000,3.000000
1306168.144057,-3.000000,-27.000000,-1.000000,-6.000000,-4.000000,-3.000000,3.000000,-2.000000
1306168.144068,-4.000000,3.000000,1.000000,1.000000,1.000000,-1.000000,0.000000,-2.000000
1306168.151591,-2.000000,7.000000,-2.000000,8.000000,-3.000000,4.000000,-8.000000,0.000000
1306168.151604,1.000000,-9.000000,0.000000,1.000000,4.000000,-4.000000,3.000000,-1.000000
1306168.166822,4.000000,12.000000,5.000000,-1.000000,2.000000,4.000000,0.000000,1.000000
1306168.166841,-3.000000,4.000000,0.000000,-10.000000,-2.000000,0.000000,-1.000000,6.000000
1306168.167398,1.000000,-7.000000,3.000000,17.000000,4.000000,-6.000000,0.000000,0.000000
1306168.167412,0.000000,2.000000,-4.000000,-12.000000,-6.000000,0.000000,4.000000,-2.000000
1306168.168677,1.000000,1.000000,2.000000,6.000000,-4.000000,3.000000,-2.000000,3.000000
1306168.168688,-2.000000,2.000000,-3.000000,-9.000000,-1.000000,-2.000000,-3.000000,-2.000000
1306168.169537,4.000000,-4.000000,-2.000000,-12.000000,5.000000,2.000000,1.000000,-1.000000
1306168.169659,1.000000,7.000000,3.000000,2.000000,1.000000,5.000000,-3.000000,2.000000
1306168.170380,-1.000000,-5.000000,-3.000000,5.000000,-8.000000,-8.000000,1.000000,-3.000000
1306168.170392,0.000000,5.000000,1.000000,-8.000000,-4.000000,0.000000,4.000000,-6.000000
1306168.181327,-8.000000,2.000000,-7.000000,5.000000,1.000000,2.000000,-3.000000,0.000000
1306168.181348,3.000000,-4.000000,4.000000,2.000000,-4.000000,-2.000000,-1.000000,3.000000
1306168.203988,0.000000,-7.000000,-1.000000,-5.000000,-2.000000,-8.000000,-1.000000,-5.000000
1306168.204001,-2.000000,7.000000,-2.000000,7.000000,3.000000,-2.000000,-3.000000,1.000000
1306168.211379,4.000000,-4.000000,7.000000,27.000000,3.000000,3.000000,1.000000,3.000000
1306168.211391,-4.000000,-5.000000,-5.000000,-16.000000,-7.000000,-3.000000,0.000000,-3.000000
1306168.248962,-1.000000,9.000000,-7.000000,-13.000000,-4.000000,-2.000000,-1.000000,-1.000000
1306168.248974,0.000000,5.000000,-4.000000,-3.000000,1.000000,2.000000,-6.000000,1.000000
1306168.249414,-1.000000,-1.000000,-1.000000,1.000000,-2.000000,-2.000000,0.000000,0.000000
1306168.249422,-1.000000,-5.000000,4.000000,0.000000,0.000000,2.000000,5.000000,-5.000000
1306168.250401,1.000000,3.000000,-2.000000,6.000000,-1.000000,-5.000000,-5.000000,-1.000000
1306168.250410,-4.000000,2.000000,2.000000,-1.000000,1.000000,-6.000000,-7.000000,0.000000
1306168.251096,-3.000000,-2.000000,1.000000,2.000000,-7.000000,-5.000000,5.000000,-3.000000
1306168.251106,1.000000,6.000000,-3.000000,-14.000000,-1.000000,1.000000,-3.000000,1.000000
1306168.253029,-3.000000,-7.000000,-3.000000,5.000000,6.000000,1.000000,-4.000000,3.000000
1306168.253041,-2.000000,2.000000,-5.000000,0.000000,1.000000,1.000000,-4.000000,-2.000000
1306168.263771,2.000000,9.000000,-5.000000,-5.000000,0.000000,-1.000000,0.000000,-5.000000
1306168.263860,-1.000000,5.000000,-3.000000,-8.000000,-4.000000,1.000000,-5.000000,3.000000
1306168.265129,-2.000000,0.000000,-7.000000,-7.000000,-6.000000,-2.000000,1.000000,-4.000000
1306168.265138,-2.000000,-3.000000,0.000000,-4.000000,-8.000000,-4.000000,6.000000,0.000000
1306168.286153,-5.000000,6.000000,5.000000,3.000000,-7.000000,-1.000000,-1.000000,-3.000000
1306168.286165,-2.000000,-9.000000,-2.000000,-2.000000,6.000000,1.000000,1.000000,2.000000
1306168.288212,3.000000,-8.000000,-9.000000,-16.000000,-10.000000,-9.000000,4.000000,-2.000000
1306168.288220,0.000000,5.000000,0.000000,-5.000000,-2.000000,2.000000,-4.000000,-2.000000
1306168.308826,1.000000,-13.000000,1.000000,1.000000,-3.000000,-3.000000,-6.000000,-1.000000
1306168.308836,0.000000,1.000000,-3.000000,-6.000000,-4.000000,-4.000000,1.000000,3.000000
1306168.331573,-3.000000,9.000000,1.000000,14.000000,-1.000000,0.000000,0.000000,0.000000
1306168.331583,-4.000000,6.000000,0.000000,-4.000000,1.000000,6.000000,-4.000000,4.000000
1306168.368979,0.000000,-9.000000,-7.000000,-9.000000,0.000000,1.000000,2.000000,0.000000
1306168.368995,-4.000000,4.000000,0.000000,-7.000000,1.000000,-3.000000,-2.000000,-3.000000
1306168.370192,-2.000000,4.000000,4.000000,6.000000,1.000000,-3.000000,-1.000000,0.000000
1306168.370272,16.000000,-9.000000,3.000000,28.000000,8.000000,-3.000000,3.000000,13.000000
1306168.371157,-4.000000,-9.000000,-7.000000,-23.000000,-4.000000,-4.000000,4.000000,-6.000000
1306168.371190,-6.000000,4.000000,0.000000,-7.000000,-4.000000,3.000000,-1.000000,-4.000000
1306168.372056,-4.000000,-2.000000,-3.000000,-2.000000,-2.000000,1.000000,-1.000000,-1.000000
1306168.372070,-1.000000,1.000000,0.000000,-3.000000,1.000000,-1.000000,-3.000000,0.000000
1306168.372888,-4.000000,-3.000000,-1.000000,0.000000,-1.000000,2.000000,0.000000,-2.000000
1306168.372923,4.000000,1.000000,1.000000,11.000000,3.000000,6.000000,-6.000000,6.000000
1306168.383726,-3.000000,0.000000,2.000000,-4.000000,-2.000000,5.000000,-2.000000,-1.000000
1306168.383755,1.000000,0.000000,3.000000,-14.000000,0.000000,-3.000000,0.000000,4.000000
1306168.385109,0.000000,-4.000000,-6.000000,-14.000000,-6.000000,-4.000000,8.000000,-1.000000
1306168.385118,-2.000000,-3.000000,-6.000000,8.000000,-5.000000,3.000000,-3.000000,-3.000000
1306168.406364,0.000000,-2.000000,-1.000000,-3.000000,-1.000000,-6.000000,-2.000000,-2.000000
1306168.406392,-3.000000,-21.000000,-3.000000,-3.000000,-2.000000,0.000000,0.000000,-3.000000
1306168.408120,-2.000000,1.000000,0.000000,-4.000000,-1.000000,1.000000,-2.000000,-1.000000
1306168.408140,0.000000,2.000000,3.000000,6.000000,10.000000,-2.000000,-7.000000,1.000000
1306168.421275,1.000000,-3.000000,-1.000000,-7.000000,-4.000000,1.000000,-1.000000,-1.000000
1306168.421303,-5.000000,0.000000,-10.000000,7.000000,-8.000000,-1.000000,7.000000,0.000000
1306168.444162,-3.000000,7.000000,-6.000000,-5.000000,3.000000,1.000000,-3.000000,-3.000000
1306168.444174,-1.000000,-12.000000,-1.000000,17.000000,-4.000000,-4.000000,0.000000,2.000000
1306168.458822,2.000000,-13.000000,6.000000,21.000000,3.000000,2.000000,6.000000,-3.000000
1306168.458842,-2.000000,-2.000000,-3.000000,-5.000000,-1.000000,1.000000,-2.000000,1.000000
1306168.481529,0.000000,-5.000000,-1.000000,-3.000000,-1.000000,-6.000000,-2.000000,0.000000
1306168.481543,2.000000,-8.000000,-3.000000,-8.000000,-2.000000,0.000000,2.000000,-1.000000
1306168.481922,-7.000000,3.000000,-1.000000,-5.000000,1.000000,-4.000000,-4.000000,-3.000000
1306168.481934,-2.000000,-1.000000,-1.000000,6.000000,3.000000,-1.000000,-5.000000,2.000000
1306168.482924,-3.000000,3.000000,3.000000,5.000000,8.000000,0.000000,-5.000000,-3.000000
1306168.482934,-4.000000,1.000000,-2.000000,-2.000000,-3.000000,1.000000,3.000000,-4.000000
1306168.483603,-2.000000,12.000000,-2.000000,0.000000,2.000000,2.000000,-3.000000,-2.000000
1306168.483613,4.000000,-3.000000,-3.000000,-13.000000,-7.000000,-1.000000,0.000000,6.000000
1306168.489104,-1.000000,-5.000000,-7.000000,-4.000000,2.000000,-4.000000,3.000000,-1.000000
1306168.489116,0.000000,2.000000,0.000000,16.000000,6.000000,3.000000,-3.000000,-2.000000
1306168.503823,-1.000000,0.000000,1.000000,-12.000000,-6.000000,-4.000000,-1.000000,0.000000
1306168.503873,-3.000000,-10.000000,0.000000,-19.000000,-5.000000,-6.000000,0.000000,-1.000000
1306168.504935,-3.000000,4.000000,2.000000,10.000000,2.000000,5.000000,-6.000000,-2.000000
1306168.504951,2.000000,3.000000,0.000000,-5.000000,-1.000000,8.000000,-9.000000,2.000000
1306168.526488,-4.000000,-3.000000,-4.000000,-9.000000,-1.000000,-3.000000,-2.000000,-2.000000
1306168.526500,-6.000000,13.000000,-5.000000,-8.000000,-3.000000,-3.000000,-1.000000,-6.000000
1306168.527580,-1.000000,9.000000,4.000000,6.000000,7.000000,2.000000,-2.000000,0.000000
1306168.527589,3.000000,-8.000000,-1.000000,-7.000000,-6.000000,-5.000000,-1.000000,0.000000
1306168.541336,-1.000000,-5.000000,-1.000000,-8.000000,-3.000000,-3.000000,5.000000,-3.000000
1306168.541348,6.000000,3.000000,3.000000,1.000000,0.000000,0.000000,3.000000,-3.000000
1306168.571625,-2.000000,3.000000,-1.000000,1.000000,1.000000,-3.000000,-1.000000,1.000000
1306168.571637,-1.000000,-18.000000,-1.000000,-8.000000,-10.000000,-4.000000,-3.000000,-4.000000
1306168.586617,2.000000,2.000000,-1.000000,-9.000000,-5.000000,3.000000,-3.000000,3.000000
1306168.586648,-1.000000,10.000000,0.000000,2.000000,0.000000,4.000000,-5.000000,-1.000000
1306168.609015,1.000000,-6.000000,3.000000,-5.000000,1.000000,-4.000000,1.000000,-2.000000
1306168.609026,-2.000000,1.000000,0.000000,-6.000000,0.000000,0.000000,1.000000,-1.000000
1306168.624005,-2.000000,8.000000,0.000000,-4.000000,-3.000000,0.000000,-3.000000,-2.000000
1306168.624017,-8.000000,-18.000000,-5.000000,-1.000000,-1.000000,-3.000000,0.000000,-1.000000
1306168.624904,3.000000,-8.000000,0.000000,4.000000,5.000000,3.000000,6.000000,0.000000
1306168.624921,0.000000,-3.000000,1.000000,-11.000000,-3.000000,0.000000,-2.000000,-5.000000
1306168.625509,-1.000000,-11.000000,4.000000,6.000000,4.000000,3.000000,-5.000000,-2.000000
1306168.625521,4.000000,-18.000000,-5.000000,-6.000000,-10.000000,-6.000000,3.000000,-2.000000
1306168.646901,1.000000,-1.000000,-1.000000,8.000000,3.000000,-3.000000,1.000000,-2.000000
1306168.646948,-1.000000,-3.000000,0.000000,-1.000000,1.000000,-3.000000,-3.000000,-1.000000
1306168.654450,-3.000000,19.000000,-3.000000,-2.000000,3.000000,6.000000,-7.000000,1.000000
1306168.654471,0.000000,-1.000000,0.000000,-8.000000,-6.000000,-7.000000,-1.000000,0.000000
1306168.661844,-3.000000,-2.000000,-3.000000,0.000000,-3.000000,-4.000000,10.000000,0.000000
1306168.661997,1.000000,9.000000,8.000000,14.000000,-2.000000,-3.000000,-1.000000,-5.000000
1306168.684294,4.000000,-1.000000,-3.000000,-8.000000,-5.000000,-6.000000,0.000000,1.000000
1306168.684315,-4.000000,-11.000000,-2.000000,-18.000000,-6.000000,-6.000000,2.000000,-7.000000
1306168.698940,-4.000000,7.000000,0.000000,6.000000,-4.000000,2.000000,-1.000000,-1.000000
1306168.698963,5.000000,-1.000000,13.000000,39.000000,14.000000,9.000000,0.000000,6.000000
1306168.728994,0.000000,-9.000000,-1.000000,-9.000000,-1.000000,0.000000,2.000000,-1.000000
1306168.729020,0.000000,5.000000,0.000000,-4.000000,-5.000000,-5.000000,-1.000000,-3.000000
1306168.743762,-4.000000,7.000000,-4.000000,-5.000000,-4.000000,1.000000,0.000000,-3.000000
1306168.743791,-1.000000,-4.000000,0.000000,3.000000,-2.000000,-6.000000,2.000000,-3.000000
1306168.766557,-4.000000,-1.000000,-5.000000,-9.000000,-7.000000,1.000000,3.000000,-4.000000
1306168.766568,-4.000000,0.000000,1.000000,1.000000,2.000000,3.000000,-1.000000,0.000000
1306168.781556,-1.000000,-6.000000,0.000000,3.000000,-2.000000,0.000000,-2.000000,-1.000000
1306168.781584,-9.000000,-7.000000,-2.000000,-10.000000,-4.000000,-6.000000,2.000000,-4.000000
1306168.811555,-4.000000,1.000000,1.000000,-9.000000,-5.000000,-6.000000,2.000000,-4.000000
1306168.811566,5.000000,4.000000,4.000000,4.000000,6.000000,-4.000000,0.000000,2.000000
1306168.818889,0.000000,-5.000000,-2.000000,-7.000000,-5.000000,-4.000000,-3.000000,-3.000000
1306168.818901,-3.000000,-10.000000,-2.000000,-2.000000,-12.000000,-10.000000,6.000000,-2.000000
1306168.826379,-4.000000,0.000000,-2.000000,2.000000,0.000000,2.000000,-3.000000,1.000000
1306168.826390,0.000000,1.000000,0.000000,1.000000,1.000000,5.000000,-4.000000,0.000000
1306168.841236,0.000000,5.000000,2.000000,-7.000000,3.000000,3.000000,-6.000000,0.000000
1306168.841247,-3.000000,-1.000000,-5.000000,-12.000000,0.000000,-6.000000,0.000000,-3.000000
1306168.842271,8.000000,-10.000000,1.000000,-5.000000,-3.000000,-4.000000,-2.000000,2.000000
1306168.842279,-7.000000,-9.000000,-6.000000,-6.000000,-7.000000,-6.000000,3.000000,-7.000000
1306168.842860,7.000000,-8.000000,2.000000,-8.000000,-6.000000,-1.000000,4.000000,1.000000
1306168.842868,-1.000000,2.000000,-3.000000,3.000000,7.000000,2.000000,0.000000,-2.000000
1306168.843563,-1.000000,5.000000,3.000000,18.000000,12.000000,5.000000,-4.000000,0.000000
1306168.843571,-1.000000,-6.000000,-5.000000,-11.000000,-8.000000,-7.000000,5.000000,-3.000000
1306168.844143,-4.000000,2.000000,-4.000000,-10.000000,-2.000000,-4.000000,1.000000,-3.000000
1306168.844151,2.000000,-4.000000,-2.000000,9.000000,-9.000000,2.000000,-2.000000,1.000000
1306168.864070,-2.000000,-9.000000,-5.000000,-9.000000,-4.000000,-1.000000,-4.000000,0.000000
1306168.864085,-2.000000,-5.000000,-4.000000,-8.000000,-4.000000,-5.000000,3.000000,-2.000000
1306168.864468,-2.000000,-1.000000,-4.000000,-15.000000,-4.000000,-4.000000,-2.000000,-3.000000
1306168.864477,-5.000000,-15.000000,-1.000000,9.000000,-2.000000,1.000000,-3.000000,-1.000000
1306168.878769,4.000000,1.000000,1.000000,10.000000,2.000000,-1.000000,2.000000,1.000000
1306168.878815,1.000000,5.000000,-4.000000,-11.000000,0.000000,-4.000000,-1.000000,2.000000
1306168.879248,3.000000,7.000000,-3.000000,2.000000,2.000000,2.000000,-6.000000,0.000000
1306168.879267,-1.000000,-3.000000,-2.000000,-3.000000,0.000000,-2.000000,2.000000,0.000000
1306168.886261,-3.000000,2.000000,-3.000000,-5.000000,2.000000,-1.000000,2.000000,-1.000000
1306168.886284,1.000000,2.000000,0.000000,-4.000000,1.000000,-1.000000,-7.000000,-2.000000
1306168.901573,-3.000000,-6.000000,-1.000000,17.000000,2.000000,3.000000,0.000000,-2.000000
1306168.901590,4.000000,-11.000000,-2.000000,-3.000000,3.000000,1.000000,5.000000,0.000000
1306168.938818,2.000000,-2.000000,3.000000,1.000000,-2.000000,0.000000,-4.000000,-3.000000
1306168.938828,-5.000000,-7.000000,-3.000000,5.000000,8.000000,0.000000,-7.000000,1.000000
1306168.953917,-4.000000,-8.000000,-6.000000,-11.000000,-6.000000,-10.000000,-1.000000,-5.000000
1306168.953928,-2.000000,-2.000000,0.000000,-1.000000,2.000000,-1.000000,-1.000000,0.000000
1306168.961682,4.000000,4.000000,4.000000,-3.000000,1.000000,5.000000,-7.000000,2.000000
1306168.961693,-4.000000,1.000000,0.000000,-6.000000,-6.000000,0.000000,1.000000,2.000000
1306168.962303,-7.000000,-1.000000,1.000000,-11.000000,-6.000000,-4.000000,6.000000,-6.000000
1306168.962314,-2.000000,2.000000,0.000000,17.000000,4.000000,1.000000,-3.000000,2.000000
1306168.963682,5.000000,-4.000000,-2.000000,-1.000000,0.000000,-9.000000,6.000000,2.000000
1306168.963691,0.000000,-9.000000,-3.000000,-9.000000,-1.000000,-3.000000,2.000000,-1.000000
1306168.964596,-4.000000,6.000000,-3.000000,-3.000000,-1.000000,0.000000,-3.000000,-1.000000
1306168.964606,-2.000000,7.000000,3.000000,7.000000,7.000000,-4.000000,-2.000000,3.000000
1306168.976321,3.000000,-6.000000,-3.000000,-5.000000,-6.000000,-4.000000,1.000000,-2.000000
1306168.976334,1.000000,0.000000,-3.000000,-6.000000,-2.000000,-1.000000,2.000000,-1.000000
1306168.976801,-3.000000,9.000000,4.000000,24.000000,7.000000,-1.000000,-7.000000,-3.000000
1306168.976810,2.000000,3.000000,-2.000000,-6.000000,-6.000000,-3.000000,0.000000,1.000000
1306168.999027,-4.000000,-7.000000,1.000000,-8.000000,-7.000000,-3.000000,0.000000,-8.000000
1306168.999042,2.000000,17.000000,-2.000000,-4.000000,4.000000,-1.000000,-1.000000,3.000000
1306168.999426,3.000000,-7.000000,-5.000000,-6.000000,-2.000000,-2.000000,0.000000,4.000000
1306168.999439,-4.000000,-2.000000,-3.000000,4.000000,0.000000,-8.000000,5.000000,-2.000000
1306169.021513,-7.000000,1.000000,3.000000,16.000000,13.000000,-2.000000,1.000000,3.000000
1306169.021524,2.000000,-5.000000,-3.000000,4.000000,4.000000,-4.000000,-4.000000,0.000000
1306169.036452,-4.000000,-10.000000,1.000000,-14.000000,-5.000000,-6.000000,0.000000,-4.000000
1306169.036462,-4.000000,4.000000,-2.000000,-10.000000,2.000000,4.000000,-4.000000,-1.000000
1306169.058931,-1.000000,9.000000,2.000000,-7.000000,5.000000,0.000000,-4.000000,-5.000000
1306169.058943,-3.000000,2.000000,2.000000,20.000000,0.000000,0.000000,-4.000000,-3.000000
1306169.081473,-1.000000,4.000000,1.000000,-3.000000,0.000000,-3.000000,3.000000,0.000000
1306169.081484,5.000000,11.000000,0.000000,-1.000000,-2.000000,2.000000,0.000000,3.000000
1306169.082347,1.000000,-5.000000,-1.000000,7.000000,10.000000,2.000000,1.000000,-1.000000
1306169.082355,1.000000,-5.000000,2.000000,-7.000000,-1.000000,-4.000000,2.000000,-3.000000
1306169.083607,-2.000000,-1.000000,3.000000,3.000000,-1.000000,-3.000000,-3.000000,-3.000000
1306169.083615,-1.000000,-8.000000,-1.000000,4.000000,-1.000000,-2.000000,-5.000000,-3.000000
1306169.084254,3.000000,-9.000000,-3.000000,-16.000000,-5.000000,-8.000000,1.000000,-3.000000
1306169.084262,2.000000,4.000000,2.000000,-4.000000,-6.000000,3.000000,0.000000,-2.000000
1306169.089032,2.000000,2.000000,-2.000000,3.000000,-4.000000,0.000000,2.000000,-1.000000
1306169.089043,-1.000000,15.000000,4.000000,11.000000,11.000000,6.000000,-6.000000,2.000000
