# participant_id: P10
# gesture: soft
# trial_number: 2
# stream_name: Myo_EMG
# stream_type: emg
# timestamp: 20260420_161604
# samples: 5522
# duration_sec: 30.345
# nominal_sample_rate: 200.0
# effective_sample_rate: 181.94
#
timestamp,emg_1,emg_2,emg_3,emg_4,emg_5,emg_6,emg_7,emg_8
1306455.971685,-9.000000,-11.000000,-44.000000,-24.000000,-17.000000,-15.000000,-19.000000,-13.000000
1306455.971695,4.000000,4.000000,34.000000,32.000000,24.000000,11.000000,9.000000,10.000000
1306455.979212,4.000000,5.000000,10.000000,-3.000000,-20.000000,-4.000000,-6.000000,3.000000
1306455.979223,-6.000000,-19.000000,-35.000000,-35.000000,-36.000000,-17.000000,-11.000000,-12.000000
1306455.994698,4.000000,-1.000000,4.000000,-26.000000,-10.000000,-2.000000,5.000000,4.000000
1306455.994715,-11.000000,-12.000000,-31.000000,-19.000000,-7.000000,-5.000000,-10.000000,-7.000000
1306455.995222,2.000000,30.000000,77.000000,2.000000,-5.000000,6.000000,2.000000,-1.000000
1306455.995230,-4.000000,-14.000000,-24.000000,4.000000,-1.000000,-1.000000,3.000000,3.000000
1306455.996428,-6.000000,-9.000000,-15.000000,35.000000,10.000000,-4.000000,-5.000000,-6.000000
1306455.996437,1.000000,6.000000,-16.000000,21.000000,18.000000,8.000000,-1.000000,-2.000000
1306455.997087,0.000000,7.000000,29.000000,22.000000,12.000000,-4.000000,-4.000000,-2.000000
1306455.997095,-9.000000,3.000000,9.000000,13.000000,19.000000,6.000000,-2.000000,-7.000000
1306456.016891,17.000000,1.000000,-21.000000,-54.000000,-25.000000,2.000000,8.000000,9.000000
1306456.016903,5.000000,7.000000,30.000000,9.000000,22.000000,5.000000,-4.000000,1.000000
1306456.017396,-9.000000,-13.000000,3.000000,18.000000,-22.000000,-6.000000,1.000000,-5.000000
1306456.017404,-3.000000,-6.000000,-14.000000,12.000000,8.000000,-8.000000,-6.000000,-4.000000
1306456.031552,-5.000000,-5.000000,-19.000000,-34.000000,-33.000000,-7.000000,-2.000000,-2.000000
1306456.031567,3.000000,9.000000,6.000000,64.000000,31.000000,12.000000,2.000000,0.000000
1306456.032003,-3.000000,-7.000000,-12.000000,-6.000000,-14.000000,-8.000000,-6.000000,-3.000000
1306456.032011,-10.000000,7.000000,47.000000,-35.000000,-19.000000,-6.000000,0.000000,-3.000000
1306456.039050,-1.000000,8.000000,-20.000000,22.000000,18.000000,0.000000,-5.000000,-7.000000
1306456.039059,-1.000000,-6.000000,-15.000000,-61.000000,-20.000000,-4.000000,2.000000,-2.000000
1306456.091798,-2.000000,-5.000000,10.000000,25.000000,9.000000,2.000000,2.000000,4.000000
1306456.091811,-4.000000,-3.000000,-1.000000,50.000000,-2.000000,2.000000,0.000000,-3.000000
1306456.114268,-18.000000,-18.000000,-11.000000,-29.000000,-10.000000,-9.000000,-10.000000,-16.000000
1306456.114282,6.000000,-13.000000,0.000000,14.000000,8.000000,11.000000,7.000000,12.000000
1306456.136592,12.000000,6.000000,4.000000,-26.000000,-7.000000,-5.000000,-9.000000,-2.000000
1306456.136607,-3.000000,-9.000000,-18.000000,-61.000000,-35.000000,-7.000000,-1.000000,-1.000000
1306456.137672,12.000000,20.000000,59.000000,55.000000,40.000000,16.000000,15.000000,20.000000
1306456.137681,-16.000000,-13.000000,-59.000000,-42.000000,-11.000000,-13.000000,-14.000000,-17.000000
1306456.138226,-1.000000,10.000000,36.000000,-7.000000,-6.000000,2.000000,-4.000000,-3.000000
1306456.138234,-13.000000,-22.000000,-33.000000,-67.000000,-36.000000,-9.000000,-6.000000,-13.000000
1306456.138910,-9.000000,-12.000000,-79.000000,-12.000000,10.000000,-5.000000,-6.000000,-7.000000
1306456.138918,19.000000,13.000000,41.000000,-26.000000,4.000000,-2.000000,5.000000,7.000000
1306456.140449,3.000000,3.000000,50.000000,11.000000,19.000000,3.000000,2.000000,-1.000000
1306456.140459,18.000000,4.000000,-22.000000,-16.000000,-28.000000,-12.000000,-6.000000,9.000000
1306456.144017,-5.000000,2.000000,-36.000000,-21.000000,-16.000000,-3.000000,0.000000,-5.000000
1306456.144026,6.000000,0.000000,19.000000,-7.000000,-17.000000,4.000000,5.000000,6.000000
1306456.151663,-13.000000,-1.000000,-11.000000,1.000000,-16.000000,-11.000000,-12.000000,-10.000000
1306456.151673,2.000000,11.000000,69.000000,41.000000,1.000000,4.000000,3.000000,-1.000000
1306456.174341,-4.000000,-9.000000,-8.000000,-21.000000,-8.000000,-6.000000,-5.000000,-4.000000
1306456.174352,-33.000000,-5.000000,-7.000000,-18.000000,-14.000000,-9.000000,-20.000000,-27.000000
1306456.189411,28.000000,17.000000,25.000000,-2.000000,3.000000,21.000000,28.000000,33.000000
1306456.189422,10.000000,-9.000000,1.000000,51.000000,20.000000,-6.000000,4.000000,4.000000
1306456.211820,-13.000000,-11.000000,-37.000000,-47.000000,-56.000000,-31.000000,-9.000000,-14.000000
1306456.211843,4.000000,11.000000,-11.000000,-9.000000,9.000000,4.000000,-4.000000,-3.000000
1306456.234217,-28.000000,-47.000000,-15.000000,-34.000000,-1.000000,0.000000,-7.000000,-13.000000
1306456.234231,-2.000000,6.000000,49.000000,34.000000,-7.000000,-10.000000,-10.000000,-5.000000
1306456.235526,-13.000000,0.000000,-50.000000,-3.000000,33.000000,4.000000,-6.000000,-10.000000
1306456.235545,22.000000,22.000000,39.000000,102.000000,39.000000,25.000000,17.000000,23.000000
1306456.236072,5.000000,1.000000,49.000000,-12.000000,31.000000,1.000000,1.000000,-4.000000
1306456.236082,3.000000,1.000000,-15.000000,13.000000,9.000000,0.000000,0.000000,5.000000
1306456.237158,-12.000000,-6.000000,-1.000000,-4.000000,2.000000,4.000000,-3.000000,-8.000000
1306456.237168,-29.000000,-18.000000,-73.000000,-40.000000,-11.000000,-8.000000,-10.000000,-17.000000
1306456.238023,16.000000,20.000000,57.000000,47.000000,2.000000,11.000000,8.000000,7.000000
1306456.238033,1.000000,-15.000000,-16.000000,-14.000000,-9.000000,-4.000000,1.000000,4.000000
1306456.249436,-9.000000,-6.000000,-15.000000,-9.000000,-14.000000,-7.000000,-5.000000,-9.000000
1306456.249450,-9.000000,-1.000000,-18.000000,-22.000000,-8.000000,3.000000,-5.000000,-10.000000
1306456.250025,1.000000,22.000000,24.000000,21.000000,37.000000,18.000000,1.000000,4.000000
1306456.250035,11.000000,7.000000,36.000000,43.000000,9.000000,6.000000,13.000000,19.000000
1306456.264141,-9.000000,-16.000000,-36.000000,-5.000000,5.000000,-10.000000,-8.000000,-12.000000
1306456.264152,7.000000,2.000000,25.000000,-34.000000,-24.000000,-5.000000,-5.000000,-6.000000
1306456.271581,-2.000000,11.000000,18.000000,-12.000000,40.000000,14.000000,5.000000,6.000000
1306456.271592,-19.000000,-17.000000,12.000000,19.000000,-19.000000,-12.000000,-12.000000,-17.000000
1306456.301947,20.000000,5.000000,-24.000000,-31.000000,-13.000000,-5.000000,1.000000,2.000000
1306456.301964,-8.000000,-36.000000,14.000000,21.000000,-17.000000,-4.000000,5.000000,10.000000
1306456.331890,-3.000000,-2.000000,-13.000000,-83.000000,-28.000000,-2.000000,0.000000,-2.000000
1306456.331901,-6.000000,-2.000000,-16.000000,0.000000,4.000000,-4.000000,-7.000000,-9.000000
1306456.332422,-22.000000,-2.000000,27.000000,-53.000000,-46.000000,-14.000000,-5.000000,-13.000000
1306456.332430,2.000000,10.000000,14.000000,97.000000,35.000000,4.000000,2.000000,3.000000
1306456.333265,16.000000,-16.000000,10.000000,-30.000000,-15.000000,-3.000000,7.000000,15.000000
1306456.333272,0.000000,12.000000,-16.000000,9.000000,42.000000,11.000000,-3.000000,-4.000000
1306456.333984,-4.000000,-1.000000,-9.000000,-15.000000,-16.000000,-6.000000,-1.000000,-2.000000
1306456.333993,-6.000000,-11.000000,21.000000,-2.000000,-23.000000,-1.000000,-2.000000,-14.000000
1306456.335930,-6.000000,-4.000000,-42.000000,-39.000000,-3.000000,1.000000,-3.000000,-3.000000
1306456.335944,-5.000000,0.000000,19.000000,40.000000,8.000000,-6.000000,-18.000000,-14.000000
1306456.354434,-4.000000,5.000000,43.000000,-30.000000,-41.000000,-8.000000,10.000000,7.000000
1306456.354563,31.000000,2.000000,-36.000000,-11.000000,-1.000000,1.000000,5.000000,15.000000
1306456.355389,-8.000000,0.000000,5.000000,13.000000,10.000000,2.000000,-7.000000,-4.000000
1306456.355398,-8.000000,8.000000,5.000000,7.000000,17.000000,5.000000,-6.000000,-6.000000
1306456.369350,-10.000000,-11.000000,-25.000000,-67.000000,-27.000000,-22.000000,-11.000000,-14.000000
1306456.369364,-2.000000,7.000000,6.000000,80.000000,26.000000,14.000000,7.000000,2.000000
1306456.377244,21.000000,9.000000,67.000000,125.000000,90.000000,26.000000,13.000000,28.000000
1306456.377254,-6.000000,-11.000000,-9.000000,-26.000000,-26.000000,-13.000000,-4.000000,-13.000000
1306456.391893,-2.000000,-1.000000,-39.000000,-35.000000,-20.000000,-6.000000,1.000000,-1.000000
1306456.391904,2.000000,5.000000,-2.000000,16.000000,7.000000,-1.000000,-1.000000,-2.000000
1306456.414301,-7.000000,-9.000000,-15.000000,-12.000000,0.000000,-4.000000,-3.000000,-5.000000
1306456.414347,-7.000000,6.000000,35.000000,5.000000,9.000000,-4.000000,-13.000000,-14.000000
1306456.429198,2.000000,3.000000,-25.000000,13.000000,-25.000000,8.000000,15.000000,18.000000
1306456.429226,18.000000,15.000000,33.000000,36.000000,17.000000,6.000000,4.000000,11.000000
1306456.452561,-15.000000,-29.000000,-41.000000,-16.000000,3.000000,-7.000000,-8.000000,-11.000000
1306456.452710,-4.000000,3.000000,-21.000000,-4.000000,-5.000000,7.000000,-7.000000,-4.000000
1306456.452928,-3.000000,7.000000,8.000000,-2.000000,-6.000000,1.000000,-5.000000,-6.000000
1306456.452945,6.000000,-3.000000,18.000000,13.000000,-3.000000,1.000000,9.000000,9.000000
1306456.454160,21.000000,11.000000,7.000000,49.000000,30.000000,1.000000,4.000000,12.000000
1306456.454169,-7.000000,11.000000,10.000000,2.000000,-8.000000,-5.000000,-12.000000,-13.000000
1306456.454727,-20.000000,-31.000000,-13.000000,-38.000000,-70.000000,-34.000000,-11.000000,-17.000000
1306456.454735,30.000000,1.000000,-41.000000,-7.000000,-11.000000,8.000000,11.000000,20.000000
1306456.466785,-6.000000,-7.000000,-29.000000,-25.000000,-5.000000,-2.000000,-4.000000,-6.000000
1306456.466804,-5.000000,-4.000000,5.000000,15.000000,-3.000000,0.000000,1.000000,1.000000
1306456.474891,-16.000000,-4.000000,-17.000000,-8.000000,-4.000000,-6.000000,-6.000000,-4.000000
1306456.474919,-1.000000,-15.000000,-48.000000,-37.000000,-4.000000,0.000000,4.000000,1.000000
1306456.489469,19.000000,11.000000,31.000000,12.000000,-10.000000,1.000000,7.000000,11.000000
1306456.489480,-1.000000,1.000000,-22.000000,2.000000,9.000000,2.000000,-7.000000,-3.000000
1306456.526972,-6.000000,-10.000000,-11.000000,-40.000000,-17.000000,-8.000000,-4.000000,-6.000000
1306456.526985,-7.000000,6.000000,11.000000,35.000000,-19.000000,-2.000000,-5.000000,-8.000000
1306456.534358,1.000000,-7.000000,-50.000000,-49.000000,-22.000000,-13.000000,-1.000000,2.000000
1306456.534371,11.000000,17.000000,112.000000,127.000000,65.000000,23.000000,16.000000,17.000000
1306456.549329,-2.000000,-4.000000,-18.000000,-15.000000,7.000000,6.000000,-6.000000,-10.000000
1306456.549342,-9.000000,-1.000000,-30.000000,-11.000000,-26.000000,-20.000000,-14.000000,-12.000000
1306456.571667,3.000000,3.000000,0.000000,-8.000000,4.000000,15.000000,11.000000,5.000000
1306456.571677,3.000000,-4.000000,37.000000,43.000000,17.000000,-3.000000,-1.000000,0.000000
1306456.579937,-16.000000,-2.000000,-25.000000,-26.000000,-1.000000,-12.000000,-8.000000,-12.000000
1306456.579946,36.000000,9.000000,1.000000,-20.000000,-18.000000,-1.000000,2.000000,9.000000
1306456.586874,-5.000000,-5.000000,10.000000,-4.000000,-9.000000,4.000000,2.000000,0.000000
1306456.586886,4.000000,1.000000,-32.000000,-20.000000,-5.000000,3.000000,0.000000,7.000000
1306456.587798,-11.000000,3.000000,-7.000000,-15.000000,-4.000000,-6.000000,-7.000000,-9.000000
1306456.587806,-5.000000,-1.000000,12.000000,41.000000,-8.000000,1.000000,-2.000000,1.000000
1306456.594612,-13.000000,-7.000000,-44.000000,-32.000000,-14.000000,-6.000000,-9.000000,-12.000000
1306456.594622,-7.000000,-4.000000,-27.000000,-10.000000,-5.000000,-3.000000,-10.000000,-12.000000
1306456.596149,1.000000,-10.000000,23.000000,10.000000,9.000000,7.000000,6.000000,7.000000
1306456.596165,7.000000,4.000000,10.000000,-57.000000,-27.000000,-3.000000,1.000000,5.000000
1306456.611529,-7.000000,1.000000,-7.000000,23.000000,37.000000,12.000000,-1.000000,-1.000000
1306456.611566,0.000000,-1.000000,-2.000000,2.000000,-1.000000,-2.000000,4.000000,2.000000
1306456.646748,-11.000000,0.000000,-19.000000,-28.000000,0.000000,-2.000000,-5.000000,1.000000
1306456.646759,17.000000,-4.000000,-24.000000,-30.000000,-33.000000,-8.000000,-1.000000,4.000000
1306456.654194,5.000000,3.000000,7.000000,48.000000,46.000000,6.000000,2.000000,3.000000
1306456.654204,-8.000000,-5.000000,10.000000,-3.000000,8.000000,-2.000000,-6.000000,-7.000000
1306456.691930,-10.000000,-4.000000,-56.000000,-33.000000,-14.000000,-9.000000,-10.000000,-10.000000
1306456.692104,-2.000000,8.000000,53.000000,-13.000000,-19.000000,-1.000000,1.000000,1.000000
1306456.692337,5.000000,-7.000000,18.000000,24.000000,7.000000,2.000000,6.000000,10.000000
1306456.692370,1.000000,0.000000,-60.000000,0.000000,-5.000000,-1.000000,-5.000000,-4.000000
1306456.693347,-9.000000,-6.000000,4.000000,-38.000000,-24.000000,-8.000000,-8.000000,-10.000000
1306456.693370,-3.000000,1.000000,-8.000000,-5.000000,-8.000000,-3.000000,-4.000000,-7.000000
1306456.693982,-3.000000,0.000000,-1.000000,-15.000000,11.000000,-2.000000,-2.000000,1.000000
1306456.694003,-5.000000,5.000000,6.000000,49.000000,12.000000,-3.000000,-6.000000,-9.000000
1306456.695674,-4.000000,-5.000000,7.000000,-12.000000,-9.000000,-5.000000,-4.000000,-2.000000
1306456.695682,-6.000000,-1.000000,-1.000000,-13.000000,-8.000000,-3.000000,-2.000000,-4.000000
1306456.706750,-11.000000,8.000000,12.000000,-29.000000,-7.000000,-1.000000,-7.000000,-8.000000
1306456.706760,5.000000,-2.000000,24.000000,39.000000,-16.000000,-10.000000,-1.000000,0.000000
1306456.744090,0.000000,-3.000000,-14.000000,3.000000,15.000000,-1.000000,1.000000,5.000000
1306456.744101,1.000000,7.000000,-19.000000,-14.000000,3.000000,1.000000,-1.000000,0.000000
1306456.752021,2.000000,2.000000,0.000000,-3.000000,-5.000000,-6.000000,0.000000,-1.000000
1306456.752043,-8.000000,-10.000000,28.000000,10.000000,-11.000000,-6.000000,-7.000000,-13.000000
1306456.789431,-6.000000,0.000000,-22.000000,-37.000000,0.000000,-1.000000,-2.000000,-8.000000
1306456.789459,17.000000,0.000000,-15.000000,10.000000,-2.000000,2.000000,9.000000,19.000000
1306456.804065,-11.000000,-13.000000,10.000000,5.000000,-11.000000,-5.000000,-1.000000,-8.000000
1306456.804075,-7.000000,-4.000000,-17.000000,4.000000,-3.000000,1.000000,-3.000000,-5.000000
1306456.805188,-14.000000,1.000000,3.000000,-22.000000,-22.000000,-14.000000,-11.000000,-8.000000
1306456.805196,9.000000,-5.000000,5.000000,-42.000000,-8.000000,2.000000,9.000000,14.000000
1306456.805919,0.000000,-5.000000,-24.000000,20.000000,13.000000,1.000000,-2.000000,-4.000000
1306456.805927,-5.000000,1.000000,-2.000000,-25.000000,-11.000000,-1.000000,-5.000000,-8.000000
1306456.807149,14.000000,21.000000,52.000000,46.000000,9.000000,4.000000,7.000000,11.000000
1306456.807157,-3.000000,2.000000,5.000000,57.000000,52.000000,6.000000,-3.000000,2.000000
1306456.808012,-20.000000,-10.000000,-33.000000,-12.000000,-3.000000,-13.000000,-14.000000,-14.000000
1306456.808021,25.000000,7.000000,18.000000,-26.000000,-38.000000,23.000000,31.000000,34.000000
1306456.812284,8.000000,0.000000,-1.000000,48.000000,31.000000,1.000000,1.000000,3.000000
1306456.812293,-6.000000,8.000000,-2.000000,-10.000000,-6.000000,-5.000000,-7.000000,-10.000000
1306456.826730,-7.000000,-6.000000,-7.000000,-12.000000,-7.000000,-5.000000,-9.000000,-6.000000
1306456.826740,-4.000000,-8.000000,-7.000000,-9.000000,-3.000000,-4.000000,0.000000,-3.000000
1306456.849421,-4.000000,-4.000000,-7.000000,-11.000000,1.000000,-4.000000,-8.000000,-5.000000
1306456.849440,-14.000000,-10.000000,-14.000000,-86.000000,-7.000000,-1.000000,-12.000000,-16.000000
1306456.850100,29.000000,32.000000,48.000000,127.000000,81.000000,34.000000,28.000000,35.000000
1306456.850122,1.000000,-8.000000,2.000000,-33.000000,-6.000000,-7.000000,-1.000000,-2.000000
1306456.864165,-8.000000,-6.000000,-41.000000,-25.000000,-11.000000,-3.000000,-4.000000,-8.000000
1306456.864176,-4.000000,-2.000000,-8.000000,-10.000000,-6.000000,-3.000000,-4.000000,-5.000000
1306456.864831,2.000000,0.000000,-5.000000,-8.000000,-7.000000,-5.000000,-2.000000,-3.000000
1306456.864839,-2.000000,8.000000,-2.000000,5.000000,9.000000,3.000000,-3.000000,-1.000000
1306456.886843,-3.000000,2.000000,2.000000,-9.000000,4.000000,-3.000000,-5.000000,0.000000
1306456.886864,-6.000000,-20.000000,-16.000000,-46.000000,-33.000000,-14.000000,-1.000000,-4.000000
1306456.894222,-6.000000,10.000000,10.000000,65.000000,36.000000,6.000000,-4.000000,-8.000000
1306456.894241,11.000000,13.000000,23.000000,68.000000,24.000000,18.000000,5.000000,8.000000
1306456.909241,10.000000,-14.000000,-9.000000,-19.000000,-29.000000,-3.000000,10.000000,13.000000
1306456.909251,-6.000000,-6.000000,-25.000000,-25.000000,-5.000000,-2.000000,-3.000000,0.000000
1306456.924094,-8.000000,6.000000,3.000000,-9.000000,-4.000000,-4.000000,-6.000000,-5.000000
1306456.924105,-4.000000,-13.000000,-18.000000,-16.000000,-20.000000,-10.000000,-5.000000,-7.000000
1306456.932066,-7.000000,-13.000000,-6.000000,-13.000000,-6.000000,-3.000000,-4.000000,-6.000000
1306456.932075,-1.000000,3.000000,-2.000000,3.000000,0.000000,-3.000000,-4.000000,-4.000000
1306456.932634,2.000000,4.000000,5.000000,-3.000000,6.000000,3.000000,-1.000000,3.000000
1306456.932641,-4.000000,-12.000000,-8.000000,-17.000000,5.000000,2.000000,0.000000,-3.000000
1306456.934226,1.000000,5.000000,6.000000,-24.000000,-5.000000,3.000000,0.000000,0.000000
1306456.934235,-12.000000,0.000000,-27.000000,27.000000,15.000000,-3.000000,-10.000000,-11.000000
1306456.946893,13.000000,-3.000000,81.000000,19.000000,26.000000,8.000000,21.000000,13.000000
1306456.946905,15.000000,2.000000,-10.000000,-9.000000,-13.000000,-4.000000,4.000000,9.000000
1306456.969821,-3.000000,7.000000,-9.000000,-9.000000,-8.000000,-2.000000,0.000000,-4.000000
1306456.969830,2.000000,-7.000000,3.000000,-11.000000,-2.000000,-3.000000,0.000000,2.000000
1306456.970473,-24.000000,-8.000000,-8.000000,2.000000,2.000000,0.000000,-7.000000,-12.000000
1306456.970482,8.000000,8.000000,-1.000000,-19.000000,-20.000000,-7.000000,2.000000,4.000000
1306457.006929,0.000000,0.000000,-3.000000,13.000000,22.000000,6.000000,4.000000,-2.000000
1306457.006954,-3.000000,0.000000,16.000000,56.000000,35.000000,0.000000,-4.000000,-2.000000
1306457.021452,-14.000000,-9.000000,-24.000000,-41.000000,-18.000000,-9.000000,-6.000000,-10.000000
1306457.021462,4.000000,9.000000,18.000000,39.000000,-17.000000,7.000000,6.000000,10.000000
1306457.022705,-2.000000,-15.000000,1.000000,-29.000000,-6.000000,-9.000000,3.000000,0.000000
1306457.022714,-11.000000,-3.000000,-4.000000,1.000000,2.000000,-4.000000,-8.000000,-9.000000
1306457.023386,28.000000,17.000000,6.000000,-15.000000,-14.000000,1.000000,8.000000,19.000000
1306457.023405,-9.000000,-15.000000,9.000000,-48.000000,-12.000000,-7.000000,-4.000000,-10.000000
1306457.024647,-10.000000,-3.000000,21.000000,64.000000,1.000000,-1.000000,-1.000000,-3.000000
1306457.024674,15.000000,13.000000,-9.000000,-26.000000,1.000000,-3.000000,2.000000,9.000000
1306457.025616,-3.000000,-2.000000,-2.000000,14.000000,9.000000,1.000000,0.000000,-5.000000
1306457.025625,-7.000000,-8.000000,-11.000000,-13.000000,-10.000000,-10.000000,-5.000000,-8.000000
1306457.044826,4.000000,9.000000,12.000000,61.000000,48.000000,10.000000,-1.000000,4.000000
1306457.044836,-4.000000,-6.000000,-28.000000,-56.000000,-10.000000,-3.000000,-3.000000,-5.000000
1306457.045450,0.000000,-4.000000,35.000000,71.000000,41.000000,8.000000,4.000000,-1.000000
1306457.045459,-4.000000,-8.000000,5.000000,-17.000000,-12.000000,-6.000000,-4.000000,-4.000000
1306457.067176,-13.000000,-4.000000,0.000000,-11.000000,-5.000000,-7.000000,-7.000000,-11.000000
1306457.067205,3.000000,-3.000000,27.000000,-22.000000,-18.000000,0.000000,1.000000,5.000000
1306457.068020,5.000000,3.000000,-40.000000,17.000000,12.000000,1.000000,0.000000,1.000000
1306457.068029,22.000000,15.000000,0.000000,-26.000000,4.000000,14.000000,11.000000,13.000000
1306457.082225,7.000000,1.000000,4.000000,28.000000,11.000000,-3.000000,-3.000000,6.000000
1306457.082236,2.000000,-4.000000,19.000000,0.000000,-11.000000,5.000000,7.000000,5.000000
1306457.083005,-3.000000,3.000000,-10.000000,42.000000,24.000000,3.000000,-1.000000,1.000000
1306457.083013,0.000000,0.000000,-12.000000,-19.000000,-5.000000,-2.000000,-5.000000,-5.000000
1306457.104192,-1.000000,-4.000000,18.000000,-3.000000,-6.000000,-5.000000,1.000000,-5.000000
1306457.104202,2.000000,-3.000000,-19.000000,-33.000000,-18.000000,-4.000000,-1.000000,-1.000000
1306457.126805,-4.000000,-3.000000,-11.000000,-15.000000,-1.000000,-4.000000,-3.000000,-4.000000
1306457.126817,0.000000,1.000000,4.000000,-14.000000,-9.000000,-2.000000,0.000000,-1.000000
1306457.149354,5.000000,2.000000,17.000000,34.000000,-10.000000,0.000000,6.000000,10.000000
1306457.149378,-11.000000,-2.000000,-9.000000,0.000000,12.000000,-10.000000,-5.000000,-2.000000
1306457.164120,0.000000,-16.000000,-38.000000,-34.000000,-22.000000,0.000000,0.000000,-2.000000
1306457.164137,-4.000000,-3.000000,0.000000,-18.000000,-12.000000,-2.000000,-2.000000,-5.000000
1306457.179466,2.000000,7.000000,17.000000,24.000000,18.000000,5.000000,3.000000,2.000000
1306457.179477,6.000000,0.000000,6.000000,-23.000000,-8.000000,-4.000000,-4.000000,-2.000000
1306457.186931,-9.000000,-11.000000,6.000000,11.000000,-12.000000,-4.000000,-4.000000,-6.000000
1306457.186943,1.000000,-4.000000,-14.000000,-32.000000,-14.000000,-2.000000,-1.000000,-2.000000
1306457.202083,11.000000,3.000000,-5.000000,46.000000,35.000000,7.000000,2.000000,1.000000
1306457.202105,-7.000000,-4.000000,26.000000,16.000000,-25.000000,-10.000000,-3.000000,-3.000000
1306457.203623,-4.000000,-4.000000,-12.000000,-17.000000,-16.000000,-9.000000,-5.000000,-4.000000
1306457.203642,-3.000000,4.000000,-3.000000,-6.000000,-4.000000,1.000000,-7.000000,-2.000000
1306457.204155,1.000000,3.000000,17.000000,22.000000,2.000000,-4.000000,-5.000000,-3.000000
1306457.204167,6.000000,2.000000,-6.000000,9.000000,-7.000000,4.000000,5.000000,5.000000
1306457.205419,0.000000,-6.000000,-6.000000,12.000000,10.000000,-1.000000,-1.000000,0.000000
1306457.205428,-12.000000,-5.000000,-11.000000,-44.000000,-5.000000,-5.000000,-3.000000,-7.000000
1306457.206162,7.000000,9.000000,20.000000,87.000000,17.000000,-2.000000,1.000000,4.000000
1306457.206170,-5.000000,-14.000000,-19.000000,1.000000,12.000000,-3.000000,0.000000,-3.000000
1306457.246706,-9.000000,-3.000000,8.000000,-12.000000,-22.000000,-6.000000,0.000000,-7.000000
1306457.246716,-4.000000,2.000000,-6.000000,-28.000000,-5.000000,-2.000000,-6.000000,-7.000000
1306457.254362,-10.000000,-12.000000,3.000000,4.000000,-25.000000,-13.000000,-6.000000,-10.000000
1306457.254372,4.000000,-7.000000,-31.000000,-22.000000,-7.000000,4.000000,6.000000,5.000000
1306457.262030,8.000000,10.000000,-7.000000,24.000000,25.000000,6.000000,3.000000,7.000000
1306457.262058,-4.000000,1.000000,17.000000,15.000000,0.000000,-7.000000,-5.000000,-7.000000
1306457.262595,-4.000000,-6.000000,4.000000,-39.000000,-20.000000,2.000000,4.000000,-1.000000
1306457.262621,13.000000,4.000000,9.000000,6.000000,12.000000,8.000000,3.000000,11.000000
1306457.264124,22.000000,4.000000,9.000000,-11.000000,-12.000000,7.000000,9.000000,16.000000
1306457.264150,-5.000000,-9.000000,-45.000000,-36.000000,2.000000,-3.000000,-3.000000,-10.000000
1306457.284247,-4.000000,3.000000,24.000000,72.000000,18.000000,2.000000,-4.000000,-5.000000
1306457.284263,2.000000,7.000000,-21.000000,-12.000000,1.000000,3.000000,-6.000000,-7.000000
1306457.285320,-4.000000,2.000000,17.000000,-18.000000,-18.000000,1.000000,-2.000000,-4.000000
1306457.285328,6.000000,3.000000,-4.000000,19.000000,22.000000,10.000000,10.000000,11.000000
1306457.286201,3.000000,6.000000,-5.000000,-3.000000,-3.000000,-4.000000,3.000000,5.000000
1306457.286224,-4.000000,-9.000000,-19.000000,-22.000000,-13.000000,-9.000000,-8.000000,-7.000000
1306457.299881,-9.000000,-6.000000,18.000000,1.000000,-6.000000,-6.000000,-4.000000,-10.000000
1306457.299900,-1.000000,-5.000000,-3.000000,-28.000000,-20.000000,-4.000000,3.000000,1.000000
1306457.306503,6.000000,9.000000,11.000000,21.000000,-9.000000,4.000000,1.000000,6.000000
1306457.306512,-6.000000,-16.000000,-15.000000,-6.000000,-19.000000,-5.000000,-1.000000,-8.000000
1306457.322516,-7.000000,-5.000000,-32.000000,14.000000,-6.000000,-7.000000,-3.000000,-7.000000
1306457.322527,-3.000000,4.000000,29.000000,-57.000000,-23.000000,-3.000000,-1.000000,1.000000
1306457.345112,2.000000,-2.000000,-33.000000,12.000000,2.000000,2.000000,0.000000,7.000000
1306457.345137,-11.000000,-11.000000,-19.000000,-28.000000,-9.000000,-6.000000,-3.000000,-6.000000
1306457.367742,17.000000,15.000000,4.000000,6.000000,22.000000,1.000000,-2.000000,2.000000
1306457.367767,-7.000000,-4.000000,-6.000000,-9.000000,10.000000,-1.000000,0.000000,-4.000000
1306457.374774,-3.000000,-7.000000,-6.000000,-50.000000,-23.000000,-7.000000,3.000000,0.000000
1306457.374791,-4.000000,0.000000,12.000000,14.000000,9.000000,3.000000,-5.000000,-6.000000
1306457.404220,10.000000,10.000000,15.000000,33.000000,37.000000,12.000000,12.000000,11.000000
1306457.404230,-8.000000,-18.000000,-16.000000,-5.000000,-2.000000,-2.000000,-4.000000,-7.000000
1306457.411662,-3.000000,-4.000000,-32.000000,1.000000,-4.000000,-3.000000,1.000000,-1.000000
1306457.411692,-1.000000,4.000000,19.000000,-13.000000,1.000000,-1.000000,1.000000,-5.000000
1306457.441575,-7.000000,-9.000000,-5.000000,-1.000000,-16.000000,-8.000000,-9.000000,-8.000000
1306457.441586,-5.000000,-3.000000,3.000000,-3.000000,-12.000000,0.000000,4.000000,1.000000
1306457.441938,9.000000,5.000000,10.000000,-15.000000,-7.000000,4.000000,7.000000,11.000000
1306457.441946,0.000000,1.000000,4.000000,1.000000,1.000000,-4.000000,-5.000000,-2.000000
1306457.443318,-15.000000,-11.000000,-14.000000,-27.000000,-14.000000,-8.000000,-7.000000,-10.000000
1306457.443337,16.000000,9.000000,6.000000,5.000000,-14.000000,4.000000,7.000000,9.000000
1306457.443861,-7.000000,-9.000000,-18.000000,-33.000000,-20.000000,-6.000000,-3.000000,-3.000000
1306457.443868,0.000000,3.000000,4.000000,-2.000000,-12.000000,-7.000000,0.000000,3.000000
1306457.444815,4.000000,3.000000,-6.000000,15.000000,3.000000,-4.000000,-3.000000,1.000000
1306457.444824,-6.000000,1.000000,6.000000,-21.000000,-12.000000,-5.000000,-5.000000,-6.000000
1306457.449012,-2.000000,-8.000000,-38.000000,8.000000,2.000000,-1.000000,0.000000,4.000000
1306457.449026,2.000000,-2.000000,9.000000,-12.000000,-4.000000,-1.000000,1.000000,5.000000
1306457.464421,8.000000,9.000000,26.000000,28.000000,27.000000,10.000000,1.000000,4.000000
1306457.464432,-1.000000,2.000000,19.000000,79.000000,57.000000,11.000000,5.000000,-1.000000
1306457.479463,-4.000000,-6.000000,-19.000000,-31.000000,-17.000000,-8.000000,-5.000000,-5.000000
1306457.479474,0.000000,4.000000,22.000000,-8.000000,-6.000000,-2.000000,0.000000,-5.000000
1306457.501677,-5.000000,-6.000000,-22.000000,-5.000000,0.000000,0.000000,0.000000,2.000000
1306457.501687,-3.000000,-10.000000,-17.000000,-46.000000,-30.000000,-5.000000,-1.000000,-4.000000
1306457.524406,9.000000,18.000000,8.000000,32.000000,26.000000,8.000000,2.000000,8.000000
1306457.524419,-6.000000,-3.000000,37.000000,-16.000000,11.000000,1.000000,-5.000000,-6.000000
1306457.525329,-3.000000,-15.000000,-71.000000,-27.000000,-10.000000,0.000000,3.000000,-2.000000
1306457.525344,-4.000000,0.000000,19.000000,5.000000,-6.000000,-4.000000,-2.000000,-1.000000
1306457.525863,-4.000000,-2.000000,4.000000,-3.000000,-15.000000,-6.000000,-5.000000,-7.000000
1306457.525873,-8.000000,-9.000000,-3.000000,-8.000000,8.000000,-4.000000,-8.000000,-9.000000
1306457.532298,-6.000000,-7.000000,-10.000000,13.000000,-17.000000,-5.000000,-3.000000,-6.000000
1306457.532310,21.000000,11.000000,21.000000,11.000000,22.000000,6.000000,10.000000,12.000000
1306457.532844,-5.000000,-2.000000,18.000000,24.000000,4.000000,0.000000,-4.000000,-4.000000
1306457.532855,1.000000,0.000000,-11.000000,-26.000000,-2.000000,2.000000,-4.000000,-3.000000
1306457.539181,0.000000,2.000000,-14.000000,12.000000,8.000000,2.000000,-1.000000,1.000000
1306457.539192,-2.000000,-5.000000,-5.000000,-26.000000,3.000000,-2.000000,-1.000000,1.000000
1306457.561883,2.000000,10.000000,14.000000,42.000000,12.000000,4.000000,-3.000000,-2.000000
1306457.561894,-3.000000,-2.000000,12.000000,-22.000000,-13.000000,2.000000,-2.000000,-5.000000
1306457.562933,1.000000,1.000000,-17.000000,20.000000,15.000000,-3.000000,-3.000000,2.000000
1306457.562941,1.000000,-6.000000,11.000000,35.000000,39.000000,5.000000,1.000000,-3.000000
1306457.576694,0.000000,7.000000,-7.000000,55.000000,25.000000,5.000000,1.000000,2.000000
1306457.576705,8.000000,5.000000,-1.000000,-20.000000,-17.000000,-8.000000,2.000000,2.000000
1306457.599228,-5.000000,-11.000000,-10.000000,14.000000,-1.000000,-2.000000,0.000000,0.000000
1306457.599239,-7.000000,-6.000000,-4.000000,-30.000000,-7.000000,1.000000,-2.000000,-2.000000
1306457.622047,-7.000000,0.000000,29.000000,7.000000,-19.000000,-7.000000,-5.000000,-6.000000
1306457.622062,6.000000,-1.000000,-28.000000,0.000000,-2.000000,4.000000,4.000000,-3.000000
1306457.643937,2.000000,-2.000000,-13.000000,-33.000000,-5.000000,0.000000,4.000000,4.000000
1306457.643947,2.000000,13.000000,31.000000,26.000000,3.000000,10.000000,1.000000,2.000000
1306457.644532,-2.000000,-4.000000,-1.000000,21.000000,-4.000000,-5.000000,-2.000000,-1.000000
1306457.644540,-6.000000,-10.000000,-18.000000,23.000000,6.000000,3.000000,2.000000,-1.000000
1306457.651915,-3.000000,-1.000000,7.000000,14.000000,9.000000,5.000000,1.000000,-2.000000
1306457.651927,3.000000,5.000000,4.000000,-17.000000,-6.000000,-2.000000,0.000000,2.000000
1306457.659401,-1.000000,-1.000000,1.000000,-7.000000,-5.000000,2.000000,-3.000000,-1.000000
1306457.659414,-3.000000,-2.000000,-18.000000,17.000000,11.000000,4.000000,2.000000,1.000000
1306457.661475,-2.000000,2.000000,-1.000000,8.000000,10.000000,3.000000,-1.000000,-3.000000
1306457.661486,-9.000000,-13.000000,-47.000000,-42.000000,-17.000000,-5.000000,-7.000000,-8.000000
1306457.681629,1.000000,9.000000,37.000000,48.000000,31.000000,5.000000,5.000000,8.000000
1306457.681648,2.000000,-7.000000,-70.000000,-31.000000,-25.000000,-4.000000,-2.000000,0.000000
1306457.682867,-6.000000,4.000000,21.000000,79.000000,17.000000,4.000000,0.000000,-3.000000
1306457.682876,-4.000000,1.000000,5.000000,-7.000000,5.000000,1.000000,-1.000000,-5.000000
1306457.688999,2.000000,6.000000,19.000000,46.000000,8.000000,-1.000000,0.000000,2.000000
1306457.689009,-1.000000,-8.000000,-40.000000,-19.000000,-25.000000,-11.000000,-5.000000,-4.000000
1306457.704293,1.000000,-2.000000,27.000000,7.000000,4.000000,3.000000,-3.000000,0.000000
1306457.704304,1.000000,7.000000,13.000000,-24.000000,4.000000,2.000000,0.000000,2.000000
1306457.719405,-10.000000,-4.000000,-5.000000,86.000000,8.000000,0.000000,-5.000000,-9.000000
1306457.719428,9.000000,4.000000,15.000000,37.000000,34.000000,5.000000,4.000000,5.000000
1306457.734055,2.000000,-5.000000,-11.000000,-25.000000,-16.000000,-9.000000,3.000000,3.000000
1306457.734065,-4.000000,0.000000,-48.000000,-24.000000,-23.000000,0.000000,-4.000000,-8.000000
1306457.741600,0.000000,-6.000000,12.000000,-21.000000,-18.000000,5.000000,2.000000,-2.000000
1306457.741628,1.000000,2.000000,-1.000000,-5.000000,-9.000000,1.000000,-3.000000,2.000000
1306457.757339,-7.000000,2.000000,9.000000,-28.000000,-12.000000,-6.000000,-7.000000,-4.000000
1306457.757348,-1.000000,-4.000000,-8.000000,-19.000000,-10.000000,-4.000000,-2.000000,-3.000000
1306457.757790,9.000000,1.000000,19.000000,9.000000,5.000000,-2.000000,5.000000,4.000000
1306457.757798,-6.000000,-9.000000,-56.000000,-18.000000,-15.000000,-16.000000,-7.000000,-8.000000
1306457.759647,-5.000000,1.000000,27.000000,-15.000000,-18.000000,-1.000000,-2.000000,-4.000000
1306457.759658,9.000000,-1.000000,-6.000000,22.000000,9.000000,3.000000,4.000000,8.000000
1306457.764271,-5.000000,-5.000000,1.000000,-38.000000,-23.000000,-8.000000,-8.000000,-3.000000
1306457.764282,-3.000000,2.000000,-9.000000,11.000000,5.000000,-1.000000,-8.000000,-9.000000
1306457.779765,-6.000000,-9.000000,-64.000000,-51.000000,-17.000000,-3.000000,-1.000000,-2.000000
1306457.779809,10.000000,20.000000,78.000000,72.000000,31.000000,12.000000,3.000000,6.000000
1306457.801665,4.000000,1.000000,17.000000,-9.000000,-11.000000,-8.000000,-9.000000,-1.000000
1306457.801675,-14.000000,-12.000000,-38.000000,-28.000000,-7.000000,-3.000000,-2.000000,-8.000000
1306457.803276,-1.000000,-2.000000,4.000000,-7.000000,-8.000000,1.000000,1.000000,7.000000
1306457.803287,19.000000,8.000000,19.000000,9.000000,-2.000000,0.000000,1.000000,5.000000
1306457.839235,-9.000000,-2.000000,-5.000000,-11.000000,-3.000000,-1.000000,-4.000000,-8.000000
1306457.839246,-10.000000,-11.000000,-21.000000,-14.000000,3.000000,-3.000000,-4.000000,-7.000000
1306457.854841,-1.000000,6.000000,39.000000,10.000000,-11.000000,4.000000,5.000000,6.000000
1306457.854852,9.000000,12.000000,-12.000000,69.000000,58.000000,6.000000,9.000000,9.000000
1306457.861943,-6.000000,-17.000000,0.000000,-26.000000,-12.000000,-10.000000,-6.000000,-13.000000
1306457.861959,2.000000,-1.000000,-14.000000,-17.000000,-23.000000,0.000000,2.000000,-1.000000
1306457.876978,1.000000,4.000000,11.000000,2.000000,-22.000000,-3.000000,-6.000000,4.000000
1306457.876987,-5.000000,-4.000000,-25.000000,-22.000000,15.000000,5.000000,3.000000,1.000000
1306457.877768,7.000000,10.000000,38.000000,46.000000,11.000000,13.000000,5.000000,2.000000
1306457.877777,1.000000,0.000000,-5.000000,-8.000000,-13.000000,-8.000000,-3.000000,-2.000000
1306457.879033,3.000000,0.000000,-8.000000,-40.000000,-14.000000,-3.000000,2.000000,4.000000
1306457.879045,5.000000,12.000000,19.000000,78.000000,39.000000,6.000000,-2.000000,1.000000
1306457.880531,-8.000000,-11.000000,16.000000,-17.000000,-26.000000,-9.000000,-4.000000,-11.000000
1306457.880540,-11.000000,-7.000000,-20.000000,-39.000000,-31.000000,-17.000000,-6.000000,-6.000000
1306457.891798,-1.000000,4.000000,8.000000,-17.000000,0.000000,7.000000,0.000000,1.000000
1306457.891809,8.000000,7.000000,3.000000,37.000000,0.000000,3.000000,-2.000000,0.000000
1306457.899962,0.000000,-1.000000,-3.000000,-2.000000,7.000000,2.000000,-4.000000,-2.000000
1306457.899972,0.000000,5.000000,-5.000000,-46.000000,-35.000000,-8.000000,-4.000000,0.000000
1306457.914000,-4.000000,-4.000000,25.000000,-11.000000,25.000000,6.000000,3.000000,-3.000000
1306457.914024,-5.000000,-6.000000,-31.000000,19.000000,14.000000,3.000000,4.000000,-1.000000
1306457.915498,-10.000000,-10.000000,0.000000,2.000000,-8.000000,-8.000000,-3.000000,-5.000000
1306457.915508,12.000000,9.000000,-5.000000,-9.000000,-6.000000,4.000000,4.000000,8.000000
1306457.929755,4.000000,-4.000000,-8.000000,-27.000000,4.000000,3.000000,2.000000,4.000000
1306457.929783,-11.000000,-5.000000,5.000000,32.000000,-32.000000,-14.000000,-9.000000,-12.000000
1306457.966746,3.000000,-3.000000,-59.000000,-9.000000,-3.000000,2.000000,0.000000,4.000000
1306457.966766,4.000000,5.000000,71.000000,24.000000,12.000000,6.000000,7.000000,12.000000
1306457.974108,-4.000000,-13.000000,-36.000000,-20.000000,3.000000,-7.000000,-5.000000,-5.000000
1306457.974118,-7.000000,4.000000,5.000000,-8.000000,6.000000,2.000000,-4.000000,-5.000000
1306457.996596,1.000000,5.000000,-6.000000,-14.000000,4.000000,3.000000,-3.000000,-5.000000
1306457.996607,-3.000000,-11.000000,-14.000000,-13.000000,-5.000000,3.000000,-2.000000,1.000000
1306457.997009,-6.000000,-3.000000,7.000000,-2.000000,-21.000000,-4.000000,-3.000000,0.000000
1306457.997017,3.000000,0.000000,-6.000000,47.000000,9.000000,2.000000,1.000000,3.000000
1306457.998378,6.000000,-12.000000,17.000000,-30.000000,6.000000,-7.000000,3.000000,1.000000
1306457.998387,-12.000000,-10.000000,-12.000000,-25.000000,-14.000000,-8.000000,-5.000000,-7.000000
1306457.999011,2.000000,9.000000,-22.000000,34.000000,18.000000,1.000000,-1.000000,0.000000
1306457.999020,6.000000,2.000000,1.000000,14.000000,4.000000,2.000000,0.000000,1.000000
1306458.000931,-4.000000,-5.000000,10.000000,-5.000000,-3.000000,-3.000000,-4.000000,-7.000000
1306458.000952,-3.000000,3.000000,-18.000000,-10.000000,9.000000,4.000000,-6.000000,-6.000000
1306458.004270,0.000000,3.000000,26.000000,19.000000,2.000000,0.000000,1.000000,-2.000000
1306458.004284,0.000000,-2.000000,-5.000000,-43.000000,-5.000000,-3.000000,0.000000,-2.000000
1306458.019239,3.000000,6.000000,-8.000000,73.000000,39.000000,9.000000,2.000000,3.000000
1306458.019262,-2.000000,-5.000000,1.000000,-4.000000,-8.000000,-3.000000,-1.000000,1.000000
1306458.034301,-3.000000,-5.000000,3.000000,13.000000,9.000000,1.000000,-1.000000,-6.000000
1306458.034311,10.000000,0.000000,-20.000000,-19.000000,-3.000000,2.000000,2.000000,1.000000
1306458.079451,-2.000000,-3.000000,43.000000,-14.000000,-5.000000,0.000000,-3.000000,-1.000000
1306458.079462,-2.000000,-2.000000,-57.000000,-12.000000,-10.000000,-2.000000,-4.000000,0.000000
1306458.086959,-2.000000,4.000000,14.000000,36.000000,18.000000,5.000000,3.000000,-1.000000
1306458.086970,-1.000000,6.000000,9.000000,16.000000,-6.000000,2.000000,0.000000,0.000000
1306458.116617,5.000000,-1.000000,3.000000,-48.000000,8.000000,5.000000,-2.000000,1.000000
1306458.116627,5.000000,17.000000,47.000000,124.000000,42.000000,9.000000,5.000000,4.000000
1306458.117023,-5.000000,-8.000000,-1.000000,-18.000000,-6.000000,-6.000000,-5.000000,-8.000000
1306458.117050,-8.000000,-1.000000,-31.000000,-35.000000,-16.000000,0.000000,-3.000000,-5.000000
1306458.118303,-1.000000,-10.000000,-2.000000,-2.000000,1.000000,-2.000000,-3.000000,-5.000000
1306458.118330,-3.000000,-4.000000,-2.000000,6.000000,-3.000000,-1.000000,-3.000000,2.000000
1306458.119600,0.000000,-2.000000,26.000000,5.000000,-11.000000,1.000000,1.000000,5.000000
1306458.119627,-5.000000,-6.000000,-17.000000,-13.000000,1.000000,-6.000000,-3.000000,-5.000000
1306458.131827,1.000000,-5.000000,11.000000,40.000000,-13.000000,-11.000000,-1.000000,-2.000000
1306458.131841,-8.000000,-8.000000,-17.000000,7.000000,-7.000000,2.000000,2.000000,-5.000000
1306458.139273,6.000000,10.000000,3.000000,-21.000000,-14.000000,4.000000,4.000000,7.000000
1306458.139284,1.000000,-9.000000,14.000000,4.000000,6.000000,1.000000,1.000000,0.000000
1306458.154077,4.000000,-6.000000,-4.000000,-39.000000,-15.000000,-1.000000,3.000000,6.000000
1306458.154107,2.000000,8.000000,-1.000000,31.000000,-11.000000,0.000000,-3.000000,1.000000
1306458.155557,-1.000000,-6.000000,24.000000,7.000000,-7.000000,-7.000000,-3.000000,-7.000000
1306458.155566,-7.000000,-6.000000,-25.000000,11.000000,8.000000,-6.000000,-3.000000,-1.000000
1306458.176905,-4.000000,-1.000000,8.000000,-2.000000,-5.000000,0.000000,-2.000000,-1.000000
1306458.176923,-1.000000,1.000000,2.000000,-13.000000,-18.000000,-1.000000,0.000000,-3.000000
1306458.199017,-2.000000,-14.000000,-6.000000,-9.000000,-2.000000,-2.000000,-1.000000,0.000000
1306458.199028,2.000000,-3.000000,-13.000000,-2.000000,1.000000,3.000000,3.000000,2.000000
1306458.206872,3.000000,6.000000,2.000000,5.000000,12.000000,0.000000,-1.000000,4.000000
1306458.206883,-2.000000,-8.000000,-2.000000,8.000000,4.000000,-7.000000,2.000000,2.000000
1306458.236682,-10.000000,-8.000000,-20.000000,-75.000000,-23.000000,-4.000000,-4.000000,-4.000000
1306458.236699,-1.000000,8.000000,30.000000,127.000000,28.000000,9.000000,0.000000,-4.000000
1306458.237093,-2.000000,0.000000,8.000000,-10.000000,-7.000000,-1.000000,-1.000000,1.000000
1306458.237102,6.000000,4.000000,2.000000,0.000000,-2.000000,-4.000000,1.000000,2.000000
1306458.238325,6.000000,-4.000000,-8.000000,-16.000000,-11.000000,0.000000,-4.000000,-2.000000
1306458.238334,-6.000000,6.000000,25.000000,-4.000000,-29.000000,2.000000,-3.000000,-2.000000
1306458.239145,-5.000000,-9.000000,-29.000000,4.000000,22.000000,0.000000,0.000000,-1.000000
1306458.239155,-4.000000,-7.000000,10.000000,18.000000,7.000000,-3.000000,2.000000,1.000000
1306458.240533,9.000000,14.000000,6.000000,-22.000000,-5.000000,4.000000,-2.000000,4.000000
1306458.240545,-9.000000,-11.000000,-26.000000,29.000000,14.000000,0.000000,-3.000000,-5.000000
1306458.251463,0.000000,6.000000,39.000000,4.000000,-4.000000,0.000000,-1.000000,2.000000
1306458.251483,3.000000,1.000000,-15.000000,-38.000000,-24.000000,-4.000000,-1.000000,-1.000000
1306458.259481,1.000000,11.000000,4.000000,33.000000,29.000000,12.000000,2.000000,4.000000
1306458.259493,-6.000000,-12.000000,3.000000,-10.000000,-9.000000,-7.000000,0.000000,-6.000000
1306458.274262,-5.000000,-2.000000,-11.000000,-24.000000,-15.000000,-1.000000,-2.000000,-3.000000
1306458.274278,14.000000,12.000000,-7.000000,46.000000,39.000000,11.000000,10.000000,17.000000
1306458.281883,2.000000,-9.000000,45.000000,24.000000,32.000000,4.000000,7.000000,2.000000
1306458.281901,-8.000000,-9.000000,-35.000000,-23.000000,-15.000000,-6.000000,-6.000000,-6.000000
1306458.296654,2.000000,10.000000,11.000000,7.000000,10.000000,8.000000,-1.000000,-1.000000
1306458.296672,1.000000,-8.000000,7.000000,5.000000,-12.000000,-4.000000,0.000000,2.000000
1306458.319371,2.000000,1.000000,9.000000,9.000000,10.000000,2.000000,4.000000,1.000000
1306458.319381,-3.000000,5.000000,-23.000000,-13.000000,-9.000000,-5.000000,-3.000000,-7.000000
1306458.356684,1.000000,1.000000,12.000000,5.000000,4.000000,-5.000000,-2.000000,-1.000000
1306458.356695,-1.000000,0.000000,16.000000,19.000000,8.000000,2.000000,0.000000,0.000000
1306458.364642,-2.000000,6.000000,-23.000000,-13.000000,16.000000,-4.000000,-3.000000,-4.000000
1306458.364651,-6.000000,-3.000000,-14.000000,-14.000000,-16.000000,-5.000000,-2.000000,-5.000000
1306458.365283,5.000000,-6.000000,12.000000,27.000000,14.000000,3.000000,5.000000,0.000000
1306458.365291,0.000000,-1.000000,0.000000,-16.000000,-16.000000,-5.000000,-1.000000,0.000000
1306458.367089,-7.000000,4.000000,-12.000000,-14.000000,0.000000,3.000000,-4.000000,-10.000000
1306458.367121,-3.000000,-5.000000,14.000000,-4.000000,-7.000000,-6.000000,-1.000000,3.000000
1306458.367753,7.000000,-1.000000,-3.000000,4.000000,-4.000000,-6.000000,2.000000,5.000000
1306458.367780,-9.000000,-1.000000,-6.000000,1.000000,-1.000000,-2.000000,-6.000000,-7.000000
1306458.371856,2.000000,5.000000,-17.000000,27.000000,20.000000,9.000000,5.000000,4.000000
1306458.371959,-9.000000,-5.000000,13.000000,-58.000000,-39.000000,-9.000000,-3.000000,-6.000000
1306458.379308,3.000000,1.000000,6.000000,16.000000,47.000000,12.000000,4.000000,1.000000
1306458.379318,3.000000,-5.000000,-22.000000,-11.000000,-12.000000,-4.000000,3.000000,1.000000
1306458.394370,-6.000000,0.000000,5.000000,19.000000,23.000000,-3.000000,-2.000000,-3.000000
1306458.394380,3.000000,-5.000000,1.000000,-2.000000,-2.000000,-4.000000,-2.000000,3.000000
1306458.409203,0.000000,0.000000,7.000000,2.000000,4.000000,0.000000,-5.000000,-1.000000
1306458.409212,-6.000000,1.000000,-19.000000,-11.000000,-2.000000,-5.000000,-7.000000,-9.000000
1306458.454443,0.000000,-8.000000,12.000000,-27.000000,1.000000,-5.000000,-1.000000,-4.000000
1306458.454454,0.000000,4.000000,3.000000,-26.000000,-6.000000,3.000000,-2.000000,-1.000000
1306458.476657,-7.000000,8.000000,31.000000,42.000000,1.000000,4.000000,-3.000000,-3.000000
1306458.476675,-8.000000,-4.000000,-22.000000,-8.000000,1.000000,-3.000000,-2.000000,-6.000000
1306458.476988,-3.000000,-9.000000,-18.000000,-6.000000,18.000000,-1.000000,4.000000,4.000000
1306458.477015,11.000000,-1.000000,24.000000,-14.000000,-5.000000,-5.000000,1.000000,0.000000
1306458.478380,8.000000,7.000000,-4.000000,35.000000,26.000000,12.000000,2.000000,2.000000
1306458.478467,-2.000000,-9.000000,-4.000000,-22.000000,-21.000000,-14.000000,-2.000000,-3.000000
1306458.479028,-5.000000,-5.000000,-13.000000,-43.000000,-23.000000,2.000000,0.000000,-3.000000
1306458.479035,3.000000,0.000000,6.000000,-6.000000,10.000000,2.000000,0.000000,4.000000
1306458.479890,-10.000000,3.000000,5.000000,45.000000,-6.000000,-5.000000,-5.000000,-11.000000
1306458.479898,-10.000000,-7.000000,-4.000000,-16.000000,-6.000000,-6.000000,-5.000000,-9.000000
1306458.491625,-7.000000,-6.000000,3.000000,-29.000000,-17.000000,-7.000000,0.000000,-1.000000
1306458.491649,-13.000000,-8.000000,-16.000000,5.000000,7.000000,5.000000,-2.000000,-7.000000
1306458.499488,3.000000,-1.000000,4.000000,-26.000000,-6.000000,0.000000,2.000000,-3.000000
1306458.499499,6.000000,1.000000,-5.000000,17.000000,12.000000,-3.000000,1.000000,6.000000
1306458.514087,0.000000,-1.000000,-1.000000,-26.000000,-1.000000,-11.000000,-5.000000,-9.000000
1306458.514097,-5.000000,-1.000000,-4.000000,-14.000000,1.000000,0.000000,1.000000,-4.000000
1306458.521696,-4.000000,11.000000,9.000000,49.000000,8.000000,5.000000,3.000000,-4.000000
1306458.521767,7.000000,-1.000000,-2.000000,-19.000000,-10.000000,4.000000,6.000000,9.000000
1306458.529214,1.000000,-9.000000,-8.000000,18.000000,13.000000,-5.000000,-3.000000,-1.000000
1306458.529233,-7.000000,-3.000000,-20.000000,-14.000000,0.000000,0.000000,-5.000000,-5.000000
1306458.551879,-1.000000,-4.000000,5.000000,-62.000000,-17.000000,-6.000000,-5.000000,-4.000000
1306458.551890,11.000000,8.000000,13.000000,46.000000,9.000000,6.000000,6.000000,9.000000
1306458.559287,7.000000,2.000000,5.000000,-17.000000,0.000000,-3.000000,0.000000,4.000000
1306458.559306,6.000000,1.000000,-8.000000,3.000000,4.000000,1.000000,-2.000000,1.000000
1306458.596892,-13.000000,-14.000000,-13.000000,-37.000000,-13.000000,-7.000000,-9.000000,-10.000000
1306458.596903,2.000000,2.000000,-8.000000,11.000000,-20.000000,7.000000,7.000000,7.000000
1306458.597424,3.000000,5.000000,5.000000,12.000000,18.000000,3.000000,1.000000,5.000000
1306458.597432,-4.000000,-6.000000,2.000000,-31.000000,-8.000000,-8.000000,-8.000000,-9.000000
1306458.598317,-8.000000,-8.000000,1.000000,7.000000,-10.000000,0.000000,0.000000,-7.000000
1306458.598325,12.000000,11.000000,10.000000,-50.000000,-31.000000,-4.000000,4.000000,14.000000
1306458.598968,3.000000,3.000000,-10.000000,-6.000000,-16.000000,-4.000000,-2.000000,2.000000
1306458.598975,-7.000000,-11.000000,-18.000000,-6.000000,10.000000,-5.000000,-4.000000,-6.000000
1306458.611679,0.000000,-7.000000,-7.000000,-20.000000,-11.000000,-9.000000,-7.000000,-2.000000
1306458.611698,14.000000,2.000000,4.000000,2.000000,8.000000,5.000000,5.000000,10.000000
1306458.626641,-6.000000,0.000000,-13.000000,-14.000000,-11.000000,-4.000000,-1.000000,-6.000000
1306458.626652,-1.000000,-1.000000,-3.000000,-4.000000,8.000000,1.000000,-2.000000,1.000000
1306458.634224,3.000000,0.000000,-4.000000,2.000000,-14.000000,10.000000,11.000000,7.000000
1306458.634241,-2.000000,8.000000,27.000000,41.000000,34.000000,-2.000000,-3.000000,-1.000000
1306458.641981,0.000000,-1.000000,-7.000000,-14.000000,-3.000000,-2.000000,-4.000000,1.000000
1306458.641994,0.000000,1.000000,-15.000000,-30.000000,-13.000000,0.000000,1.000000,5.000000
1306458.649451,1.000000,0.000000,5.000000,-12.000000,7.000000,3.000000,3.000000,0.000000
1306458.649462,-9.000000,2.000000,4.000000,-1.000000,3.000000,-8.000000,-6.000000,-8.000000
1306458.686896,13.000000,-9.000000,-29.000000,4.000000,-6.000000,1.000000,6.000000,8.000000
1306458.686906,2.000000,4.000000,11.000000,5.000000,7.000000,12.000000,7.000000,0.000000
1306458.694452,-8.000000,-8.000000,-20.000000,-20.000000,-6.000000,-7.000000,-6.000000,-4.000000
1306458.694462,1.000000,-4.000000,-15.000000,-23.000000,-4.000000,-6.000000,-5.000000,-5.000000
1306458.731665,-1.000000,-1.000000,11.000000,-2.000000,-6.000000,-5.000000,1.000000,-1.000000
1306458.731675,5.000000,5.000000,9.000000,13.000000,7.000000,2.000000,3.000000,7.000000
1306458.746624,0.000000,5.000000,4.000000,-21.000000,-17.000000,3.000000,-2.000000,-1.000000
1306458.746635,-13.000000,-12.000000,5.000000,-15.000000,4.000000,-2.000000,-6.000000,-9.000000
1306458.747774,5.000000,5.000000,6.000000,24.000000,3.000000,-2.000000,0.000000,5.000000
1306458.747783,1.000000,0.000000,-6.000000,-14.000000,-10.000000,-5.000000,-5.000000,-5.000000
1306458.748437,-1.000000,-8.000000,-8.000000,14.000000,7.000000,3.000000,2.000000,-2.000000
1306458.748445,2.000000,4.000000,-3.000000,4.000000,6.000000,-1.000000,-1.000000,-2.000000
1306458.749167,-6.000000,6.000000,21.000000,-5.000000,-7.000000,-1.000000,-3.000000,0.000000
1306458.749176,6.000000,-2.000000,-16.000000,-6.000000,14.000000,0.000000,-2.000000,-2.000000
1306458.750596,1.000000,-14.000000,6.000000,12.000000,5.000000,1.000000,2.000000,1.000000
1306458.750606,2.000000,2.000000,10.000000,-17.000000,-7.000000,-3.000000,-7.000000,3.000000
1306458.750971,0.000000,7.000000,23.000000,-16.000000,14.000000,8.000000,6.000000,7.000000
1306458.750980,-3.000000,4.000000,-15.000000,7.000000,32.000000,4.000000,-3.000000,-4.000000
1306458.769333,1.000000,-4.000000,-6.000000,11.000000,-23.000000,-9.000000,0.000000,3.000000
1306458.769344,5.000000,-3.000000,-3.000000,-15.000000,2.000000,-5.000000,-3.000000,-3.000000
1306458.791759,-8.000000,0.000000,-11.000000,-18.000000,2.000000,5.000000,0.000000,0.000000
1306458.791770,-16.000000,-8.000000,-30.000000,4.000000,-18.000000,-1.000000,-5.000000,-4.000000
1306458.814056,3.000000,-4.000000,19.000000,-26.000000,-12.000000,-4.000000,-1.000000,-5.000000
1306458.814066,14.000000,9.000000,-22.000000,-30.000000,-36.000000,-3.000000,4.000000,11.000000
1306458.829394,-11.000000,-4.000000,-2.000000,-1.000000,9.000000,-3.000000,-5.000000,-7.000000
1306458.829405,-9.000000,-7.000000,-16.000000,-27.000000,-9.000000,-6.000000,-4.000000,-9.000000
1306458.830363,3.000000,5.000000,28.000000,-9.000000,-1.000000,1.000000,1.000000,-2.000000
1306458.830371,1.000000,4.000000,-6.000000,28.000000,5.000000,5.000000,4.000000,7.000000
1306458.830872,10.000000,-4.000000,-33.000000,-11.000000,14.000000,-1.000000,3.000000,4.000000
1306458.830879,-8.000000,-4.000000,-5.000000,-19.000000,-38.000000,-7.000000,-2.000000,-5.000000
1306458.832126,1.000000,8.000000,-12.000000,-13.000000,-3.000000,-1.000000,-3.000000,2.000000
1306458.832134,-4.000000,-10.000000,17.000000,-17.000000,-17.000000,-3.000000,-6.000000,-5.000000
1306458.833374,-1.000000,-2.000000,-17.000000,20.000000,-12.000000,-1.000000,-2.000000,-1.000000
1306458.833383,-6.000000,-8.000000,19.000000,-39.000000,-25.000000,-7.000000,-7.000000,-10.000000
1306458.836620,0.000000,7.000000,-1.000000,6.000000,9.000000,4.000000,0.000000,0.000000
1306458.836630,6.000000,-3.000000,8.000000,-23.000000,-1.000000,2.000000,8.000000,7.000000
1306458.851492,-14.000000,-4.000000,-48.000000,-31.000000,-11.000000,-6.000000,-7.000000,-7.000000
1306458.851502,31.000000,10.000000,27.000000,-21.000000,-40.000000,-4.000000,1.000000,10.000000
1306458.866642,-1.000000,-9.000000,-23.000000,0.000000,24.000000,-2.000000,-1.000000,0.000000
1306458.866652,0.000000,-1.000000,-16.000000,26.000000,18.000000,9.000000,1.000000,2.000000
1306458.867280,6.000000,11.000000,23.000000,8.000000,-12.000000,-3.000000,8.000000,7.000000
1306458.867288,-12.000000,-8.000000,13.000000,-8.000000,-2.000000,-2.000000,-8.000000,-12.000000
1306458.889265,-8.000000,-6.000000,-14.000000,-66.000000,-22.000000,2.000000,0.000000,0.000000
1306458.889317,0.000000,7.000000,5.000000,62.000000,9.000000,-3.000000,-3.000000,4.000000
1306458.911842,-7.000000,0.000000,5.000000,14.000000,12.000000,-5.000000,-8.000000,-8.000000
1306458.911853,1.000000,-6.000000,-7.000000,-11.000000,-16.000000,-9.000000,-3.000000,-3.000000
1306458.926659,20.000000,-4.000000,3.000000,-42.000000,-12.000000,-1.000000,7.000000,17.000000
1306458.926669,-6.000000,6.000000,-10.000000,64.000000,31.000000,8.000000,1.000000,-1.000000
1306458.934278,-12.000000,-10.000000,28.000000,-7.000000,-12.000000,-10.000000,-9.000000,-9.000000
1306458.934288,-10.000000,-9.000000,7.000000,-17.000000,-12.000000,-11.000000,-4.000000,-7.000000
1306458.950159,18.000000,12.000000,0.000000,24.000000,16.000000,8.000000,9.000000,14.000000
1306458.950178,3.000000,2.000000,11.000000,-23.000000,-7.000000,1.000000,0.000000,4.000000
1306458.950711,-5.000000,-1.000000,33.000000,51.000000,5.000000,-2.000000,-6.000000,-10.000000
1306458.950770,1.000000,5.000000,-10.000000,30.000000,28.000000,6.000000,3.000000,4.000000
1306458.951742,2.000000,-3.000000,17.000000,-4.000000,-4.000000,-1.000000,1.000000,0.000000
1306458.951761,-9.000000,-8.000000,9.000000,7.000000,-8.000000,-5.000000,-6.000000,-9.000000
1306458.952370,-13.000000,6.000000,-3.000000,12.000000,2.000000,0.000000,-2.000000,-7.000000
1306458.952404,33.000000,6.000000,26.000000,0.000000,-2.000000,4.000000,8.000000,15.000000
1306458.964301,-11.000000,-6.000000,-12.000000,-12.000000,15.000000,3.000000,-5.000000,-13.000000
1306458.964310,-2.000000,6.000000,16.000000,29.000000,24.000000,3.000000,8.000000,4.000000
1306458.971621,7.000000,4.000000,-10.000000,5.000000,-1.000000,-2.000000,1.000000,3.000000
1306458.971650,-7.000000,-5.000000,-9.000000,-7.000000,-1.000000,0.000000,1.000000,-6.000000
1306458.986980,-6.000000,-4.000000,25.000000,-30.000000,-19.000000,-3.000000,-6.000000,-6.000000
1306458.986998,-1.000000,7.000000,8.000000,29.000000,-1.000000,1.000000,-2.000000,0.000000
1306458.987377,0.000000,-1.000000,-20.000000,16.000000,11.000000,5.000000,0.000000,-3.000000
1306458.987404,-6.000000,-14.000000,-13.000000,-36.000000,-17.000000,-12.000000,-7.000000,-7.000000
1306459.024206,-10.000000,-7.000000,-1.000000,-20.000000,4.000000,-9.000000,-7.000000,-9.000000
1306459.024216,10.000000,3.000000,7.000000,24.000000,17.000000,3.000000,5.000000,10.000000
1306459.032123,-3.000000,-11.000000,-27.000000,-22.000000,-18.000000,-6.000000,-5.000000,-2.000000
1306459.032136,-2.000000,0.000000,24.000000,-39.000000,-18.000000,-6.000000,-2.000000,2.000000
1306459.046758,6.000000,19.000000,8.000000,59.000000,19.000000,6.000000,3.000000,1.000000
1306459.046769,-3.000000,-3.000000,15.000000,-4.000000,-14.000000,-9.000000,-5.000000,-4.000000
1306459.069353,-4.000000,-3.000000,-39.000000,-48.000000,-11.000000,-4.000000,1.000000,-3.000000
1306459.069364,8.000000,2.000000,21.000000,-15.000000,-25.000000,-2.000000,-1.000000,0.000000
1306459.070251,3.000000,2.000000,16.000000,12.000000,4.000000,5.000000,0.000000,2.000000
1306459.070259,-2.000000,-5.000000,-19.000000,7.000000,6.000000,-1.000000,-2.000000,-2.000000
1306459.070857,-8.000000,-5.000000,-7.000000,-16.000000,-7.000000,-5.000000,-2.000000,-8.000000
1306459.070865,3.000000,6.000000,18.000000,40.000000,17.000000,8.000000,3.000000,6.000000
1306459.072294,-1.000000,-13.000000,-20.000000,-23.000000,-15.000000,-6.000000,-4.000000,-10.000000
1306459.072322,28.000000,-8.000000,-28.000000,-12.000000,-5.000000,-7.000000,4.000000,8.000000
1306459.073132,-15.000000,-7.000000,-24.000000,-36.000000,-32.000000,-8.000000,-5.000000,-9.000000
1306459.073141,-8.000000,-2.000000,7.000000,-47.000000,-44.000000,0.000000,0.000000,-3.000000
1306459.084270,-2.000000,-3.000000,15.000000,31.000000,9.000000,-4.000000,-6.000000,-7.000000
1306459.084281,8.000000,4.000000,2.000000,-28.000000,-5.000000,5.000000,2.000000,5.000000
1306459.091692,-1.000000,-3.000000,-15.000000,-40.000000,-20.000000,-9.000000,-2.000000,3.000000
1306459.091709,-4.000000,3.000000,35.000000,90.000000,44.000000,10.000000,3.000000,-2.000000
1306459.106618,-1.000000,5.000000,-30.000000,7.000000,27.000000,6.000000,-1.000000,-2.000000
1306459.106628,3.000000,-9.000000,-6.000000,-16.000000,-10.000000,0.000000,0.000000,2.000000
1306459.107486,-19.000000,-18.000000,-8.000000,-48.000000,-28.000000,-13.000000,-6.000000,-13.000000
1306459.107497,2.000000,6.000000,11.000000,64.000000,13.000000,2.000000,-4.000000,-5.000000
1306459.121750,29.000000,5.000000,12.000000,-8.000000,22.000000,6.000000,10.000000,15.000000
1306459.121760,-5.000000,-9.000000,22.000000,53.000000,44.000000,2.000000,-3.000000,-3.000000
1306459.129073,-3.000000,3.000000,-15.000000,-51.000000,-27.000000,-4.000000,-1.000000,-6.000000
1306459.129083,-7.000000,4.000000,-21.000000,-10.000000,-7.000000,5.000000,2.000000,3.000000
1306459.151907,16.000000,8.000000,15.000000,39.000000,18.000000,7.000000,10.000000,12.000000
1306459.151943,1.000000,-5.000000,1.000000,18.000000,0.000000,4.000000,-2.000000,-2.000000
1306459.167053,-14.000000,-7.000000,-1.000000,-8.000000,-12.000000,-4.000000,-1.000000,-9.000000
1306459.167078,9.000000,0.000000,-5.000000,-3.000000,-6.000000,-8.000000,-7.000000,0.000000
1306459.189879,-5.000000,-8.000000,7.000000,-20.000000,-3.000000,1.000000,-2.000000,-6.000000
1306459.189889,-4.000000,4.000000,24.000000,-6.000000,-14.000000,-2.000000,-2.000000,-3.000000
1306459.190346,6.000000,10.000000,-2.000000,-7.000000,6.000000,6.000000,9.000000,12.000000
1306459.190361,-5.000000,-8.000000,0.000000,27.000000,35.000000,-1.000000,-5.000000,-7.000000
1306459.191767,0.000000,4.000000,11.000000,18.000000,64.000000,12.000000,2.000000,2.000000
1306459.191778,0.000000,5.000000,10.000000,29.000000,-13.000000,-2.000000,-5.000000,-2.000000
1306459.192289,24.000000,3.000000,17.000000,44.000000,3.000000,10.000000,8.000000,10.000000
1306459.192300,0.000000,-5.000000,6.000000,6.000000,26.000000,-3.000000,4.000000,-1.000000
1306459.204517,-12.000000,-7.000000,-19.000000,-21.000000,-14.000000,-4.000000,-2.000000,-4.000000
1306459.204529,15.000000,2.000000,-49.000000,-48.000000,-5.000000,0.000000,-2.000000,2.000000
1306459.226504,4.000000,8.000000,48.000000,60.000000,23.000000,8.000000,5.000000,2.000000
1306459.226517,-15.000000,-17.000000,-13.000000,-19.000000,-18.000000,-10.000000,-7.000000,-8.000000
1306459.228044,7.000000,5.000000,-7.000000,-32.000000,-8.000000,0.000000,-2.000000,0.000000
1306459.228072,2.000000,1.000000,44.000000,32.000000,14.000000,5.000000,5.000000,6.000000
1306459.241662,0.000000,-3.000000,-28.000000,-19.000000,4.000000,-1.000000,0.000000,0.000000
1306459.241691,-13.000000,-2.000000,17.000000,-26.000000,-27.000000,-7.000000,-12.000000,-14.000000
1306459.264240,8.000000,6.000000,-9.000000,71.000000,21.000000,12.000000,6.000000,7.000000
1306459.264249,2.000000,-5.000000,1.000000,-3.000000,-8.000000,-6.000000,4.000000,9.000000
1306459.286688,5.000000,0.000000,-1.000000,-21.000000,-7.000000,-1.000000,-2.000000,-2.000000
1306459.286717,-7.000000,0.000000,3.000000,-14.000000,2.000000,5.000000,0.000000,-7.000000
1306459.309341,-1.000000,-6.000000,-16.000000,-23.000000,-10.000000,-1.000000,3.000000,5.000000
1306459.309353,-14.000000,-1.000000,20.000000,43.000000,29.000000,-1.000000,-9.000000,-12.000000
1306459.324307,-9.000000,2.000000,17.000000,1.000000,-7.000000,-7.000000,-8.000000,-8.000000
1306459.324329,3.000000,6.000000,-11.000000,-20.000000,-4.000000,2.000000,2.000000,5.000000
1306459.354459,-11.000000,-12.000000,-3.000000,-40.000000,-24.000000,-11.000000,-4.000000,-9.000000
1306459.354469,6.000000,16.000000,31.000000,72.000000,23.000000,5.000000,1.000000,4.000000
1306459.361714,9.000000,12.000000,14.000000,68.000000,61.000000,15.000000,7.000000,6.000000
1306459.361723,1.000000,-1.000000,-3.000000,-11.000000,-14.000000,-2.000000,0.000000,-3.000000
1306459.384413,-11.000000,-5.000000,-24.000000,-14.000000,-13.000000,-4.000000,-3.000000,-6.000000
1306459.384423,-9.000000,7.000000,-5.000000,48.000000,31.000000,6.000000,2.000000,-1.000000
1306459.391866,-11.000000,-6.000000,-20.000000,-28.000000,-13.000000,-11.000000,-15.000000,-11.000000
1306459.391877,-10.000000,0.000000,26.000000,34.000000,-10.000000,4.000000,3.000000,-5.000000
1306459.406731,-1.000000,-6.000000,-24.000000,0.000000,20.000000,0.000000,-1.000000,-2.000000
1306459.406750,-14.000000,-2.000000,-21.000000,-10.000000,-10.000000,-11.000000,-11.000000,-18.000000
1306459.421440,4.000000,4.000000,21.000000,-42.000000,-20.000000,6.000000,5.000000,7.000000
1306459.421459,-1.000000,-10.000000,-30.000000,21.000000,0.000000,-7.000000,-3.000000,-2.000000
1306459.422107,21.000000,-7.000000,-21.000000,-10.000000,-7.000000,6.000000,8.000000,13.000000
1306459.422124,17.000000,-1.000000,-11.000000,-11.000000,-11.000000,-3.000000,3.000000,4.000000
1306459.423227,-3.000000,-9.000000,-23.000000,-19.000000,-22.000000,-4.000000,5.000000,5.000000
1306459.423236,-2.000000,8.000000,-2.000000,-21.000000,-8.000000,-5.000000,-5.000000,-5.000000
1306459.423973,9.000000,16.000000,23.000000,68.000000,-3.000000,2.000000,1.000000,10.000000
1306459.423981,-14.000000,-5.000000,-14.000000,-25.000000,-20.000000,-5.000000,-5.000000,-9.000000
1306459.425523,-8.000000,-8.000000,1.000000,-7.000000,-11.000000,-3.000000,-3.000000,-5.000000
1306459.425550,-12.000000,-8.000000,-31.000000,-14.000000,-17.000000,-11.000000,-7.000000,-15.000000
1306459.429715,0.000000,-5.000000,-8.000000,-25.000000,-13.000000,3.000000,5.000000,5.000000
1306459.429724,2.000000,8.000000,30.000000,39.000000,17.000000,1.000000,0.000000,4.000000
1306459.444237,17.000000,10.000000,30.000000,52.000000,13.000000,6.000000,10.000000,16.000000
1306459.444247,-10.000000,-10.000000,-9.000000,-14.000000,-3.000000,-5.000000,-8.000000,-11.000000
1306459.474491,16.000000,4.000000,-10.000000,-8.000000,4.000000,2.000000,-2.000000,4.000000
1306459.474503,-24.000000,-8.000000,-23.000000,-31.000000,-35.000000,-11.000000,-14.000000,-19.000000
1306459.481947,3.000000,-12.000000,-2.000000,-11.000000,-2.000000,-5.000000,1.000000,-1.000000
1306459.481961,2.000000,6.000000,51.000000,-2.000000,-3.000000,-2.000000,7.000000,13.000000
1306459.519220,4.000000,8.000000,-38.000000,30.000000,22.000000,14.000000,1.000000,3.000000
1306459.519249,-19.000000,-8.000000,15.000000,-23.000000,-39.000000,-21.000000,-9.000000,-19.000000
1306459.526891,2.000000,-7.000000,-9.000000,-5.000000,1.000000,3.000000,-3.000000,-1.000000
1306459.526902,11.000000,7.000000,9.000000,-29.000000,-18.000000,2.000000,0.000000,0.000000
1306459.564225,19.000000,8.000000,7.000000,-18.000000,3.000000,5.000000,0.000000,3.000000
1306459.564236,-9.000000,2.000000,58.000000,43.000000,7.000000,-2.000000,-6.000000,-9.000000
1306459.564859,-6.000000,-2.000000,-85.000000,-24.000000,-20.000000,-8.000000,-8.000000,-11.000000
1306459.564868,9.000000,4.000000,-14.000000,32.000000,19.000000,8.000000,7.000000,20.000000
1306459.565785,11.000000,7.000000,1.000000,16.000000,11.000000,6.000000,5.000000,8.000000
1306459.565812,33.000000,-4.000000,-26.000000,-3.000000,-5.000000,-2.000000,1.000000,12.000000
1306459.567020,-11.000000,-4.000000,8.000000,-34.000000,3.000000,4.000000,-1.000000,-3.000000
1306459.567046,23.000000,22.000000,28.000000,56.000000,8.000000,14.000000,13.000000,19.000000
1306459.567941,-18.000000,-12.000000,0.000000,23.000000,-3.000000,-11.000000,-8.000000,-10.000000
1306459.567967,8.000000,3.000000,-40.000000,-23.000000,11.000000,7.000000,3.000000,-1.000000
1306459.579885,-4.000000,-12.000000,27.000000,-24.000000,-29.000000,-6.000000,1.000000,3.000000
1306459.579898,-3.000000,2.000000,9.000000,10.000000,18.000000,11.000000,2.000000,-6.000000
1306459.580522,18.000000,2.000000,10.000000,2.000000,-9.000000,-8.000000,-3.000000,-2.000000
1306459.580530,-3.000000,5.000000,-13.000000,-19.000000,-6.000000,1.000000,-2.000000,0.000000
1306459.624483,-12.000000,-1.000000,-13.000000,-45.000000,-23.000000,1.000000,3.000000,-2.000000
1306459.624496,14.000000,13.000000,26.000000,114.000000,75.000000,14.000000,7.000000,14.000000
1306459.631797,-6.000000,-3.000000,-25.000000,-26.000000,-9.000000,-2.000000,-2.000000,-3.000000
1306459.631809,-11.000000,-7.000000,-3.000000,3.000000,-21.000000,1.000000,-3.000000,-8.000000
1306459.639684,4.000000,-6.000000,6.000000,-20.000000,13.000000,5.000000,4.000000,4.000000
1306459.639696,30.000000,0.000000,-31.000000,-20.000000,-7.000000,4.000000,6.000000,11.000000
1306459.640111,-15.000000,0.000000,2.000000,14.000000,0.000000,-5.000000,-9.000000,-11.000000
1306459.640119,2.000000,7.000000,3.000000,15.000000,35.000000,6.000000,8.000000,6.000000
1306459.641547,-3.000000,-6.000000,-6.000000,-21.000000,-1.000000,-7.000000,-7.000000,-4.000000
1306459.641562,-7.000000,4.000000,19.000000,-23.000000,-20.000000,6.000000,2.000000,-3.000000
1306459.642346,6.000000,3.000000,-53.000000,11.000000,23.000000,10.000000,1.000000,3.000000
1306459.642362,8.000000,-4.000000,27.000000,16.000000,6.000000,-4.000000,1.000000,7.000000
1306459.662199,-7.000000,4.000000,12.000000,-29.000000,-39.000000,-2.000000,-1.000000,-5.000000
1306459.662208,-8.000000,1.000000,13.000000,39.000000,29.000000,4.000000,-5.000000,-6.000000
1306459.662906,4.000000,-3.000000,11.000000,-21.000000,1.000000,-2.000000,5.000000,5.000000
1306459.662914,-5.000000,-12.000000,-60.000000,-29.000000,-24.000000,-8.000000,-5.000000,0.000000
1306459.669929,-6.000000,7.000000,23.000000,32.000000,19.000000,4.000000,-3.000000,-4.000000
1306459.669939,40.000000,10.000000,-41.000000,10.000000,12.000000,-3.000000,3.000000,13.000000
1306459.684426,-8.000000,-7.000000,58.000000,-7.000000,17.000000,12.000000,8.000000,5.000000
1306459.684455,-1.000000,-2.000000,-7.000000,16.000000,-12.000000,-5.000000,-1.000000,-1.000000
1306459.706648,-2.000000,1.000000,-7.000000,41.000000,-10.000000,1.000000,1.000000,-3.000000
1306459.706658,6.000000,-5.000000,-27.000000,-23.000000,-22.000000,-7.000000,0.000000,8.000000
1306459.721955,-3.000000,-3.000000,-4.000000,-26.000000,-4.000000,4.000000,-3.000000,-5.000000
1306459.721980,-2.000000,-3.000000,7.000000,20.000000,-13.000000,-7.000000,-3.000000,-4.000000
1306459.759524,9.000000,-2.000000,-26.000000,-12.000000,-5.000000,0.000000,2.000000,4.000000
1306459.759537,-5.000000,3.000000,22.000000,13.000000,-10.000000,-3.000000,-1.000000,-4.000000
1306459.781879,22.000000,0.000000,9.000000,-15.000000,-6.000000,7.000000,15.000000,16.000000
1306459.781897,-5.000000,-8.000000,-2.000000,3.000000,9.000000,-1.000000,-3.000000,-3.000000
1306459.797003,-10.000000,-5.000000,-35.000000,-22.000000,-6.000000,-2.000000,-4.000000,-6.000000
1306459.797012,-7.000000,7.000000,22.000000,-58.000000,-41.000000,-2.000000,-5.000000,-4.000000
1306459.797682,5.000000,5.000000,16.000000,59.000000,34.000000,8.000000,4.000000,5.000000
1306459.797690,-3.000000,-2.000000,57.000000,-3.000000,9.000000,-2.000000,-5.000000,-4.000000
1306459.799305,-3.000000,1.000000,-11.000000,-1.000000,-10.000000,-2.000000,-4.000000,-4.000000
1306459.799314,-2.000000,0.000000,-6.000000,-16.000000,-4.000000,-2.000000,-4.000000,0.000000
1306459.804459,-4.000000,0.000000,38.000000,3.000000,1.000000,7.000000,3.000000,1.000000
1306459.804472,-13.000000,-6.000000,-13.000000,-35.000000,-2.000000,-5.000000,-11.000000,-19.000000
1306459.834250,14.000000,2.000000,16.000000,20.000000,5.000000,7.000000,10.000000,11.000000
1306459.834270,20.000000,9.000000,-5.000000,55.000000,30.000000,4.000000,1.000000,11.000000
1306459.841591,-8.000000,-4.000000,-5.000000,-24.000000,-15.000000,-9.000000,-5.000000,-7.000000
1306459.841601,-7.000000,-9.000000,-1.000000,16.000000,-7.000000,0.000000,-4.000000,-8.000000
1306459.864192,-9.000000,-2.000000,-3.000000,5.000000,26.000000,-2.000000,-4.000000,-10.000000
1306459.864203,0.000000,-5.000000,-6.000000,-21.000000,-36.000000,-2.000000,3.000000,3.000000
1306459.871679,15.000000,-1.000000,0.000000,51.000000,24.000000,3.000000,9.000000,9.000000
1306459.871690,-3.000000,-7.000000,-5.000000,-10.000000,-4.000000,-2.000000,-3.000000,-3.000000
1306459.901887,-4.000000,4.000000,-7.000000,-26.000000,-23.000000,0.000000,-5.000000,-7.000000
1306459.901899,0.000000,0.000000,35.000000,-1.000000,2.000000,1.000000,-1.000000,-2.000000
1306459.902396,15.000000,-6.000000,-18.000000,-18.000000,3.000000,-10.000000,-7.000000,-4.000000
1306459.902404,4.000000,6.000000,9.000000,46.000000,-8.000000,5.000000,3.000000,4.000000
1306459.903298,2.000000,-1.000000,-10.000000,-20.000000,10.000000,5.000000,1.000000,6.000000
1306459.903305,-14.000000,-17.000000,-19.000000,-76.000000,-38.000000,-15.000000,-6.000000,-15.000000
1306459.903892,44.000000,24.000000,38.000000,127.000000,98.000000,32.000000,27.000000,44.000000
1306459.903899,-17.000000,-5.000000,25.000000,-26.000000,-14.000000,-7.000000,-9.000000,-14.000000
1306459.905960,5.000000,-1.000000,-57.000000,-15.000000,-13.000000,-3.000000,1.000000,0.000000
1306459.905971,-14.000000,-3.000000,53.000000,-11.000000,-13.000000,-4.000000,-5.000000,-10.000000
1306459.917318,3.000000,5.000000,1.000000,-16.000000,6.000000,7.000000,4.000000,0.000000
1306459.917353,5.000000,17.000000,10.000000,88.000000,27.000000,10.000000,3.000000,1.000000
1306459.924141,1.000000,-9.000000,-20.000000,-31.000000,-32.000000,-10.000000,-3.000000,-1.000000
1306459.924150,2.000000,1.000000,-19.000000,-15.000000,42.000000,18.000000,6.000000,1.000000
1306459.946890,-16.000000,-11.000000,23.000000,3.000000,-36.000000,-25.000000,-12.000000,-9.000000
1306459.946901,8.000000,10.000000,4.000000,68.000000,17.000000,8.000000,0.000000,-1.000000
1306459.962046,-17.000000,-11.000000,-11.000000,8.000000,5.000000,-5.000000,-4.000000,-11.000000
1306459.962095,16.000000,3.000000,-7.000000,-59.000000,-15.000000,-5.000000,1.000000,8.000000
1306459.984109,1.000000,-3.000000,6.000000,38.000000,6.000000,0.000000,0.000000,2.000000
1306459.984138,-7.000000,1.000000,-17.000000,-12.000000,-6.000000,-3.000000,-7.000000,-10.000000
1306459.999332,-26.000000,-7.000000,19.000000,-14.000000,-10.000000,1.000000,-1.000000,-2.000000
1306459.999342,6.000000,4.000000,-18.000000,-21.000000,1.000000,0.000000,-2.000000,-2.000000
1306460.028982,-2.000000,2.000000,29.000000,28.000000,5.000000,1.000000,1.000000,3.000000
1306460.028991,-6.000000,-8.000000,8.000000,0.000000,6.000000,0.000000,-3.000000,-5.000000
1306460.029718,12.000000,-4.000000,-19.000000,-44.000000,-23.000000,2.000000,7.000000,11.000000
1306460.029725,7.000000,2.000000,-11.000000,19.000000,32.000000,3.000000,-1.000000,2.000000
1306460.030766,-9.000000,-13.000000,35.000000,-12.000000,-15.000000,-7.000000,-4.000000,-7.000000
1306460.030776,-4.000000,-6.000000,-55.000000,-47.000000,-6.000000,2.000000,-5.000000,-6.000000
1306460.031526,11.000000,13.000000,26.000000,-4.000000,-3.000000,5.000000,0.000000,7.000000
1306460.031536,-4.000000,-5.000000,-26.000000,-8.000000,6.000000,0.000000,-3.000000,-5.000000
1306460.059328,-1.000000,-9.000000,-19.000000,9.000000,3.000000,3.000000,-3.000000,-7.000000
1306460.059339,1.000000,-2.000000,-1.000000,-20.000000,-11.000000,-5.000000,4.000000,4.000000
1306460.097324,18.000000,12.000000,2.000000,-7.000000,-8.000000,-2.000000,-3.000000,0.000000
1306460.097336,3.000000,-7.000000,3.000000,-7.000000,1.000000,0.000000,0.000000,3.000000
1306460.119216,-1.000000,-5.000000,-3.000000,-31.000000,-17.000000,-11.000000,-1.000000,-6.000000
1306460.119226,-25.000000,-2.000000,11.000000,36.000000,2.000000,0.000000,-2.000000,-11.000000
1306460.120130,26.000000,1.000000,-18.000000,-18.000000,-15.000000,-7.000000,3.000000,12.000000
1306460.120139,-11.000000,-12.000000,-32.000000,-14.000000,3.000000,-8.000000,-9.000000,-7.000000
1306460.120959,-18.000000,-4.000000,7.000000,-16.000000,7.000000,4.000000,-5.000000,-11.000000
1306460.120975,22.000000,4.000000,0.000000,9.000000,2.000000,2.000000,12.000000,17.000000
1306460.122170,-8.000000,6.000000,-2.000000,56.000000,2.000000,1.000000,-6.000000,-4.000000
1306460.122178,-6.000000,-10.000000,-4.000000,-41.000000,-21.000000,-3.000000,-9.000000,-6.000000
1306460.134859,2.000000,-2.000000,-34.000000,15.000000,-2.000000,0.000000,-5.000000,-5.000000
1306460.134868,10.000000,4.000000,11.000000,-13.000000,8.000000,2.000000,1.000000,4.000000
1306460.141659,-5.000000,-2.000000,-4.000000,14.000000,1.000000,1.000000,-1.000000,-2.000000
1306460.141668,-13.000000,7.000000,23.000000,9.000000,3.000000,-1.000000,-2.000000,-2.000000
1306460.157339,10.000000,-3.000000,-7.000000,-24.000000,-17.000000,-6.000000,3.000000,4.000000
1306460.157357,12.000000,-2.000000,-3.000000,-21.000000,-16.000000,5.000000,8.000000,11.000000
1306460.179456,-5.000000,4.000000,-5.000000,56.000000,25.000000,4.000000,2.000000,-4.000000
1306460.179467,-3.000000,-4.000000,-21.000000,-21.000000,-6.000000,-10.000000,-6.000000,-6.000000
1306460.201689,-6.000000,-4.000000,-6.000000,-18.000000,-18.000000,-7.000000,-6.000000,-7.000000
1306460.201699,0.000000,-8.000000,-16.000000,-37.000000,-19.000000,-2.000000,0.000000,2.000000
1306460.209390,8.000000,5.000000,15.000000,27.000000,35.000000,5.000000,5.000000,4.000000
1306460.209407,-13.000000,-5.000000,-10.000000,-12.000000,-5.000000,-3.000000,-7.000000,-8.000000
1306460.224569,-40.000000,-8.000000,-14.000000,-9.000000,2.000000,0.000000,-5.000000,-15.000000
1306460.224580,46.000000,7.000000,8.000000,11.000000,5.000000,5.000000,9.000000,22.000000
1306460.224888,4.000000,11.000000,36.000000,3.000000,-28.000000,0.000000,1.000000,-3.000000
1306460.224896,-12.000000,-7.000000,5.000000,60.000000,39.000000,9.000000,-2.000000,-7.000000
1306460.239107,-12.000000,-2.000000,-10.000000,-25.000000,-15.000000,-3.000000,-4.000000,-7.000000
1306460.239118,3.000000,7.000000,-14.000000,-23.000000,8.000000,1.000000,1.000000,4.000000
1306460.239663,-4.000000,0.000000,19.000000,-5.000000,-17.000000,-1.000000,-1.000000,-2.000000
1306460.239672,-1.000000,-12.000000,-33.000000,-5.000000,-20.000000,-4.000000,2.000000,-3.000000
1306460.241164,-3.000000,-5.000000,-4.000000,-20.000000,-12.000000,1.000000,-3.000000,-6.000000
1306460.241173,5.000000,3.000000,9.000000,-4.000000,3.000000,0.000000,4.000000,6.000000
1306460.254202,0.000000,-7.000000,2.000000,-16.000000,2.000000,4.000000,3.000000,0.000000
1306460.254221,-2.000000,-3.000000,-10.000000,-9.000000,-4.000000,1.000000,1.000000,-1.000000
1306460.255345,5.000000,0.000000,6.000000,-8.000000,-11.000000,0.000000,3.000000,7.000000
1306460.255354,-8.000000,-7.000000,7.000000,8.000000,-7.000000,-3.000000,-4.000000,-8.000000
1306460.261502,-9.000000,7.000000,6.000000,42.000000,19.000000,9.000000,0.000000,-2.000000
1306460.261511,33.000000,1.000000,-10.000000,-14.000000,-10.000000,-3.000000,0.000000,4.000000
1306460.277456,-16.000000,-7.000000,-23.000000,-35.000000,-8.000000,-4.000000,-7.000000,-12.000000
1306460.277466,-3.000000,-6.000000,34.000000,19.000000,5.000000,1.000000,-4.000000,0.000000
1306460.291686,10.000000,9.000000,-6.000000,80.000000,56.000000,11.000000,8.000000,15.000000
1306460.291704,2.000000,-1.000000,19.000000,-30.000000,-16.000000,-3.000000,0.000000,8.000000
1306460.306610,-13.000000,-9.000000,-40.000000,-16.000000,-9.000000,-5.000000,-7.000000,-11.000000
1306460.306620,-2.000000,-2.000000,1.000000,-1.000000,11.000000,-1.000000,-4.000000,-2.000000
1306460.314664,-27.000000,0.000000,0.000000,-13.000000,-2.000000,2.000000,3.000000,2.000000
1306460.314675,11.000000,-4.000000,-1.000000,1.000000,-5.000000,-2.000000,0.000000,-1.000000
1306460.351649,2.000000,6.000000,10.000000,12.000000,-6.000000,1.000000,2.000000,0.000000
1306460.351663,-8.000000,9.000000,15.000000,40.000000,19.000000,6.000000,-1.000000,-1.000000
1306460.359104,7.000000,2.000000,-12.000000,-2.000000,-3.000000,-6.000000,0.000000,3.000000
1306460.359113,-7.000000,-13.000000,5.000000,18.000000,-5.000000,-6.000000,-5.000000,-7.000000
1306460.396568,-7.000000,-3.000000,-28.000000,14.000000,17.000000,2.000000,-2.000000,-1.000000
1306460.396585,-3.000000,1.000000,5.000000,-12.000000,-13.000000,-5.000000,-2.000000,0.000000
1306460.397086,4.000000,-1.000000,14.000000,-14.000000,-3.000000,-4.000000,1.000000,7.000000
1306460.397103,-8.000000,8.000000,33.000000,12.000000,7.000000,-4.000000,-4.000000,-6.000000
1306460.398264,11.000000,4.000000,-68.000000,-11.000000,-10.000000,8.000000,2.000000,8.000000
1306460.398273,-4.000000,-1.000000,28.000000,-3.000000,7.000000,-4.000000,0.000000,-5.000000
1306460.398896,-5.000000,-9.000000,13.000000,-33.000000,-6.000000,-4.000000,-4.000000,-4.000000
1306460.398914,-9.000000,9.000000,1.000000,47.000000,-6.000000,2.000000,-9.000000,-11.000000
1306460.411883,-2.000000,0.000000,-12.000000,-25.000000,-9.000000,-6.000000,-7.000000,-7.000000
1306460.411895,9.000000,-7.000000,-10.000000,-17.000000,26.000000,9.000000,8.000000,12.000000
1306460.434198,-8.000000,4.000000,5.000000,39.000000,18.000000,2.000000,2.000000,-3.000000
1306460.434216,3.000000,4.000000,1.000000,-1.000000,0.000000,5.000000,1.000000,-2.000000
1306460.456888,-4.000000,1.000000,-13.000000,-5.000000,-20.000000,-13.000000,-6.000000,-4.000000
1306460.456899,1.000000,-3.000000,-9.000000,-48.000000,-6.000000,2.000000,2.000000,2.000000
1306460.464767,0.000000,10.000000,38.000000,82.000000,34.000000,10.000000,5.000000,5.000000
1306460.464778,18.000000,1.000000,-32.000000,21.000000,1.000000,-1.000000,1.000000,0.000000
1306460.471625,0.000000,-6.000000,-11.000000,-13.000000,-15.000000,-6.000000,-1.000000,-1.000000
1306460.471637,4.000000,2.000000,7.000000,-17.000000,-5.000000,-1.000000,3.000000,4.000000
1306460.472817,-9.000000,-2.000000,-13.000000,-20.000000,-3.000000,-10.000000,-8.000000,-6.000000
1306460.472828,-4.000000,-3.000000,-1.000000,4.000000,-5.000000,1.000000,2.000000,-2.000000
1306460.473399,-1.000000,3.000000,12.000000,7.000000,9.000000,1.000000,-6.000000,-4.000000
1306460.473410,-10.000000,7.000000,-4.000000,-7.000000,9.000000,-3.000000,-7.000000,-6.000000
1306460.475106,16.000000,8.000000,28.000000,55.000000,7.000000,8.000000,6.000000,16.000000
1306460.475117,1.000000,-10.000000,-4.000000,23.000000,5.000000,-7.000000,-1.000000,1.000000
1306460.494243,-6.000000,3.000000,19.000000,6.000000,-9.000000,-4.000000,-5.000000,-6.000000
1306460.494257,-4.000000,0.000000,-12.000000,-5.000000,2.000000,1.000000,-5.000000,-3.000000
1306460.495334,0.000000,-8.000000,-7.000000,-14.000000,-6.000000,-4.000000,-2.000000,1.000000
1306460.495361,-4.000000,3.000000,14.000000,-1.000000,4.000000,0.000000,-3.000000,-6.000000
1306460.516632,8.000000,3.000000,-11.000000,-35.000000,-12.000000,-3.000000,-2.000000,-1.000000
1306460.516643,-11.000000,-1.000000,-3.000000,46.000000,11.000000,-3.000000,-3.000000,-5.000000
1306460.517983,-9.000000,3.000000,33.000000,-26.000000,-3.000000,-5.000000,-5.000000,-6.000000
1306460.517993,52.000000,32.000000,7.000000,127.000000,120.000000,31.000000,24.000000,35.000000
1306460.531910,-10.000000,-12.000000,10.000000,-21.000000,-12.000000,-12.000000,-12.000000,-10.000000
1306460.531974,-6.000000,-4.000000,-1.000000,-28.000000,-10.000000,-5.000000,-3.000000,-7.000000
1306460.554516,-7.000000,5.000000,-6.000000,-12.000000,-2.000000,0.000000,-2.000000,-4.000000
1306460.554529,-7.000000,0.000000,-1.000000,-7.000000,-5.000000,0.000000,-1.000000,-5.000000
1306460.576763,-4.000000,-11.000000,-6.000000,-7.000000,-8.000000,-6.000000,0.000000,-3.000000
1306460.576782,0.000000,4.000000,-2.000000,3.000000,2.000000,4.000000,-1.000000,1.000000
1306460.614552,-27.000000,1.000000,4.000000,0.000000,-3.000000,-10.000000,-12.000000,-17.000000
1306460.614603,7.000000,-6.000000,-25.000000,-57.000000,-16.000000,-3.000000,5.000000,3.000000
1306460.629208,17.000000,9.000000,24.000000,47.000000,-21.000000,11.000000,18.000000,22.000000
1306460.629217,6.000000,11.000000,29.000000,108.000000,55.000000,7.000000,2.000000,4.000000
1306460.636982,-10.000000,-11.000000,15.000000,-32.000000,-10.000000,-11.000000,-9.000000,-9.000000
1306460.637005,-13.000000,-4.000000,-7.000000,-27.000000,-13.000000,-4.000000,-5.000000,-11.000000
1306460.637561,-9.000000,5.000000,-2.000000,-14.000000,-5.000000,-3.000000,-7.000000,-7.000000
1306460.637583,-4.000000,-1.000000,-3.000000,-8.000000,2.000000,0.000000,-2.000000,-3.000000
1306460.638847,0.000000,3.000000,-1.000000,12.000000,7.000000,7.000000,1.000000,0.000000
1306460.638855,1.000000,-5.000000,-18.000000,-53.000000,-23.000000,-9.000000,-4.000000,0.000000
1306460.651900,-3.000000,-5.000000,-1.000000,12.000000,5.000000,-1.000000,-1.000000,-3.000000
1306460.651911,-4.000000,-1.000000,5.000000,-2.000000,8.000000,0.000000,-3.000000,-6.000000
1306460.689288,2.000000,3.000000,-1.000000,-3.000000,0.000000,0.000000,1.000000,4.000000
1306460.689298,-12.000000,-13.000000,-18.000000,-40.000000,-1.000000,-4.000000,-7.000000,-10.000000
1306460.704137,-14.000000,2.000000,-9.000000,-9.000000,-21.000000,2.000000,2.000000,-8.000000
1306460.704147,58.000000,30.000000,57.000000,95.000000,34.000000,23.000000,21.000000,39.000000
1306460.711990,-13.000000,-25.000000,-35.000000,-48.000000,-25.000000,-15.000000,-6.000000,-8.000000
1306460.712013,-11.000000,-2.000000,-7.000000,-28.000000,-13.000000,-8.000000,-7.000000,-8.000000
1306460.712712,-7.000000,7.000000,-4.000000,-7.000000,1.000000,4.000000,-6.000000,-5.000000
1306460.712720,9.000000,-9.000000,-9.000000,-23.000000,-12.000000,-12.000000,-4.000000,-1.000000
1306460.714100,-2.000000,-2.000000,9.000000,25.000000,5.000000,4.000000,-2.000000,-2.000000
1306460.714110,-4.000000,0.000000,1.000000,-1.000000,2.000000,-1.000000,0.000000,-3.000000
1306460.715681,40.000000,37.000000,66.000000,71.000000,23.000000,15.000000,17.000000,31.000000
1306460.715712,-12.000000,-25.000000,-77.000000,-41.000000,-25.000000,-8.000000,-9.000000,-12.000000
1306460.734584,-13.000000,-6.000000,-8.000000,-1.000000,-11.000000,-6.000000,-8.000000,-12.000000
1306460.734697,3.000000,-2.000000,-5.000000,-30.000000,-11.000000,-4.000000,-3.000000,-2.000000
1306460.735685,2.000000,6.000000,0.000000,-5.000000,-16.000000,-1.000000,-4.000000,1.000000
1306460.735693,-7.000000,-4.000000,-2.000000,7.000000,1.000000,-5.000000,-5.000000,-6.000000
1306460.741881,-11.000000,-12.000000,-8.000000,-23.000000,-25.000000,-10.000000,-1.000000,-6.000000
1306460.741892,-13.000000,0.000000,2.000000,13.000000,17.000000,-1.000000,-8.000000,-13.000000
1306460.756757,-31.000000,-6.000000,-32.000000,-61.000000,-22.000000,0.000000,4.000000,2.000000
1306460.756778,36.000000,13.000000,26.000000,22.000000,-38.000000,8.000000,11.000000,19.000000
1306460.786959,-18.000000,-22.000000,6.000000,-38.000000,-10.000000,-10.000000,-5.000000,-11.000000
1306460.786972,-13.000000,6.000000,1.000000,21.000000,-9.000000,-3.000000,-9.000000,-11.000000
1306460.809255,7.000000,-1.000000,-5.000000,-25.000000,-6.000000,-3.000000,0.000000,3.000000
1306460.809267,-3.000000,-5.000000,3.000000,-11.000000,-2.000000,-6.000000,-5.000000,-6.000000
1306460.816617,-1.000000,7.000000,-3.000000,-7.000000,-7.000000,0.000000,-3.000000,-1.000000
1306460.816646,-10.000000,-8.000000,-3.000000,8.000000,16.000000,-5.000000,-3.000000,-9.000000
1306460.831745,-4.000000,-14.000000,-18.000000,-23.000000,-37.000000,-13.000000,2.000000,0.000000
1306460.831756,0.000000,8.000000,18.000000,2.000000,-4.000000,-1.000000,-3.000000,-2.000000
1306460.832142,9.000000,0.000000,5.000000,14.000000,-4.000000,0.000000,1.000000,3.000000
1306460.832155,12.000000,-9.000000,-6.000000,-18.000000,4.000000,-2.000000,2.000000,4.000000
1306460.833374,-8.000000,-8.000000,4.000000,-19.000000,-12.000000,-5.000000,-4.000000,-6.000000
1306460.833384,15.000000,13.000000,28.000000,83.000000,0.000000,11.000000,4.000000,4.000000
1306460.834022,4.000000,2.000000,12.000000,19.000000,37.000000,1.000000,-3.000000,-1.000000
1306460.834031,0.000000,-5.000000,-17.000000,-18.000000,-2.000000,3.000000,-3.000000,-3.000000
1306460.854412,-5.000000,-6.000000,-13.000000,-5.000000,5.000000,-4.000000,1.000000,-3.000000
1306460.854424,-4.000000,0.000000,-11.000000,-19.000000,-16.000000,0.000000,15.000000,4.000000
1306460.855527,10.000000,7.000000,21.000000,38.000000,19.000000,7.000000,-19.000000,0.000000
1306460.855537,17.000000,-5.000000,-6.000000,-18.000000,3.000000,-2.000000,17.000000,2.000000
1306460.861791,-6.000000,-5.000000,-21.000000,-50.000000,-16.000000,-13.000000,-2.000000,9.000000
1306460.861803,-11.000000,15.000000,32.000000,62.000000,35.000000,21.000000,7.000000,7.000000
1306460.891967,38.000000,3.000000,4.000000,-4.000000,5.000000,-2.000000,4.000000,6.000000
1306460.891979,-16.000000,-10.000000,-6.000000,-11.000000,-15.000000,-7.000000,-11.000000,-14.000000
1306460.906940,-10.000000,2.000000,7.000000,-7.000000,-8.000000,1.000000,-6.000000,-12.000000
1306460.906952,-11.000000,-1.000000,-6.000000,-1.000000,-9.000000,-4.000000,-5.000000,-6.000000
1306460.951979,-1.000000,-2.000000,4.000000,-16.000000,-18.000000,-6.000000,-5.000000,-4.000000
1306460.952007,7.000000,-4.000000,-11.000000,-17.000000,-9.000000,-2.000000,-1.000000,4.000000
1306460.952473,2.000000,2.000000,6.000000,-4.000000,17.000000,7.000000,5.000000,4.000000
1306460.952483,-18.000000,-8.000000,5.000000,-4.000000,-22.000000,-8.000000,-6.000000,-13.000000
1306460.953445,7.000000,15.000000,6.000000,107.000000,60.000000,13.000000,1.000000,1.000000
1306460.953455,5.000000,-6.000000,-22.000000,-16.000000,-26.000000,-9.000000,-4.000000,6.000000
1306460.954077,-5.000000,-7.000000,8.000000,-27.000000,-27.000000,-6.000000,-4.000000,-1.000000
1306460.954087,-6.000000,-5.000000,-27.000000,-18.000000,0.000000,2.000000,-4.000000,-2.000000
1306460.955642,-3.000000,4.000000,11.000000,-10.000000,-7.000000,-2.000000,-4.000000,-4.000000
1306460.955652,3.000000,-6.000000,-1.000000,-14.000000,0.000000,-3.000000,-2.000000,-3.000000
1306460.966758,25.000000,3.000000,-3.000000,1.000000,6.000000,2.000000,10.000000,19.000000
1306460.966769,9.000000,2.000000,-26.000000,-16.000000,-6.000000,-4.000000,-6.000000,-5.000000
1306460.975723,-30.000000,-18.000000,7.000000,-17.000000,-25.000000,-14.000000,-9.000000,-18.000000
1306460.975746,25.000000,10.000000,-16.000000,-5.000000,4.000000,3.000000,3.000000,6.000000
1306460.981752,-2.000000,5.000000,11.000000,42.000000,2.000000,-2.000000,2.000000,-1.000000
1306460.981781,-10.000000,-9.000000,-42.000000,-36.000000,-18.000000,-10.000000,-9.000000,-5.000000
1306461.011976,1.000000,2.000000,1.000000,18.000000,23.000000,7.000000,-1.000000,-1.000000
1306461.011989,-6.000000,0.000000,1.000000,-10.000000,-25.000000,-8.000000,-4.000000,-9.000000
1306461.026977,10.000000,4.000000,4.000000,33.000000,44.000000,11.000000,5.000000,10.000000
1306461.026989,0.000000,-12.000000,17.000000,-19.000000,-7.000000,-4.000000,-1.000000,0.000000
1306461.050621,7.000000,-1.000000,-27.000000,10.000000,-2.000000,0.000000,2.000000,-3.000000
1306461.050762,-12.000000,-2.000000,-6.000000,-22.000000,-14.000000,-6.000000,-7.000000,-6.000000
1306461.072677,6.000000,-2.000000,5.000000,20.000000,29.000000,3.000000,-1.000000,0.000000
1306461.072703,10.000000,6.000000,1.000000,14.000000,10.000000,9.000000,11.000000,8.000000
1306461.087552,-8.000000,5.000000,16.000000,13.000000,2.000000,-4.000000,-6.000000,-5.000000
1306461.087578,-9.000000,-2.000000,-37.000000,-1.000000,-11.000000,-6.000000,-4.000000,-7.000000
1306461.088033,-1.000000,-9.000000,-3.000000,-34.000000,-14.000000,-4.000000,0.000000,-2.000000
1306461.088048,-5.000000,-1.000000,-7.000000,-41.000000,-27.000000,-5.000000,-3.000000,-4.000000
1306461.089313,-1.000000,6.000000,9.000000,28.000000,23.000000,-3.000000,-4.000000,-1.000000
1306461.089335,-12.000000,-14.000000,-10.000000,-5.000000,11.000000,-7.000000,-1.000000,-10.000000
1306461.089864,9.000000,-2.000000,-16.000000,-20.000000,-8.000000,-1.000000,4.000000,10.000000
1306461.089878,1.000000,8.000000,11.000000,46.000000,7.000000,1.000000,-2.000000,2.000000
1306461.090734,3.000000,6.000000,-3.000000,-27.000000,-6.000000,1.000000,-5.000000,-3.000000
1306461.090761,-5.000000,2.000000,23.000000,15.000000,-7.000000,-4.000000,1.000000,2.000000
1306461.094891,0.000000,-3.000000,-3.000000,2.000000,-7.000000,-4.000000,-6.000000,-6.000000
1306461.094919,-7.000000,2.000000,-1.000000,-7.000000,-13.000000,-5.000000,-3.000000,-8.000000
1306461.109107,-1.000000,-1.000000,-1.000000,7.000000,20.000000,3.000000,2.000000,1.000000
1306461.109129,5.000000,-12.000000,-31.000000,-17.000000,-6.000000,-8.000000,-4.000000,2.000000
1306461.131712,-15.000000,-13.000000,3.000000,3.000000,7.000000,-5.000000,-6.000000,-6.000000
1306461.131728,0.000000,5.000000,-5.000000,-7.000000,-5.000000,0.000000,-1.000000,-2.000000
1306461.139416,-2.000000,-4.000000,3.000000,-5.000000,-6.000000,-5.000000,-4.000000,-2.000000
1306461.139436,9.000000,-3.000000,-13.000000,-1.000000,1.000000,-2.000000,-1.000000,0.000000
1306461.169517,17.000000,5.000000,0.000000,-21.000000,-9.000000,4.000000,6.000000,14.000000
1306461.169527,-15.000000,6.000000,17.000000,52.000000,17.000000,1.000000,-6.000000,-8.000000
1306461.184340,-4.000000,-7.000000,-11.000000,-38.000000,17.000000,1.000000,-2.000000,-8.000000
1306461.184351,6.000000,13.000000,35.000000,113.000000,16.000000,5.000000,1.000000,6.000000
1306461.206746,-13.000000,-5.000000,-17.000000,-29.000000,-9.000000,-6.000000,-7.000000,-8.000000
1306461.206757,6.000000,1.000000,5.000000,-7.000000,8.000000,1.000000,1.000000,3.000000
1306461.229488,7.000000,-2.000000,-17.000000,-31.000000,-1.000000,0.000000,3.000000,0.000000
1306461.229500,-8.000000,0.000000,9.000000,-7.000000,-1.000000,-2.000000,-6.000000,-10.000000
1306461.244093,-18.000000,-6.000000,5.000000,19.000000,-8.000000,-4.000000,-1.000000,-4.000000
1306461.244102,20.000000,-6.000000,7.000000,-10.000000,-7.000000,-5.000000,-2.000000,3.000000
1306461.251612,4.000000,6.000000,6.000000,33.000000,9.000000,2.000000,2.000000,2.000000
1306461.251622,-7.000000,-5.000000,-3.000000,-27.000000,-13.000000,-2.000000,-5.000000,-5.000000
1306461.266965,0.000000,-4.000000,-10.000000,-18.000000,-12.000000,-3.000000,1.000000,1.000000
1306461.266978,-10.000000,1.000000,7.000000,-29.000000,-12.000000,-4.000000,0.000000,-5.000000
1306461.289293,-1.000000,-14.000000,-38.000000,-25.000000,-12.000000,-4.000000,-6.000000,-4.000000
1306461.289309,-13.000000,-12.000000,3.000000,-6.000000,-10.000000,-1.000000,-1.000000,-4.000000
1306461.296583,-11.000000,-10.000000,7.000000,-24.000000,-10.000000,-1.000000,2.000000,-7.000000
1306461.296606,0.000000,0.000000,8.000000,37.000000,-17.000000,-2.000000,1.000000,0.000000
1306461.297169,22.000000,12.000000,26.000000,4.000000,21.000000,7.000000,13.000000,20.000000
1306461.297181,-5.000000,5.000000,4.000000,3.000000,10.000000,0.000000,-4.000000,-6.000000
1306461.298303,-6.000000,-13.000000,-6.000000,34.000000,10.000000,-2.000000,-7.000000,-6.000000
1306461.298320,-14.000000,-5.000000,-38.000000,-21.000000,-4.000000,-3.000000,-4.000000,-6.000000
1306461.299061,3.000000,2.000000,3.000000,25.000000,0.000000,1.000000,2.000000,0.000000
1306461.299078,-9.000000,-13.000000,-10.000000,-30.000000,-13.000000,-6.000000,-5.000000,-7.000000
1306461.299867,-7.000000,-2.000000,7.000000,-3.000000,-8.000000,-3.000000,-1.000000,-4.000000
1306461.299876,4.000000,4.000000,-20.000000,52.000000,37.000000,3.000000,-1.000000,1.000000
1306461.304198,7.000000,2.000000,11.000000,-14.000000,11.000000,-4.000000,-1.000000,1.000000
1306461.304212,-9.000000,-12.000000,-2.000000,-6.000000,-6.000000,-5.000000,-4.000000,-7.000000
1306461.326628,12.000000,11.000000,17.000000,53.000000,23.000000,15.000000,8.000000,7.000000
1306461.326639,-6.000000,-7.000000,-12.000000,-10.000000,-22.000000,-17.000000,-4.000000,-3.000000
1306461.327263,-7.000000,0.000000,28.000000,-26.000000,8.000000,10.000000,10.000000,12.000000
1306461.327272,-3.000000,-5.000000,-67.000000,-14.000000,-5.000000,-6.000000,-2.000000,-11.000000
1306461.334794,-5.000000,-3.000000,-10.000000,-7.000000,-7.000000,-4.000000,1.000000,-3.000000
1306461.334803,-4.000000,-3.000000,1.000000,-21.000000,-14.000000,-6.000000,-6.000000,1.000000
1306461.349084,-4.000000,-3.000000,7.000000,21.000000,-13.000000,2.000000,-3.000000,-6.000000
1306461.349094,-6.000000,-3.000000,-18.000000,-63.000000,-15.000000,0.000000,-4.000000,-3.000000
1306461.364332,-8.000000,-5.000000,2.000000,37.000000,-21.000000,-3.000000,0.000000,-1.000000
1306461.364341,0.000000,-2.000000,8.000000,-14.000000,-3.000000,-1.000000,0.000000,0.000000
1306461.372093,-8.000000,1.000000,3.000000,-11.000000,-17.000000,-14.000000,-4.000000,-1.000000
1306461.372107,-1.000000,-5.000000,-17.000000,-26.000000,-12.000000,-4.000000,-2.000000,-8.000000
1306461.409422,13.000000,0.000000,-10.000000,10.000000,4.000000,2.000000,9.000000,17.000000
1306461.409434,-10.000000,-7.000000,30.000000,-10.000000,-3.000000,-5.000000,-8.000000,-6.000000
1306461.416942,-8.000000,4.000000,-16.000000,-35.000000,-22.000000,3.000000,-1.000000,-5.000000
1306461.416955,3.000000,-1.000000,-18.000000,9.000000,-1.000000,0.000000,-2.000000,0.000000
1306461.446715,-8.000000,-11.000000,27.000000,-4.000000,5.000000,-5.000000,-8.000000,-9.000000
1306461.446724,-10.000000,-2.000000,-11.000000,-16.000000,-6.000000,-8.000000,-5.000000,-7.000000
1306461.447298,4.000000,2.000000,13.000000,-19.000000,-26.000000,3.000000,1.000000,5.000000
1306461.447309,-3.000000,-4.000000,-7.000000,-20.000000,-12.000000,-6.000000,-2.000000,-5.000000
1306461.448626,2.000000,7.000000,0.000000,-1.000000,15.000000,1.000000,1.000000,-1.000000
1306461.448654,-1.000000,2.000000,33.000000,36.000000,-9.000000,4.000000,4.000000,1.000000
1306461.449210,1.000000,-10.000000,-17.000000,7.000000,6.000000,-3.000000,-2.000000,-1.000000
1306461.449218,-6.000000,-4.000000,-7.000000,-65.000000,-16.000000,2.000000,0.000000,3.000000
1306461.450952,2.000000,15.000000,16.000000,66.000000,50.000000,13.000000,5.000000,3.000000
1306461.450963,-6.000000,-7.000000,11.000000,-9.000000,-25.000000,-11.000000,-3.000000,-2.000000
1306461.462419,3.000000,2.000000,25.000000,26.000000,2.000000,0.000000,-1.000000,1.000000
1306461.462429,-7.000000,-5.000000,-6.000000,-9.000000,-23.000000,-8.000000,2.000000,0.000000
1306461.469577,-4.000000,-5.000000,-25.000000,-35.000000,-21.000000,-1.000000,4.000000,0.000000
1306461.469606,-5.000000,-1.000000,12.000000,11.000000,-5.000000,0.000000,-2.000000,-3.000000
1306461.484208,4.000000,-2.000000,2.000000,-12.000000,0.000000,-6.000000,-3.000000,-4.000000
1306461.484269,-2.000000,-10.000000,-13.000000,-29.000000,-13.000000,-6.000000,-1.000000,-1.000000
1306461.506887,6.000000,8.000000,-22.000000,-2.000000,5.000000,3.000000,2.000000,7.000000
1306461.506898,-5.000000,-9.000000,-4.000000,-12.000000,-14.000000,-3.000000,0.000000,0.000000
1306461.529402,-7.000000,-5.000000,8.000000,3.000000,1.000000,1.000000,-3.000000,-8.000000
1306461.529422,-2.000000,8.000000,7.000000,-21.000000,-11.000000,-2.000000,2.000000,5.000000
1306461.536869,14.000000,-1.000000,-25.000000,13.000000,4.000000,2.000000,4.000000,8.000000
1306461.536979,1.000000,-5.000000,-9.000000,-15.000000,-12.000000,-6.000000,-5.000000,-7.000000
1306461.537706,0.000000,6.000000,-2.000000,-13.000000,-12.000000,4.000000,-2.000000,7.000000
1306461.537716,-2.000000,-2.000000,0.000000,-18.000000,-9.000000,-2.000000,-3.000000,1.000000
1306461.538634,-3.000000,-7.000000,3.000000,-12.000000,2.000000,-9.000000,-3.000000,-5.000000
1306461.538650,-4.000000,2.000000,-5.000000,18.000000,6.000000,2.000000,0.000000,-6.000000
1306461.539975,-2.000000,1.000000,50.000000,2.000000,-6.000000,-2.000000,-2.000000,-1.000000
1306461.540003,6.000000,-6.000000,-64.000000,28.000000,27.000000,4.000000,0.000000,4.000000
1306461.544426,-11.000000,-4.000000,24.000000,-11.000000,-5.000000,-1.000000,0.000000,-8.000000
1306461.544437,2.000000,6.000000,-23.000000,-11.000000,1.000000,2.000000,-1.000000,3.000000
1306461.567099,-1.000000,-4.000000,23.000000,-13.000000,-7.000000,-1.000000,-3.000000,-4.000000
1306461.567116,2.000000,-4.000000,-10.000000,18.000000,-9.000000,-1.000000,3.000000,6.000000
1306461.568088,-9.000000,2.000000,-11.000000,3.000000,15.000000,0.000000,-7.000000,-8.000000
1306461.568105,2.000000,-1.000000,10.000000,-35.000000,-9.000000,3.000000,0.000000,1.000000
1306461.581560,2.000000,-11.000000,-6.000000,20.000000,4.000000,-1.000000,4.000000,3.000000
1306461.581577,-8.000000,-1.000000,2.000000,4.000000,-2.000000,0.000000,-7.000000,-9.000000
1306461.588986,-2.000000,2.000000,-31.000000,-12.000000,-1.000000,-4.000000,-8.000000,-5.000000
1306461.588995,-5.000000,-11.000000,19.000000,-32.000000,-18.000000,-6.000000,-2.000000,2.000000
1306461.604437,12.000000,1.000000,-7.000000,50.000000,28.000000,6.000000,0.000000,0.000000
1306461.604448,-6.000000,-1.000000,-9.000000,-20.000000,-15.000000,-8.000000,-6.000000,-3.000000
1306461.619306,8.000000,8.000000,33.000000,8.000000,21.000000,7.000000,4.000000,8.000000
1306461.619316,-13.000000,-6.000000,-27.000000,-1.000000,9.000000,-3.000000,-7.000000,-8.000000
1306461.641892,6.000000,-1.000000,-13.000000,-23.000000,-22.000000,-4.000000,5.000000,8.000000
1306461.641903,-6.000000,-4.000000,3.000000,-6.000000,-5.000000,-2.000000,-4.000000,-8.000000
1306461.649446,-4.000000,-5.000000,-5.000000,-2.000000,2.000000,-2.000000,-2.000000,-3.000000
1306461.649457,-5.000000,2.000000,-16.000000,-13.000000,-1.000000,2.000000,-5.000000,-6.000000
1306461.665352,3.000000,-9.000000,16.000000,-34.000000,-28.000000,-14.000000,-4.000000,0.000000
1306461.665397,2.000000,11.000000,8.000000,26.000000,-1.000000,14.000000,4.000000,3.000000
1306461.665582,8.000000,5.000000,23.000000,57.000000,29.000000,2.000000,1.000000,3.000000
1306461.665598,-1.000000,0.000000,-20.000000,-46.000000,-20.000000,-6.000000,-3.000000,-1.000000
1306461.666667,5.000000,5.000000,3.000000,6.000000,8.000000,2.000000,0.000000,3.000000
1306461.666677,3.000000,-8.000000,-6.000000,-10.000000,-7.000000,-4.000000,-1.000000,-2.000000
1306461.667423,-4.000000,-3.000000,-1.000000,-17.000000,0.000000,-8.000000,-8.000000,-3.000000
1306461.667430,1.000000,4.000000,3.000000,17.000000,-4.000000,1.000000,-1.000000,0.000000
1306461.687275,1.000000,6.000000,34.000000,30.000000,16.000000,2.000000,9.000000,0.000000
1306461.687285,0.000000,-4.000000,23.000000,-18.000000,-7.000000,-1.000000,0.000000,2.000000
1306461.688044,3.000000,2.000000,-65.000000,12.000000,8.000000,7.000000,1.000000,-1.000000
1306461.688051,9.000000,-2.000000,50.000000,34.000000,-7.000000,0.000000,0.000000,0.000000
1306461.694932,4.000000,2.000000,-4.000000,34.000000,15.000000,3.000000,4.000000,4.000000
1306461.694941,-12.000000,1.000000,-3.000000,-10.000000,-6.000000,0.000000,-5.000000,-6.000000
1306461.724248,0.000000,1.000000,-10.000000,-24.000000,-1.000000,1.000000,-2.000000,3.000000
1306461.724259,-3.000000,-6.000000,-15.000000,-12.000000,-12.000000,-7.000000,-1.000000,3.000000
1306461.746791,2.000000,7.000000,36.000000,22.000000,10.000000,3.000000,-1.000000,0.000000
1306461.746801,-7.000000,-9.000000,-18.000000,36.000000,-12.000000,-8.000000,-4.000000,-2.000000
1306461.761642,-5.000000,-6.000000,-5.000000,-3.000000,6.000000,0.000000,-5.000000,-11.000000
1306461.761652,6.000000,4.000000,-15.000000,-2.000000,13.000000,8.000000,10.000000,7.000000
1306461.784900,3.000000,6.000000,2.000000,0.000000,-2.000000,-1.000000,-3.000000,0.000000
1306461.784911,-1.000000,-11.000000,-16.000000,-13.000000,0.000000,-8.000000,-1.000000,-2.000000
1306461.785431,1.000000,-1.000000,1.000000,-26.000000,-7.000000,0.000000,-4.000000,-5.000000
1306461.785441,-22.000000,-3.000000,-6.000000,51.000000,16.000000,1.000000,-6.000000,-13.000000
1306461.786773,4.000000,0.000000,8.000000,35.000000,-2.000000,2.000000,4.000000,1.000000
1306461.786784,5.000000,3.000000,4.000000,-3.000000,4.000000,-1.000000,1.000000,11.000000
1306461.787301,-3.000000,2.000000,-4.000000,-37.000000,-6.000000,0.000000,1.000000,2.000000
1306461.787311,-5.000000,-8.000000,-14.000000,28.000000,14.000000,3.000000,-1.000000,-3.000000
1306461.788122,-1.000000,-3.000000,-3.000000,-5.000000,6.000000,2.000000,2.000000,-2.000000
1306461.788131,-3.000000,-1.000000,14.000000,-11.000000,1.000000,-4.000000,-4.000000,-5.000000
1306461.799897,-7.000000,-6.000000,-16.000000,27.000000,13.000000,-2.000000,-6.000000,-7.000000
1306461.799906,7.000000,4.000000,16.000000,-38.000000,-10.000000,5.000000,4.000000,2.000000
1306461.806676,3.000000,1.000000,14.000000,18.000000,12.000000,3.000000,10.000000,10.000000
1306461.806687,-11.000000,-13.000000,-10.000000,-37.000000,-14.000000,-2.000000,1.000000,-4.000000
1306461.822625,9.000000,7.000000,-7.000000,-5.000000,12.000000,3.000000,-3.000000,1.000000
1306461.822655,1.000000,-3.000000,24.000000,2.000000,0.000000,0.000000,-3.000000,1.000000
1306461.844363,5.000000,-6.000000,0.000000,-29.000000,-11.000000,-3.000000,1.000000,1.000000
1306461.844373,-13.000000,-3.000000,-7.000000,16.000000,10.000000,0.000000,-5.000000,-9.000000
1306461.859202,6.000000,-3.000000,-2.000000,-20.000000,-8.000000,-1.000000,2.000000,2.000000
1306461.859212,-4.000000,-9.000000,-30.000000,42.000000,19.000000,-1.000000,0.000000,-3.000000
1306461.866675,-9.000000,-7.000000,20.000000,-5.000000,30.000000,-3.000000,-3.000000,-7.000000
1306461.866703,6.000000,9.000000,33.000000,36.000000,39.000000,12.000000,2.000000,4.000000
1306461.904239,14.000000,0.000000,-29.000000,-42.000000,-12.000000,1.000000,4.000000,9.000000
1306461.904250,-4.000000,-2.000000,-11.000000,12.000000,-12.000000,-4.000000,0.000000,-1.000000
1306461.919063,7.000000,4.000000,14.000000,12.000000,-23.000000,2.000000,2.000000,3.000000
1306461.919074,-3.000000,-8.000000,-8.000000,-15.000000,1.000000,0.000000,-1.000000,-6.000000
1306461.920125,-4.000000,-1.000000,-9.000000,-7.000000,-8.000000,-2.000000,-3.000000,-5.000000
1306461.920132,-7.000000,-8.000000,2.000000,-10.000000,-4.000000,-5.000000,-5.000000,-8.000000
1306461.920830,-1.000000,-3.000000,-14.000000,-43.000000,14.000000,-5.000000,-2.000000,1.000000
1306461.920837,8.000000,2.000000,24.000000,89.000000,9.000000,2.000000,2.000000,4.000000
1306461.922134,-9.000000,-7.000000,-27.000000,-22.000000,-10.000000,0.000000,-3.000000,-11.000000
1306461.922142,-11.000000,-1.000000,-16.000000,-31.000000,6.000000,-4.000000,-10.000000,-7.000000
1306461.923168,-7.000000,1.000000,-6.000000,-3.000000,5.000000,-6.000000,-2.000000,-3.000000
1306461.923177,-3.000000,-5.000000,1.000000,-34.000000,-20.000000,-4.000000,-2.000000,1.000000
1306461.926875,11.000000,-1.000000,-13.000000,13.000000,8.000000,4.000000,1.000000,0.000000
1306461.926886,-3.000000,6.000000,13.000000,3.000000,-4.000000,-9.000000,-5.000000,-8.000000
1306461.942326,1.000000,1.000000,5.000000,-13.000000,-11.000000,4.000000,7.000000,7.000000
1306461.942342,0.000000,-3.000000,5.000000,50.000000,31.000000,7.000000,2.000000,3.000000
1306461.964331,1.000000,-4.000000,-28.000000,-37.000000,-16.000000,-7.000000,-2.000000,-3.000000
1306461.964341,-4.000000,-7.000000,17.000000,46.000000,41.000000,6.000000,3.000000,-3.000000
1306461.979253,-7.000000,-6.000000,6.000000,-5.000000,-17.000000,-3.000000,-3.000000,-7.000000
1306461.979263,3.000000,8.000000,-10.000000,12.000000,5.000000,3.000000,3.000000,1.000000
1306461.994342,-5.000000,2.000000,10.000000,10.000000,33.000000,10.000000,2.000000,1.000000
1306461.994363,1.000000,-6.000000,2.000000,8.000000,-25.000000,-7.000000,-1.000000,-1.000000
1306462.016804,1.000000,0.000000,3.000000,-34.000000,-12.000000,-4.000000,1.000000,-2.000000
1306462.016816,6.000000,-1.000000,-14.000000,-2.000000,-4.000000,-10.000000,-6.000000,4.000000
1306462.017380,5.000000,10.000000,33.000000,-8.000000,-3.000000,8.000000,6.000000,3.000000
1306462.017388,-4.000000,-3.000000,-28.000000,37.000000,-1.000000,-3.000000,0.000000,0.000000
1306462.018264,5.000000,1.000000,5.000000,-11.000000,-16.000000,-8.000000,2.000000,5.000000
1306462.018271,-11.000000,-7.000000,-2.000000,-11.000000,-2.000000,-8.000000,-7.000000,-7.000000
1306462.018975,-8.000000,-8.000000,-22.000000,-31.000000,-19.000000,-4.000000,-8.000000,-10.000000
1306462.018983,2.000000,5.000000,22.000000,3.000000,-12.000000,7.000000,2.000000,3.000000
1306462.020945,-7.000000,2.000000,3.000000,-8.000000,-14.000000,-5.000000,-6.000000,-4.000000
1306462.020956,-11.000000,0.000000,-6.000000,9.000000,26.000000,1.000000,-3.000000,-4.000000
1306462.039297,4.000000,-4.000000,-13.000000,-13.000000,-4.000000,0.000000,0.000000,3.000000
1306462.039315,4.000000,0.000000,10.000000,30.000000,-10.000000,-3.000000,1.000000,3.000000
1306462.040514,-3.000000,-5.000000,-4.000000,-47.000000,-16.000000,-3.000000,-3.000000,-3.000000
1306462.040522,-2.000000,-1.000000,13.000000,48.000000,16.000000,-4.000000,-3.000000,-6.000000
1306462.061961,7.000000,-2.000000,-28.000000,-15.000000,12.000000,3.000000,1.000000,4.000000
1306462.061973,1.000000,9.000000,43.000000,9.000000,0.000000,4.000000,0.000000,-2.000000
1306462.062981,-10.000000,-15.000000,-37.000000,-35.000000,-16.000000,-7.000000,-8.000000,-6.000000
1306462.062990,-5.000000,4.000000,3.000000,-10.000000,-5.000000,2.000000,0.000000,-3.000000
1306462.076877,15.000000,9.000000,-11.000000,3.000000,-8.000000,-1.000000,4.000000,15.000000
1306462.076894,-2.000000,-1.000000,-9.000000,-41.000000,9.000000,-4.000000,-5.000000,-2.000000
1306462.099204,-5.000000,8.000000,77.000000,69.000000,5.000000,4.000000,-3.000000,-5.000000
1306462.099215,7.000000,-3.000000,-54.000000,-31.000000,-6.000000,5.000000,4.000000,11.000000
1306462.121780,-1.000000,-3.000000,-20.000000,16.000000,-12.000000,-8.000000,-3.000000,-5.000000
1306462.121792,2.000000,-9.000000,8.000000,-26.000000,-11.000000,2.000000,0.000000,-1.000000
1306462.136941,-15.000000,0.000000,1.000000,-6.000000,9.000000,-5.000000,-8.000000,-7.000000
1306462.136973,-1.000000,-6.000000,-2.000000,-30.000000,-27.000000,-1.000000,6.000000,3.000000
1306462.137384,3.000000,5.000000,5.000000,56.000000,29.000000,10.000000,4.000000,8.000000
1306462.137410,-4.000000,2.000000,6.000000,-3.000000,-1.000000,-5.000000,-5.000000,-4.000000
1306462.138464,-3.000000,5.000000,15.000000,-7.000000,3.000000,1.000000,2.000000,0.000000
1306462.138473,9.000000,1.000000,-11.000000,-6.000000,-13.000000,-8.000000,-4.000000,0.000000
1306462.139072,1.000000,-2.000000,-10.000000,4.000000,9.000000,7.000000,1.000000,0.000000
1306462.139100,-10.000000,0.000000,11.000000,-17.000000,-19.000000,-12.000000,-5.000000,-7.000000
1306462.140061,2.000000,5.000000,3.000000,35.000000,7.000000,5.000000,2.000000,0.000000
1306462.140095,-4.000000,-3.000000,-2.000000,21.000000,35.000000,4.000000,2.000000,-3.000000
1306462.159157,13.000000,3.000000,8.000000,-25.000000,-18.000000,1.000000,3.000000,9.000000
1306462.159186,-8.000000,-4.000000,1.000000,4.000000,-9.000000,-3.000000,-6.000000,-6.000000
1306462.196898,-9.000000,4.000000,3.000000,21.000000,43.000000,9.000000,1.000000,-3.000000
1306462.196908,-9.000000,-9.000000,-28.000000,-27.000000,-22.000000,-12.000000,-8.000000,-12.000000
1306462.204425,7.000000,6.000000,0.000000,-5.000000,2.000000,-1.000000,2.000000,10.000000
1306462.204436,-1.000000,0.000000,24.000000,-43.000000,-22.000000,-10.000000,-1.000000,-7.000000
1306462.241853,0.000000,-1.000000,-17.000000,48.000000,31.000000,-2.000000,-1.000000,0.000000
1306462.241866,-7.000000,-1.000000,13.000000,1.000000,-18.000000,-8.000000,-4.000000,-2.000000
1306462.242351,-5.000000,2.000000,1.000000,-8.000000,-1.000000,-1.000000,-2.000000,1.000000
1306462.242361,-1.000000,-6.000000,-16.000000,-16.000000,-7.000000,-4.000000,-4.000000,-4.000000
1306462.243418,-3.000000,-1.000000,-3.000000,-6.000000,-12.000000,-8.000000,-6.000000,-6.000000
1306462.243429,5.000000,13.000000,8.000000,13.000000,6.000000,4.000000,5.000000,7.000000
1306462.244035,-6.000000,-8.000000,12.000000,-12.000000,-1.000000,-1.000000,-3.000000,-4.000000
1306462.244043,-7.000000,-8.000000,-24.000000,-2.000000,1.000000,-5.000000,-3.000000,-4.000000
1306462.244685,0.000000,3.000000,23.000000,18.000000,7.000000,-2.000000,-6.000000,-7.000000
1306462.244695,-6.000000,-6.000000,10.000000,-41.000000,-3.000000,-9.000000,0.000000,-7.000000
1306462.245499,-12.000000,-9.000000,0.000000,-21.000000,-43.000000,-12.000000,-4.000000,-2.000000
1306462.245512,3.000000,-8.000000,-46.000000,-29.000000,-3.000000,-4.000000,-5.000000,-6.000000
1306462.249429,-1.000000,1.000000,22.000000,44.000000,-8.000000,-5.000000,1.000000,2.000000
1306462.249442,-9.000000,-6.000000,-37.000000,-18.000000,-2.000000,-6.000000,-6.000000,-6.000000
1306462.256982,-8.000000,-8.000000,8.000000,-71.000000,-30.000000,-6.000000,-2.000000,-8.000000
1306462.256995,9.000000,6.000000,-5.000000,33.000000,19.000000,6.000000,6.000000,8.000000
1306462.280360,-11.000000,4.000000,-11.000000,4.000000,-11.000000,-3.000000,-2.000000,-8.000000
1306462.280632,-7.000000,-12.000000,-5.000000,-30.000000,5.000000,-6.000000,-4.000000,-4.000000
1306462.281714,8.000000,3.000000,-3.000000,3.000000,2.000000,-3.000000,-2.000000,-2.000000
1306462.281735,-3.000000,8.000000,19.000000,11.000000,27.000000,2.000000,1.000000,-1.000000
1306462.287316,-7.000000,-9.000000,-7.000000,-32.000000,-34.000000,-9.000000,-4.000000,-4.000000
1306462.287337,0.000000,-4.000000,-39.000000,18.000000,2.000000,0.000000,-3.000000,-5.000000
1306462.317857,-4.000000,3.000000,22.000000,-16.000000,2.000000,0.000000,0.000000,-1.000000
1306462.317905,15.000000,8.000000,5.000000,26.000000,3.000000,4.000000,0.000000,2.000000
1306462.325070,-7.000000,-12.000000,-33.000000,-21.000000,-9.000000,-2.000000,3.000000,-2.000000
1306462.325112,4.000000,4.000000,9.000000,-10.000000,-1.000000,5.000000,2.000000,8.000000
1306462.354450,3.000000,9.000000,3.000000,20.000000,24.000000,1.000000,1.000000,5.000000
1306462.354460,-2.000000,0.000000,-3.000000,-5.000000,1.000000,-4.000000,-1.000000,-2.000000
1306462.361525,2.000000,-8.000000,20.000000,-33.000000,-5.000000,-2.000000,-1.000000,3.000000
1306462.361535,-2.000000,14.000000,-38.000000,46.000000,14.000000,-4.000000,-3.000000,-5.000000
1306462.399202,-4.000000,1.000000,50.000000,5.000000,0.000000,0.000000,-2.000000,-2.000000
1306462.399212,-14.000000,-13.000000,-18.000000,27.000000,3.000000,-10.000000,-10.000000,-14.000000
1306462.414230,7.000000,-11.000000,-14.000000,-59.000000,-36.000000,-2.000000,0.000000,-4.000000
1306462.414244,19.000000,16.000000,17.000000,51.000000,14.000000,4.000000,4.000000,15.000000
1306462.415288,-11.000000,-9.000000,-19.000000,-15.000000,-12.000000,-4.000000,-9.000000,-14.000000
1306462.415325,-10.000000,-1.000000,-3.000000,-17.000000,-5.000000,-2.000000,-4.000000,-8.000000
1306462.415780,-8.000000,-9.000000,-31.000000,-44.000000,-15.000000,-3.000000,-4.000000,-5.000000
1306462.415807,-2.000000,2.000000,14.000000,44.000000,-1.000000,0.000000,-1.000000,-1.000000
1306462.416605,1.000000,-2.000000,25.000000,-12.000000,-4.000000,0.000000,1.000000,5.000000
1306462.416615,5.000000,0.000000,-24.000000,-22.000000,-5.000000,-3.000000,-7.000000,-5.000000
1306462.417400,5.000000,8.000000,21.000000,42.000000,51.000000,16.000000,8.000000,6.000000
1306462.417409,-1.000000,-4.000000,-11.000000,-22.000000,12.000000,10.000000,1.000000,-1.000000
1306462.421646,-5.000000,5.000000,-1.000000,17.000000,3.000000,5.000000,-5.000000,-9.000000
1306462.421660,-3.000000,-6.000000,-33.000000,-20.000000,-11.000000,-5.000000,-3.000000,-2.000000
1306462.436777,5.000000,4.000000,-2.000000,25.000000,38.000000,4.000000,0.000000,-4.000000
1306462.436788,1.000000,1.000000,31.000000,-14.000000,-5.000000,3.000000,3.000000,-2.000000
1306462.474259,-7.000000,-9.000000,-22.000000,-41.000000,-24.000000,-3.000000,-4.000000,-5.000000
1306462.474287,-6.000000,-11.000000,-23.000000,0.000000,-22.000000,-14.000000,-5.000000,-5.000000
1306462.482295,7.000000,-1.000000,-13.000000,-23.000000,-14.000000,2.000000,-3.000000,1.000000
1306462.482304,-4.000000,2.000000,-22.000000,28.000000,24.000000,4.000000,-4.000000,-1.000000
1306462.482813,7.000000,-11.000000,23.000000,-59.000000,-35.000000,-3.000000,5.000000,4.000000
1306462.482824,-8.000000,0.000000,1.000000,-4.000000,8.000000,4.000000,1.000000,-1.000000
1306462.483939,4.000000,6.000000,0.000000,3.000000,-1.000000,-3.000000,-3.000000,-2.000000
1306462.483947,-7.000000,-9.000000,-4.000000,-13.000000,-1.000000,1.000000,0.000000,1.000000
1306462.485093,-5.000000,2.000000,5.000000,-20.000000,-5.000000,3.000000,0.000000,-4.000000
1306462.485103,8.000000,14.000000,7.000000,17.000000,14.000000,6.000000,4.000000,6.000000
1306462.497101,13.000000,-1.000000,-1.000000,-12.000000,-18.000000,-5.000000,3.000000,7.000000
1306462.497120,-15.000000,-12.000000,-26.000000,-17.000000,-1.000000,-9.000000,-9.000000,-19.000000
1306462.519178,0.000000,13.000000,50.000000,101.000000,40.000000,13.000000,5.000000,5.000000
1306462.519207,7.000000,4.000000,26.000000,-6.000000,-21.000000,-3.000000,4.000000,3.000000
1306462.534877,-8.000000,-11.000000,-8.000000,-27.000000,-3.000000,-6.000000,-7.000000,-9.000000
1306462.534888,-15.000000,3.000000,-8.000000,-21.000000,-11.000000,-3.000000,-5.000000,-11.000000
1306462.535389,13.000000,9.000000,17.000000,15.000000,6.000000,1.000000,1.000000,7.000000
1306462.535399,-5.000000,-7.000000,-40.000000,-16.000000,-5.000000,-4.000000,-9.000000,-6.000000
1306462.556720,0.000000,2.000000,-1.000000,20.000000,37.000000,4.000000,4.000000,1.000000
1306462.556730,-5.000000,7.000000,3.000000,13.000000,-1.000000,-3.000000,-6.000000,-8.000000
1306462.571971,7.000000,2.000000,11.000000,17.000000,32.000000,7.000000,14.000000,16.000000
1306462.571982,3.000000,4.000000,14.000000,-22.000000,-16.000000,-1.000000,0.000000,3.000000
1306462.594008,-13.000000,-4.000000,0.000000,-5.000000,4.000000,-8.000000,-7.000000,-12.000000
1306462.594018,5.000000,5.000000,-4.000000,-15.000000,-5.000000,0.000000,-2.000000,-3.000000
1306462.594661,-5.000000,-6.000000,-11.000000,-9.000000,1.000000,1.000000,0.000000,-3.000000
1306462.594690,-16.000000,4.000000,43.000000,3.000000,-26.000000,-1.000000,0.000000,-1.000000
1306462.595970,-1.000000,2.000000,-20.000000,-22.000000,-2.000000,2.000000,1.000000,-1.000000
1306462.595980,15.000000,-10.000000,-19.000000,21.000000,30.000000,1.000000,-2.000000,2.000000
1306462.596759,-9.000000,-4.000000,15.000000,-14.000000,-13.000000,0.000000,1.000000,-5.000000
1306462.596806,4.000000,19.000000,20.000000,-7.000000,-8.000000,6.000000,5.000000,8.000000
1306462.616912,-13.000000,-8.000000,0.000000,-13.000000,2.000000,-2.000000,-5.000000,-13.000000
1306462.616924,10.000000,1.000000,-3.000000,-33.000000,-14.000000,-3.000000,10.000000,10.000000
1306462.617816,2.000000,-6.000000,10.000000,22.000000,2.000000,-5.000000,-3.000000,-3.000000
1306462.617824,1.000000,-1.000000,-20.000000,-8.000000,15.000000,6.000000,-2.000000,0.000000
1306462.618539,-9.000000,2.000000,-1.000000,-21.000000,-23.000000,-10.000000,-7.000000,-3.000000
1306462.618547,-31.000000,-16.000000,-17.000000,-16.000000,-5.000000,-3.000000,-3.000000,-2.000000
1306462.632481,32.000000,10.000000,22.000000,72.000000,9.000000,6.000000,7.000000,15.000000
1306462.632491,1.000000,1.000000,10.000000,-10.000000,-9.000000,-1.000000,-4.000000,-2.000000
1306462.639240,-4.000000,-2.000000,15.000000,-21.000000,-7.000000,-7.000000,0.000000,-3.000000
1306462.639250,-17.000000,-15.000000,-31.000000,-21.000000,4.000000,-5.000000,-10.000000,-13.000000
1306462.676896,8.000000,-3.000000,-20.000000,-9.000000,-15.000000,3.000000,9.000000,10.000000
1306462.676907,2.000000,-2.000000,-11.000000,-3.000000,15.000000,2.000000,0.000000,2.000000
1306462.684744,-6.000000,-10.000000,-1.000000,-4.000000,-10.000000,-10.000000,-7.000000,-10.000000
1306462.684798,-4.000000,-4.000000,-34.000000,-44.000000,-9.000000,0.000000,0.000000,1.000000
1306462.698943,2.000000,2.000000,-19.000000,1.000000,18.000000,5.000000,2.000000,-2.000000
1306462.698953,4.000000,14.000000,67.000000,101.000000,51.000000,14.000000,3.000000,0.000000
1306462.699693,3.000000,-7.000000,-41.000000,-21.000000,-12.000000,-4.000000,1.000000,3.000000
1306462.699730,4.000000,12.000000,30.000000,-1.000000,-12.000000,-6.000000,-8.000000,-6.000000
1306462.700817,-7.000000,-9.000000,-9.000000,-37.000000,-25.000000,-7.000000,4.000000,-3.000000
1306462.700843,-9.000000,-11.000000,4.000000,-33.000000,-14.000000,-9.000000,-11.000000,-7.000000
1306462.701809,-10.000000,3.000000,-21.000000,6.000000,-4.000000,2.000000,-4.000000,-10.000000
1306462.701827,-2.000000,1.000000,21.000000,-8.000000,-20.000000,-4.000000,-1.000000,2.000000
1306462.714768,-5.000000,-11.000000,-14.000000,-16.000000,-5.000000,-6.000000,-1.000000,3.000000
1306462.714777,-4.000000,0.000000,-3.000000,13.000000,16.000000,0.000000,-5.000000,-9.000000
1306462.736714,16.000000,15.000000,14.000000,-18.000000,-9.000000,-1.000000,2.000000,9.000000
1306462.736752,-8.000000,-20.000000,-17.000000,-55.000000,-40.000000,-7.000000,-2.000000,-4.000000
1306462.737956,-4.000000,6.000000,34.000000,66.000000,54.000000,16.000000,4.000000,2.000000
1306462.737991,24.000000,14.000000,6.000000,37.000000,23.000000,7.000000,4.000000,13.000000
1306462.738615,1.000000,2.000000,1.000000,-9.000000,-3.000000,-1.000000,1.000000,2.000000
1306462.738633,9.000000,-6.000000,-23.000000,-46.000000,-7.000000,-1.000000,2.000000,8.000000
1306462.752320,-10.000000,2.000000,25.000000,31.000000,-3.000000,1.000000,-3.000000,-5.000000
1306462.752337,-4.000000,-2.000000,4.000000,-1.000000,-8.000000,-5.000000,0.000000,-2.000000
1306462.759133,-20.000000,-10.000000,-8.000000,-40.000000,-11.000000,-7.000000,-7.000000,-8.000000
1306462.759142,26.000000,14.000000,10.000000,69.000000,14.000000,8.000000,5.000000,9.000000
1306462.796990,-2.000000,-4.000000,7.000000,24.000000,10.000000,-1.000000,0.000000,-1.000000
1306462.797038,-9.000000,-13.000000,-13.000000,-28.000000,-13.000000,-9.000000,-8.000000,-9.000000
1306462.804269,-14.000000,-13.000000,-8.000000,-43.000000,-31.000000,-17.000000,-4.000000,-11.000000
1306462.804279,10.000000,10.000000,-14.000000,69.000000,-6.000000,14.000000,13.000000,21.000000
1306462.834245,0.000000,0.000000,0.000000,-20.000000,-2.000000,-5.000000,-5.000000,-1.000000
1306462.834274,-16.000000,-11.000000,14.000000,-15.000000,-17.000000,-9.000000,-11.000000,-14.000000
1306462.849352,-1.000000,5.000000,-8.000000,-26.000000,5.000000,1.000000,-4.000000,-1.000000
1306462.849364,24.000000,3.000000,-42.000000,-15.000000,-23.000000,1.000000,3.000000,11.000000
1306462.850341,10.000000,0.000000,43.000000,-5.000000,20.000000,5.000000,6.000000,5.000000
1306462.850349,-13.000000,-1.000000,-17.000000,-15.000000,-15.000000,-4.000000,-8.000000,-11.000000
1306462.850753,10.000000,12.000000,30.000000,45.000000,2.000000,5.000000,6.000000,14.000000
1306462.850761,-5.000000,-16.000000,-31.000000,-33.000000,-12.000000,-3.000000,-2.000000,-6.000000
1306462.852164,-7.000000,-9.000000,-2.000000,-25.000000,-14.000000,-8.000000,-7.000000,-9.000000
1306462.852173,-1.000000,7.000000,-6.000000,-7.000000,-16.000000,-1.000000,-1.000000,-5.000000
1306462.856924,3.000000,-10.000000,-6.000000,-16.000000,-3.000000,-9.000000,-1.000000,-1.000000
1306462.856935,17.000000,8.000000,10.000000,23.000000,27.000000,8.000000,11.000000,14.000000
1306462.872374,-12.000000,1.000000,4.000000,-4.000000,-9.000000,-5.000000,-6.000000,-11.000000
1306462.872383,-9.000000,-13.000000,4.000000,-22.000000,-4.000000,1.000000,-6.000000,-9.000000
1306462.894215,25.000000,3.000000,-18.000000,28.000000,2.000000,7.000000,12.000000,17.000000
1306462.894224,3.000000,4.000000,-25.000000,-8.000000,-16.000000,-7.000000,2.000000,4.000000
1306462.916795,-10.000000,-3.000000,32.000000,2.000000,-6.000000,-3.000000,-7.000000,-11.000000
1306462.916807,-2.000000,4.000000,6.000000,25.000000,4.000000,6.000000,2.000000,-4.000000
1306462.924163,2.000000,2.000000,9.000000,-18.000000,1.000000,-1.000000,4.000000,8.000000
1306462.924172,1.000000,5.000000,-2.000000,22.000000,37.000000,5.000000,0.000000,1.000000
1306462.954330,-3.000000,-4.000000,24.000000,0.000000,-8.000000,-9.000000,-2.000000,-1.000000
1306462.954341,2.000000,8.000000,15.000000,-9.000000,-8.000000,2.000000,-2.000000,-1.000000
1306462.954824,-11.000000,-6.000000,-37.000000,45.000000,-1.000000,-6.000000,-2.000000,-1.000000
1306462.954834,4.000000,-10.000000,7.000000,-35.000000,-18.000000,-2.000000,-1.000000,-2.000000
1306462.955786,8.000000,8.000000,45.000000,44.000000,26.000000,14.000000,6.000000,8.000000
1306462.955794,-10.000000,1.000000,-57.000000,-49.000000,-20.000000,-1.000000,0.000000,-3.000000
1306462.956439,4.000000,4.000000,15.000000,17.000000,15.000000,2.000000,-2.000000,6.000000
1306462.956447,-3.000000,-1.000000,-18.000000,-10.000000,-3.000000,-5.000000,-2.000000,-2.000000
1306462.958071,-6.000000,-5.000000,7.000000,-23.000000,-15.000000,-6.000000,-2.000000,0.000000
1306462.958081,-8.000000,-3.000000,-20.000000,1.000000,4.000000,-1.000000,-4.000000,-6.000000
1306462.969307,7.000000,3.000000,22.000000,16.000000,28.000000,5.000000,0.000000,-3.000000
1306462.969317,-6.000000,4.000000,-5.000000,-22.000000,-2.000000,-8.000000,-9.000000,-7.000000
1306462.970350,0.000000,-10.000000,-52.000000,-42.000000,-34.000000,2.000000,9.000000,8.000000
1306462.970386,7.000000,-8.000000,-7.000000,38.000000,55.000000,8.000000,7.000000,7.000000
1306462.991804,-2.000000,1.000000,25.000000,2.000000,-8.000000,-5.000000,-6.000000,-8.000000
1306462.991816,7.000000,7.000000,8.000000,-14.000000,-7.000000,-1.000000,-2.000000,-1.000000
