# participant_id: P3
# gesture: medium
# trial_number: 1
# stream_name: Myo_EMG
# stream_type: emg
# timestamp: 20260420_132609
# samples: 5157
# duration_sec: 30.701
# nominal_sample_rate: 200.0
# effective_sample_rate: 167.94
#
timestamp,emg_1,emg_2,emg_3,emg_4,emg_5,emg_6,emg_7,emg_8
1296261.355232,20.000000,-3.000000,-2.000000,-20.000000,-7.000000,-1.000000,4.000000,36.000000
1296261.355243,-78.000000,-63.000000,4.000000,-35.000000,-18.000000,-11.000000,-14.000000,-69.000000
1296261.356112,38.000000,-26.000000,11.000000,11.000000,16.000000,1.000000,-1.000000,25.000000
1296261.356120,-45.000000,16.000000,-2.000000,-36.000000,7.000000,0.000000,3.000000,12.000000
1296261.362451,43.000000,127.000000,20.000000,24.000000,-17.000000,-9.000000,7.000000,28.000000
1296261.362498,3.000000,-128.000000,9.000000,5.000000,7.000000,16.000000,16.000000,0.000000
1296261.385162,-13.000000,-88.000000,-17.000000,8.000000,-19.000000,-10.000000,-3.000000,-1.000000
1296261.385173,5.000000,93.000000,32.000000,11.000000,18.000000,14.000000,-2.000000,-25.000000
1296261.392659,23.000000,20.000000,1.000000,-20.000000,-31.000000,-16.000000,-15.000000,-20.000000
1296261.392675,-17.000000,-97.000000,9.000000,-87.000000,18.000000,12.000000,-1.000000,10.000000
1296261.393676,46.000000,104.000000,-11.000000,-78.000000,-62.000000,-25.000000,-13.000000,-5.000000
1296261.393685,24.000000,25.000000,8.000000,58.000000,-15.000000,10.000000,12.000000,10.000000
1296261.399761,9.000000,17.000000,-2.000000,-54.000000,19.000000,-3.000000,3.000000,8.000000
1296261.399771,-3.000000,8.000000,-35.000000,-46.000000,57.000000,20.000000,0.000000,-4.000000
1296261.407489,1.000000,-4.000000,45.000000,-6.000000,-14.000000,-11.000000,-2.000000,-3.000000
1296261.407530,-25.000000,-19.000000,-9.000000,-34.000000,32.000000,6.000000,-1.000000,-11.000000
1296261.430258,5.000000,9.000000,-14.000000,7.000000,-47.000000,-15.000000,-4.000000,0.000000
1296261.430271,3.000000,4.000000,12.000000,-9.000000,-1.000000,4.000000,2.000000,0.000000
1296261.475045,-12.000000,-4.000000,-6.000000,21.000000,-15.000000,-4.000000,0.000000,76.000000
1296261.475058,46.000000,97.000000,-1.000000,-8.000000,12.000000,11.000000,17.000000,-41.000000
1296261.475502,-79.000000,-30.000000,-5.000000,-45.000000,5.000000,-10.000000,-14.000000,-3.000000
1296261.475512,10.000000,17.000000,-29.000000,-14.000000,-22.000000,-5.000000,5.000000,22.000000
1296261.476548,9.000000,45.000000,22.000000,-23.000000,-6.000000,-9.000000,-2.000000,-32.000000
1296261.476559,15.000000,-27.000000,-8.000000,-12.000000,7.000000,1.000000,-3.000000,11.000000
1296261.477197,29.000000,-80.000000,11.000000,20.000000,-11.000000,-8.000000,-12.000000,-19.000000
1296261.477207,-29.000000,-48.000000,-18.000000,-6.000000,-8.000000,-2.000000,-4.000000,17.000000
1296261.479130,15.000000,34.000000,-15.000000,52.000000,12.000000,4.000000,6.000000,-12.000000
1296261.479143,49.000000,68.000000,16.000000,-7.000000,-26.000000,3.000000,10.000000,11.000000
1296261.482627,8.000000,-28.000000,-8.000000,-6.000000,51.000000,8.000000,3.000000,46.000000
1296261.482640,-5.000000,10.000000,4.000000,24.000000,-24.000000,-3.000000,-3.000000,-12.000000
1296261.512701,4.000000,-5.000000,-1.000000,-69.000000,-6.000000,-3.000000,3.000000,0.000000
1296261.512710,-10.000000,-12.000000,0.000000,14.000000,-20.000000,-3.000000,-6.000000,18.000000
1296261.513350,31.000000,16.000000,10.000000,30.000000,-11.000000,11.000000,6.000000,-10.000000
1296261.513357,-30.000000,-9.000000,9.000000,-64.000000,-42.000000,-20.000000,-22.000000,-8.000000
1296261.515501,-31.000000,31.000000,35.000000,33.000000,15.000000,-4.000000,-4.000000,-22.000000
1296261.515511,8.000000,-11.000000,-4.000000,-8.000000,-23.000000,-3.000000,0.000000,12.000000
1296261.520249,3.000000,21.000000,5.000000,-1.000000,-53.000000,-6.000000,-3.000000,5.000000
1296261.520263,23.000000,44.000000,-4.000000,15.000000,55.000000,28.000000,15.000000,-38.000000
1296261.549840,-30.000000,-90.000000,19.000000,-52.000000,-41.000000,-27.000000,-20.000000,14.000000
1296261.549849,-26.000000,-1.000000,21.000000,-16.000000,22.000000,-18.000000,-25.000000,-22.000000
1296261.557450,16.000000,39.000000,-15.000000,35.000000,-16.000000,15.000000,13.000000,-1.000000
1296261.557469,-13.000000,-78.000000,-5.000000,-10.000000,-5.000000,4.000000,1.000000,-10.000000
1296261.572727,-1.000000,10.000000,-3.000000,-8.000000,-23.000000,-3.000000,3.000000,30.000000
1296261.572739,3.000000,36.000000,8.000000,-8.000000,-31.000000,-3.000000,5.000000,-21.000000
1296261.587482,58.000000,4.000000,-26.000000,5.000000,21.000000,-9.000000,-18.000000,8.000000
1296261.587493,-90.000000,-57.000000,33.000000,37.000000,72.000000,1.000000,-21.000000,-37.000000
1296261.602538,27.000000,51.000000,-5.000000,-16.000000,-18.000000,5.000000,10.000000,-2.000000
1296261.602556,12.000000,19.000000,-9.000000,-16.000000,-4.000000,-3.000000,-2.000000,2.000000
1296261.625472,17.000000,15.000000,-11.000000,-75.000000,-87.000000,-5.000000,18.000000,122.000000
1296261.625496,7.000000,43.000000,12.000000,68.000000,127.000000,45.000000,13.000000,-54.000000
1296261.641144,-23.000000,-13.000000,-6.000000,-55.000000,-92.000000,-52.000000,-49.000000,-51.000000
1296261.641171,-2.000000,23.000000,0.000000,104.000000,127.000000,18.000000,17.000000,17.000000
1296261.648722,-17.000000,12.000000,-7.000000,-3.000000,-27.000000,-1.000000,5.000000,6.000000
1296261.648757,7.000000,19.000000,-11.000000,-25.000000,-12.000000,6.000000,9.000000,9.000000
1296261.670899,3.000000,-9.000000,-9.000000,12.000000,-5.000000,-5.000000,-6.000000,5.000000
1296261.670962,-10.000000,29.000000,-11.000000,0.000000,-20.000000,0.000000,8.000000,18.000000
1296261.678599,25.000000,-97.000000,-7.000000,36.000000,-6.000000,5.000000,-3.000000,10.000000
1296261.678664,-98.000000,-19.000000,-16.000000,44.000000,30.000000,-3.000000,-7.000000,-38.000000
1296261.686058,-11.000000,-3.000000,-1.000000,-37.000000,-16.000000,-5.000000,-11.000000,-48.000000
1296261.686111,12.000000,67.000000,-27.000000,-2.000000,45.000000,2.000000,-6.000000,16.000000
1296261.708424,-43.000000,-36.000000,30.000000,-39.000000,-34.000000,-3.000000,-7.000000,51.000000
1296261.708451,-2.000000,34.000000,-11.000000,11.000000,32.000000,-4.000000,-8.000000,-15.000000
1296261.715810,5.000000,32.000000,-3.000000,-14.000000,-19.000000,2.000000,1.000000,-9.000000
1296261.715835,-3.000000,-6.000000,-7.000000,-19.000000,-13.000000,-6.000000,4.000000,12.000000
1296261.726512,19.000000,-128.000000,3.000000,28.000000,6.000000,17.000000,2.000000,36.000000
1296261.726536,-50.000000,27.000000,6.000000,-32.000000,-32.000000,-31.000000,-23.000000,-49.000000
1296261.726695,6.000000,35.000000,-4.000000,11.000000,-5.000000,0.000000,11.000000,-5.000000
1296261.726738,8.000000,-11.000000,4.000000,-11.000000,-14.000000,6.000000,8.000000,11.000000
1296261.726926,8.000000,-6.000000,-20.000000,89.000000,55.000000,36.000000,9.000000,35.000000
1296261.726970,-6.000000,2.000000,-16.000000,-12.000000,34.000000,6.000000,1.000000,-9.000000
1296261.727689,-1.000000,-6.000000,-5.000000,42.000000,-9.000000,-11.000000,-5.000000,-9.000000
1296261.727711,-23.000000,24.000000,-8.000000,-25.000000,21.000000,3.000000,5.000000,-44.000000
1296261.738799,39.000000,-3.000000,5.000000,12.000000,56.000000,12.000000,18.000000,-5.000000
1296261.738826,1.000000,-35.000000,44.000000,-15.000000,-40.000000,-14.000000,-23.000000,-1.000000
1296261.754110,-40.000000,5.000000,-16.000000,0.000000,-11.000000,-7.000000,-1.000000,-9.000000
1296261.754413,19.000000,24.000000,7.000000,-1.000000,-7.000000,6.000000,6.000000,21.000000
1296261.755335,5.000000,13.000000,-1.000000,-7.000000,-3.000000,1.000000,4.000000,34.000000
1296261.755358,13.000000,99.000000,-2.000000,13.000000,-70.000000,-11.000000,6.000000,2.000000
1296261.760980,0.000000,-128.000000,-18.000000,50.000000,127.000000,34.000000,-10.000000,-33.000000
1296261.761007,-25.000000,76.000000,8.000000,-8.000000,-46.000000,-14.000000,-3.000000,-19.000000
1296261.798269,21.000000,26.000000,-13.000000,28.000000,26.000000,-3.000000,0.000000,8.000000
1296261.798305,-33.000000,-31.000000,-12.000000,37.000000,-11.000000,-7.000000,1.000000,4.000000
1296261.828364,6.000000,-4.000000,1.000000,-17.000000,-28.000000,-9.000000,1.000000,-8.000000
1296261.828389,18.000000,-3.000000,-3.000000,-16.000000,59.000000,25.000000,20.000000,-3.000000
1296261.843705,-3.000000,-8.000000,13.000000,-21.000000,40.000000,-2.000000,-3.000000,-1.000000
1296261.843975,-6.000000,2.000000,-19.000000,77.000000,85.000000,11.000000,5.000000,24.000000
1296261.845158,-7.000000,-8.000000,1.000000,-10.000000,1.000000,-2.000000,-10.000000,-16.000000
1296261.845215,7.000000,4.000000,-12.000000,15.000000,-13.000000,-1.000000,5.000000,-1.000000
1296261.846748,6.000000,26.000000,8.000000,12.000000,-56.000000,-3.000000,14.000000,6.000000
1296261.846772,19.000000,-55.000000,-27.000000,105.000000,118.000000,40.000000,11.000000,-6.000000
1296261.846895,-32.000000,18.000000,-9.000000,-13.000000,-1.000000,-16.000000,-4.000000,-47.000000
1296261.846933,34.000000,67.000000,1.000000,8.000000,33.000000,-8.000000,-1.000000,1.000000
1296261.847395,10.000000,13.000000,-8.000000,24.000000,-5.000000,3.000000,2.000000,11.000000
1296261.847435,21.000000,89.000000,2.000000,49.000000,-4.000000,-3.000000,2.000000,6.000000
1296261.850747,-26.000000,-128.000000,0.000000,2.000000,-8.000000,-1.000000,-2.000000,-7.000000
1296261.850773,2.000000,30.000000,4.000000,-1.000000,-29.000000,-12.000000,-9.000000,-10.000000
1296261.866160,-4.000000,8.000000,1.000000,4.000000,37.000000,-6.000000,-4.000000,3.000000
1296261.866468,-1.000000,-8.000000,3.000000,-10.000000,-13.000000,-5.000000,-3.000000,0.000000
1296261.873521,-1.000000,10.000000,0.000000,-3.000000,1.000000,2.000000,3.000000,-1.000000
1296261.873602,-4.000000,0.000000,0.000000,10.000000,-35.000000,-11.000000,-2.000000,3.000000
1296261.880705,2.000000,13.000000,4.000000,25.000000,39.000000,30.000000,7.000000,15.000000
1296261.880733,20.000000,-73.000000,22.000000,1.000000,-13.000000,-20.000000,-30.000000,1.000000
1296261.903286,-29.000000,2.000000,-5.000000,6.000000,-34.000000,-8.000000,6.000000,-17.000000
1296261.903312,27.000000,83.000000,13.000000,0.000000,-5.000000,-2.000000,4.000000,13.000000
1296261.911147,-22.000000,-82.000000,3.000000,-38.000000,-15.000000,-12.000000,-20.000000,-27.000000
1296261.911193,-6.000000,1.000000,0.000000,-3.000000,-24.000000,0.000000,15.000000,40.000000
1296261.948374,1.000000,11.000000,0.000000,28.000000,5.000000,-3.000000,5.000000,-12.000000
1296261.948404,4.000000,10.000000,21.000000,-52.000000,-74.000000,13.000000,11.000000,-36.000000
1296261.955643,52.000000,2.000000,27.000000,127.000000,74.000000,12.000000,-11.000000,127.000000
1296261.955669,-31.000000,-79.000000,-11.000000,-28.000000,-36.000000,-14.000000,-10.000000,-87.000000
1296261.986134,-3.000000,7.000000,-2.000000,-9.000000,-8.000000,2.000000,3.000000,6.000000
1296261.986288,0.000000,3.000000,0.000000,6.000000,3.000000,6.000000,3.000000,-3.000000
1296261.994014,7.000000,13.000000,3.000000,1.000000,4.000000,-1.000000,1.000000,14.000000
1296261.994055,-4.000000,40.000000,-18.000000,21.000000,-17.000000,-1.000000,15.000000,91.000000
1296261.995372,6.000000,-128.000000,-11.000000,-73.000000,34.000000,3.000000,-7.000000,-111.000000
1296261.995397,-27.000000,33.000000,19.000000,-46.000000,-2.000000,-43.000000,-60.000000,-64.000000
1296262.000498,20.000000,60.000000,-10.000000,31.000000,-5.000000,14.000000,21.000000,19.000000
1296262.000624,5.000000,-60.000000,0.000000,-1.000000,5.000000,8.000000,7.000000,18.000000
1296262.015863,5.000000,6.000000,-3.000000,-21.000000,-21.000000,-8.000000,8.000000,0.000000
1296262.015922,20.000000,35.000000,-23.000000,-1.000000,26.000000,5.000000,0.000000,10.000000
1296262.030606,-1.000000,-59.000000,21.000000,9.000000,-49.000000,2.000000,3.000000,-22.000000
1296262.030631,0.000000,-39.000000,16.000000,-36.000000,-19.000000,-16.000000,-17.000000,29.000000
1296262.038041,-5.000000,1.000000,-5.000000,28.000000,-35.000000,8.000000,12.000000,25.000000
1296262.038065,0.000000,-16.000000,23.000000,117.000000,91.000000,3.000000,-11.000000,-16.000000
1296262.068637,-2.000000,10.000000,2.000000,-14.000000,-28.000000,-5.000000,6.000000,73.000000
1296262.068695,-4.000000,2.000000,-7.000000,-6.000000,24.000000,-6.000000,-8.000000,-52.000000
1296262.076077,-6.000000,-19.000000,11.000000,8.000000,-6.000000,-1.000000,-4.000000,19.000000
1296262.076106,23.000000,22.000000,-1.000000,18.000000,-18.000000,1.000000,17.000000,-4.000000
1296262.077257,-16.000000,19.000000,-2.000000,-37.000000,-26.000000,-13.000000,-8.000000,-11.000000
1296262.077922,-14.000000,-11.000000,-8.000000,11.000000,8.000000,2.000000,2.000000,5.000000
1296262.079767,9.000000,16.000000,20.000000,-4.000000,-2.000000,-5.000000,-5.000000,-10.000000
1296262.079802,-1.000000,4.000000,4.000000,10.000000,-6.000000,1.000000,5.000000,5.000000
1296262.080594,-7.000000,-32.000000,-9.000000,18.000000,13.000000,-4.000000,-14.000000,54.000000
1296262.080630,0.000000,-13.000000,4.000000,-12.000000,-21.000000,-2.000000,-1.000000,-10.000000
1296262.098895,5.000000,-5.000000,5.000000,-15.000000,7.000000,1.000000,7.000000,-25.000000
1296262.098964,-4.000000,-8.000000,-10.000000,34.000000,-14.000000,-2.000000,-4.000000,39.000000
1296262.106775,1.000000,-1.000000,-10.000000,25.000000,30.000000,1.000000,-11.000000,-32.000000
1296262.106822,-13.000000,24.000000,10.000000,-9.000000,-39.000000,-9.000000,2.000000,19.000000
1296262.108068,17.000000,13.000000,-9.000000,1.000000,3.000000,-10.000000,-5.000000,0.000000
1296262.108238,-10.000000,-8.000000,-26.000000,-18.000000,-14.000000,8.000000,1.000000,-28.000000
1296262.113387,5.000000,-16.000000,5.000000,-36.000000,-10.000000,-6.000000,-4.000000,18.000000
1296262.113563,-5.000000,3.000000,8.000000,-64.000000,-26.000000,-14.000000,-9.000000,-18.000000
1296262.120769,9.000000,42.000000,-8.000000,104.000000,125.000000,30.000000,-2.000000,-26.000000
1296262.120795,-19.000000,-42.000000,-12.000000,-33.000000,-21.000000,-5.000000,1.000000,-2.000000
1296262.150626,-11.000000,-4.000000,0.000000,16.000000,-8.000000,-6.000000,-3.000000,0.000000
1296262.150651,4.000000,24.000000,-6.000000,23.000000,-22.000000,6.000000,11.000000,-6.000000
1296262.158737,20.000000,64.000000,10.000000,-50.000000,-67.000000,-13.000000,0.000000,30.000000
1296262.158859,-10.000000,-50.000000,-8.000000,11.000000,121.000000,24.000000,2.000000,0.000000
1296262.173603,-4.000000,28.000000,-8.000000,-13.000000,-21.000000,0.000000,3.000000,-6.000000
1296262.173655,-14.000000,-14.000000,-8.000000,-7.000000,-12.000000,-1.000000,7.000000,-5.000000
1296262.188444,6.000000,-9.000000,-17.000000,-5.000000,-9.000000,-3.000000,14.000000,33.000000
1296262.188749,8.000000,5.000000,-5.000000,-43.000000,-24.000000,0.000000,-9.000000,-29.000000
1296262.191064,12.000000,-16.000000,28.000000,27.000000,1.000000,-3.000000,-10.000000,16.000000
1296262.191095,5.000000,14.000000,10.000000,-15.000000,0.000000,-8.000000,-1.000000,-6.000000
1296262.191431,-10.000000,1.000000,-4.000000,-5.000000,1.000000,5.000000,-2.000000,13.000000
1296262.191907,6.000000,-7.000000,5.000000,-22.000000,-24.000000,-4.000000,-2.000000,-3.000000
1296262.192616,16.000000,22.000000,-1.000000,-31.000000,-27.000000,-5.000000,4.000000,-7.000000
1296262.192638,-23.000000,-49.000000,-4.000000,39.000000,16.000000,5.000000,-9.000000,-11.000000
1296262.218489,10.000000,21.000000,1.000000,-16.000000,-45.000000,-14.000000,-3.000000,-19.000000
1296262.218771,7.000000,65.000000,1.000000,66.000000,119.000000,13.000000,10.000000,6.000000
1296262.225759,30.000000,0.000000,1.000000,-46.000000,-61.000000,-6.000000,5.000000,27.000000
1296262.225823,-33.000000,-99.000000,-5.000000,-16.000000,-26.000000,-13.000000,-7.000000,-37.000000
1296262.227457,-1.000000,33.000000,-11.000000,66.000000,20.000000,19.000000,1.000000,23.000000
1296262.227501,20.000000,27.000000,-2.000000,-67.000000,-58.000000,-20.000000,-13.000000,-62.000000
1296262.233002,13.000000,-25.000000,23.000000,15.000000,56.000000,13.000000,0.000000,38.000000
1296262.233027,3.000000,34.000000,-9.000000,-21.000000,-41.000000,-11.000000,-2.000000,-2.000000
1296262.263552,2.000000,14.000000,5.000000,7.000000,-6.000000,0.000000,5.000000,3.000000
1296262.263583,6.000000,5.000000,-5.000000,-8.000000,-17.000000,-11.000000,-2.000000,0.000000
1296262.293380,-7.000000,-17.000000,-8.000000,4.000000,13.000000,5.000000,-6.000000,-3.000000
1296262.293409,-10.000000,-11.000000,-3.000000,-16.000000,-32.000000,-7.000000,4.000000,-39.000000
1296262.309988,16.000000,29.000000,6.000000,-4.000000,24.000000,19.000000,7.000000,40.000000
1296262.310015,-7.000000,-25.000000,-7.000000,-23.000000,-28.000000,-13.000000,-7.000000,-29.000000
1296262.310142,-3.000000,-6.000000,2.000000,8.000000,-10.000000,3.000000,7.000000,3.000000
1296262.310160,3.000000,18.000000,5.000000,-48.000000,-18.000000,-8.000000,2.000000,-15.000000
1296262.311128,3.000000,-20.000000,13.000000,-37.000000,-19.000000,2.000000,-8.000000,8.000000
1296262.311148,-8.000000,12.000000,-4.000000,-11.000000,-14.000000,-2.000000,4.000000,9.000000
1296262.311837,-20.000000,-21.000000,-7.000000,-57.000000,-14.000000,-9.000000,4.000000,-23.000000
1296262.311861,15.000000,64.000000,3.000000,61.000000,85.000000,23.000000,2.000000,17.000000
1296262.316047,3.000000,20.000000,9.000000,5.000000,16.000000,-4.000000,-1.000000,-2.000000
1296262.316072,10.000000,11.000000,22.000000,37.000000,23.000000,11.000000,4.000000,5.000000
1296262.347042,10.000000,-7.000000,15.000000,15.000000,-8.000000,7.000000,0.000000,-15.000000
1296262.347068,-10.000000,-11.000000,0.000000,-2.000000,26.000000,-13.000000,-9.000000,6.000000
1296262.347223,-9.000000,-6.000000,-7.000000,-22.000000,-12.000000,-9.000000,-6.000000,-6.000000
1296262.347270,5.000000,35.000000,-2.000000,-25.000000,-8.000000,1.000000,4.000000,-6.000000
1296262.348742,-12.000000,2.000000,-4.000000,18.000000,13.000000,4.000000,8.000000,1.000000
1296262.348790,0.000000,3.000000,5.000000,-11.000000,-11.000000,-2.000000,0.000000,-1.000000
1296262.383452,6.000000,16.000000,-1.000000,16.000000,-6.000000,1.000000,1.000000,-16.000000
1296262.383496,0.000000,-7.000000,-4.000000,-14.000000,-5.000000,-1.000000,3.000000,-8.000000
1296262.398279,-12.000000,17.000000,4.000000,-13.000000,4.000000,-3.000000,-4.000000,16.000000
1296262.398527,14.000000,0.000000,0.000000,-21.000000,-2.000000,3.000000,3.000000,-1.000000
1296262.421017,-5.000000,-4.000000,-12.000000,-15.000000,1.000000,-2.000000,-4.000000,-5.000000
1296262.421043,-12.000000,-6.000000,13.000000,-14.000000,-20.000000,-7.000000,3.000000,7.000000
1296262.429425,14.000000,45.000000,-19.000000,-46.000000,-24.000000,2.000000,-1.000000,-64.000000
1296262.430001,-47.000000,19.000000,-12.000000,9.000000,27.000000,-11.000000,-21.000000,28.000000
1296262.431406,4.000000,16.000000,4.000000,-10.000000,12.000000,-2.000000,-8.000000,-15.000000
1296262.431460,1.000000,1.000000,-4.000000,-35.000000,-28.000000,-1.000000,-1.000000,5.000000
1296262.432311,19.000000,12.000000,25.000000,-12.000000,-67.000000,-2.000000,6.000000,10.000000
1296262.432355,-3.000000,-2.000000,-3.000000,3.000000,-11.000000,-1.000000,-4.000000,1.000000
1296262.432704,1.000000,-5.000000,3.000000,-17.000000,-14.000000,-7.000000,3.000000,-9.000000
1296262.432727,20.000000,-5.000000,0.000000,-12.000000,-6.000000,-4.000000,-1.000000,-45.000000
1296262.444190,11.000000,3.000000,3.000000,-44.000000,-43.000000,-16.000000,-13.000000,14.000000
1296262.444222,-3.000000,27.000000,6.000000,12.000000,23.000000,-3.000000,1.000000,-6.000000
1296262.445248,-1.000000,-37.000000,5.000000,1.000000,-4.000000,-3.000000,0.000000,12.000000
1296262.445272,21.000000,-1.000000,13.000000,18.000000,19.000000,8.000000,6.000000,-10.000000
1296262.458496,-36.000000,-22.000000,-6.000000,-3.000000,-32.000000,-12.000000,0.000000,28.000000
1296262.458523,6.000000,21.000000,3.000000,33.000000,46.000000,7.000000,-6.000000,-7.000000
1296262.466338,35.000000,-27.000000,25.000000,19.000000,-25.000000,7.000000,-1.000000,-3.000000
1296262.466392,-28.000000,14.000000,10.000000,-20.000000,-33.000000,-18.000000,-6.000000,19.000000
1296262.481217,5.000000,2.000000,-4.000000,-7.000000,-8.000000,3.000000,10.000000,-39.000000
1296262.481246,1.000000,6.000000,6.000000,-18.000000,-23.000000,-4.000000,-3.000000,3.000000
1296262.504567,11.000000,6.000000,-3.000000,12.000000,-57.000000,14.000000,6.000000,-15.000000
1296262.504598,6.000000,7.000000,-36.000000,-19.000000,2.000000,-2.000000,-4.000000,3.000000
1296262.504998,-16.000000,-25.000000,-7.000000,-26.000000,-26.000000,-3.000000,2.000000,27.000000
1296262.505027,9.000000,27.000000,5.000000,-9.000000,26.000000,-4.000000,-3.000000,-30.000000
1296262.506529,5.000000,15.000000,-2.000000,45.000000,20.000000,17.000000,10.000000,12.000000
1296262.506682,5.000000,2.000000,4.000000,-23.000000,-27.000000,-4.000000,-5.000000,2.000000
1296262.510749,15.000000,-4.000000,-6.000000,4.000000,-10.000000,-2.000000,3.000000,37.000000
1296262.510775,-21.000000,-10.000000,-1.000000,2.000000,-9.000000,-1.000000,-1.000000,11.000000
1296262.548461,-5.000000,-12.000000,-5.000000,-2.000000,1.000000,0.000000,1.000000,-35.000000
1296262.548508,-9.000000,24.000000,-5.000000,26.000000,-1.000000,9.000000,8.000000,17.000000
1296262.556274,-2.000000,-9.000000,-5.000000,-3.000000,-15.000000,-10.000000,-1.000000,-8.000000
1296262.556301,4.000000,41.000000,-3.000000,19.000000,-13.000000,1.000000,1.000000,21.000000
1296262.586389,5.000000,-97.000000,2.000000,0.000000,34.000000,10.000000,-3.000000,-5.000000
1296262.586446,-9.000000,14.000000,21.000000,-12.000000,-15.000000,-17.000000,-6.000000,-12.000000
1296262.593949,-3.000000,-19.000000,-22.000000,-3.000000,-4.000000,6.000000,-3.000000,35.000000
1296262.593979,-12.000000,15.000000,-3.000000,-18.000000,-3.000000,-5.000000,5.000000,-53.000000
1296262.595572,27.000000,-22.000000,23.000000,-7.000000,-14.000000,4.000000,-1.000000,31.000000
1296262.595602,-32.000000,9.000000,-5.000000,-19.000000,0.000000,-15.000000,-11.000000,-21.000000
1296262.596228,4.000000,7.000000,-1.000000,0.000000,1.000000,8.000000,5.000000,-4.000000
1296262.596288,8.000000,4.000000,-4.000000,8.000000,-25.000000,1.000000,9.000000,38.000000
1296262.597346,8.000000,6.000000,-8.000000,41.000000,67.000000,10.000000,1.000000,-55.000000
1296262.597373,3.000000,12.000000,18.000000,-48.000000,-90.000000,-16.000000,-24.000000,17.000000
1296262.624459,9.000000,48.000000,0.000000,11.000000,2.000000,5.000000,3.000000,13.000000
1296262.624901,-4.000000,-61.000000,-7.000000,-1.000000,2.000000,5.000000,-1.000000,-3.000000
1296262.625633,-6.000000,12.000000,-1.000000,-16.000000,-18.000000,-10.000000,3.000000,-9.000000
1296262.626230,15.000000,-18.000000,16.000000,68.000000,62.000000,12.000000,-5.000000,-13.000000
1296262.627027,-3.000000,13.000000,-4.000000,-17.000000,-3.000000,-9.000000,-7.000000,-13.000000
1296262.627050,-5.000000,4.000000,-7.000000,-42.000000,-18.000000,-2.000000,4.000000,19.000000
1296262.630560,8.000000,17.000000,-1.000000,-19.000000,-25.000000,-7.000000,-2.000000,1.000000
1296262.630585,-2.000000,-11.000000,2.000000,-7.000000,-11.000000,-3.000000,2.000000,8.000000
1296262.646574,-1.000000,8.000000,0.000000,6.000000,-1.000000,2.000000,6.000000,22.000000
1296262.646605,-2.000000,7.000000,-2.000000,1.000000,-40.000000,-9.000000,7.000000,20.000000
1296262.660403,8.000000,-25.000000,-2.000000,127.000000,127.000000,31.000000,-9.000000,-25.000000
1296262.660431,-21.000000,-38.000000,-9.000000,-25.000000,-44.000000,-17.000000,-5.000000,-19.000000
1296262.668033,5.000000,23.000000,-7.000000,19.000000,-14.000000,4.000000,10.000000,-31.000000
1296262.668093,6.000000,24.000000,2.000000,-19.000000,-16.000000,-10.000000,-12.000000,21.000000
1296262.676037,3.000000,-41.000000,-2.000000,26.000000,42.000000,7.000000,5.000000,5.000000
1296262.676064,-21.000000,5.000000,0.000000,-12.000000,-33.000000,-6.000000,2.000000,-21.000000
1296262.706355,11.000000,56.000000,6.000000,-91.000000,1.000000,20.000000,14.000000,39.000000
1296262.706385,-9.000000,-33.000000,-10.000000,-79.000000,-59.000000,-39.000000,-45.000000,-76.000000
1296262.713436,-32.000000,7.000000,-40.000000,-14.000000,-38.000000,-11.000000,-8.000000,-11.000000
1296262.713465,14.000000,21.000000,9.000000,1.000000,-9.000000,1.000000,9.000000,14.000000
1296262.728415,1.000000,-2.000000,-3.000000,-3.000000,9.000000,0.000000,-1.000000,3.000000
1296262.728444,3.000000,7.000000,10.000000,19.000000,-3.000000,-1.000000,-1.000000,3.000000
1296262.751026,-1.000000,-6.000000,-4.000000,-5.000000,-1.000000,-1.000000,-3.000000,0.000000
1296262.751063,2.000000,1.000000,-2.000000,-9.000000,-14.000000,-2.000000,0.000000,4.000000
1296262.765759,1.000000,23.000000,-2.000000,0.000000,-17.000000,-3.000000,-7.000000,-4.000000
1296262.765785,-15.000000,-23.000000,7.000000,28.000000,28.000000,14.000000,0.000000,0.000000
1296262.773385,-5.000000,1.000000,-10.000000,-12.000000,4.000000,-8.000000,-5.000000,7.000000
1296262.773435,4.000000,38.000000,4.000000,-1.000000,-2.000000,9.000000,2.000000,-22.000000
1296262.781315,2.000000,-50.000000,-14.000000,11.000000,45.000000,0.000000,4.000000,4.000000
1296262.781608,-14.000000,2.000000,-4.000000,-2.000000,-18.000000,-6.000000,-9.000000,1.000000
1296262.782420,0.000000,-4.000000,5.000000,7.000000,-4.000000,-1.000000,1.000000,71.000000
1296262.782447,11.000000,10.000000,8.000000,-26.000000,-30.000000,-4.000000,-1.000000,-56.000000
1296262.783277,-5.000000,29.000000,15.000000,-23.000000,-46.000000,1.000000,-5.000000,-61.000000
1296262.783330,-2.000000,-27.000000,-12.000000,-29.000000,-35.000000,0.000000,1.000000,4.000000
1296262.784458,17.000000,27.000000,-9.000000,44.000000,7.000000,6.000000,10.000000,45.000000
1296262.784483,0.000000,5.000000,29.000000,-51.000000,-11.000000,-10.000000,-7.000000,-51.000000
1296262.795910,-25.000000,0.000000,-6.000000,1.000000,-3.000000,4.000000,2.000000,15.000000
1296262.795965,3.000000,21.000000,0.000000,-13.000000,-41.000000,-3.000000,-3.000000,-77.000000
1296262.818530,-4.000000,22.000000,-27.000000,14.000000,93.000000,17.000000,9.000000,76.000000
1296262.818616,14.000000,-42.000000,27.000000,11.000000,16.000000,-5.000000,-9.000000,6.000000
1296262.825725,-10.000000,17.000000,-10.000000,-10.000000,-14.000000,-11.000000,-5.000000,-31.000000
1296262.825780,-5.000000,5.000000,-1.000000,10.000000,18.000000,10.000000,2.000000,14.000000
1296262.863887,-3.000000,12.000000,17.000000,9.000000,-31.000000,-8.000000,1.000000,8.000000
1296262.863956,16.000000,19.000000,-31.000000,30.000000,13.000000,11.000000,4.000000,0.000000
1296262.870587,-8.000000,-53.000000,17.000000,11.000000,9.000000,-10.000000,-8.000000,-13.000000
1296262.870617,-13.000000,-10.000000,0.000000,-5.000000,-12.000000,-7.000000,-4.000000,-5.000000
1296262.900868,2.000000,5.000000,-7.000000,-2.000000,0.000000,4.000000,1.000000,2.000000
1296262.900896,7.000000,-15.000000,1.000000,0.000000,4.000000,8.000000,7.000000,7.000000
1296262.908417,-5.000000,13.000000,0.000000,2.000000,-40.000000,-11.000000,-1.000000,6.000000
1296262.908460,-5.000000,-23.000000,-19.000000,63.000000,122.000000,19.000000,-1.000000,-8.000000
1296262.938505,6.000000,37.000000,19.000000,-8.000000,-28.000000,-9.000000,1.000000,10.000000
1296262.938698,-14.000000,-31.000000,-7.000000,-43.000000,-4.000000,-13.000000,-9.000000,7.000000
1296262.960772,-10.000000,-23.000000,-5.000000,-23.000000,34.000000,7.000000,-8.000000,-65.000000
1296262.960798,1.000000,13.000000,3.000000,22.000000,12.000000,5.000000,6.000000,33.000000
1296262.975842,24.000000,53.000000,28.000000,-13.000000,3.000000,7.000000,0.000000,-28.000000
1296262.975869,-1.000000,-60.000000,-16.000000,-1.000000,-1.000000,-6.000000,3.000000,-3.000000
1296262.998466,4.000000,5.000000,5.000000,-10.000000,-14.000000,4.000000,2.000000,-19.000000
1296262.998507,-1.000000,-6.000000,-5.000000,-5.000000,51.000000,-4.000000,-10.000000,41.000000
1296263.013237,-11.000000,24.000000,4.000000,-11.000000,-3.000000,-5.000000,-1.000000,18.000000
1296263.013268,11.000000,-4.000000,10.000000,2.000000,-6.000000,3.000000,4.000000,-37.000000
1296263.022034,-3.000000,-1.000000,-7.000000,-34.000000,0.000000,-6.000000,1.000000,24.000000
1296263.022071,-22.000000,-29.000000,-13.000000,106.000000,89.000000,21.000000,3.000000,11.000000
1296263.022664,3.000000,2.000000,4.000000,-40.000000,-30.000000,-16.000000,-3.000000,-3.000000
1296263.022707,-3.000000,16.000000,-5.000000,-21.000000,-21.000000,-2.000000,7.000000,10.000000
1296263.024059,5.000000,12.000000,-17.000000,-36.000000,3.000000,6.000000,4.000000,-30.000000
1296263.024082,12.000000,-3.000000,10.000000,-25.000000,-43.000000,-10.000000,-1.000000,14.000000
1296263.024439,7.000000,19.000000,3.000000,-27.000000,-34.000000,-3.000000,-1.000000,-4.000000
1296263.024459,-14.000000,-22.000000,-3.000000,-9.000000,41.000000,2.000000,-5.000000,8.000000
1296263.035907,10.000000,3.000000,-27.000000,-23.000000,-42.000000,-5.000000,-11.000000,-7.000000
1296263.035961,16.000000,24.000000,16.000000,2.000000,-10.000000,-3.000000,-1.000000,13.000000
1296263.058318,-15.000000,-20.000000,2.000000,-12.000000,-23.000000,-1.000000,0.000000,15.000000
1296263.058344,-14.000000,0.000000,-20.000000,0.000000,3.000000,-3.000000,-11.000000,-32.000000
1296263.065772,0.000000,4.000000,0.000000,2.000000,4.000000,-1.000000,3.000000,-11.000000
1296263.065799,3.000000,31.000000,-8.000000,-6.000000,-17.000000,-2.000000,7.000000,5.000000
1296263.095977,-17.000000,-90.000000,-10.000000,-15.000000,47.000000,-2.000000,-5.000000,8.000000
1296263.096016,12.000000,34.000000,6.000000,-1.000000,-38.000000,-9.000000,-6.000000,-33.000000
1296263.103693,3.000000,7.000000,-4.000000,-4.000000,0.000000,1.000000,0.000000,-20.000000
1296263.103727,-1.000000,28.000000,12.000000,15.000000,4.000000,7.000000,5.000000,-1.000000
1296263.141876,-9.000000,-9.000000,-4.000000,-4.000000,-36.000000,-10.000000,-6.000000,-19.000000
1296263.142526,14.000000,20.000000,3.000000,-16.000000,-11.000000,3.000000,1.000000,43.000000
1296263.143612,-32.000000,-14.000000,-4.000000,45.000000,66.000000,8.000000,-12.000000,-14.000000
1296263.143651,-6.000000,15.000000,6.000000,-7.000000,-19.000000,-5.000000,5.000000,-29.000000
1296263.144628,7.000000,11.000000,-2.000000,-1.000000,9.000000,0.000000,4.000000,17.000000
1296263.144651,3.000000,-40.000000,12.000000,-51.000000,-56.000000,-16.000000,-32.000000,-35.000000
1296263.145018,-6.000000,-4.000000,-5.000000,20.000000,-17.000000,8.000000,11.000000,-11.000000
1296263.145036,3.000000,14.000000,-10.000000,1.000000,-10.000000,-4.000000,-2.000000,15.000000
1296263.145429,-5.000000,-6.000000,5.000000,-11.000000,-11.000000,-2.000000,4.000000,-17.000000
1296263.145447,1.000000,21.000000,-3.000000,-41.000000,-15.000000,2.000000,1.000000,9.000000
1296263.163501,8.000000,-28.000000,-6.000000,4.000000,6.000000,-2.000000,-5.000000,-19.000000
1296263.163530,-24.000000,-37.000000,-6.000000,-37.000000,-28.000000,3.000000,-2.000000,-21.000000
1296263.185657,17.000000,34.000000,-6.000000,57.000000,63.000000,0.000000,-3.000000,-3.000000
1296263.185684,-9.000000,-12.000000,-6.000000,35.000000,16.000000,7.000000,4.000000,6.000000
1296263.193372,9.000000,17.000000,-6.000000,-23.000000,-11.000000,-8.000000,-1.000000,-26.000000
1296263.193420,3.000000,4.000000,0.000000,-8.000000,22.000000,2.000000,1.000000,18.000000
1296263.230834,0.000000,15.000000,2.000000,-29.000000,-18.000000,-1.000000,2.000000,-21.000000
1296263.230860,-2.000000,-27.000000,10.000000,-4.000000,-44.000000,-7.000000,-1.000000,-21.000000
1296263.238282,6.000000,13.000000,11.000000,11.000000,97.000000,19.000000,-10.000000,36.000000
1296263.238313,-15.000000,-54.000000,12.000000,-41.000000,-18.000000,-15.000000,-10.000000,3.000000
1296263.254972,-2.000000,24.000000,-5.000000,0.000000,-20.000000,1.000000,6.000000,-10.000000
1296263.255023,-2.000000,5.000000,-5.000000,-13.000000,-9.000000,-6.000000,0.000000,-6.000000
1296263.255432,1.000000,-12.000000,-7.000000,-9.000000,-1.000000,2.000000,3.000000,4.000000
1296263.255463,8.000000,40.000000,-13.000000,-9.000000,-50.000000,-8.000000,11.000000,-25.000000
1296263.256977,8.000000,30.000000,4.000000,-16.000000,-5.000000,-2.000000,0.000000,11.000000
1296263.257002,-14.000000,-43.000000,-8.000000,9.000000,21.000000,-8.000000,-12.000000,-3.000000
1296263.257937,7.000000,3.000000,0.000000,-5.000000,-4.000000,-1.000000,4.000000,5.000000
1296263.257964,-8.000000,-2.000000,-7.000000,-13.000000,1.000000,3.000000,-2.000000,1.000000
1296263.268217,28.000000,-4.000000,7.000000,-58.000000,7.000000,8.000000,-2.000000,11.000000
1296263.268274,-28.000000,4.000000,7.000000,-17.000000,-35.000000,-9.000000,-13.000000,-25.000000
1296263.290934,7.000000,16.000000,2.000000,-7.000000,-23.000000,-5.000000,7.000000,1.000000
1296263.290962,6.000000,23.000000,-2.000000,-7.000000,-19.000000,-4.000000,7.000000,76.000000
1296263.305897,2.000000,-19.000000,2.000000,1.000000,-3.000000,2.000000,0.000000,-63.000000
1296263.305923,5.000000,14.000000,2.000000,44.000000,36.000000,9.000000,-6.000000,40.000000
1296263.328205,-17.000000,-50.000000,-10.000000,1.000000,-7.000000,-9.000000,-12.000000,3.000000
1296263.328232,-8.000000,-8.000000,-5.000000,-21.000000,-15.000000,4.000000,7.000000,7.000000
1296263.343688,-5.000000,-5.000000,6.000000,-4.000000,-21.000000,1.000000,6.000000,56.000000
1296263.343829,2.000000,-2.000000,2.000000,-4.000000,-19.000000,-1.000000,0.000000,-75.000000
1296263.350799,6.000000,-15.000000,-5.000000,33.000000,3.000000,-5.000000,1.000000,15.000000
1296263.350854,-5.000000,0.000000,39.000000,50.000000,1.000000,12.000000,-2.000000,7.000000
1296263.367247,-18.000000,16.000000,-32.000000,2.000000,-8.000000,-11.000000,-1.000000,-9.000000
1296263.367275,11.000000,19.000000,6.000000,7.000000,-10.000000,3.000000,4.000000,3.000000
1296263.367601,3.000000,15.000000,3.000000,-5.000000,-3.000000,-7.000000,11.000000,19.000000
1296263.367627,9.000000,22.000000,4.000000,-10.000000,20.000000,-2.000000,-7.000000,3.000000
1296263.373424,-7.000000,-14.000000,-5.000000,-19.000000,-13.000000,-9.000000,-7.000000,17.000000
1296263.373746,9.000000,-18.000000,8.000000,17.000000,10.000000,-6.000000,-8.000000,-12.000000
1296263.375053,-25.000000,-3.000000,-36.000000,64.000000,92.000000,18.000000,10.000000,-1.000000
1296263.375108,1.000000,8.000000,-6.000000,4.000000,-27.000000,0.000000,-3.000000,7.000000
1296263.375802,6.000000,-2.000000,7.000000,1.000000,-3.000000,1.000000,0.000000,4.000000
1296263.375854,1.000000,5.000000,7.000000,-16.000000,-9.000000,-1.000000,1.000000,-1.000000
1296263.388297,9.000000,10.000000,-1.000000,-4.000000,-18.000000,3.000000,1.000000,-31.000000
1296263.388324,12.000000,-2.000000,7.000000,-24.000000,-30.000000,-6.000000,-2.000000,19.000000
1296263.418292,-24.000000,-45.000000,7.000000,1.000000,-14.000000,-4.000000,-2.000000,-22.000000
1296263.418319,-7.000000,3.000000,-9.000000,-30.000000,29.000000,-3.000000,-3.000000,-24.000000
1296263.455956,0.000000,-1.000000,-4.000000,-8.000000,13.000000,0.000000,-6.000000,-1.000000
1296263.455985,16.000000,18.000000,9.000000,12.000000,-7.000000,1.000000,-1.000000,7.000000
1296263.463483,-6.000000,-35.000000,-4.000000,-9.000000,0.000000,2.000000,13.000000,-26.000000
1296263.463507,-17.000000,-12.000000,-5.000000,-16.000000,-28.000000,-7.000000,-5.000000,28.000000
1296263.493716,12.000000,37.000000,-3.000000,2.000000,18.000000,-3.000000,-2.000000,27.000000
1296263.494055,-8.000000,-44.000000,-19.000000,-23.000000,-27.000000,-7.000000,-1.000000,-17.000000
1296263.494979,-5.000000,8.000000,11.000000,-3.000000,-9.000000,1.000000,-9.000000,-16.000000
1296263.495023,-1.000000,7.000000,-7.000000,29.000000,39.000000,-4.000000,-1.000000,-19.000000
1296263.496612,-7.000000,-9.000000,7.000000,33.000000,15.000000,2.000000,5.000000,-2.000000
1296263.496971,25.000000,85.000000,-10.000000,13.000000,12.000000,5.000000,0.000000,-58.000000
1296263.497493,3.000000,-25.000000,-25.000000,-24.000000,-11.000000,-5.000000,5.000000,24.000000
1296263.497531,-14.000000,-14.000000,-13.000000,6.000000,36.000000,2.000000,-3.000000,-22.000000
1296263.499270,5.000000,14.000000,10.000000,-16.000000,3.000000,-4.000000,-2.000000,-12.000000
1296263.499317,13.000000,34.000000,-8.000000,21.000000,-6.000000,-4.000000,0.000000,-12.000000
1296263.508300,8.000000,19.000000,3.000000,46.000000,-2.000000,2.000000,0.000000,15.000000
1296263.508327,9.000000,6.000000,-2.000000,-9.000000,-8.000000,2.000000,3.000000,-11.000000
1296263.530858,-6.000000,0.000000,0.000000,2.000000,15.000000,6.000000,-1.000000,0.000000
1296263.530885,8.000000,2.000000,7.000000,-3.000000,-17.000000,0.000000,7.000000,23.000000
1296263.546165,-12.000000,-3.000000,-3.000000,-11.000000,-10.000000,-3.000000,4.000000,50.000000
1296263.546200,12.000000,23.000000,7.000000,-20.000000,7.000000,-11.000000,-23.000000,-15.000000
1296263.553493,-35.000000,-44.000000,14.000000,-15.000000,-28.000000,0.000000,-2.000000,-21.000000
1296263.553545,-4.000000,0.000000,-14.000000,32.000000,11.000000,-1.000000,-3.000000,58.000000
1296263.583477,4.000000,21.000000,6.000000,-24.000000,-24.000000,-7.000000,-6.000000,-56.000000
1296263.583504,-3.000000,-13.000000,-5.000000,-15.000000,-17.000000,-6.000000,-9.000000,10.000000
1296263.605636,5.000000,8.000000,-15.000000,32.000000,22.000000,4.000000,8.000000,23.000000
1296263.605662,3.000000,0.000000,3.000000,-16.000000,2.000000,9.000000,-1.000000,9.000000
1296263.628036,-3.000000,29.000000,-12.000000,-17.000000,-39.000000,-7.000000,-6.000000,-46.000000
1296263.628067,1.000000,-11.000000,4.000000,-16.000000,-31.000000,-7.000000,-2.000000,11.000000
1296263.629131,-14.000000,-56.000000,2.000000,1.000000,21.000000,-8.000000,1.000000,1.000000
1296263.629178,1.000000,32.000000,-10.000000,22.000000,36.000000,15.000000,2.000000,4.000000
1296263.631809,-5.000000,-5.000000,6.000000,-48.000000,-51.000000,-4.000000,5.000000,8.000000
1296263.631845,-4.000000,-22.000000,-16.000000,107.000000,127.000000,19.000000,3.000000,0.000000
1296263.632566,-1.000000,4.000000,4.000000,1.000000,-6.000000,-2.000000,3.000000,2.000000
1296263.632590,-8.000000,3.000000,-7.000000,-1.000000,3.000000,6.000000,4.000000,-59.000000
1296263.651012,-46.000000,-22.000000,0.000000,9.000000,-20.000000,-10.000000,-3.000000,3.000000
1296263.651059,5.000000,9.000000,0.000000,38.000000,40.000000,14.000000,9.000000,-12.000000
1296263.666151,14.000000,21.000000,-10.000000,5.000000,-8.000000,9.000000,7.000000,49.000000
1296263.666202,-10.000000,-17.000000,14.000000,18.000000,-11.000000,-1.000000,7.000000,-8.000000
1296263.703297,8.000000,18.000000,4.000000,-63.000000,-26.000000,-2.000000,-8.000000,-35.000000
1296263.703324,0.000000,-6.000000,-1.000000,11.000000,77.000000,6.000000,2.000000,42.000000
1296263.735096,-9.000000,-33.000000,-3.000000,-11.000000,-45.000000,-15.000000,-4.000000,-10.000000
1296263.735137,-8.000000,-1.000000,-9.000000,0.000000,2.000000,5.000000,6.000000,-6.000000
1296263.735885,14.000000,30.000000,0.000000,10.000000,71.000000,13.000000,1.000000,10.000000
1296263.735936,0.000000,-67.000000,-4.000000,-8.000000,-13.000000,5.000000,5.000000,9.000000
1296263.736939,-9.000000,18.000000,5.000000,-11.000000,-14.000000,-14.000000,-11.000000,-34.000000
1296263.736980,6.000000,-6.000000,-1.000000,-17.000000,-20.000000,-7.000000,-8.000000,-19.000000
1296263.741144,0.000000,6.000000,-13.000000,27.000000,61.000000,11.000000,-8.000000,-5.000000
1296263.741172,5.000000,5.000000,10.000000,-5.000000,-29.000000,-8.000000,7.000000,-3.000000
1296263.741791,36.000000,38.000000,2.000000,-20.000000,-10.000000,-10.000000,-7.000000,5.000000
1296263.741846,-32.000000,-50.000000,-11.000000,-15.000000,11.000000,3.000000,3.000000,21.000000
1296263.770816,1.000000,-2.000000,-9.000000,1.000000,-27.000000,-10.000000,-10.000000,12.000000
1296263.771027,-9.000000,-12.000000,-3.000000,28.000000,8.000000,6.000000,6.000000,-3.000000
1296263.778464,16.000000,-6.000000,25.000000,-20.000000,-17.000000,-4.000000,-6.000000,27.000000
1296263.778565,-12.000000,1.000000,6.000000,-37.000000,-12.000000,-16.000000,-10.000000,-20.000000
1296263.808319,-9.000000,0.000000,1.000000,-12.000000,7.000000,-2.000000,-1.000000,-5.000000
1296263.808346,-3.000000,2.000000,-21.000000,-9.000000,2.000000,-3.000000,4.000000,8.000000
1296263.815983,9.000000,30.000000,-13.000000,8.000000,-20.000000,2.000000,6.000000,8.000000
1296263.816010,-10.000000,-65.000000,7.000000,-39.000000,3.000000,-4.000000,-14.000000,-5.000000
1296263.853206,-39.000000,-13.000000,-1.000000,-25.000000,4.000000,-1.000000,-7.000000,13.000000
1296263.853233,2.000000,4.000000,-1.000000,0.000000,-14.000000,4.000000,13.000000,5.000000
1296263.890870,20.000000,24.000000,3.000000,-9.000000,-6.000000,-5.000000,-11.000000,-22.000000
1296263.890899,1.000000,24.000000,5.000000,12.000000,19.000000,1.000000,-1.000000,33.000000
1296263.905983,-3.000000,-29.000000,-9.000000,4.000000,-6.000000,3.000000,3.000000,7.000000
1296263.906010,-5.000000,10.000000,10.000000,-20.000000,-10.000000,7.000000,10.000000,-14.000000
1296263.928414,0.000000,-23.000000,-1.000000,40.000000,22.000000,9.000000,0.000000,-3.000000
1296263.928438,-10.000000,12.000000,-11.000000,50.000000,23.000000,-9.000000,-8.000000,-5.000000
1296263.943048,-5.000000,-6.000000,13.000000,-30.000000,-35.000000,-3.000000,2.000000,-20.000000
1296263.943073,-4.000000,-7.000000,-5.000000,59.000000,51.000000,4.000000,-1.000000,16.000000
1296263.973355,-23.000000,48.000000,-38.000000,-26.000000,-3.000000,-10.000000,-3.000000,-31.000000
1296263.973402,8.000000,24.000000,-4.000000,34.000000,3.000000,7.000000,9.000000,4.000000
1296263.974224,10.000000,5.000000,18.000000,-23.000000,-32.000000,-1.000000,1.000000,50.000000
1296263.974263,5.000000,17.000000,2.000000,39.000000,5.000000,0.000000,-1.000000,-55.000000
1296263.975402,-2.000000,2.000000,-6.000000,2.000000,19.000000,8.000000,8.000000,7.000000
1296263.975432,3.000000,1.000000,-9.000000,0.000000,9.000000,-2.000000,0.000000,4.000000
1296263.976764,-3.000000,-2.000000,2.000000,4.000000,20.000000,1.000000,-1.000000,-17.000000
1296263.976790,-1.000000,-4.000000,1.000000,-12.000000,-13.000000,1.000000,4.000000,6.000000
1296263.988304,13.000000,20.000000,-9.000000,-12.000000,-7.000000,2.000000,0.000000,8.000000
1296263.988331,9.000000,8.000000,6.000000,12.000000,-4.000000,2.000000,3.000000,2.000000
1296264.018259,2.000000,11.000000,-10.000000,-10.000000,-31.000000,-3.000000,0.000000,-7.000000
1296264.018288,18.000000,3.000000,9.000000,31.000000,47.000000,29.000000,29.000000,91.000000
1296264.040898,-22.000000,-57.000000,-11.000000,-11.000000,60.000000,-13.000000,-34.000000,-66.000000
1296264.040936,4.000000,29.000000,16.000000,-6.000000,-32.000000,-9.000000,-2.000000,-38.000000
1296264.048333,-3.000000,-5.000000,-4.000000,-1.000000,-14.000000,-7.000000,4.000000,13.000000
1296264.048360,1.000000,5.000000,-5.000000,0.000000,-7.000000,-3.000000,0.000000,10.000000
1296264.063532,4.000000,4.000000,8.000000,-30.000000,-13.000000,-3.000000,4.000000,4.000000
1296264.063580,8.000000,7.000000,12.000000,36.000000,6.000000,0.000000,-4.000000,7.000000
1296264.088537,-5.000000,-8.000000,4.000000,-5.000000,-29.000000,-13.000000,-8.000000,11.000000
1296264.088646,6.000000,-5.000000,-1.000000,9.000000,8.000000,8.000000,5.000000,5.000000
1296264.091281,-14.000000,-15.000000,22.000000,11.000000,-53.000000,-4.000000,-20.000000,-19.000000
1296264.091320,8.000000,-9.000000,10.000000,11.000000,18.000000,10.000000,8.000000,10.000000
1296264.091678,1.000000,-6.000000,11.000000,-14.000000,-9.000000,-8.000000,-8.000000,-4.000000
1296264.091955,-7.000000,-21.000000,-14.000000,-13.000000,-8.000000,-2.000000,-3.000000,-35.000000
1296264.092289,4.000000,1.000000,-1.000000,24.000000,13.000000,1.000000,-2.000000,2.000000
1296264.092326,-3.000000,0.000000,-9.000000,9.000000,-31.000000,-5.000000,-4.000000,-2.000000
1296264.094076,3.000000,4.000000,2.000000,-3.000000,-16.000000,-6.000000,-4.000000,20.000000
1296264.094119,-4.000000,4.000000,-11.000000,1.000000,-23.000000,-1.000000,2.000000,-10.000000
1296264.109008,5.000000,9.000000,8.000000,-8.000000,-11.000000,-1.000000,-2.000000,17.000000
1296264.109128,-1.000000,-5.000000,15.000000,-19.000000,7.000000,0.000000,-7.000000,-32.000000
1296264.116493,-5.000000,11.000000,-12.000000,8.000000,-3.000000,5.000000,1.000000,12.000000
1296264.116525,-4.000000,-8.000000,-2.000000,0.000000,-11.000000,-1.000000,4.000000,7.000000
1296264.138699,5.000000,52.000000,3.000000,-33.000000,-19.000000,-5.000000,-1.000000,-5.000000
1296264.138729,-6.000000,-67.000000,7.000000,22.000000,28.000000,3.000000,-6.000000,-5.000000
1296264.161319,-4.000000,8.000000,1.000000,-27.000000,-27.000000,-1.000000,-1.000000,44.000000
1296264.161348,5.000000,14.000000,-1.000000,-6.000000,-24.000000,-6.000000,5.000000,-9.000000
1296264.176010,-2.000000,-11.000000,-24.000000,27.000000,3.000000,5.000000,-5.000000,-1.000000
1296264.176038,15.000000,6.000000,4.000000,19.000000,7.000000,1.000000,4.000000,13.000000
1296264.184068,-25.000000,0.000000,-11.000000,1.000000,22.000000,-5.000000,-6.000000,-5.000000
1296264.184132,3.000000,18.000000,2.000000,8.000000,-22.000000,0.000000,8.000000,53.000000
1296264.186627,6.000000,8.000000,-21.000000,-18.000000,-22.000000,2.000000,8.000000,-51.000000
1296264.186681,2.000000,2.000000,-24.000000,5.000000,86.000000,10.000000,2.000000,11.000000
1296264.188088,-4.000000,3.000000,-22.000000,93.000000,91.000000,8.000000,-11.000000,35.000000
1296264.188141,-3.000000,-6.000000,-10.000000,-24.000000,-28.000000,-5.000000,-1.000000,-28.000000
1296264.206054,1.000000,12.000000,-7.000000,-4.000000,-3.000000,4.000000,-1.000000,4.000000
1296264.206082,2.000000,26.000000,-4.000000,-6.000000,-8.000000,-1.000000,18.000000,40.000000
1296264.213481,14.000000,-23.000000,-8.000000,-1.000000,17.000000,-1.000000,-11.000000,-40.000000
1296264.213509,-24.000000,-5.000000,-6.000000,-1.000000,0.000000,-6.000000,-7.000000,-17.000000
1296264.222160,12.000000,30.000000,-2.000000,10.000000,-44.000000,-13.000000,7.000000,-51.000000
1296264.222216,-4.000000,-17.000000,-4.000000,105.000000,108.000000,55.000000,6.000000,98.000000
1296264.224019,5.000000,6.000000,1.000000,-37.000000,-46.000000,-19.000000,-9.000000,-16.000000
1296264.224045,-26.000000,4.000000,-7.000000,-10.000000,-15.000000,-6.000000,-1.000000,-14.000000
1296264.250930,11.000000,-11.000000,-10.000000,-5.000000,-10.000000,0.000000,1.000000,1.000000
1296264.250956,-1.000000,-1.000000,-5.000000,11.000000,8.000000,0.000000,9.000000,16.000000
1296264.258619,7.000000,18.000000,-15.000000,-24.000000,-11.000000,1.000000,-1.000000,-7.000000
1296264.258669,1.000000,-40.000000,5.000000,-12.000000,0.000000,-4.000000,-7.000000,-5.000000
1296264.288475,1.000000,15.000000,4.000000,3.000000,1.000000,-2.000000,2.000000,0.000000
1296264.288505,15.000000,-7.000000,3.000000,0.000000,6.000000,5.000000,4.000000,-17.000000
1296264.296586,-31.000000,-17.000000,-1.000000,-11.000000,-1.000000,-7.000000,-15.000000,7.000000
1296264.296629,18.000000,3.000000,-7.000000,-27.000000,2.000000,-4.000000,1.000000,-55.000000
1296264.298185,-10.000000,-2.000000,20.000000,65.000000,58.000000,18.000000,-1.000000,66.000000
1296264.298734,23.000000,46.000000,15.000000,-15.000000,-33.000000,-12.000000,-13.000000,1.000000
1296264.300272,-14.000000,8.000000,-12.000000,57.000000,32.000000,2.000000,-3.000000,-19.000000
1296264.300321,3.000000,-3.000000,-4.000000,-15.000000,-17.000000,-5.000000,0.000000,18.000000
1296264.300596,-6.000000,-17.000000,1.000000,-1.000000,9.000000,2.000000,3.000000,-12.000000
1296264.300661,5.000000,23.000000,-22.000000,-17.000000,-47.000000,-13.000000,-4.000000,1.000000
1296264.311902,-9.000000,-7.000000,-6.000000,-18.000000,-3.000000,-4.000000,-5.000000,-14.000000
1296264.311936,-4.000000,8.000000,-3.000000,6.000000,-8.000000,-2.000000,-1.000000,6.000000
1296264.327013,0.000000,-7.000000,-9.000000,-8.000000,-18.000000,4.000000,6.000000,4.000000
1296264.327343,-2.000000,-1.000000,1.000000,-4.000000,40.000000,4.000000,2.000000,-5.000000
1296264.328356,6.000000,-9.000000,-45.000000,12.000000,75.000000,10.000000,0.000000,-43.000000
1296264.328412,-1.000000,9.000000,-13.000000,-5.000000,-19.000000,-6.000000,-7.000000,1.000000
1296264.341705,-5.000000,-21.000000,0.000000,-49.000000,-9.000000,-10.000000,-11.000000,31.000000
1296264.342075,4.000000,6.000000,14.000000,12.000000,19.000000,-3.000000,-1.000000,-33.000000
1296264.363415,17.000000,32.000000,4.000000,14.000000,-10.000000,6.000000,6.000000,15.000000
1296264.363444,-18.000000,-19.000000,6.000000,-4.000000,-5.000000,-3.000000,1.000000,-34.000000
1296264.371176,-1.000000,-8.000000,-22.000000,13.000000,26.000000,-9.000000,-22.000000,2.000000
1296264.371203,-1.000000,8.000000,-8.000000,25.000000,11.000000,8.000000,8.000000,33.000000
1296264.415804,11.000000,11.000000,5.000000,-12.000000,-28.000000,-3.000000,7.000000,-13.000000
1296264.415863,-4.000000,-7.000000,14.000000,21.000000,28.000000,4.000000,-1.000000,-39.000000
1296264.430809,0.000000,-1.000000,-1.000000,4.000000,-27.000000,-11.000000,-2.000000,62.000000
1296264.430833,8.000000,15.000000,5.000000,28.000000,29.000000,8.000000,1.000000,-47.000000
1296264.445930,2.000000,-24.000000,-1.000000,-43.000000,-9.000000,-3.000000,-2.000000,-3.000000
1296264.445958,-20.000000,-35.000000,-10.000000,13.000000,-9.000000,2.000000,-2.000000,1.000000
1296264.453179,-7.000000,-6.000000,6.000000,-5.000000,19.000000,-2.000000,3.000000,-10.000000
1296264.453205,6.000000,24.000000,5.000000,-25.000000,-31.000000,-6.000000,-1.000000,6.000000
1296264.483184,26.000000,24.000000,3.000000,-10.000000,-7.000000,1.000000,1.000000,72.000000
1296264.483210,5.000000,-21.000000,18.000000,9.000000,46.000000,-11.000000,-25.000000,-54.000000
1296264.490990,5.000000,28.000000,10.000000,-5.000000,-12.000000,-7.000000,3.000000,10.000000
1296264.491015,19.000000,-42.000000,-12.000000,11.000000,7.000000,9.000000,5.000000,18.000000
1296264.498609,-22.000000,9.000000,-8.000000,67.000000,61.000000,13.000000,1.000000,-35.000000
1296264.498664,8.000000,20.000000,10.000000,12.000000,6.000000,3.000000,-6.000000,3.000000
1296264.535839,18.000000,20.000000,17.000000,-14.000000,-11.000000,-8.000000,-3.000000,-3.000000
1296264.535867,-21.000000,-52.000000,-8.000000,9.000000,18.000000,-4.000000,4.000000,-2.000000
1296264.565993,2.000000,23.000000,8.000000,-5.000000,-27.000000,-1.000000,3.000000,-8.000000
1296264.566380,7.000000,27.000000,-5.000000,79.000000,42.000000,13.000000,7.000000,71.000000
1296264.568040,19.000000,-11.000000,4.000000,-25.000000,-7.000000,-3.000000,-16.000000,-55.000000
1296264.568374,-21.000000,-37.000000,-18.000000,-18.000000,-7.000000,-6.000000,-6.000000,-8.000000
1296264.568812,-13.000000,8.000000,3.000000,-4.000000,-8.000000,2.000000,5.000000,81.000000
1296264.568867,2.000000,0.000000,1.000000,11.000000,2.000000,-1.000000,-4.000000,-42.000000
1296264.569081,-2.000000,-16.000000,-39.000000,32.000000,27.000000,11.000000,6.000000,19.000000
1296264.569121,-7.000000,2.000000,12.000000,-17.000000,-15.000000,-8.000000,-9.000000,-4.000000
1296264.570456,9.000000,3.000000,7.000000,-19.000000,-19.000000,-7.000000,-1.000000,27.000000
1296264.570484,4.000000,1.000000,-24.000000,90.000000,41.000000,25.000000,15.000000,43.000000
1296264.571217,-1.000000,2.000000,4.000000,35.000000,-20.000000,4.000000,7.000000,-4.000000
1296264.571236,6.000000,4.000000,-12.000000,48.000000,4.000000,8.000000,6.000000,9.000000
1296264.588563,-3.000000,-18.000000,-5.000000,20.000000,-4.000000,1.000000,2.000000,-9.000000
1296264.588608,5.000000,19.000000,5.000000,-29.000000,-30.000000,2.000000,7.000000,-42.000000
1296264.610682,14.000000,-19.000000,-11.000000,22.000000,48.000000,2.000000,2.000000,63.000000
1296264.610712,-9.000000,9.000000,-2.000000,-22.000000,-14.000000,-12.000000,-7.000000,-9.000000
1296264.625843,-8.000000,9.000000,-37.000000,-7.000000,-15.000000,1.000000,3.000000,-6.000000
1296264.625869,9.000000,3.000000,12.000000,1.000000,-11.000000,3.000000,4.000000,10.000000
1296264.648295,-26.000000,-22.000000,-5.000000,4.000000,15.000000,4.000000,-1.000000,-4.000000
1296264.648355,20.000000,25.000000,-6.000000,-4.000000,-25.000000,0.000000,8.000000,-17.000000
1296264.650256,-11.000000,-7.000000,-20.000000,67.000000,127.000000,10.000000,-14.000000,8.000000
1296264.650286,-5.000000,6.000000,0.000000,-14.000000,-25.000000,-16.000000,-5.000000,-22.000000
1296264.651386,-9.000000,-7.000000,0.000000,-1.000000,-5.000000,-2.000000,-1.000000,-3.000000
1296264.651443,10.000000,11.000000,0.000000,-6.000000,-19.000000,4.000000,8.000000,49.000000
1296264.652745,-10.000000,-42.000000,4.000000,13.000000,-1.000000,-6.000000,-1.000000,-37.000000
1296264.652769,13.000000,-16.000000,0.000000,46.000000,-5.000000,9.000000,1.000000,28.000000
1296264.652878,-21.000000,0.000000,11.000000,-4.000000,6.000000,-3.000000,-4.000000,-12.000000
1296264.652889,-2.000000,3.000000,8.000000,38.000000,-1.000000,0.000000,-3.000000,2.000000
1296264.656106,-6.000000,-15.000000,7.000000,-33.000000,-42.000000,5.000000,7.000000,-14.000000
1296264.656186,28.000000,-22.000000,3.000000,-46.000000,-41.000000,-11.000000,-14.000000,-29.000000
1296264.685941,-16.000000,-42.000000,3.000000,-22.000000,-20.000000,-16.000000,-19.000000,22.000000
1296264.686209,-14.000000,6.000000,-4.000000,-4.000000,-11.000000,-1.000000,4.000000,-1.000000
1296264.687428,10.000000,7.000000,-4.000000,3.000000,-9.000000,3.000000,6.000000,14.000000
1296264.687488,8.000000,6.000000,-13.000000,9.000000,-5.000000,4.000000,6.000000,4.000000
1296264.688433,0.000000,1.000000,2.000000,-12.000000,-3.000000,-3.000000,-13.000000,-33.000000
1296264.688497,-3.000000,15.000000,-10.000000,-2.000000,-1.000000,4.000000,-1.000000,17.000000
1296264.716076,-11.000000,-35.000000,11.000000,-1.000000,8.000000,-5.000000,-7.000000,20.000000
1296264.716132,-3.000000,-12.000000,-4.000000,-28.000000,-1.000000,-11.000000,-8.000000,-16.000000
1296264.730891,-1.000000,2.000000,-7.000000,0.000000,-11.000000,-1.000000,-2.000000,-3.000000
1296264.730924,6.000000,5.000000,-3.000000,1.000000,7.000000,4.000000,2.000000,5.000000
1296264.738661,-8.000000,3.000000,0.000000,-4.000000,-14.000000,2.000000,0.000000,-19.000000
1296264.738688,2.000000,-5.000000,-14.000000,-24.000000,-19.000000,-6.000000,-7.000000,25.000000
1296264.753771,5.000000,-13.000000,12.000000,-3.000000,38.000000,4.000000,-6.000000,-4.000000
1296264.753811,5.000000,3.000000,-1.000000,-6.000000,26.000000,3.000000,7.000000,-30.000000
1296264.760785,-14.000000,-18.000000,-18.000000,-39.000000,-47.000000,-8.000000,-4.000000,4.000000
1296264.760811,11.000000,19.000000,-14.000000,-29.000000,-25.000000,-7.000000,-13.000000,10.000000
1296264.775483,-4.000000,-7.000000,10.000000,-22.000000,-29.000000,-9.000000,-6.000000,-10.000000
1296264.775508,15.000000,24.000000,13.000000,62.000000,60.000000,13.000000,9.000000,25.000000
1296264.776162,-17.000000,-55.000000,-3.000000,-26.000000,0.000000,-18.000000,-30.000000,-27.000000
1296264.776220,4.000000,26.000000,-5.000000,-22.000000,-29.000000,-11.000000,-3.000000,-8.000000
1296264.778167,1.000000,7.000000,-15.000000,17.000000,17.000000,7.000000,12.000000,33.000000
1296264.778223,15.000000,-54.000000,-3.000000,0.000000,-18.000000,0.000000,1.000000,34.000000
1296264.779245,-9.000000,30.000000,-10.000000,-25.000000,-4.000000,-10.000000,-5.000000,-59.000000
1296264.779267,-3.000000,10.000000,-15.000000,-27.000000,-32.000000,-7.000000,6.000000,27.000000
1296264.806048,1.000000,-22.000000,-1.000000,127.000000,127.000000,36.000000,-8.000000,3.000000
1296264.806075,-11.000000,12.000000,-4.000000,-34.000000,-36.000000,-16.000000,-9.000000,-30.000000
1296264.807042,4.000000,12.000000,-9.000000,0.000000,-14.000000,-1.000000,8.000000,-1.000000
1296264.807318,-9.000000,-11.000000,6.000000,-17.000000,-2.000000,-2.000000,-2.000000,-33.000000
1296264.808578,-1.000000,0.000000,-18.000000,11.000000,13.000000,-3.000000,-7.000000,-5.000000
1296264.808600,-5.000000,0.000000,3.000000,27.000000,-47.000000,3.000000,8.000000,-6.000000
1296264.843644,18.000000,20.000000,25.000000,-14.000000,-4.000000,-8.000000,-20.000000,19.000000
1296264.843693,-16.000000,-25.000000,-5.000000,-6.000000,-8.000000,-3.000000,-3.000000,-17.000000
1296264.881128,-3.000000,11.000000,11.000000,-8.000000,-11.000000,-2.000000,2.000000,-1.000000
1296264.881183,-12.000000,-11.000000,-4.000000,-6.000000,-14.000000,-6.000000,2.000000,-8.000000
1296264.881965,5.000000,7.000000,10.000000,-6.000000,39.000000,8.000000,6.000000,0.000000
1296264.881993,6.000000,6.000000,-10.000000,-5.000000,-45.000000,-9.000000,5.000000,49.000000
1296264.883501,-1.000000,1.000000,-7.000000,-20.000000,-26.000000,-7.000000,5.000000,-2.000000
1296264.883527,3.000000,0.000000,-12.000000,-11.000000,-7.000000,-5.000000,2.000000,12.000000
1296264.884325,-1.000000,3.000000,2.000000,85.000000,69.000000,19.000000,6.000000,-10.000000
1296264.884353,-3.000000,10.000000,-5.000000,-4.000000,-8.000000,-5.000000,-6.000000,-4.000000
1296264.885294,5.000000,-17.000000,-2.000000,34.000000,52.000000,17.000000,-2.000000,-20.000000
1296264.885340,-11.000000,7.000000,25.000000,-20.000000,13.000000,-14.000000,-21.000000,-9.000000
1296264.888285,-31.000000,-30.000000,-27.000000,1.000000,22.000000,-9.000000,-7.000000,-24.000000
1296264.888337,0.000000,12.000000,10.000000,-10.000000,-17.000000,-3.000000,3.000000,-1.000000
1296264.895725,11.000000,9.000000,-4.000000,15.000000,-2.000000,2.000000,8.000000,4.000000
1296264.895780,6.000000,4.000000,8.000000,6.000000,-20.000000,1.000000,3.000000,63.000000
1296264.918726,-2.000000,-3.000000,0.000000,0.000000,-2.000000,2.000000,1.000000,-82.000000
1296264.918753,11.000000,-13.000000,3.000000,-2.000000,-1.000000,-3.000000,-14.000000,10.000000
1296264.919329,-14.000000,-23.000000,-9.000000,-12.000000,0.000000,-13.000000,-12.000000,1.000000
1296264.919389,-13.000000,-21.000000,-2.000000,0.000000,-6.000000,-1.000000,4.000000,-5.000000
1296264.925520,4.000000,20.000000,9.000000,-3.000000,-29.000000,-3.000000,1.000000,-17.000000
1296264.925545,14.000000,5.000000,19.000000,12.000000,-22.000000,-8.000000,-2.000000,-10.000000
1296264.940985,8.000000,10.000000,6.000000,24.000000,8.000000,7.000000,-3.000000,-37.000000
1296264.941030,5.000000,2.000000,12.000000,29.000000,39.000000,11.000000,-9.000000,21.000000
1296264.964027,-18.000000,-17.000000,-1.000000,-29.000000,-21.000000,-13.000000,-3.000000,-15.000000
1296264.964070,6.000000,10.000000,15.000000,-1.000000,-4.000000,0.000000,5.000000,1.000000
1296264.971372,1.000000,3.000000,1.000000,-2.000000,-8.000000,-1.000000,-1.000000,-1.000000
1296264.971429,-2.000000,1.000000,0.000000,-13.000000,-24.000000,-6.000000,-3.000000,-15.000000
1296265.001927,9.000000,15.000000,2.000000,7.000000,18.000000,14.000000,5.000000,12.000000
1296265.001955,-8.000000,-57.000000,-15.000000,-21.000000,1.000000,-10.000000,-5.000000,-12.000000
1296265.003454,4.000000,13.000000,6.000000,-3.000000,10.000000,-2.000000,1.000000,-3.000000
1296265.003484,-4.000000,-7.000000,9.000000,5.000000,-1.000000,-3.000000,-6.000000,7.000000
1296265.004512,-1.000000,7.000000,13.000000,-6.000000,-7.000000,5.000000,9.000000,-18.000000
1296265.004538,9.000000,-1.000000,-3.000000,-11.000000,-14.000000,2.000000,-14.000000,26.000000
1296265.005292,-13.000000,-14.000000,18.000000,-31.000000,11.000000,-25.000000,-20.000000,-31.000000
1296265.005314,-6.000000,-2.000000,0.000000,2.000000,-20.000000,-1.000000,1.000000,-2.000000
1296265.008153,4.000000,6.000000,21.000000,20.000000,-1.000000,10.000000,11.000000,4.000000
1296265.008180,-1.000000,24.000000,-9.000000,-20.000000,-21.000000,-9.000000,-6.000000,-7.000000
1296265.016249,-3.000000,-33.000000,-5.000000,-21.000000,-27.000000,0.000000,5.000000,6.000000
1296265.016292,-11.000000,4.000000,12.000000,127.000000,80.000000,7.000000,-2.000000,-11.000000
1296265.031577,6.000000,6.000000,8.000000,-9.000000,-3.000000,-7.000000,-8.000000,-22.000000
1296265.031601,-11.000000,-14.000000,-5.000000,-24.000000,-14.000000,-8.000000,0.000000,0.000000
1296265.038159,1.000000,11.000000,13.000000,2.000000,-22.000000,0.000000,5.000000,-23.000000
1296265.038184,8.000000,-37.000000,10.000000,-19.000000,47.000000,-6.000000,-23.000000,18.000000
1296265.045806,-17.000000,15.000000,-18.000000,-29.000000,-29.000000,-6.000000,-1.000000,-15.000000
1296265.045944,2.000000,10.000000,-20.000000,0.000000,3.000000,9.000000,11.000000,5.000000
1296265.068426,1.000000,6.000000,3.000000,-27.000000,-15.000000,-11.000000,-9.000000,-10.000000
1296265.068538,0.000000,-53.000000,15.000000,-1.000000,-5.000000,1.000000,-5.000000,-1.000000
1296265.121158,-4.000000,36.000000,-3.000000,8.000000,-5.000000,0.000000,1.000000,-5.000000
1296265.121186,0.000000,5.000000,-3.000000,12.000000,33.000000,4.000000,-1.000000,-33.000000
1296265.128655,2.000000,0.000000,-8.000000,58.000000,49.000000,8.000000,6.000000,23.000000
1296265.128681,3.000000,5.000000,5.000000,-17.000000,-37.000000,-6.000000,-7.000000,-6.000000
1296265.158354,-11.000000,3.000000,-1.000000,-7.000000,-19.000000,-5.000000,8.000000,43.000000
1296265.158379,17.000000,46.000000,-39.000000,-63.000000,2.000000,24.000000,3.000000,-29.000000
1296265.165932,-23.000000,-108.000000,17.000000,-55.000000,-19.000000,-20.000000,-19.000000,-7.000000
1296265.165960,-12.000000,22.000000,-8.000000,-3.000000,-24.000000,-8.000000,-3.000000,-13.000000
1296265.180991,7.000000,11.000000,-9.000000,6.000000,1.000000,1.000000,9.000000,43.000000
1296265.181018,2.000000,12.000000,9.000000,-2.000000,-3.000000,0.000000,4.000000,-27.000000
1296265.195926,9.000000,11.000000,0.000000,46.000000,47.000000,8.000000,4.000000,54.000000
1296265.195975,7.000000,-5.000000,-2.000000,-9.000000,-12.000000,-2.000000,5.000000,21.000000
1296265.210736,-12.000000,-9.000000,-8.000000,7.000000,67.000000,-3.000000,-1.000000,1.000000
1296265.210764,10.000000,21.000000,-2.000000,-17.000000,-29.000000,-2.000000,-1.000000,5.000000
1296265.233314,10.000000,35.000000,15.000000,7.000000,2.000000,-5.000000,-1.000000,-55.000000
1296265.233340,-18.000000,-86.000000,-16.000000,6.000000,32.000000,2.000000,2.000000,-33.000000
1296265.248368,2.000000,16.000000,16.000000,-46.000000,-40.000000,-4.000000,0.000000,47.000000
1296265.248647,-5.000000,17.000000,12.000000,12.000000,80.000000,-1.000000,-7.000000,-15.000000
1296265.249130,-6.000000,-24.000000,-15.000000,-11.000000,6.000000,-6.000000,-9.000000,-17.000000
1296265.249165,-7.000000,8.000000,10.000000,1.000000,-19.000000,2.000000,5.000000,7.000000
1296265.250297,4.000000,5.000000,-4.000000,-6.000000,-10.000000,2.000000,0.000000,26.000000
1296265.250323,9.000000,-1.000000,1.000000,8.000000,5.000000,5.000000,6.000000,-22.000000
1296265.250442,17.000000,52.000000,16.000000,3.000000,-4.000000,-5.000000,-3.000000,-2.000000
1296265.250459,-5.000000,-82.000000,-7.000000,13.000000,-7.000000,-2.000000,4.000000,14.000000
1296265.251475,-7.000000,-1.000000,8.000000,0.000000,-20.000000,-2.000000,-1.000000,-13.000000
1296265.251528,0.000000,26.000000,-1.000000,45.000000,12.000000,2.000000,6.000000,-19.000000
1296265.252090,1.000000,2.000000,-1.000000,-5.000000,-32.000000,2.000000,-2.000000,-1.000000
1296265.252250,2.000000,-9.000000,2.000000,8.000000,17.000000,6.000000,1.000000,0.000000
1296265.270724,-3.000000,-5.000000,-6.000000,13.000000,8.000000,-2.000000,5.000000,7.000000
1296265.270752,3.000000,1.000000,12.000000,-24.000000,-44.000000,-5.000000,7.000000,10.000000
1296265.272177,-16.000000,-28.000000,-3.000000,2.000000,0.000000,-7.000000,-16.000000,-28.000000
1296265.272202,15.000000,2.000000,-7.000000,-30.000000,3.000000,5.000000,6.000000,14.000000
1296265.277999,4.000000,11.000000,7.000000,-3.000000,12.000000,4.000000,-5.000000,-19.000000
1296265.278026,0.000000,-4.000000,-6.000000,-7.000000,-19.000000,-10.000000,4.000000,15.000000
1296265.323214,-11.000000,-8.000000,16.000000,-9.000000,-2.000000,-2.000000,-12.000000,-36.000000
1296265.323241,2.000000,-16.000000,1.000000,9.000000,19.000000,-4.000000,-4.000000,24.000000
1296265.330848,4.000000,21.000000,-1.000000,-10.000000,-13.000000,1.000000,-4.000000,-23.000000
1296265.330874,2.000000,-11.000000,-6.000000,22.000000,13.000000,1.000000,5.000000,27.000000
1296265.360713,-9.000000,-26.000000,13.000000,-25.000000,-22.000000,-14.000000,-3.000000,-1.000000
1296265.360739,0.000000,31.000000,10.000000,-7.000000,36.000000,10.000000,-3.000000,4.000000
1296265.368671,-6.000000,8.000000,-5.000000,-9.000000,-30.000000,-14.000000,-10.000000,-28.000000
1296265.368696,10.000000,-29.000000,3.000000,-11.000000,-26.000000,2.000000,5.000000,24.000000
1296265.369967,2.000000,7.000000,5.000000,-1.000000,-22.000000,4.000000,4.000000,-7.000000
1296265.369995,-21.000000,-11.000000,-15.000000,0.000000,25.000000,-1.000000,-5.000000,4.000000
1296265.371031,-12.000000,-6.000000,-8.000000,-20.000000,-34.000000,-4.000000,3.000000,1.000000
1296265.371054,-5.000000,2.000000,7.000000,-13.000000,-10.000000,-6.000000,-13.000000,-1.000000
1296265.405918,-3.000000,25.000000,11.000000,-9.000000,-4.000000,-1.000000,0.000000,13.000000
1296265.405945,-11.000000,-25.000000,12.000000,-9.000000,16.000000,-3.000000,-9.000000,-12.000000
1296265.450722,0.000000,20.000000,-4.000000,9.000000,-16.000000,-7.000000,-2.000000,-12.000000
1296265.450749,2.000000,1.000000,-20.000000,-9.000000,-3.000000,3.000000,12.000000,73.000000
1296265.480831,-5.000000,-24.000000,3.000000,-42.000000,-3.000000,-5.000000,-10.000000,-53.000000
1296265.480886,-6.000000,8.000000,1.000000,-12.000000,-10.000000,-8.000000,0.000000,8.000000
1296265.488604,4.000000,0.000000,2.000000,20.000000,21.000000,14.000000,6.000000,28.000000
1296265.489047,6.000000,9.000000,2.000000,-12.000000,-6.000000,-5.000000,-1.000000,-39.000000
1296265.490566,-4.000000,0.000000,-10.000000,-29.000000,-26.000000,-7.000000,-2.000000,0.000000
1296265.490911,17.000000,12.000000,9.000000,-29.000000,-9.000000,4.000000,-3.000000,22.000000
1296265.491807,-4.000000,-8.000000,11.000000,23.000000,-5.000000,-7.000000,-2.000000,-3.000000
1296265.491829,-7.000000,-5.000000,-11.000000,16.000000,17.000000,-1.000000,2.000000,-6.000000
1296265.491947,0.000000,-5.000000,12.000000,-12.000000,-15.000000,-9.000000,-7.000000,-2.000000
1296265.491981,-3.000000,-3.000000,3.000000,0.000000,-6.000000,0.000000,1.000000,8.000000
1296265.492184,15.000000,67.000000,-3.000000,-25.000000,-16.000000,-6.000000,-10.000000,-26.000000
1296265.492205,-1.000000,-86.000000,41.000000,7.000000,38.000000,-6.000000,-15.000000,1.000000
1296265.518679,-14.000000,11.000000,-4.000000,-2.000000,-18.000000,-4.000000,0.000000,-12.000000
1296265.518746,3.000000,16.000000,-2.000000,3.000000,-12.000000,5.000000,13.000000,8.000000
1296265.526151,5.000000,3.000000,5.000000,0.000000,2.000000,-2.000000,-8.000000,1.000000
1296265.526312,4.000000,12.000000,-7.000000,-17.000000,-26.000000,-10.000000,3.000000,49.000000
1296265.556068,-13.000000,-22.000000,5.000000,28.000000,42.000000,9.000000,4.000000,-41.000000
1296265.556096,2.000000,0.000000,2.000000,-2.000000,-25.000000,-5.000000,0.000000,1.000000
1296265.563796,-8.000000,2.000000,-13.000000,8.000000,46.000000,5.000000,0.000000,-13.000000
1296265.563851,5.000000,0.000000,2.000000,-13.000000,-19.000000,-12.000000,-2.000000,26.000000
1296265.593501,-4.000000,-4.000000,-2.000000,2.000000,7.000000,2.000000,1.000000,-2.000000
1296265.593612,18.000000,3.000000,-13.000000,12.000000,-9.000000,1.000000,-1.000000,8.000000
1296265.600819,-8.000000,1.000000,-5.000000,-12.000000,1.000000,-1.000000,3.000000,5.000000
1296265.600844,-13.000000,1.000000,-32.000000,-24.000000,-35.000000,-14.000000,-1.000000,-68.000000
1296265.631462,13.000000,-1.000000,-5.000000,53.000000,124.000000,20.000000,-2.000000,29.000000
1296265.631685,-5.000000,0.000000,13.000000,-16.000000,19.000000,-6.000000,-12.000000,-16.000000
1296265.632306,-12.000000,8.000000,-20.000000,0.000000,-13.000000,-8.000000,-3.000000,-6.000000
1296265.632340,4.000000,11.000000,-4.000000,-11.000000,-16.000000,-5.000000,1.000000,1.000000
1296265.638607,-10.000000,-12.000000,-11.000000,8.000000,-4.000000,4.000000,2.000000,38.000000
1296265.638634,-4.000000,4.000000,-8.000000,-4.000000,-8.000000,-6.000000,-1.000000,-41.000000
1296265.638996,12.000000,-15.000000,-9.000000,33.000000,91.000000,11.000000,3.000000,39.000000
1296265.639018,-1.000000,10.000000,10.000000,-10.000000,-6.000000,-6.000000,-8.000000,-23.000000
1296265.640346,-2.000000,-3.000000,-6.000000,-12.000000,-14.000000,0.000000,7.000000,-10.000000
1296265.640368,4.000000,7.000000,1.000000,-27.000000,-27.000000,-7.000000,0.000000,-4.000000
1296265.645660,35.000000,28.000000,12.000000,-16.000000,-5.000000,0.000000,-12.000000,20.000000
1296265.645685,-33.000000,-45.000000,-15.000000,0.000000,-16.000000,-5.000000,-3.000000,-9.000000
1296265.676225,-4.000000,11.000000,-14.000000,-22.000000,-20.000000,-10.000000,0.000000,2.000000
1296265.676256,9.000000,28.000000,-11.000000,-8.000000,48.000000,1.000000,0.000000,-5.000000
1296265.713073,12.000000,-15.000000,0.000000,-6.000000,-5.000000,3.000000,2.000000,-6.000000
1296265.713096,-12.000000,19.000000,5.000000,-6.000000,-4.000000,-7.000000,-8.000000,-9.000000
1296265.720843,12.000000,-7.000000,0.000000,-8.000000,-7.000000,-3.000000,2.000000,5.000000
1296265.720868,-19.000000,-25.000000,5.000000,-7.000000,-3.000000,-9.000000,-1.000000,-5.000000
1296265.735800,17.000000,15.000000,25.000000,43.000000,41.000000,12.000000,0.000000,44.000000
1296265.735829,1.000000,-2.000000,2.000000,4.000000,-15.000000,-4.000000,-4.000000,18.000000
1296265.751512,-3.000000,9.000000,-7.000000,-10.000000,-24.000000,-1.000000,2.000000,-45.000000
1296265.751563,-2.000000,8.000000,-4.000000,1.000000,4.000000,3.000000,0.000000,-5.000000
1296265.753382,4.000000,1.000000,-7.000000,5.000000,-10.000000,-2.000000,6.000000,47.000000
1296265.753991,-3.000000,-1.000000,0.000000,9.000000,-20.000000,-4.000000,4.000000,-19.000000
1296265.755032,4.000000,14.000000,16.000000,-45.000000,-48.000000,-5.000000,-4.000000,14.000000
1296265.755147,16.000000,-3.000000,15.000000,-27.000000,-19.000000,-1.000000,3.000000,13.000000
1296265.755606,-5.000000,-9.000000,-3.000000,7.000000,-5.000000,-3.000000,3.000000,15.000000
1296265.755651,1.000000,21.000000,-9.000000,0.000000,-5.000000,-2.000000,-2.000000,-11.000000
1296265.755995,2.000000,-7.000000,2.000000,-27.000000,-15.000000,-2.000000,10.000000,0.000000
1296265.756048,0.000000,11.000000,3.000000,62.000000,46.000000,11.000000,-11.000000,14.000000
1296265.758787,3.000000,-6.000000,2.000000,-8.000000,27.000000,-3.000000,6.000000,-5.000000
1296265.758810,-5.000000,-4.000000,3.000000,-1.000000,-28.000000,-5.000000,1.000000,-17.000000
1296265.795990,-4.000000,-3.000000,-16.000000,3.000000,4.000000,0.000000,2.000000,-20.000000
1296265.796016,10.000000,-2.000000,-1.000000,-5.000000,-23.000000,-3.000000,0.000000,23.000000
1296265.833524,-16.000000,2.000000,-3.000000,25.000000,17.000000,10.000000,-1.000000,-16.000000
1296265.833576,-3.000000,-16.000000,1.000000,-33.000000,-39.000000,-18.000000,-2.000000,9.000000
1296265.835133,15.000000,-1.000000,-5.000000,92.000000,90.000000,20.000000,8.000000,52.000000
1296265.835372,-21.000000,12.000000,9.000000,-2.000000,-7.000000,-3.000000,-6.000000,-42.000000
1296265.836305,5.000000,0.000000,-4.000000,-4.000000,-3.000000,-2.000000,2.000000,0.000000
1296265.836327,-8.000000,-6.000000,-7.000000,3.000000,-21.000000,-2.000000,2.000000,14.000000
1296265.836638,-2.000000,1.000000,-1.000000,-18.000000,-21.000000,-4.000000,3.000000,6.000000
1296265.836659,-6.000000,-9.000000,13.000000,-17.000000,5.000000,-2.000000,-6.000000,7.000000
1296265.842479,-3.000000,5.000000,6.000000,17.000000,24.000000,2.000000,2.000000,-7.000000
1296265.842602,-8.000000,2.000000,4.000000,-10.000000,-3.000000,0.000000,2.000000,-8.000000
1296265.843294,0.000000,6.000000,-1.000000,-12.000000,-18.000000,-3.000000,5.000000,25.000000
1296265.843349,23.000000,23.000000,13.000000,42.000000,1.000000,2.000000,4.000000,-35.000000
1296265.848020,3.000000,-41.000000,-13.000000,-24.000000,46.000000,-3.000000,-15.000000,15.000000
1296265.848045,-11.000000,7.000000,21.000000,-19.000000,-24.000000,-8.000000,-9.000000,-18.000000
1296265.864482,4.000000,6.000000,-15.000000,-3.000000,-9.000000,3.000000,4.000000,5.000000
1296265.864507,13.000000,28.000000,-2.000000,16.000000,6.000000,8.000000,11.000000,-37.000000
1296265.878744,-16.000000,-41.000000,-3.000000,-30.000000,-11.000000,-11.000000,-12.000000,55.000000
1296265.878801,-5.000000,11.000000,8.000000,-7.000000,-6.000000,-7.000000,-3.000000,-26.000000
1296265.893493,2.000000,-8.000000,-6.000000,0.000000,-40.000000,4.000000,4.000000,3.000000
1296265.893517,-3.000000,11.000000,9.000000,-33.000000,11.000000,5.000000,3.000000,-3.000000
1296265.900822,4.000000,-2.000000,10.000000,4.000000,13.000000,5.000000,-3.000000,4.000000
1296265.900850,3.000000,10.000000,-6.000000,-9.000000,0.000000,-6.000000,0.000000,3.000000
1296265.923522,-5.000000,0.000000,-12.000000,27.000000,3.000000,-2.000000,6.000000,46.000000
1296265.923550,9.000000,31.000000,9.000000,40.000000,18.000000,5.000000,10.000000,-79.000000
1296265.953399,19.000000,-46.000000,23.000000,11.000000,-3.000000,-6.000000,-12.000000,26.000000
1296265.953827,-30.000000,13.000000,-1.000000,-21.000000,-18.000000,-14.000000,-6.000000,-14.000000
1296265.954969,3.000000,8.000000,-1.000000,-7.000000,-9.000000,-3.000000,3.000000,6.000000
1296265.954994,5.000000,11.000000,2.000000,16.000000,-9.000000,3.000000,2.000000,8.000000
1296265.956513,3.000000,15.000000,3.000000,17.000000,19.000000,1.000000,2.000000,-5.000000
1296265.956537,-14.000000,-45.000000,-11.000000,-11.000000,-18.000000,-8.000000,4.000000,26.000000
1296265.956715,13.000000,28.000000,5.000000,-17.000000,86.000000,12.000000,-4.000000,33.000000
1296265.956763,-3.000000,-38.000000,-12.000000,7.000000,-3.000000,0.000000,-6.000000,-50.000000
1296265.957594,3.000000,17.000000,8.000000,-20.000000,10.000000,-6.000000,-7.000000,-17.000000
1296265.957697,-11.000000,-1.000000,-22.000000,-1.000000,-16.000000,-3.000000,0.000000,0.000000
1296265.961484,-9.000000,-25.000000,3.000000,12.000000,8.000000,8.000000,3.000000,-1.000000
1296265.961508,4.000000,8.000000,9.000000,-8.000000,-1.000000,-5.000000,-5.000000,-6.000000
1296265.975762,-4.000000,-3.000000,5.000000,-11.000000,-21.000000,-2.000000,10.000000,14.000000
1296265.975789,-3.000000,-8.000000,-15.000000,31.000000,44.000000,9.000000,-2.000000,6.000000
1296265.992166,-5.000000,-30.000000,23.000000,-34.000000,-25.000000,-8.000000,0.000000,-7.000000
1296265.992190,4.000000,21.000000,-3.000000,9.000000,-21.000000,-3.000000,1.000000,-4.000000
1296265.992707,-1.000000,10.000000,-8.000000,14.000000,14.000000,-3.000000,-1.000000,5.000000
1296265.992761,1.000000,-5.000000,5.000000,-10.000000,-4.000000,-1.000000,-1.000000,0.000000
1296266.005844,1.000000,29.000000,-16.000000,-50.000000,-24.000000,-12.000000,2.000000,-63.000000
1296266.005870,4.000000,-24.000000,1.000000,127.000000,69.000000,25.000000,0.000000,44.000000
1296266.013356,-1.000000,-19.000000,2.000000,-36.000000,19.000000,-7.000000,-10.000000,-17.000000
1296266.013383,-12.000000,8.000000,4.000000,6.000000,-7.000000,-7.000000,1.000000,-4.000000
1296266.043461,1.000000,6.000000,-19.000000,3.000000,1.000000,3.000000,4.000000,-1.000000
1296266.043515,2.000000,-1.000000,-7.000000,23.000000,12.000000,1.000000,3.000000,4.000000
1296266.065781,2.000000,14.000000,10.000000,-34.000000,-64.000000,1.000000,4.000000,-4.000000
1296266.065819,9.000000,-9.000000,-10.000000,18.000000,18.000000,-5.000000,-23.000000,44.000000
1296266.081488,-44.000000,1.000000,15.000000,-13.000000,21.000000,-1.000000,-8.000000,-54.000000
1296266.081536,8.000000,-11.000000,-5.000000,-15.000000,-26.000000,-4.000000,1.000000,13.000000
1296266.111579,-7.000000,0.000000,-3.000000,0.000000,4.000000,2.000000,2.000000,-17.000000
1296266.111740,8.000000,-2.000000,12.000000,8.000000,2.000000,4.000000,2.000000,36.000000
1296266.113429,-14.000000,-14.000000,-2.000000,13.000000,8.000000,-1.000000,2.000000,-28.000000
1296266.113479,-5.000000,11.000000,5.000000,41.000000,-7.000000,4.000000,4.000000,17.000000
1296266.113747,-3.000000,6.000000,2.000000,-11.000000,-10.000000,-13.000000,-10.000000,-7.000000
1296266.113792,-3.000000,-7.000000,1.000000,-7.000000,-23.000000,5.000000,-1.000000,-1.000000
1296266.118982,-3.000000,19.000000,-10.000000,-12.000000,0.000000,-6.000000,-4.000000,5.000000
1296266.119014,2.000000,-25.000000,10.000000,-23.000000,46.000000,4.000000,9.000000,-11.000000
1296266.148267,0.000000,-1.000000,-9.000000,2.000000,40.000000,-1.000000,2.000000,0.000000
1296266.148294,9.000000,15.000000,-13.000000,-7.000000,-51.000000,0.000000,7.000000,-26.000000
1296266.155973,-21.000000,-47.000000,2.000000,39.000000,56.000000,-1.000000,-7.000000,4.000000
1296266.156089,-7.000000,6.000000,0.000000,-8.000000,5.000000,-4.000000,-3.000000,-4.000000
1296266.178399,2.000000,25.000000,6.000000,8.000000,6.000000,2.000000,9.000000,56.000000
1296266.178426,26.000000,-24.000000,-5.000000,5.000000,-58.000000,7.000000,-6.000000,-20.000000
1296266.193431,-24.000000,16.000000,6.000000,-21.000000,47.000000,-13.000000,-7.000000,-16.000000
1296266.193459,4.000000,25.000000,-4.000000,8.000000,-25.000000,7.000000,8.000000,-22.000000
1296266.194971,-9.000000,-32.000000,12.000000,-13.000000,-16.000000,3.000000,4.000000,30.000000
1296266.194988,10.000000,6.000000,3.000000,8.000000,-22.000000,-7.000000,-6.000000,-8.000000
1296266.195310,15.000000,2.000000,-1.000000,1.000000,-5.000000,0.000000,2.000000,4.000000
1296266.195331,-2.000000,-7.000000,-7.000000,-4.000000,-9.000000,-2.000000,0.000000,-17.000000
1296266.197055,10.000000,31.000000,4.000000,-20.000000,-21.000000,-11.000000,3.000000,39.000000
1296266.197079,-15.000000,-33.000000,-16.000000,102.000000,58.000000,30.000000,7.000000,-46.000000
1296266.197193,-1.000000,11.000000,-10.000000,-29.000000,-10.000000,-20.000000,-9.000000,-3.000000
1296266.197205,2.000000,27.000000,8.000000,-21.000000,-5.000000,-1.000000,0.000000,23.000000
1296266.201732,-3.000000,-34.000000,1.000000,33.000000,45.000000,-3.000000,-1.000000,11.000000
1296266.201758,-3.000000,17.000000,-13.000000,42.000000,9.000000,5.000000,0.000000,-28.000000
1296266.215932,9.000000,-4.000000,12.000000,-7.000000,-14.000000,0.000000,6.000000,24.000000
1296266.215987,-11.000000,-12.000000,-27.000000,-11.000000,-15.000000,1.000000,0.000000,-29.000000
1296266.231787,-10.000000,6.000000,8.000000,-29.000000,-33.000000,-18.000000,-14.000000,-7.000000
1296266.231812,4.000000,3.000000,-11.000000,61.000000,76.000000,12.000000,6.000000,-20.000000
1296266.238297,3.000000,2.000000,-11.000000,14.000000,-7.000000,4.000000,2.000000,28.000000
1296266.238351,-4.000000,-43.000000,12.000000,-20.000000,-18.000000,-11.000000,-9.000000,2.000000
1296266.268250,1.000000,20.000000,-16.000000,-11.000000,-23.000000,-2.000000,7.000000,-52.000000
1296266.268275,4.000000,-24.000000,7.000000,-13.000000,44.000000,1.000000,-6.000000,59.000000
1296266.275821,13.000000,-21.000000,15.000000,2.000000,26.000000,3.000000,-6.000000,-29.000000
1296266.275876,-21.000000,-11.000000,-4.000000,-19.000000,-21.000000,-5.000000,0.000000,-24.000000
1296266.306022,12.000000,5.000000,-1.000000,0.000000,7.000000,1.000000,3.000000,-6.000000
1296266.306070,-28.000000,-22.000000,-24.000000,36.000000,37.000000,-1.000000,-5.000000,12.000000
1296266.321754,2.000000,14.000000,-16.000000,-1.000000,-10.000000,-6.000000,2.000000,-30.000000
1296266.321797,-3.000000,-30.000000,6.000000,65.000000,70.000000,15.000000,2.000000,12.000000
1296266.323451,0.000000,-18.000000,-8.000000,-52.000000,-38.000000,-13.000000,-3.000000,16.000000
1296266.323485,1.000000,16.000000,17.000000,83.000000,99.000000,28.000000,-3.000000,-19.000000
1296266.324795,-14.000000,-5.000000,-12.000000,-6.000000,-1.000000,-4.000000,-1.000000,-1.000000
1296266.324821,-7.000000,12.000000,-2.000000,-3.000000,-10.000000,-2.000000,6.000000,-20.000000
1296266.325078,-11.000000,-43.000000,0.000000,-9.000000,-28.000000,-7.000000,1.000000,-5.000000
1296266.325119,-5.000000,-9.000000,-8.000000,-2.000000,18.000000,-5.000000,-1.000000,-1.000000
1296266.350907,5.000000,7.000000,-6.000000,-16.000000,-10.000000,-1.000000,7.000000,2.000000
1296266.350951,7.000000,-15.000000,-9.000000,-30.000000,-9.000000,5.000000,9.000000,58.000000
1296266.380774,-11.000000,11.000000,-2.000000,-6.000000,-1.000000,-14.000000,-12.000000,-58.000000
1296266.380800,8.000000,8.000000,12.000000,-47.000000,-36.000000,-1.000000,-2.000000,18.000000
1296266.388451,13.000000,34.000000,6.000000,3.000000,-19.000000,-3.000000,3.000000,22.000000
1296266.388481,-6.000000,4.000000,-2.000000,-15.000000,-15.000000,-8.000000,-3.000000,-13.000000
1296266.403827,0.000000,3.000000,-9.000000,-4.000000,-5.000000,-1.000000,-1.000000,49.000000
1296266.403877,1.000000,6.000000,4.000000,6.000000,-6.000000,3.000000,6.000000,-29.000000
1296266.425848,10.000000,22.000000,2.000000,-8.000000,-3.000000,3.000000,-1.000000,-4.000000
1296266.425875,-8.000000,-46.000000,-5.000000,-17.000000,-15.000000,-9.000000,-15.000000,-11.000000
1296266.440921,-5.000000,13.000000,-19.000000,1.000000,-24.000000,-5.000000,0.000000,1.000000
1296266.440979,4.000000,11.000000,-2.000000,36.000000,31.000000,11.000000,8.000000,6.000000
1296266.463213,5.000000,-1.000000,-6.000000,-9.000000,-4.000000,-7.000000,0.000000,2.000000
1296266.463243,-2.000000,17.000000,4.000000,-16.000000,-1.000000,-4.000000,-8.000000,-3.000000
1296266.485971,-13.000000,7.000000,-6.000000,-9.000000,-4.000000,-5.000000,-3.000000,-9.000000
1296266.486025,6.000000,7.000000,3.000000,-5.000000,-9.000000,3.000000,-1.000000,-2.000000
1296266.515714,3.000000,29.000000,19.000000,16.000000,-28.000000,-2.000000,-3.000000,5.000000
1296266.515771,-8.000000,-45.000000,-10.000000,56.000000,81.000000,8.000000,-11.000000,31.000000
1296266.553672,-1.000000,14.000000,1.000000,-14.000000,-41.000000,-5.000000,0.000000,-3.000000
1296266.553893,-7.000000,-9.000000,-6.000000,-1.000000,47.000000,9.000000,-1.000000,-6.000000
1296266.554920,-1.000000,3.000000,-3.000000,4.000000,6.000000,0.000000,-5.000000,-1.000000
1296266.554958,4.000000,25.000000,-1.000000,2.000000,-19.000000,-10.000000,-3.000000,-1.000000
1296266.555917,0.000000,26.000000,-6.000000,1.000000,-17.000000,-10.000000,-10.000000,-4.000000
1296266.555947,-2.000000,-4.000000,-4.000000,-22.000000,-33.000000,-3.000000,3.000000,6.000000
1296266.556971,-1.000000,13.000000,12.000000,20.000000,55.000000,5.000000,0.000000,34.000000
1296266.556996,9.000000,-8.000000,1.000000,-16.000000,-12.000000,1.000000,-6.000000,-74.000000
1296266.561659,-2.000000,11.000000,-12.000000,-6.000000,-13.000000,3.000000,-3.000000,-43.000000
1296266.561687,-8.000000,-14.000000,-11.000000,-49.000000,-35.000000,-12.000000,1.000000,78.000000
1296266.584516,4.000000,6.000000,20.000000,101.000000,89.000000,19.000000,3.000000,-19.000000
1296266.584818,-8.000000,-5.000000,-4.000000,32.000000,26.000000,2.000000,4.000000,-11.000000
1296266.586006,0.000000,-8.000000,-13.000000,1.000000,-6.000000,2.000000,-3.000000,-8.000000
1296266.586057,0.000000,-1.000000,3.000000,-1.000000,-1.000000,-6.000000,-2.000000,0.000000
1296266.590607,-1.000000,-6.000000,5.000000,-10.000000,1.000000,1.000000,-2.000000,-2.000000
1296266.590631,7.000000,58.000000,9.000000,20.000000,-17.000000,-5.000000,2.000000,18.000000
1296266.620799,-1.000000,-73.000000,-11.000000,19.000000,20.000000,10.000000,9.000000,40.000000
1296266.620977,-14.000000,1.000000,-11.000000,-22.000000,-1.000000,-7.000000,-7.000000,-49.000000
1296266.628386,5.000000,23.000000,-1.000000,-12.000000,-20.000000,-5.000000,0.000000,51.000000
1296266.628434,12.000000,-24.000000,14.000000,-5.000000,-4.000000,1.000000,1.000000,-28.000000
1296266.658701,-9.000000,3.000000,9.000000,9.000000,12.000000,-6.000000,-13.000000,-10.000000
1296266.658745,-4.000000,-16.000000,-3.000000,9.000000,-5.000000,3.000000,8.000000,1.000000
1296266.659237,4.000000,12.000000,-5.000000,1.000000,-20.000000,0.000000,10.000000,30.000000
1296266.659259,-1.000000,17.000000,8.000000,-31.000000,10.000000,-9.000000,-23.000000,-15.000000
1296266.667939,14.000000,-33.000000,9.000000,-26.000000,-17.000000,1.000000,3.000000,-24.000000
1296266.667967,-16.000000,-25.000000,4.000000,-14.000000,-40.000000,-7.000000,2.000000,-4.000000
1296266.668095,-6.000000,13.000000,-28.000000,-15.000000,41.000000,-1.000000,-3.000000,3.000000
1296266.668143,0.000000,28.000000,1.000000,31.000000,8.000000,10.000000,6.000000,-53.000000
1296266.669323,3.000000,-28.000000,11.000000,-7.000000,-9.000000,-5.000000,-9.000000,5.000000
1296266.669346,2.000000,15.000000,6.000000,-15.000000,-6.000000,-4.000000,-6.000000,-8.000000
1296266.673763,-4.000000,-2.000000,10.000000,-8.000000,0.000000,1.000000,3.000000,4.000000
1296266.673789,-4.000000,1.000000,-6.000000,29.000000,19.000000,4.000000,0.000000,-22.000000
1296266.681576,17.000000,16.000000,-5.000000,-23.000000,-42.000000,4.000000,0.000000,18.000000
1296266.681601,6.000000,-21.000000,24.000000,-27.000000,1.000000,-9.000000,-8.000000,27.000000
1296266.696100,-9.000000,-9.000000,-14.000000,0.000000,-13.000000,-5.000000,2.000000,-13.000000
1296266.696132,-4.000000,9.000000,-10.000000,2.000000,0.000000,1.000000,17.000000,127.000000
1296266.704500,15.000000,-5.000000,-9.000000,37.000000,18.000000,15.000000,-10.000000,-115.000000
1296266.704544,-21.000000,-31.000000,-11.000000,-32.000000,-20.000000,-5.000000,-3.000000,4.000000
1296266.710808,4.000000,27.000000,22.000000,-10.000000,10.000000,3.000000,3.000000,9.000000
1296266.710833,0.000000,1.000000,-9.000000,-4.000000,-10.000000,2.000000,1.000000,31.000000
1296266.748497,2.000000,11.000000,10.000000,-27.000000,-16.000000,-6.000000,1.000000,-12.000000
1296266.748522,9.000000,-1.000000,18.000000,-15.000000,-15.000000,-6.000000,-1.000000,3.000000
1296266.755872,-7.000000,-6.000000,8.000000,-4.000000,0.000000,-5.000000,0.000000,16.000000
1296266.755900,10.000000,4.000000,11.000000,0.000000,-20.000000,1.000000,-5.000000,7.000000
1296266.772543,-6.000000,-8.000000,6.000000,-4.000000,-14.000000,-6.000000,-3.000000,-35.000000
1296266.772571,-7.000000,-2.000000,2.000000,1.000000,2.000000,1.000000,9.000000,5.000000
1296266.772787,22.000000,47.000000,18.000000,2.000000,-43.000000,-9.000000,-11.000000,-41.000000
1296266.772805,-15.000000,-62.000000,-2.000000,46.000000,101.000000,15.000000,7.000000,1.000000
1296266.774145,-8.000000,2.000000,4.000000,13.000000,45.000000,2.000000,2.000000,4.000000
1296266.774169,4.000000,6.000000,-4.000000,-17.000000,-21.000000,-7.000000,-2.000000,10.000000
1296266.785928,3.000000,16.000000,0.000000,-4.000000,-2.000000,6.000000,5.000000,-25.000000
1296266.786083,-7.000000,-27.000000,-8.000000,-32.000000,-5.000000,-8.000000,-3.000000,-12.000000
1296266.800598,15.000000,-21.000000,20.000000,2.000000,12.000000,-10.000000,-13.000000,42.000000
1296266.800623,-40.000000,-11.000000,-8.000000,-19.000000,4.000000,0.000000,-10.000000,-34.000000
1296266.808051,1.000000,1.000000,-12.000000,-7.000000,-4.000000,0.000000,6.000000,1.000000
1296266.808076,-3.000000,6.000000,-8.000000,-16.000000,-13.000000,-4.000000,3.000000,17.000000
1296266.830687,14.000000,20.000000,5.000000,5.000000,3.000000,-1.000000,1.000000,5.000000
1296266.830714,-19.000000,-24.000000,-10.000000,-20.000000,-44.000000,-1.000000,-6.000000,-7.000000
1296266.838269,13.000000,12.000000,21.000000,4.000000,-14.000000,0.000000,-5.000000,-7.000000
1296266.838296,-12.000000,-26.000000,12.000000,-5.000000,-3.000000,0.000000,2.000000,-29.000000
1296266.905898,3.000000,-9.000000,-2.000000,-7.000000,-10.000000,0.000000,-2.000000,4.000000
1296266.905954,-2.000000,8.000000,5.000000,-2.000000,-2.000000,-5.000000,0.000000,4.000000
1296266.907127,-1.000000,9.000000,-4.000000,-32.000000,-23.000000,-2.000000,5.000000,34.000000
1296266.907153,-9.000000,-27.000000,-19.000000,56.000000,52.000000,16.000000,10.000000,5.000000
1296266.908448,12.000000,20.000000,17.000000,77.000000,66.000000,4.000000,-8.000000,-7.000000
1296266.908476,-19.000000,-20.000000,2.000000,-16.000000,-11.000000,-4.000000,-5.000000,-11.000000
1296266.908845,4.000000,10.000000,-6.000000,3.000000,-9.000000,2.000000,2.000000,-6.000000
1296266.908870,15.000000,8.000000,-3.000000,-20.000000,-7.000000,-1.000000,5.000000,3.000000
1296266.910121,-15.000000,-28.000000,-4.000000,24.000000,-6.000000,-5.000000,1.000000,3.000000
1296266.910237,9.000000,21.000000,-1.000000,-8.000000,-26.000000,-4.000000,2.000000,0.000000
1296266.913093,8.000000,13.000000,-2.000000,-3.000000,-2.000000,-5.000000,-5.000000,1.000000
1296266.913118,-7.000000,2.000000,-20.000000,3.000000,-27.000000,-1.000000,4.000000,70.000000
1296266.943491,7.000000,26.000000,5.000000,39.000000,3.000000,10.000000,4.000000,-37.000000
1296266.943517,0.000000,-46.000000,-6.000000,26.000000,22.000000,-2.000000,-3.000000,-8.000000
1296266.951166,0.000000,15.000000,13.000000,-24.000000,-20.000000,-9.000000,-5.000000,-4.000000
1296266.951207,-5.000000,-25.000000,-9.000000,-2.000000,-2.000000,-2.000000,-6.000000,-19.000000
1296266.981107,6.000000,-1.000000,-5.000000,-15.000000,1.000000,-4.000000,-3.000000,10.000000
1296266.981428,0.000000,6.000000,0.000000,8.000000,10.000000,-1.000000,7.000000,11.000000
1296266.982898,-3.000000,-28.000000,-7.000000,3.000000,-1.000000,4.000000,1.000000,-15.000000
1296266.982955,-6.000000,9.000000,6.000000,-26.000000,-24.000000,-5.000000,-3.000000,-63.000000
1296266.983989,-7.000000,-4.000000,2.000000,29.000000,26.000000,14.000000,-7.000000,64.000000
1296266.984019,6.000000,15.000000,0.000000,7.000000,17.000000,-8.000000,-1.000000,-35.000000
1296266.985163,-12.000000,-19.000000,-18.000000,41.000000,-12.000000,5.000000,6.000000,2.000000
1296266.985188,-4.000000,-3.000000,1.000000,24.000000,12.000000,2.000000,6.000000,2.000000
1296266.988283,5.000000,-3.000000,13.000000,11.000000,-14.000000,1.000000,2.000000,2.000000
1296266.988335,-3.000000,-13.000000,-10.000000,34.000000,3.000000,-4.000000,1.000000,15.000000
1296266.995760,-19.000000,-15.000000,17.000000,-1.000000,13.000000,5.000000,-8.000000,-27.000000
1296266.995787,-1.000000,3.000000,7.000000,-4.000000,16.000000,-1.000000,4.000000,2.000000
1296267.025889,-5.000000,-1.000000,-19.000000,-17.000000,-14.000000,-5.000000,-4.000000,-8.000000
1296267.025918,3.000000,15.000000,9.000000,-6.000000,0.000000,0.000000,1.000000,10.000000
1296267.034122,1.000000,-14.000000,-1.000000,-7.000000,-16.000000,-2.000000,-1.000000,-4.000000
1296267.034181,-8.000000,-13.000000,4.000000,-13.000000,-4.000000,6.000000,9.000000,-84.000000
1296267.063466,14.000000,42.000000,-14.000000,-30.000000,-6.000000,3.000000,-12.000000,38.000000
1296267.063492,-26.000000,-72.000000,11.000000,-64.000000,-9.000000,-22.000000,-31.000000,-15.000000
1296267.071838,-12.000000,4.000000,-17.000000,3.000000,-35.000000,0.000000,6.000000,-5.000000
1296267.071904,1.000000,2.000000,-6.000000,-4.000000,-6.000000,0.000000,8.000000,20.000000
1296267.075975,6.000000,12.000000,3.000000,4.000000,9.000000,3.000000,-6.000000,-9.000000
1296267.076014,-3.000000,-19.000000,2.000000,-11.000000,-31.000000,-3.000000,3.000000,-1.000000
1296267.076733,6.000000,9.000000,8.000000,39.000000,34.000000,12.000000,2.000000,3.000000
1296267.076761,8.000000,6.000000,-8.000000,-23.000000,-10.000000,-11.000000,2.000000,-80.000000
1296267.077083,-21.000000,-64.000000,-12.000000,18.000000,11.000000,-4.000000,-14.000000,41.000000
1296267.077114,25.000000,32.000000,6.000000,2.000000,-15.000000,-8.000000,-10.000000,-20.000000
1296267.086914,9.000000,3.000000,-7.000000,7.000000,-71.000000,-8.000000,1.000000,17.000000
1296267.086941,-4.000000,-7.000000,-13.000000,48.000000,101.000000,29.000000,16.000000,2.000000
1296267.101892,2.000000,6.000000,-1.000000,-5.000000,43.000000,-7.000000,-15.000000,-2.000000
1296267.101956,-3.000000,2.000000,10.000000,-31.000000,-15.000000,-4.000000,-13.000000,-16.000000
1296267.108375,-2.000000,7.000000,-9.000000,6.000000,-24.000000,-7.000000,2.000000,-8.000000
1296267.108404,13.000000,21.000000,7.000000,-1.000000,-19.000000,1.000000,8.000000,27.000000
1296267.116390,-9.000000,-74.000000,6.000000,1.000000,24.000000,6.000000,-10.000000,-21.000000
1296267.116423,-6.000000,12.000000,4.000000,-8.000000,-14.000000,-7.000000,3.000000,-5.000000
1296267.130885,6.000000,13.000000,-9.000000,0.000000,-1.000000,2.000000,0.000000,6.000000
1296267.130913,6.000000,13.000000,5.000000,-20.000000,-28.000000,-1.000000,5.000000,27.000000
1296267.138622,-9.000000,8.000000,-14.000000,43.000000,98.000000,18.000000,0.000000,-7.000000
1296267.138678,8.000000,-3.000000,5.000000,-10.000000,15.000000,-3.000000,-5.000000,6.000000
1296267.145750,-1.000000,0.000000,2.000000,-16.000000,-18.000000,-5.000000,4.000000,-24.000000
1296267.145776,-9.000000,0.000000,-13.000000,-7.000000,-1.000000,-4.000000,-4.000000,4.000000
1296267.153279,-1.000000,-1.000000,-4.000000,57.000000,41.000000,8.000000,9.000000,27.000000
1296267.153306,5.000000,-1.000000,-12.000000,-17.000000,-7.000000,0.000000,8.000000,6.000000
1296267.190735,14.000000,19.000000,8.000000,-24.000000,-9.000000,-7.000000,-26.000000,5.000000
1296267.190759,-21.000000,-41.000000,-7.000000,-7.000000,12.000000,-3.000000,-2.000000,-24.000000
1296267.220791,-1.000000,20.000000,1.000000,3.000000,-22.000000,-6.000000,3.000000,6.000000
1296267.220815,-5.000000,-20.000000,-5.000000,22.000000,37.000000,-3.000000,-1.000000,-2.000000
1296267.236592,-10.000000,-5.000000,-9.000000,31.000000,24.000000,5.000000,-2.000000,-2.000000
1296267.236926,1.000000,-2.000000,-8.000000,-36.000000,2.000000,2.000000,3.000000,-7.000000
1296267.238254,3.000000,16.000000,3.000000,36.000000,-31.000000,4.000000,11.000000,30.000000
1296267.238289,14.000000,-4.000000,8.000000,6.000000,-20.000000,12.000000,-3.000000,-57.000000
1296267.238758,3.000000,-15.000000,15.000000,-60.000000,-21.000000,-25.000000,-25.000000,10.000000
1296267.238785,-6.000000,31.000000,-15.000000,1.000000,-20.000000,0.000000,6.000000,-6.000000
1296267.240159,-10.000000,-10.000000,14.000000,-6.000000,-28.000000,-18.000000,-6.000000,-23.000000
1296267.240187,1.000000,12.000000,-10.000000,49.000000,80.000000,20.000000,7.000000,-9.000000
1296267.240452,2.000000,-38.000000,18.000000,-14.000000,-15.000000,1.000000,9.000000,12.000000
1296267.240475,-11.000000,20.000000,3.000000,11.000000,-17.000000,5.000000,1.000000,-1.000000
1296267.257976,-5.000000,-7.000000,-13.000000,-6.000000,-13.000000,-3.000000,0.000000,-12.000000
1296267.258229,4.000000,10.000000,-2.000000,-7.000000,-23.000000,-10.000000,1.000000,102.000000
1296267.258784,8.000000,-20.000000,-15.000000,1.000000,17.000000,10.000000,-2.000000,-37.000000
1296267.258808,0.000000,14.000000,-8.000000,9.000000,11.000000,-6.000000,2.000000,0.000000
1296267.265664,-13.000000,-30.000000,-15.000000,-3.000000,-8.000000,-6.000000,-2.000000,9.000000
1296267.265690,-11.000000,13.000000,-6.000000,7.000000,20.000000,2.000000,2.000000,-4.000000
1296267.273088,5.000000,10.000000,5.000000,-9.000000,-44.000000,-6.000000,2.000000,1.000000
1296267.273114,0.000000,-10.000000,-6.000000,46.000000,76.000000,12.000000,4.000000,1.000000
1296267.310664,1.000000,-13.000000,-12.000000,45.000000,3.000000,-4.000000,-3.000000,-4.000000
1296267.310690,-14.000000,1.000000,5.000000,1.000000,-5.000000,-6.000000,1.000000,-9.000000
1296267.326241,-4.000000,-8.000000,-5.000000,19.000000,42.000000,3.000000,1.000000,39.000000
1296267.326286,22.000000,20.000000,-6.000000,-31.000000,-29.000000,-13.000000,-6.000000,-7.000000
1296267.348176,-10.000000,-3.000000,7.000000,23.000000,53.000000,9.000000,-4.000000,-17.000000
1296267.348202,9.000000,14.000000,-1.000000,-40.000000,-43.000000,-22.000000,-8.000000,-14.000000
1296267.363316,-4.000000,4.000000,-23.000000,28.000000,38.000000,15.000000,3.000000,5.000000
1296267.363342,10.000000,15.000000,-1.000000,-3.000000,-14.000000,-4.000000,0.000000,11.000000
1296267.380258,-9.000000,1.000000,0.000000,-24.000000,-10.000000,-2.000000,-3.000000,-17.000000
1296267.380763,14.000000,24.000000,10.000000,-18.000000,-17.000000,-1.000000,5.000000,36.000000
1296267.381966,-7.000000,-13.000000,-2.000000,-11.000000,-17.000000,-12.000000,-9.000000,-3.000000
1296267.381993,-8.000000,15.000000,-8.000000,1.000000,1.000000,-3.000000,-6.000000,-27.000000
1296267.382390,15.000000,-19.000000,10.000000,-21.000000,-4.000000,-7.000000,-1.000000,16.000000
1296267.382867,-17.000000,5.000000,-3.000000,26.000000,12.000000,1.000000,4.000000,46.000000
1296267.383999,11.000000,4.000000,2.000000,-16.000000,-27.000000,-1.000000,4.000000,70.000000
1296267.384022,-8.000000,-21.000000,-1.000000,-7.000000,40.000000,-1.000000,-8.000000,-36.000000
1296267.385668,-10.000000,-14.000000,-22.000000,-10.000000,-37.000000,-13.000000,-6.000000,-4.000000
1296267.385693,0.000000,1.000000,-9.000000,-36.000000,15.000000,8.000000,7.000000,-10.000000
1296267.393146,-13.000000,-36.000000,-6.000000,-28.000000,1.000000,-12.000000,-23.000000,7.000000
1296267.393172,-5.000000,13.000000,1.000000,13.000000,-21.000000,-5.000000,-6.000000,-31.000000
1296267.416014,6.000000,20.000000,6.000000,10.000000,-13.000000,8.000000,13.000000,25.000000
1296267.416161,19.000000,8.000000,25.000000,12.000000,20.000000,-4.000000,-17.000000,2.000000
1296267.423194,-15.000000,-18.000000,-11.000000,-2.000000,-7.000000,-8.000000,-9.000000,-23.000000
1296267.423219,5.000000,20.000000,-7.000000,-10.000000,-16.000000,3.000000,6.000000,4.000000
1296267.438336,7.000000,5.000000,3.000000,-1.000000,-16.000000,-3.000000,0.000000,6.000000
1296267.438395,4.000000,-23.000000,6.000000,-12.000000,-8.000000,-1.000000,-7.000000,-4.000000
1296267.453232,0.000000,13.000000,-2.000000,4.000000,-6.000000,-2.000000,1.000000,-5.000000
1296267.453292,3.000000,7.000000,2.000000,-12.000000,-25.000000,-7.000000,3.000000,-12.000000
1296267.468247,3.000000,5.000000,6.000000,1.000000,30.000000,11.000000,-3.000000,-27.000000
1296267.468278,-20.000000,-2.000000,-2.000000,5.000000,-25.000000,-9.000000,-5.000000,12.000000
1296267.499422,-3.000000,-8.000000,-34.000000,11.000000,5.000000,-1.000000,-6.000000,-10.000000
1296267.500262,1.000000,7.000000,2.000000,-9.000000,-22.000000,-4.000000,3.000000,10.000000
1296267.501259,1.000000,-2.000000,7.000000,-1.000000,-16.000000,-3.000000,-3.000000,-4.000000
1296267.501658,7.000000,2.000000,-7.000000,16.000000,0.000000,3.000000,1.000000,-6.000000
1296267.501838,3.000000,-4.000000,-10.000000,-21.000000,-45.000000,-5.000000,7.000000,80.000000
1296267.501860,3.000000,27.000000,21.000000,-18.000000,-54.000000,-13.000000,-9.000000,-91.000000
1296267.502457,18.000000,-27.000000,-11.000000,29.000000,73.000000,11.000000,-9.000000,15.000000
1296267.502477,-35.000000,-20.000000,-8.000000,-14.000000,-20.000000,-7.000000,-4.000000,29.000000
1296267.503330,8.000000,32.000000,-1.000000,0.000000,-10.000000,-1.000000,7.000000,-55.000000
1296267.503354,-13.000000,-33.000000,-19.000000,-16.000000,11.000000,-6.000000,-5.000000,5.000000
1296267.505908,11.000000,45.000000,3.000000,12.000000,-16.000000,16.000000,9.000000,17.000000
1296267.505975,6.000000,-29.000000,-3.000000,-6.000000,10.000000,-4.000000,-5.000000,-3.000000
1296267.513234,5.000000,5.000000,9.000000,-21.000000,-19.000000,-11.000000,-6.000000,-20.000000
1296267.513400,-3.000000,-3.000000,-1.000000,2.000000,6.000000,5.000000,0.000000,5.000000
1296267.551000,-8.000000,-36.000000,0.000000,2.000000,-5.000000,1.000000,0.000000,5.000000
1296267.551025,-6.000000,3.000000,5.000000,-6.000000,-1.000000,0.000000,0.000000,-2.000000
1296267.573206,-2.000000,4.000000,1.000000,1.000000,-2.000000,3.000000,0.000000,2.000000
1296267.573234,9.000000,6.000000,-3.000000,2.000000,-2.000000,1.000000,4.000000,-2.000000
1296267.588311,-2.000000,-16.000000,6.000000,3.000000,-17.000000,-3.000000,-1.000000,-3.000000
1296267.588337,-13.000000,7.000000,-5.000000,17.000000,17.000000,-5.000000,-5.000000,-3.000000
1296267.618637,-4.000000,-2.000000,-4.000000,13.000000,-3.000000,-1.000000,0.000000,-34.000000
1296267.618688,8.000000,27.000000,-1.000000,-56.000000,-28.000000,-5.000000,2.000000,31.000000
1296267.620247,9.000000,23.000000,23.000000,-48.000000,64.000000,4.000000,-13.000000,-15.000000
1296267.620822,-29.000000,-96.000000,-18.000000,-10.000000,-20.000000,1.000000,-8.000000,-16.000000
1296267.621882,-10.000000,-21.000000,4.000000,7.000000,18.000000,1.000000,-5.000000,54.000000
1296267.621908,11.000000,9.000000,3.000000,-8.000000,-49.000000,-15.000000,5.000000,-44.000000
1296267.622083,3.000000,34.000000,-20.000000,91.000000,124.000000,25.000000,4.000000,4.000000
1296267.622104,17.000000,-32.000000,-6.000000,-12.000000,-23.000000,-17.000000,-24.000000,-6.000000
1296267.623811,-14.000000,25.000000,11.000000,11.000000,-31.000000,-1.000000,6.000000,8.000000
1296267.623836,6.000000,6.000000,-23.000000,-15.000000,5.000000,-1.000000,8.000000,-8.000000
1296267.625621,0.000000,-3.000000,-7.000000,11.000000,11.000000,-1.000000,-5.000000,-1.000000
1296267.625645,5.000000,8.000000,7.000000,3.000000,10.000000,0.000000,2.000000,-3.000000
1296267.640900,-4.000000,-2.000000,8.000000,-31.000000,-40.000000,-6.000000,-1.000000,-3.000000
1296267.640927,-7.000000,11.000000,-10.000000,119.000000,127.000000,23.000000,8.000000,-4.000000
1296267.663501,10.000000,-7.000000,-3.000000,4.000000,-35.000000,-1.000000,0.000000,3.000000
1296267.663559,-16.000000,-16.000000,2.000000,3.000000,14.000000,-7.000000,-6.000000,-16.000000
1296267.670641,8.000000,24.000000,-1.000000,-37.000000,-55.000000,-9.000000,7.000000,-44.000000
1296267.670666,-10.000000,-40.000000,-3.000000,57.000000,39.000000,18.000000,-7.000000,43.000000
1296267.693613,-27.000000,-45.000000,17.000000,-25.000000,-16.000000,-14.000000,-21.000000,-38.000000
1296267.693661,5.000000,17.000000,-25.000000,-2.000000,-16.000000,1.000000,9.000000,-5.000000
1296267.700887,9.000000,16.000000,12.000000,-6.000000,-11.000000,-1.000000,3.000000,6.000000
1296267.700912,6.000000,32.000000,11.000000,4.000000,-12.000000,2.000000,5.000000,15.000000
1296267.745780,-7.000000,-52.000000,12.000000,-1.000000,1.000000,3.000000,0.000000,-24.000000
1296267.745806,1.000000,19.000000,-3.000000,-7.000000,0.000000,-8.000000,0.000000,5.000000
1296267.753583,-5.000000,19.000000,7.000000,-27.000000,-36.000000,-3.000000,2.000000,-51.000000
1296267.753610,15.000000,-25.000000,26.000000,14.000000,-21.000000,3.000000,0.000000,33.000000
1296267.776003,-10.000000,-8.000000,-2.000000,-12.000000,-11.000000,-5.000000,-4.000000,-9.000000
1296267.776066,1.000000,1.000000,-5.000000,-10.000000,-1.000000,-4.000000,1.000000,0.000000
1296267.783875,3.000000,0.000000,-22.000000,6.000000,5.000000,0.000000,1.000000,4.000000
1296267.783920,-2.000000,-4.000000,7.000000,0.000000,-1.000000,0.000000,-3.000000,-4.000000
1296267.813187,1.000000,19.000000,0.000000,-10.000000,-3.000000,-2.000000,-5.000000,3.000000
1296267.813213,0.000000,-14.000000,3.000000,20.000000,7.000000,3.000000,10.000000,4.000000
1296267.822248,-2.000000,-4.000000,-6.000000,14.000000,27.000000,8.000000,4.000000,-33.000000
1296267.822270,24.000000,25.000000,3.000000,32.000000,3.000000,7.000000,4.000000,30.000000
1296267.822848,-1.000000,-11.000000,-7.000000,2.000000,-12.000000,-1.000000,1.000000,4.000000
1296267.822880,5.000000,11.000000,-3.000000,-4.000000,45.000000,0.000000,-5.000000,-2.000000
1296267.824249,1.000000,3.000000,-1.000000,12.000000,-17.000000,-4.000000,3.000000,1.000000
1296267.824275,-3.000000,3.000000,2.000000,3.000000,47.000000,2.000000,-1.000000,-14.000000
1296267.828149,-8.000000,-4.000000,-9.000000,-20.000000,-40.000000,-5.000000,-1.000000,10.000000
1296267.828174,1.000000,7.000000,1.000000,19.000000,7.000000,-2.000000,-1.000000,-49.000000
1296267.843869,14.000000,49.000000,14.000000,-38.000000,-11.000000,4.000000,4.000000,6.000000
1296267.843982,-4.000000,-62.000000,-6.000000,-11.000000,29.000000,-3.000000,-11.000000,25.000000
1296267.858522,-36.000000,-25.000000,0.000000,12.000000,9.000000,-5.000000,-2.000000,-65.000000
1296267.858551,21.000000,7.000000,-4.000000,14.000000,4.000000,7.000000,14.000000,57.000000
1296267.858673,8.000000,26.000000,12.000000,-13.000000,0.000000,-3.000000,-4.000000,-33.000000
1296267.858712,-5.000000,-8.000000,-4.000000,1.000000,-1.000000,-2.000000,-6.000000,9.000000
1296267.865987,-15.000000,-15.000000,-14.000000,-28.000000,-21.000000,-6.000000,0.000000,-49.000000
1296267.866013,2.000000,0.000000,-15.000000,29.000000,-15.000000,4.000000,-6.000000,32.000000
1296267.895846,12.000000,11.000000,3.000000,9.000000,11.000000,-4.000000,-6.000000,11.000000
1296267.895896,-3.000000,-2.000000,2.000000,4.000000,-9.000000,-5.000000,-1.000000,-37.000000
1296267.918478,3.000000,6.000000,-13.000000,-16.000000,-13.000000,2.000000,3.000000,10.000000
1296267.918521,1.000000,-2.000000,3.000000,-4.000000,-15.000000,-13.000000,-3.000000,-1.000000
1296267.925805,-2.000000,-8.000000,-7.000000,20.000000,34.000000,6.000000,0.000000,8.000000
1296267.925831,3.000000,10.000000,6.000000,-1.000000,-12.000000,-4.000000,-1.000000,8.000000
1296267.940580,6.000000,-33.000000,-4.000000,39.000000,67.000000,11.000000,4.000000,-3.000000
1296267.940605,-3.000000,9.000000,12.000000,-21.000000,-18.000000,-7.000000,-6.000000,-14.000000
1296267.949313,10.000000,19.000000,-7.000000,-10.000000,-28.000000,3.000000,5.000000,-5.000000
1296267.949574,0.000000,-3.000000,20.000000,3.000000,25.000000,3.000000,4.000000,16.000000
1296267.951008,4.000000,26.000000,-11.000000,2.000000,22.000000,-3.000000,0.000000,-33.000000
1296267.951034,-10.000000,-29.000000,-12.000000,-1.000000,-23.000000,-11.000000,-18.000000,-4.000000
1296267.951544,-6.000000,-6.000000,-1.000000,-4.000000,1.000000,-1.000000,4.000000,8.000000
1296267.951565,23.000000,17.000000,1.000000,1.000000,-31.000000,0.000000,0.000000,16.000000
1296267.952494,3.000000,0.000000,5.000000,28.000000,5.000000,6.000000,-2.000000,-8.000000
1296267.952519,12.000000,21.000000,-2.000000,-3.000000,-11.000000,0.000000,5.000000,7.000000
1296267.971514,-14.000000,-31.000000,3.000000,5.000000,-4.000000,-7.000000,-2.000000,15.000000
1296267.971895,0.000000,-24.000000,5.000000,7.000000,-1.000000,1.000000,-4.000000,-25.000000
1296267.972864,-5.000000,4.000000,7.000000,-12.000000,7.000000,-3.000000,0.000000,-8.000000
1296267.972941,13.000000,29.000000,11.000000,-15.000000,-73.000000,-1.000000,3.000000,19.000000
1296267.978309,-8.000000,-13.000000,0.000000,-8.000000,-40.000000,-12.000000,-6.000000,-7.000000
1296267.978333,0.000000,-4.000000,4.000000,-2.000000,-15.000000,6.000000,2.000000,-11.000000
1296267.985628,8.000000,5.000000,1.000000,-23.000000,-27.000000,-9.000000,-3.000000,-27.000000
1296267.985654,-11.000000,-8.000000,-20.000000,-4.000000,-2.000000,-2.000000,-3.000000,-2.000000
1296268.000940,2.000000,-1.000000,3.000000,-3.000000,6.000000,-5.000000,-3.000000,9.000000
1296268.000966,-10.000000,2.000000,-13.000000,15.000000,-21.000000,2.000000,6.000000,19.000000
1296268.015818,10.000000,-4.000000,12.000000,-21.000000,0.000000,10.000000,2.000000,-15.000000
1296268.015870,-7.000000,23.000000,13.000000,24.000000,11.000000,-11.000000,-5.000000,2.000000
1296268.023364,9.000000,21.000000,-1.000000,20.000000,12.000000,-1.000000,2.000000,4.000000
1296268.023391,-21.000000,-56.000000,-8.000000,-16.000000,11.000000,-2.000000,2.000000,-20.000000
1296268.045814,-1.000000,6.000000,22.000000,-54.000000,-9.000000,-7.000000,-12.000000,-9.000000
1296268.045840,-4.000000,-9.000000,-5.000000,-26.000000,14.000000,6.000000,6.000000,-6.000000
1296268.053615,-9.000000,0.000000,-12.000000,-17.000000,-3.000000,-2.000000,9.000000,27.000000
1296268.053668,4.000000,-2.000000,10.000000,7.000000,-7.000000,3.000000,0.000000,-9.000000
1296268.083465,2.000000,-2.000000,-22.000000,-17.000000,-10.000000,7.000000,-2.000000,-36.000000
1296268.083493,-16.000000,-22.000000,-8.000000,21.000000,30.000000,3.000000,2.000000,11.000000
1296268.091692,-13.000000,6.000000,8.000000,13.000000,-11.000000,-7.000000,-4.000000,23.000000
1296268.092235,5.000000,13.000000,-9.000000,-9.000000,50.000000,2.000000,1.000000,-33.000000
1296268.094373,-2.000000,-8.000000,5.000000,-50.000000,-48.000000,-7.000000,-1.000000,-4.000000
1296268.094428,5.000000,23.000000,-2.000000,-3.000000,-5.000000,1.000000,-9.000000,6.000000
1296268.094920,-3.000000,-20.000000,4.000000,-14.000000,-9.000000,-6.000000,-5.000000,-1.000000
1296268.094940,-9.000000,-17.000000,-4.000000,-21.000000,-16.000000,-4.000000,-3.000000,-9.000000
1296268.095945,8.000000,41.000000,3.000000,37.000000,13.000000,12.000000,7.000000,48.000000
1296268.095971,-14.000000,-53.000000,-22.000000,-2.000000,3.000000,-10.000000,-7.000000,-47.000000
1296268.098196,4.000000,13.000000,-7.000000,2.000000,-21.000000,-4.000000,10.000000,101.000000
1296268.098223,-5.000000,3.000000,-4.000000,6.000000,-13.000000,4.000000,7.000000,-45.000000
1296268.105844,26.000000,24.000000,9.000000,-29.000000,22.000000,-3.000000,-7.000000,39.000000
1296268.105874,-25.000000,-27.000000,-24.000000,-11.000000,-1.000000,-3.000000,-3.000000,-15.000000
1296268.121206,5.000000,10.000000,6.000000,-13.000000,-14.000000,-6.000000,-2.000000,6.000000
1296268.121233,-6.000000,13.000000,-7.000000,4.000000,-10.000000,6.000000,7.000000,-1.000000
1296268.143346,15.000000,7.000000,3.000000,-13.000000,-3.000000,-5.000000,0.000000,23.000000
1296268.143506,-5.000000,-25.000000,-4.000000,8.000000,-18.000000,6.000000,4.000000,-3.000000
1296268.173569,-4.000000,-10.000000,-4.000000,28.000000,33.000000,2.000000,5.000000,-16.000000
1296268.173617,15.000000,18.000000,-2.000000,-16.000000,7.000000,0.000000,-1.000000,-16.000000
1296268.196147,2.000000,9.000000,2.000000,-24.000000,5.000000,1.000000,1.000000,-16.000000
1296268.196228,-3.000000,-10.000000,-3.000000,-6.000000,-33.000000,-5.000000,-12.000000,10.000000
1296268.211161,-3.000000,2.000000,3.000000,-3.000000,17.000000,-2.000000,2.000000,-6.000000
1296268.211215,0.000000,6.000000,-9.000000,-42.000000,-37.000000,-1.000000,3.000000,33.000000
1296268.225741,18.000000,2.000000,-25.000000,15.000000,23.000000,-4.000000,-3.000000,-4.000000
1296268.225768,-32.000000,-51.000000,-14.000000,53.000000,67.000000,1.000000,-14.000000,-18.000000
1296268.233429,-13.000000,10.000000,-1.000000,-6.000000,-4.000000,-8.000000,-5.000000,-2.000000
1296268.233458,4.000000,7.000000,-6.000000,3.000000,-8.000000,-4.000000,2.000000,4.000000
1296268.256260,-5.000000,4.000000,5.000000,26.000000,11.000000,-1.000000,-5.000000,-4.000000
1296268.256298,12.000000,-10.000000,0.000000,-4.000000,-3.000000,2.000000,2.000000,2.000000
1296268.286291,-15.000000,7.000000,-10.000000,10.000000,-4.000000,-3.000000,-3.000000,-20.000000
1296268.286328,2.000000,5.000000,2.000000,-1.000000,-15.000000,-1.000000,1.000000,33.000000
1296268.293462,9.000000,-7.000000,-10.000000,-20.000000,41.000000,1.000000,-7.000000,-64.000000
1296268.293512,2.000000,12.000000,3.000000,-25.000000,-14.000000,-19.000000,-17.000000,24.000000
1296268.300962,-23.000000,-38.000000,4.000000,33.000000,43.000000,6.000000,-6.000000,-13.000000
1296268.300988,-2.000000,12.000000,4.000000,-19.000000,-19.000000,-9.000000,1.000000,3.000000
1296268.323467,5.000000,2.000000,-7.000000,24.000000,30.000000,9.000000,1.000000,13.000000
1296268.323491,9.000000,12.000000,5.000000,-19.000000,-35.000000,-8.000000,2.000000,6.000000
1296268.338521,-10.000000,-15.000000,-26.000000,32.000000,84.000000,13.000000,-1.000000,-6.000000
1296268.338572,-1.000000,-5.000000,-5.000000,-15.000000,-28.000000,-4.000000,-2.000000,-27.000000
1296268.345564,0.000000,-9.000000,-2.000000,25.000000,29.000000,6.000000,2.000000,32.000000
1296268.345590,-2.000000,-2.000000,1.000000,-18.000000,3.000000,-3.000000,-7.000000,-31.000000
1296268.368874,5.000000,34.000000,22.000000,-10.000000,-19.000000,-14.000000,-6.000000,5.000000
1296268.368940,2.000000,-56.000000,-18.000000,46.000000,-2.000000,27.000000,10.000000,3.000000
1296268.370435,10.000000,19.000000,10.000000,-35.000000,-50.000000,-6.000000,0.000000,-52.000000
1296268.371134,1.000000,11.000000,12.000000,-5.000000,-13.000000,-4.000000,-12.000000,39.000000
1296268.371846,-3.000000,-17.000000,-2.000000,-32.000000,-18.000000,-10.000000,-16.000000,-46.000000
1296268.372344,-8.000000,3.000000,20.000000,10.000000,-5.000000,-5.000000,1.000000,5.000000
1296268.373218,-1.000000,8.000000,-6.000000,-35.000000,-9.000000,-3.000000,1.000000,-2.000000
1296268.373243,-8.000000,-21.000000,0.000000,37.000000,26.000000,13.000000,2.000000,17.000000
1296268.373386,-19.000000,-41.000000,-17.000000,-21.000000,-30.000000,-19.000000,-13.000000,-14.000000
1296268.373452,-6.000000,15.000000,-9.000000,21.000000,6.000000,-4.000000,-4.000000,-7.000000
1296268.373685,0.000000,4.000000,-25.000000,-4.000000,12.000000,2.000000,4.000000,-4.000000
1296268.373709,2.000000,6.000000,6.000000,13.000000,13.000000,3.000000,-5.000000,-2.000000
1296268.376113,8.000000,-1.000000,6.000000,-37.000000,-46.000000,-13.000000,-13.000000,-11.000000
1296268.376502,-7.000000,-9.000000,-3.000000,37.000000,13.000000,8.000000,-7.000000,-18.000000
1296268.390816,-19.000000,-12.000000,3.000000,7.000000,0.000000,-1.000000,8.000000,5.000000
1296268.390886,13.000000,7.000000,-12.000000,-13.000000,-33.000000,-1.000000,-4.000000,-6.000000
1296268.398324,11.000000,8.000000,22.000000,-1.000000,-21.000000,-3.000000,-9.000000,14.000000
1296268.398379,-11.000000,-27.000000,-5.000000,-33.000000,-10.000000,-6.000000,2.000000,-5.000000
1296268.413473,0.000000,19.000000,-8.000000,5.000000,-3.000000,2.000000,0.000000,-3.000000
1296268.413516,3.000000,1.000000,2.000000,22.000000,35.000000,3.000000,-5.000000,9.000000
1296268.421605,11.000000,38.000000,7.000000,-15.000000,-43.000000,-4.000000,-1.000000,-19.000000
1296268.421663,-1.000000,-16.000000,-8.000000,63.000000,96.000000,15.000000,-11.000000,13.000000
1296268.451605,-10.000000,4.000000,2.000000,0.000000,-22.000000,-4.000000,-4.000000,-15.000000
1296268.451635,-4.000000,6.000000,-7.000000,-9.000000,3.000000,1.000000,7.000000,7.000000
1296268.452355,-3.000000,-6.000000,-28.000000,-13.000000,18.000000,4.000000,-1.000000,-1.000000
1296268.452376,4.000000,-7.000000,-7.000000,-6.000000,-7.000000,-5.000000,1.000000,3.000000
1296268.453210,-9.000000,4.000000,2.000000,7.000000,29.000000,3.000000,1.000000,-4.000000
1296268.453234,1.000000,-3.000000,-4.000000,-1.000000,-17.000000,-4.000000,-1.000000,-1.000000
1296268.488533,-4.000000,29.000000,-3.000000,54.000000,23.000000,8.000000,2.000000,-5.000000
1296268.488699,16.000000,-58.000000,6.000000,38.000000,75.000000,6.000000,0.000000,-9.000000
1296268.495696,-19.000000,1.000000,-21.000000,21.000000,42.000000,2.000000,-5.000000,9.000000
1296268.495722,6.000000,13.000000,5.000000,28.000000,-4.000000,-5.000000,-3.000000,-15.000000
1296268.526205,8.000000,12.000000,3.000000,-17.000000,-20.000000,0.000000,7.000000,12.000000
1296268.526234,4.000000,15.000000,2.000000,10.000000,13.000000,-2.000000,-3.000000,12.000000
1296268.534084,-17.000000,-10.000000,-7.000000,12.000000,-13.000000,-1.000000,1.000000,-45.000000
1296268.534626,-5.000000,-1.000000,-24.000000,-16.000000,13.000000,2.000000,1.000000,-29.000000
1296268.535701,15.000000,25.000000,7.000000,-8.000000,-33.000000,-4.000000,-7.000000,51.000000
1296268.535736,8.000000,-5.000000,14.000000,-25.000000,9.000000,8.000000,1.000000,-11.000000
1296268.535950,-7.000000,4.000000,0.000000,13.000000,-15.000000,-9.000000,1.000000,-3.000000
1296268.535994,-1.000000,8.000000,-7.000000,-12.000000,-16.000000,-2.000000,4.000000,30.000000
1296268.537333,6.000000,1.000000,4.000000,3.000000,22.000000,8.000000,6.000000,-52.000000
1296268.537388,12.000000,-4.000000,-3.000000,-16.000000,-15.000000,-9.000000,-12.000000,45.000000
1296268.541548,0.000000,3.000000,-7.000000,-12.000000,-1.000000,6.000000,6.000000,6.000000
1296268.541571,1.000000,4.000000,5.000000,4.000000,1.000000,4.000000,1.000000,3.000000
1296268.563734,3.000000,0.000000,10.000000,24.000000,13.000000,4.000000,2.000000,-1.000000
1296268.563785,-8.000000,46.000000,-6.000000,-30.000000,-1.000000,-1.000000,-4.000000,2.000000
1296268.565076,5.000000,-41.000000,1.000000,37.000000,20.000000,10.000000,8.000000,-6.000000
1296268.565101,-16.000000,3.000000,-14.000000,-14.000000,-13.000000,-16.000000,-9.000000,8.000000
1296268.570808,4.000000,7.000000,9.000000,7.000000,-10.000000,-5.000000,0.000000,-11.000000
1296268.570833,-5.000000,6.000000,-5.000000,3.000000,10.000000,1.000000,6.000000,60.000000
1296268.600820,6.000000,0.000000,31.000000,14.000000,-11.000000,1.000000,5.000000,-63.000000
1296268.600848,-2.000000,-9.000000,8.000000,-10.000000,-3.000000,0.000000,-9.000000,65.000000
1296268.616630,-12.000000,-11.000000,7.000000,-22.000000,-36.000000,-10.000000,-6.000000,17.000000
1296268.616658,-7.000000,-2.000000,-3.000000,-4.000000,-3.000000,-2.000000,2.000000,-47.000000
1296268.646009,14.000000,-8.000000,13.000000,-13.000000,-11.000000,0.000000,-6.000000,20.000000
1296268.646034,-27.000000,5.000000,-29.000000,-34.000000,9.000000,-9.000000,2.000000,-7.000000
1296268.653695,-6.000000,-56.000000,-3.000000,-6.000000,-3.000000,-1.000000,-5.000000,-4.000000
1296268.654007,3.000000,39.000000,-6.000000,1.000000,-15.000000,1.000000,9.000000,-58.000000
1296268.655365,-1.000000,-43.000000,-8.000000,-39.000000,-9.000000,-11.000000,-11.000000,30.000000
1296268.655719,-8.000000,13.000000,3.000000,30.000000,57.000000,10.000000,-7.000000,-25.000000
1296268.656243,2.000000,0.000000,-1.000000,-6.000000,-51.000000,-9.000000,3.000000,13.000000
1296268.656263,8.000000,27.000000,6.000000,-16.000000,-27.000000,1.000000,5.000000,-4.000000
1296268.657192,17.000000,-25.000000,2.000000,32.000000,19.000000,15.000000,7.000000,20.000000
1296268.657215,0.000000,3.000000,7.000000,-22.000000,-23.000000,-10.000000,-7.000000,3.000000
1296268.661635,7.000000,2.000000,-6.000000,14.000000,56.000000,5.000000,3.000000,-1.000000
1296268.661662,-21.000000,-24.000000,-11.000000,4.000000,-12.000000,-1.000000,4.000000,-20.000000
1296268.675816,15.000000,52.000000,6.000000,13.000000,18.000000,0.000000,0.000000,33.000000
1296268.675842,-1.000000,-35.000000,-23.000000,1.000000,3.000000,-1.000000,0.000000,-34.000000
1296268.698646,-26.000000,7.000000,18.000000,-21.000000,-28.000000,-1.000000,-2.000000,34.000000
1296268.698675,10.000000,23.000000,-13.000000,7.000000,-6.000000,-1.000000,-3.000000,3.000000
1296268.720733,-14.000000,-7.000000,4.000000,0.000000,-1.000000,2.000000,3.000000,-56.000000
1296268.720758,8.000000,1.000000,-1.000000,-3.000000,-5.000000,-6.000000,1.000000,44.000000
1296268.735995,19.000000,8.000000,19.000000,-27.000000,-26.000000,2.000000,6.000000,13.000000
1296268.736030,-17.000000,-31.000000,-4.000000,-29.000000,-14.000000,-11.000000,-1.000000,-46.000000
1296268.773395,12.000000,0.000000,24.000000,36.000000,8.000000,4.000000,-5.000000,0.000000
1296268.773448,-4.000000,6.000000,-23.000000,3.000000,-37.000000,-2.000000,2.000000,-6.000000
1296268.774601,3.000000,27.000000,13.000000,-14.000000,54.000000,0.000000,1.000000,38.000000
1296268.774624,-4.000000,-6.000000,-2.000000,-13.000000,-41.000000,-10.000000,-7.000000,-28.000000
1296268.775733,9.000000,2.000000,8.000000,12.000000,20.000000,1.000000,-4.000000,0.000000
1296268.775799,-10.000000,4.000000,7.000000,1.000000,-14.000000,4.000000,2.000000,-1.000000
1296268.777205,1.000000,-4.000000,-10.000000,-10.000000,-3.000000,-3.000000,-1.000000,0.000000
1296268.777235,-3.000000,-12.000000,7.000000,6.000000,-15.000000,-2.000000,-1.000000,-2.000000
1296268.777591,2.000000,1.000000,-7.000000,-10.000000,-16.000000,-6.000000,2.000000,41.000000
1296268.777611,7.000000,46.000000,-5.000000,26.000000,-16.000000,-6.000000,2.000000,6.000000
1296268.781734,2.000000,-37.000000,9.000000,75.000000,-6.000000,16.000000,-1.000000,-48.000000
1296268.781758,-9.000000,-43.000000,-1.000000,-54.000000,4.000000,-17.000000,-12.000000,17.000000
1296268.788620,-6.000000,12.000000,6.000000,2.000000,-14.000000,-3.000000,12.000000,3.000000
1296268.788669,4.000000,12.000000,0.000000,-7.000000,-3.000000,8.000000,1.000000,10.000000
1296268.804747,5.000000,10.000000,-2.000000,6.000000,-6.000000,1.000000,3.000000,0.000000
1296268.804774,-2.000000,-14.000000,-8.000000,2.000000,-7.000000,2.000000,2.000000,-12.000000
1296268.811037,6.000000,4.000000,6.000000,2.000000,2.000000,4.000000,4.000000,3.000000
1296268.811065,16.000000,12.000000,15.000000,-13.000000,-6.000000,-1.000000,-13.000000,8.000000
