# participant_id: P3
# gesture: medium
# trial_number: 2
# stream_name: Myo_EMG
# stream_type: emg
# timestamp: 20260420_133255
# samples: 5237
# duration_sec: 30.569
# nominal_sample_rate: 200.0
# effective_sample_rate: 171.28
#
timestamp,emg_1,emg_2,emg_3,emg_4,emg_5,emg_6,emg_7,emg_8
1296666.942561,-6.000000,-50.000000,-8.000000,57.000000,70.000000,11.000000,-5.000000,-6.000000
1296666.943773,17.000000,127.000000,18.000000,-11.000000,-44.000000,-8.000000,0.000000,2.000000
1296666.943829,-2.000000,-128.000000,-25.000000,-26.000000,40.000000,6.000000,-3.000000,-4.000000
1296666.944240,-39.000000,85.000000,7.000000,-21.000000,-24.000000,-20.000000,-17.000000,-15.000000
1296666.944262,10.000000,11.000000,3.000000,-2.000000,7.000000,-6.000000,4.000000,13.000000
1296666.945683,-23.000000,-33.000000,-16.000000,-5.000000,-22.000000,-8.000000,-8.000000,-15.000000
1296666.945838,19.000000,74.000000,10.000000,32.000000,-25.000000,2.000000,1.000000,4.000000
1296666.945991,-10.000000,-71.000000,-29.000000,-19.000000,27.000000,4.000000,3.000000,-22.000000
1296666.946034,-51.000000,-37.000000,5.000000,-81.000000,-10.000000,-14.000000,-13.000000,-10.000000
1296666.948751,7.000000,-128.000000,-5.000000,-9.000000,-12.000000,-6.000000,-3.000000,-21.000000
1296666.948807,-59.000000,18.000000,-22.000000,-24.000000,-87.000000,3.000000,0.000000,5.000000
1296666.956165,-18.000000,35.000000,15.000000,29.000000,68.000000,0.000000,2.000000,-29.000000
1296666.956190,29.000000,-20.000000,-6.000000,28.000000,16.000000,-1.000000,-2.000000,8.000000
1296666.963882,-10.000000,-16.000000,16.000000,70.000000,14.000000,-4.000000,-8.000000,-3.000000
1296666.963907,6.000000,66.000000,-10.000000,-90.000000,-34.000000,-5.000000,14.000000,-6.000000
1296666.985555,-3.000000,-30.000000,8.000000,75.000000,-12.000000,13.000000,-5.000000,-26.000000
1296666.985565,52.000000,-30.000000,-9.000000,51.000000,14.000000,-7.000000,-2.000000,30.000000
1296666.993181,-56.000000,53.000000,-1.000000,-65.000000,-81.000000,-13.000000,-8.000000,-5.000000
1296666.993190,41.000000,87.000000,22.000000,13.000000,82.000000,29.000000,23.000000,9.000000
1296667.022959,10.000000,-49.000000,-17.000000,-26.000000,-35.000000,-32.000000,-24.000000,12.000000
1296667.022975,-57.000000,-39.000000,-2.000000,38.000000,77.000000,-4.000000,-11.000000,-74.000000
1296667.030504,24.000000,-3.000000,17.000000,5.000000,7.000000,6.000000,10.000000,8.000000
1296667.030533,4.000000,63.000000,-1.000000,64.000000,61.000000,14.000000,8.000000,5.000000
1296667.031647,49.000000,104.000000,2.000000,-36.000000,-28.000000,0.000000,1.000000,-13.000000
1296667.031656,-91.000000,-128.000000,-36.000000,-17.000000,-68.000000,-11.000000,-12.000000,-17.000000
1296667.032234,-9.000000,66.000000,13.000000,-18.000000,-65.000000,-29.000000,-29.000000,-26.000000
1296667.032243,-15.000000,-10.000000,3.000000,127.000000,127.000000,43.000000,20.000000,27.000000
1296667.060555,34.000000,53.000000,-5.000000,-12.000000,-63.000000,-27.000000,-15.000000,-20.000000
1296667.060602,-26.000000,-48.000000,-15.000000,49.000000,-14.000000,-4.000000,-6.000000,-10.000000
1296667.061102,14.000000,24.000000,2.000000,11.000000,-2.000000,9.000000,7.000000,19.000000
1296667.061111,-62.000000,-100.000000,-20.000000,-71.000000,44.000000,0.000000,-2.000000,-5.000000
1296667.062539,29.000000,127.000000,16.000000,27.000000,-5.000000,7.000000,16.000000,35.000000
1296667.062553,-24.000000,-124.000000,-35.000000,-26.000000,0.000000,-1.000000,-8.000000,-37.000000
1296667.067840,-67.000000,-122.000000,-5.000000,-74.000000,-23.000000,-46.000000,-51.000000,-51.000000
1296667.067850,5.000000,32.000000,-5.000000,-59.000000,-2.000000,11.000000,4.000000,44.000000
1296667.090640,24.000000,79.000000,-5.000000,-16.000000,-5.000000,7.000000,13.000000,-27.000000
1296667.090652,-17.000000,-71.000000,3.000000,27.000000,-45.000000,-19.000000,11.000000,12.000000
1296667.098126,35.000000,1.000000,-5.000000,75.000000,54.000000,24.000000,10.000000,37.000000
1296667.098143,-67.000000,-18.000000,-15.000000,-105.000000,-33.000000,-43.000000,-42.000000,-44.000000
1296667.112788,42.000000,72.000000,14.000000,-68.000000,-3.000000,0.000000,10.000000,-9.000000
1296667.112798,2.000000,70.000000,-6.000000,21.000000,42.000000,6.000000,5.000000,12.000000
1296667.135457,11.000000,21.000000,-3.000000,11.000000,-58.000000,1.000000,4.000000,-2.000000
1296667.135466,-38.000000,-128.000000,1.000000,-32.000000,92.000000,14.000000,13.000000,-21.000000
1296667.150631,50.000000,121.000000,-6.000000,29.000000,11.000000,10.000000,3.000000,79.000000
1296667.150644,-21.000000,-74.000000,-3.000000,-40.000000,-16.000000,-28.000000,-24.000000,-84.000000
1296667.173323,-5.000000,89.000000,-24.000000,6.000000,-3.000000,-7.000000,-18.000000,-12.000000
1296667.173342,-61.000000,-128.000000,5.000000,-32.000000,-30.000000,-15.000000,-5.000000,15.000000
1296667.195569,39.000000,99.000000,9.000000,71.000000,43.000000,18.000000,17.000000,58.000000
1296667.195582,40.000000,2.000000,-42.000000,-128.000000,110.000000,6.000000,2.000000,-12.000000
1296667.210384,-34.000000,82.000000,3.000000,44.000000,-57.000000,-14.000000,-5.000000,-19.000000
1296667.210395,1.000000,-128.000000,17.000000,79.000000,3.000000,11.000000,-6.000000,-53.000000
1296667.225966,-2.000000,80.000000,-56.000000,-60.000000,-51.000000,-22.000000,-25.000000,16.000000
1296667.225994,-6.000000,53.000000,12.000000,-10.000000,39.000000,33.000000,3.000000,-16.000000
1296667.233284,5.000000,-128.000000,-21.000000,60.000000,-22.000000,17.000000,19.000000,-15.000000
1296667.233299,23.000000,49.000000,-9.000000,-80.000000,-37.000000,-32.000000,3.000000,96.000000
1296667.240560,-34.000000,31.000000,-13.000000,-43.000000,31.000000,-1.000000,-6.000000,-30.000000
1296667.240572,17.000000,52.000000,20.000000,-50.000000,-62.000000,3.000000,9.000000,25.000000
1296667.247983,-73.000000,-63.000000,-10.000000,26.000000,64.000000,11.000000,-26.000000,19.000000
1296667.248005,-21.000000,19.000000,-3.000000,-88.000000,-52.000000,-16.000000,3.000000,-63.000000
1296667.263041,35.000000,53.000000,0.000000,3.000000,-2.000000,-5.000000,3.000000,7.000000
1296667.263051,-11.000000,-38.000000,-1.000000,-64.000000,14.000000,-15.000000,-18.000000,1.000000
1296667.278225,-8.000000,-21.000000,-7.000000,3.000000,-7.000000,-9.000000,-19.000000,-19.000000
1296667.278236,44.000000,64.000000,8.000000,3.000000,-17.000000,-5.000000,1.000000,11.000000
1296667.293502,7.000000,6.000000,7.000000,-47.000000,-38.000000,-11.000000,-5.000000,54.000000
1296667.293513,-8.000000,-11.000000,0.000000,39.000000,32.000000,2.000000,3.000000,-51.000000
1296667.294194,39.000000,99.000000,9.000000,53.000000,6.000000,11.000000,7.000000,-2.000000
1296667.294215,-21.000000,-128.000000,-10.000000,-20.000000,27.000000,2.000000,-4.000000,17.000000
1296667.295271,-23.000000,22.000000,4.000000,-17.000000,-59.000000,-2.000000,-3.000000,-17.000000
1296667.295281,7.000000,21.000000,-1.000000,-11.000000,-12.000000,-11.000000,-12.000000,0.000000
1296667.296002,-1.000000,6.000000,0.000000,32.000000,-17.000000,13.000000,18.000000,39.000000
1296667.296023,-32.000000,-5.000000,-15.000000,-99.000000,13.000000,-16.000000,-11.000000,-51.000000
1296667.337993,0.000000,52.000000,12.000000,-25.000000,-2.000000,-6.000000,-1.000000,-8.000000
1296667.338005,9.000000,40.000000,4.000000,28.000000,-62.000000,2.000000,8.000000,4.000000
1296667.375954,-18.000000,-67.000000,-15.000000,-48.000000,35.000000,1.000000,-2.000000,-4.000000
1296667.375966,0.000000,-4.000000,12.000000,35.000000,-9.000000,4.000000,7.000000,53.000000
1296667.383193,-26.000000,15.000000,-5.000000,94.000000,-128.000000,-27.000000,12.000000,-91.000000
1296667.383207,120.000000,6.000000,4.000000,127.000000,127.000000,90.000000,20.000000,127.000000
1296667.413337,-13.000000,70.000000,4.000000,-17.000000,-32.000000,-19.000000,-35.000000,-16.000000
1296667.413346,23.000000,-102.000000,4.000000,-33.000000,-6.000000,0.000000,6.000000,10.000000
1296667.413921,-11.000000,10.000000,4.000000,75.000000,-7.000000,3.000000,3.000000,-6.000000
1296667.413929,-6.000000,-7.000000,-2.000000,-101.000000,-13.000000,2.000000,4.000000,-7.000000
1296667.415649,-1.000000,3.000000,6.000000,-13.000000,-7.000000,-5.000000,0.000000,-1.000000
1296667.415659,3.000000,16.000000,6.000000,9.000000,8.000000,7.000000,6.000000,-6.000000
1296667.417104,1.000000,35.000000,0.000000,14.000000,9.000000,-16.000000,-10.000000,-17.000000
1296667.417114,7.000000,-94.000000,-5.000000,-22.000000,-19.000000,9.000000,11.000000,19.000000
1296667.428458,12.000000,30.000000,9.000000,-13.000000,-22.000000,-4.000000,-4.000000,-20.000000
1296667.428470,3.000000,-4.000000,-7.000000,-2.000000,0.000000,-2.000000,3.000000,20.000000
1296667.495973,-33.000000,-1.000000,-3.000000,-46.000000,-39.000000,-13.000000,10.000000,-70.000000
1296667.495994,68.000000,24.000000,7.000000,127.000000,16.000000,56.000000,17.000000,94.000000
1296667.503801,-4.000000,2.000000,-12.000000,-83.000000,-29.000000,-42.000000,-40.000000,0.000000
1296667.504005,-44.000000,-60.000000,-11.000000,-27.000000,3.000000,-26.000000,-9.000000,-14.000000
1296667.505185,-6.000000,23.000000,7.000000,1.000000,-10.000000,1.000000,5.000000,5.000000
1296667.505253,8.000000,18.000000,-5.000000,-38.000000,-7.000000,4.000000,7.000000,3.000000
1296667.505687,-2.000000,4.000000,8.000000,-53.000000,-48.000000,-3.000000,-7.000000,-4.000000
1296667.505704,26.000000,25.000000,9.000000,-4.000000,102.000000,27.000000,9.000000,-4.000000
1296667.506633,-10.000000,-29.000000,0.000000,3.000000,24.000000,8.000000,8.000000,5.000000
1296667.506651,17.000000,34.000000,-23.000000,-6.000000,-7.000000,-4.000000,0.000000,5.000000
1296667.518741,52.000000,-51.000000,-2.000000,113.000000,72.000000,1.000000,-2.000000,55.000000
1296667.518760,-34.000000,-26.000000,3.000000,18.000000,-6.000000,-4.000000,2.000000,-4.000000
1296667.526356,-40.000000,-21.000000,-33.000000,-62.000000,84.000000,2.000000,-1.000000,-13.000000
1296667.526399,37.000000,107.000000,20.000000,7.000000,1.000000,-9.000000,4.000000,1.000000
1296667.534171,-30.000000,-128.000000,-6.000000,-17.000000,-5.000000,10.000000,4.000000,-33.000000
1296667.534249,15.000000,-7.000000,13.000000,8.000000,-56.000000,-6.000000,0.000000,-3.000000
1296667.571214,3.000000,26.000000,-4.000000,-22.000000,-13.000000,10.000000,1.000000,2.000000
1296667.571234,-37.000000,-59.000000,-29.000000,-17.000000,3.000000,-14.000000,-11.000000,-9.000000
1296667.586373,-28.000000,31.000000,-2.000000,36.000000,-34.000000,12.000000,14.000000,-12.000000
1296667.586398,47.000000,-21.000000,-4.000000,-38.000000,-54.000000,-7.000000,-8.000000,50.000000
1296667.593672,-102.000000,-56.000000,-2.000000,-66.000000,86.000000,-25.000000,-52.000000,-44.000000
1296667.593710,7.000000,31.000000,19.000000,25.000000,-8.000000,6.000000,25.000000,-4.000000
1296667.617168,9.000000,11.000000,-35.000000,-3.000000,-36.000000,-6.000000,-4.000000,22.000000
1296667.617209,-33.000000,-38.000000,-3.000000,13.000000,-22.000000,-4.000000,-7.000000,-10.000000
1296667.617595,10.000000,18.000000,8.000000,27.000000,-56.000000,-16.000000,2.000000,-1.000000
1296667.617625,-4.000000,16.000000,-2.000000,107.000000,-24.000000,23.000000,15.000000,24.000000
1296667.618742,21.000000,43.000000,-9.000000,-48.000000,40.000000,2.000000,-2.000000,-19.000000
1296667.618757,-21.000000,-77.000000,2.000000,1.000000,-80.000000,-17.000000,-10.000000,-62.000000
1296667.619345,7.000000,68.000000,3.000000,63.000000,100.000000,30.000000,8.000000,67.000000
1296667.619382,1.000000,-101.000000,0.000000,-38.000000,12.000000,-14.000000,-19.000000,-16.000000
1296667.623360,26.000000,45.000000,4.000000,47.000000,-11.000000,15.000000,13.000000,19.000000
1296667.623379,4.000000,-16.000000,-7.000000,-51.000000,-43.000000,-7.000000,-6.000000,3.000000
1296667.638448,-26.000000,-23.000000,4.000000,27.000000,24.000000,4.000000,-1.000000,-11.000000
1296667.638467,6.000000,11.000000,13.000000,-9.000000,-6.000000,-1.000000,0.000000,-9.000000
1296667.653699,5.000000,2.000000,-3.000000,-8.000000,-8.000000,-3.000000,2.000000,8.000000
1296667.653946,-12.000000,-13.000000,-4.000000,0.000000,1.000000,-5.000000,-6.000000,-9.000000
1296667.654961,30.000000,49.000000,14.000000,12.000000,-37.000000,-6.000000,6.000000,-29.000000
1296667.654996,3.000000,-44.000000,1.000000,127.000000,90.000000,23.000000,3.000000,24.000000
1296667.670396,-10.000000,-33.000000,4.000000,-35.000000,-31.000000,-12.000000,-4.000000,-7.000000
1296667.670425,-6.000000,30.000000,0.000000,-33.000000,-14.000000,-5.000000,-5.000000,3.000000
1296667.706082,11.000000,31.000000,-11.000000,-14.000000,-22.000000,-1.000000,-4.000000,-3.000000
1296667.706115,8.000000,8.000000,7.000000,2.000000,5.000000,-17.000000,2.000000,34.000000
1296667.721056,37.000000,127.000000,-16.000000,37.000000,-128.000000,32.000000,14.000000,8.000000
1296667.721075,-44.000000,-128.000000,-6.000000,-7.000000,34.000000,-1.000000,-6.000000,22.000000
1296667.736089,-29.000000,99.000000,2.000000,18.000000,-30.000000,-16.000000,-8.000000,-11.000000
1296667.736297,14.000000,38.000000,7.000000,-30.000000,63.000000,3.000000,2.000000,-4.000000
1296667.736794,0.000000,0.000000,-4.000000,5.000000,-57.000000,5.000000,4.000000,-1.000000
1296667.736829,5.000000,-12.000000,-12.000000,-36.000000,-57.000000,-14.000000,-7.000000,-10.000000
1296667.738197,2.000000,-14.000000,-5.000000,35.000000,71.000000,12.000000,3.000000,3.000000
1296667.738217,1.000000,-16.000000,25.000000,-14.000000,22.000000,-1.000000,3.000000,-1.000000
1296667.738448,-16.000000,-26.000000,-2.000000,21.000000,-4.000000,11.000000,3.000000,-52.000000
1296667.738463,59.000000,8.000000,26.000000,25.000000,-30.000000,4.000000,5.000000,26.000000
1296667.739050,-38.000000,-26.000000,6.000000,-38.000000,-8.000000,-10.000000,-8.000000,-98.000000
1296667.739068,3.000000,-8.000000,7.000000,-43.000000,-34.000000,-6.000000,-2.000000,9.000000
1296667.751601,-5.000000,26.000000,8.000000,108.000000,62.000000,5.000000,6.000000,28.000000
1296667.751642,7.000000,-128.000000,-4.000000,127.000000,109.000000,28.000000,4.000000,72.000000
1296667.758606,-45.000000,22.000000,10.000000,-41.000000,-24.000000,-23.000000,-15.000000,-51.000000
1296667.758710,13.000000,45.000000,3.000000,-2.000000,-14.000000,9.000000,11.000000,1.000000
1296667.773675,-54.000000,-47.000000,-18.000000,-14.000000,-6.000000,-9.000000,-5.000000,-14.000000
1296667.773883,-7.000000,-13.000000,-3.000000,1.000000,1.000000,9.000000,12.000000,-1.000000
1296667.780995,55.000000,53.000000,10.000000,-35.000000,-34.000000,4.000000,4.000000,13.000000
1296667.781106,-57.000000,-66.000000,0.000000,-18.000000,2.000000,-11.000000,-8.000000,21.000000
1296667.788542,-6.000000,39.000000,3.000000,-92.000000,-32.000000,-10.000000,-4.000000,-44.000000
1296667.788584,-12.000000,-34.000000,-3.000000,18.000000,68.000000,4.000000,0.000000,15.000000
1296667.818560,5.000000,10.000000,6.000000,-9.000000,-55.000000,2.000000,-3.000000,-2.000000
1296667.818582,5.000000,4.000000,2.000000,-12.000000,-10.000000,-1.000000,3.000000,3.000000
1296667.826098,-1.000000,11.000000,18.000000,-1.000000,16.000000,-1.000000,6.000000,-6.000000
1296667.826137,5.000000,51.000000,-30.000000,-88.000000,-128.000000,0.000000,0.000000,9.000000
1296667.840903,-14.000000,-103.000000,-3.000000,36.000000,22.000000,16.000000,6.000000,56.000000
1296667.840923,41.000000,-128.000000,-2.000000,-18.000000,-54.000000,-12.000000,2.000000,-27.000000
1296667.848473,-77.000000,-7.000000,14.000000,-17.000000,44.000000,-34.000000,-46.000000,-30.000000
1296667.848492,7.000000,31.000000,15.000000,13.000000,-20.000000,2.000000,-11.000000,-13.000000
1296667.863312,10.000000,74.000000,-2.000000,-15.000000,-19.000000,10.000000,9.000000,-2.000000
1296667.863344,8.000000,-75.000000,-3.000000,88.000000,14.000000,10.000000,20.000000,88.000000
1296667.863846,-1.000000,48.000000,-2.000000,51.000000,-14.000000,-15.000000,-10.000000,-77.000000
1296667.863887,10.000000,-33.000000,2.000000,85.000000,79.000000,30.000000,10.000000,42.000000
1296667.865458,-18.000000,-11.000000,-7.000000,-19.000000,30.000000,-8.000000,-8.000000,-3.000000
1296667.865476,-2.000000,-3.000000,9.000000,36.000000,-35.000000,1.000000,4.000000,-9.000000
1296667.893334,6.000000,7.000000,7.000000,13.000000,-10.000000,-9.000000,3.000000,35.000000
1296667.893551,4.000000,12.000000,-15.000000,14.000000,-26.000000,0.000000,-1.000000,-8.000000
1296667.894374,-21.000000,3.000000,21.000000,-16.000000,-73.000000,1.000000,-4.000000,-66.000000
1296667.894392,1.000000,-7.000000,14.000000,-53.000000,-114.000000,-12.000000,-19.000000,39.000000
1296667.895059,-8.000000,32.000000,-42.000000,-6.000000,41.000000,-7.000000,-8.000000,-17.000000
1296667.895096,0.000000,6.000000,3.000000,-58.000000,-46.000000,0.000000,6.000000,-17.000000
1296667.901305,9.000000,16.000000,21.000000,53.000000,40.000000,4.000000,5.000000,7.000000
1296667.901323,10.000000,26.000000,-11.000000,-4.000000,-24.000000,1.000000,-1.000000,5.000000
1296667.923492,1.000000,-37.000000,6.000000,37.000000,41.000000,-1.000000,4.000000,17.000000
1296667.923512,-15.000000,-24.000000,-13.000000,-69.000000,-54.000000,6.000000,4.000000,-54.000000
1296667.938404,51.000000,21.000000,5.000000,40.000000,95.000000,-2.000000,9.000000,111.000000
1296667.938425,-23.000000,-13.000000,-4.000000,-33.000000,-35.000000,-16.000000,-15.000000,-28.000000
1296667.945982,-1.000000,30.000000,-4.000000,15.000000,66.000000,1.000000,-6.000000,-39.000000
1296667.946008,10.000000,60.000000,-7.000000,-31.000000,-7.000000,-4.000000,2.000000,2.000000
1296667.968714,36.000000,51.000000,10.000000,75.000000,4.000000,8.000000,8.000000,-2.000000
1296667.968734,-40.000000,-81.000000,-7.000000,-95.000000,-90.000000,-24.000000,-15.000000,-8.000000
1296667.975972,-10.000000,74.000000,1.000000,105.000000,127.000000,25.000000,-5.000000,-35.000000
1296667.976042,46.000000,39.000000,18.000000,30.000000,-60.000000,6.000000,18.000000,127.000000
1296667.998661,-15.000000,-27.000000,4.000000,-46.000000,-12.000000,-25.000000,-16.000000,-128.000000
1296667.998680,1.000000,-21.000000,-5.000000,-32.000000,-24.000000,-16.000000,-7.000000,37.000000
1296668.014009,3.000000,11.000000,4.000000,-26.000000,4.000000,1.000000,2.000000,4.000000
1296668.014292,1.000000,3.000000,10.000000,39.000000,13.000000,5.000000,7.000000,4.000000
1296668.015077,2.000000,-11.000000,26.000000,-16.000000,-17.000000,-7.000000,2.000000,4.000000
1296668.015115,4.000000,5.000000,2.000000,-12.000000,53.000000,3.000000,2.000000,-1.000000
1296668.016218,-5.000000,-14.000000,-26.000000,-9.000000,16.000000,3.000000,1.000000,-3.000000
1296668.016543,10.000000,39.000000,14.000000,42.000000,-49.000000,3.000000,4.000000,-1.000000
1296668.017191,-7.000000,-33.000000,4.000000,51.000000,1.000000,4.000000,4.000000,-1.000000
1296668.017207,30.000000,-56.000000,4.000000,-55.000000,5.000000,-11.000000,-11.000000,31.000000
1296668.021087,42.000000,2.000000,-4.000000,29.000000,18.000000,6.000000,-11.000000,55.000000
1296668.021106,-33.000000,-56.000000,13.000000,-19.000000,16.000000,-11.000000,-18.000000,-44.000000
1296668.051076,-3.000000,22.000000,8.000000,-7.000000,-21.000000,-4.000000,-2.000000,-5.000000
1296668.051132,4.000000,7.000000,-4.000000,7.000000,1.000000,12.000000,13.000000,-18.000000
1296668.065965,-10.000000,3.000000,2.000000,10.000000,23.000000,4.000000,4.000000,5.000000
1296668.065987,33.000000,66.000000,-4.000000,18.000000,-9.000000,3.000000,4.000000,14.000000
1296668.088402,-18.000000,-21.000000,-12.000000,-11.000000,-1.000000,-4.000000,-3.000000,-10.000000
1296668.088556,-10.000000,-3.000000,-13.000000,16.000000,-12.000000,-10.000000,-9.000000,37.000000
1296668.089620,-1.000000,13.000000,-8.000000,-10.000000,-5.000000,0.000000,-1.000000,-13.000000
1296668.089642,7.000000,13.000000,-5.000000,7.000000,-9.000000,-3.000000,5.000000,19.000000
1296668.090166,0.000000,-7.000000,6.000000,-35.000000,-27.000000,6.000000,2.000000,-21.000000
1296668.090184,9.000000,3.000000,17.000000,11.000000,-26.000000,1.000000,8.000000,12.000000
1296668.091550,12.000000,34.000000,18.000000,-47.000000,-30.000000,-1.000000,-3.000000,-7.000000
1296668.091569,-9.000000,-85.000000,-25.000000,67.000000,56.000000,3.000000,-7.000000,9.000000
1296668.092356,-29.000000,8.000000,-2.000000,-68.000000,-92.000000,-16.000000,8.000000,61.000000
1296668.092390,38.000000,28.000000,-6.000000,-12.000000,42.000000,30.000000,20.000000,-28.000000
1296668.096122,16.000000,-57.000000,-2.000000,-7.000000,43.000000,-16.000000,-38.000000,0.000000
1296668.096154,-22.000000,15.000000,-12.000000,-3.000000,-19.000000,-4.000000,10.000000,-15.000000
1296668.126239,9.000000,35.000000,-13.000000,-97.000000,-50.000000,-12.000000,-6.000000,39.000000
1296668.126260,12.000000,-20.000000,9.000000,86.000000,68.000000,9.000000,-19.000000,46.000000
1296668.134159,-1.000000,10.000000,-2.000000,-38.000000,-27.000000,-7.000000,-4.000000,-41.000000
1296668.134177,13.000000,17.000000,4.000000,-12.000000,13.000000,17.000000,10.000000,-9.000000
1296668.134673,-16.000000,-18.000000,-1.000000,16.000000,10.000000,-6.000000,9.000000,53.000000
1296668.134785,3.000000,94.000000,-6.000000,-88.000000,62.000000,29.000000,17.000000,-35.000000
1296668.141031,34.000000,-128.000000,0.000000,36.000000,-11.000000,-15.000000,-15.000000,44.000000
1296668.141063,-1.000000,24.000000,2.000000,-21.000000,-15.000000,-9.000000,-7.000000,-34.000000
1296668.148265,-13.000000,26.000000,-2.000000,-26.000000,-34.000000,-2.000000,3.000000,4.000000
1296668.148283,1.000000,29.000000,3.000000,-8.000000,-12.000000,1.000000,6.000000,-3.000000
1296668.171166,16.000000,41.000000,6.000000,31.000000,1.000000,6.000000,13.000000,24.000000
1296668.171186,-15.000000,-55.000000,0.000000,-20.000000,-49.000000,-9.000000,-3.000000,-1.000000
1296668.178322,59.000000,76.000000,10.000000,-6.000000,48.000000,6.000000,-11.000000,22.000000
1296668.178357,-10.000000,-32.000000,6.000000,-19.000000,-23.000000,-7.000000,1.000000,-4.000000
1296668.208686,-8.000000,-3.000000,-22.000000,-10.000000,-25.000000,0.000000,4.000000,-17.000000
1296668.208718,-5.000000,19.000000,-5.000000,25.000000,-10.000000,-11.000000,1.000000,-22.000000
1296668.216170,-2.000000,-22.000000,13.000000,5.000000,-35.000000,13.000000,2.000000,19.000000
1296668.216217,-6.000000,-17.000000,-23.000000,-38.000000,-51.000000,-13.000000,-7.000000,-32.000000
1296668.224069,-2.000000,47.000000,33.000000,-13.000000,20.000000,7.000000,-3.000000,-19.000000
1296668.224106,-2.000000,-111.000000,-9.000000,11.000000,44.000000,-4.000000,9.000000,-28.000000
1296668.238373,-12.000000,13.000000,-10.000000,-6.000000,-33.000000,5.000000,-10.000000,-12.000000
1296668.238405,10.000000,35.000000,-3.000000,-10.000000,-5.000000,-7.000000,-1.000000,4.000000
1296668.245998,-3.000000,-12.000000,-8.000000,-128.000000,-40.000000,-6.000000,-3.000000,-7.000000
1296668.246323,9.000000,-9.000000,-9.000000,41.000000,-19.000000,5.000000,9.000000,72.000000
1296668.246899,21.000000,15.000000,15.000000,-13.000000,-47.000000,-13.000000,1.000000,-22.000000
1296668.247196,-10.000000,-14.000000,0.000000,67.000000,96.000000,15.000000,-12.000000,25.000000
1296668.248030,-18.000000,-24.000000,3.000000,12.000000,-13.000000,-5.000000,5.000000,-12.000000
1296668.248066,-1.000000,-6.000000,-11.000000,-5.000000,-33.000000,0.000000,0.000000,19.000000
1296668.248619,4.000000,-6.000000,-5.000000,0.000000,4.000000,-3.000000,2.000000,40.000000
1296668.248645,6.000000,60.000000,-13.000000,-82.000000,-22.000000,-1.000000,2.000000,-19.000000
1296668.260915,11.000000,-16.000000,-7.000000,72.000000,21.000000,-8.000000,-21.000000,7.000000
1296668.260935,12.000000,127.000000,6.000000,21.000000,17.000000,5.000000,3.000000,8.000000
1296668.268689,-23.000000,-128.000000,-7.000000,-27.000000,63.000000,10.000000,11.000000,-16.000000
1296668.268710,-4.000000,24.000000,-10.000000,10.000000,15.000000,2.000000,0.000000,-4.000000
1296668.298582,-3.000000,8.000000,9.000000,-9.000000,-29.000000,-2.000000,25.000000,48.000000
1296668.298675,2.000000,22.000000,-15.000000,-36.000000,5.000000,-8.000000,-15.000000,-80.000000
1296668.320817,66.000000,90.000000,17.000000,106.000000,74.000000,24.000000,6.000000,65.000000
1296668.320836,-4.000000,-107.000000,-4.000000,-9.000000,-2.000000,-22.000000,-10.000000,-11.000000
1296668.328518,6.000000,75.000000,16.000000,-1.000000,-59.000000,2.000000,14.000000,-12.000000
1296668.328782,4.000000,-45.000000,2.000000,-89.000000,-29.000000,-8.000000,4.000000,8.000000
1296668.329666,7.000000,17.000000,21.000000,45.000000,44.000000,10.000000,10.000000,8.000000
1296668.329911,2.000000,72.000000,3.000000,2.000000,-20.000000,2.000000,6.000000,-8.000000
1296668.330196,-7.000000,-113.000000,7.000000,-16.000000,43.000000,-10.000000,-3.000000,-12.000000
1296668.330212,43.000000,127.000000,-6.000000,127.000000,100.000000,27.000000,14.000000,7.000000
1296668.331733,10.000000,-128.000000,-13.000000,-67.000000,20.000000,-17.000000,-23.000000,-4.000000
1296668.331828,-17.000000,54.000000,-5.000000,-13.000000,-18.000000,0.000000,-4.000000,-13.000000
1296668.336147,-56.000000,-61.000000,2.000000,8.000000,-5.000000,0.000000,4.000000,5.000000
1296668.336180,12.000000,-24.000000,14.000000,-9.000000,-16.000000,6.000000,5.000000,9.000000
1296668.366830,9.000000,17.000000,-4.000000,-3.000000,-5.000000,-5.000000,0.000000,30.000000
1296668.367067,1.000000,22.000000,33.000000,19.000000,-2.000000,6.000000,9.000000,-14.000000
1296668.367489,42.000000,52.000000,-15.000000,-11.000000,-9.000000,0.000000,5.000000,35.000000
1296668.367508,-15.000000,-47.000000,15.000000,36.000000,5.000000,6.000000,10.000000,-2.000000
1296668.380895,0.000000,-5.000000,-10.000000,-3.000000,26.000000,0.000000,-12.000000,7.000000
1296668.380938,-3.000000,4.000000,5.000000,-68.000000,-36.000000,-12.000000,-1.000000,-30.000000
1296668.403653,7.000000,10.000000,-1.000000,90.000000,69.000000,11.000000,3.000000,2.000000
1296668.403674,-7.000000,7.000000,1.000000,-30.000000,-20.000000,-11.000000,-5.000000,-14.000000
1296668.425857,-2.000000,8.000000,-4.000000,-92.000000,-23.000000,-10.000000,12.000000,21.000000
1296668.425877,28.000000,26.000000,1.000000,74.000000,39.000000,13.000000,0.000000,26.000000
1296668.433307,10.000000,24.000000,-2.000000,14.000000,11.000000,-7.000000,-19.000000,4.000000
1296668.433326,-20.000000,-32.000000,28.000000,29.000000,1.000000,3.000000,10.000000,-33.000000
1296668.455946,7.000000,45.000000,-18.000000,-41.000000,-61.000000,-2.000000,8.000000,2.000000
1296668.455966,29.000000,-23.000000,-3.000000,-19.000000,49.000000,-12.000000,-22.000000,14.000000
1296668.478453,-21.000000,-24.000000,-7.000000,58.000000,1.000000,5.000000,1.000000,9.000000
1296668.478493,2.000000,44.000000,-9.000000,36.000000,1.000000,0.000000,21.000000,-55.000000
1296668.487308,18.000000,3.000000,2.000000,-15.000000,22.000000,-1.000000,-23.000000,-14.000000
1296668.487343,0.000000,-4.000000,-9.000000,6.000000,-39.000000,-3.000000,7.000000,35.000000
1296668.487533,3.000000,27.000000,-18.000000,74.000000,78.000000,21.000000,22.000000,-31.000000
1296668.487576,-6.000000,-25.000000,-20.000000,-28.000000,-5.000000,-4.000000,-9.000000,34.000000
1296668.489371,-4.000000,13.000000,-9.000000,12.000000,1.000000,6.000000,2.000000,29.000000
1296668.489390,15.000000,-19.000000,11.000000,-3.000000,-33.000000,0.000000,5.000000,-38.000000
1296668.501053,-4.000000,7.000000,-5.000000,82.000000,36.000000,-7.000000,-6.000000,12.000000
1296668.501087,-12.000000,12.000000,-10.000000,-30.000000,-24.000000,-5.000000,3.000000,4.000000
1296668.508496,-8.000000,13.000000,20.000000,-27.000000,-57.000000,-11.000000,-6.000000,-98.000000
1296668.508534,59.000000,21.000000,-44.000000,50.000000,105.000000,41.000000,23.000000,86.000000
1296668.531168,-56.000000,-128.000000,-2.000000,51.000000,13.000000,-24.000000,-44.000000,-21.000000
1296668.531206,-9.000000,-41.000000,11.000000,-24.000000,-22.000000,-9.000000,2.000000,-62.000000
1296668.538699,7.000000,43.000000,4.000000,-14.000000,1.000000,1.000000,7.000000,-7.000000
1296668.538718,16.000000,29.000000,-12.000000,-2.000000,-5.000000,-4.000000,0.000000,0.000000
1296668.569299,-6.000000,-9.000000,6.000000,-8.000000,-13.000000,0.000000,2.000000,-4.000000
1296668.569535,-8.000000,-6.000000,-1.000000,16.000000,46.000000,2.000000,3.000000,3.000000
1296668.570046,4.000000,13.000000,-7.000000,0.000000,-16.000000,4.000000,3.000000,22.000000
1296668.570066,1.000000,20.000000,12.000000,-7.000000,7.000000,-4.000000,1.000000,-39.000000
1296668.570969,21.000000,-52.000000,-5.000000,70.000000,89.000000,15.000000,1.000000,36.000000
1296668.571137,-24.000000,-5.000000,11.000000,-36.000000,-25.000000,-22.000000,-16.000000,-13.000000
1296668.571476,-5.000000,15.000000,30.000000,-22.000000,15.000000,-6.000000,-5.000000,0.000000
1296668.571493,20.000000,40.000000,-3.000000,-45.000000,-54.000000,1.000000,2.000000,-6.000000
1296668.575681,-18.000000,72.000000,52.000000,9.000000,14.000000,13.000000,11.000000,-44.000000
1296668.575700,17.000000,-109.000000,-36.000000,30.000000,77.000000,8.000000,9.000000,64.000000
1296668.606874,-31.000000,-1.000000,7.000000,-62.000000,5.000000,-14.000000,-11.000000,-20.000000
1296668.607010,13.000000,21.000000,9.000000,20.000000,-1.000000,0.000000,6.000000,-3.000000
1296668.607365,0.000000,3.000000,-2.000000,-3.000000,-18.000000,2.000000,7.000000,2.000000
1296668.607383,-15.000000,-17.000000,8.000000,-4.000000,-8.000000,-5.000000,-7.000000,-6.000000
1296668.621070,16.000000,23.000000,1.000000,44.000000,-43.000000,2.000000,9.000000,-32.000000
1296668.621090,-11.000000,3.000000,15.000000,58.000000,49.000000,18.000000,-1.000000,33.000000
1296668.636111,38.000000,2.000000,7.000000,-115.000000,-66.000000,-30.000000,-28.000000,-5.000000
1296668.636132,-23.000000,-17.000000,-7.000000,13.000000,-27.000000,12.000000,15.000000,-37.000000
1296668.650973,14.000000,17.000000,-1.000000,-19.000000,-54.000000,-17.000000,-5.000000,15.000000
1296668.650993,4.000000,34.000000,4.000000,-11.000000,8.000000,3.000000,-3.000000,-8.000000
1296668.681678,-13.000000,-71.000000,5.000000,-37.000000,-15.000000,-9.000000,-7.000000,-14.000000
1296668.681739,-34.000000,-57.000000,-28.000000,-65.000000,-10.000000,-9.000000,0.000000,1.000000
1296668.695973,6.000000,7.000000,31.000000,121.000000,111.000000,19.000000,0.000000,6.000000
1296668.695993,0.000000,18.000000,7.000000,-32.000000,-46.000000,-28.000000,-26.000000,-16.000000
1296668.711071,21.000000,38.000000,-41.000000,-12.000000,13.000000,1.000000,5.000000,24.000000
1296668.711135,-18.000000,-35.000000,3.000000,-7.000000,-11.000000,1.000000,3.000000,-12.000000
1296668.727175,-2.000000,6.000000,0.000000,3.000000,-1.000000,3.000000,0.000000,-8.000000
1296668.727217,-1.000000,29.000000,-12.000000,1.000000,-6.000000,1.000000,9.000000,38.000000
1296668.727620,2.000000,30.000000,20.000000,-128.000000,-65.000000,-13.000000,-3.000000,-58.000000
1296668.727640,11.000000,-14.000000,5.000000,127.000000,127.000000,27.000000,-3.000000,37.000000
1296668.728254,-18.000000,-44.000000,4.000000,-68.000000,26.000000,-7.000000,-12.000000,-21.000000
1296668.728290,5.000000,23.000000,6.000000,8.000000,-21.000000,-6.000000,1.000000,5.000000
1296668.740789,-25.000000,-22.000000,-3.000000,-1.000000,2.000000,-2.000000,3.000000,-4.000000
1296668.740809,-10.000000,32.000000,3.000000,-26.000000,-50.000000,-20.000000,0.000000,56.000000
1296668.770837,-7.000000,20.000000,3.000000,-8.000000,-19.000000,-12.000000,-9.000000,-24.000000
1296668.770859,-8.000000,47.000000,7.000000,11.000000,-14.000000,3.000000,15.000000,-29.000000
1296668.778397,18.000000,-6.000000,3.000000,-20.000000,-14.000000,-8.000000,-2.000000,53.000000
1296668.778417,-56.000000,15.000000,11.000000,-32.000000,-17.000000,-8.000000,-1.000000,9.000000
1296668.801334,110.000000,23.000000,-5.000000,-46.000000,106.000000,14.000000,14.000000,-15.000000
1296668.801439,-21.000000,50.000000,-3.000000,-36.000000,-51.000000,-33.000000,-46.000000,-37.000000
1296668.808673,-8.000000,19.000000,-7.000000,-10.000000,-16.000000,-8.000000,7.000000,-5.000000
1296668.808693,1.000000,7.000000,12.000000,6.000000,-21.000000,0.000000,-13.000000,6.000000
1296668.831706,4.000000,-8.000000,4.000000,20.000000,-25.000000,1.000000,2.000000,41.000000
1296668.831737,-1.000000,49.000000,9.000000,-14.000000,-36.000000,-16.000000,-12.000000,-26.000000
1296668.833424,-2.000000,-118.000000,-13.000000,-10.000000,83.000000,0.000000,-4.000000,25.000000
1296668.833456,-12.000000,13.000000,2.000000,-16.000000,-35.000000,-3.000000,0.000000,-3.000000
1296668.833824,16.000000,44.000000,-3.000000,13.000000,-11.000000,5.000000,8.000000,-35.000000
1296668.833862,-5.000000,-17.000000,-3.000000,-44.000000,-44.000000,1.000000,6.000000,2.000000
1296668.838564,11.000000,-2.000000,3.000000,78.000000,58.000000,5.000000,-5.000000,9.000000
1296668.838583,19.000000,-46.000000,17.000000,95.000000,-22.000000,9.000000,2.000000,-6.000000
1296668.846141,20.000000,56.000000,1.000000,-24.000000,6.000000,-5.000000,-11.000000,57.000000
1296668.846275,16.000000,19.000000,8.000000,5.000000,-39.000000,7.000000,5.000000,-13.000000
1296668.868710,-13.000000,23.000000,20.000000,-8.000000,-14.000000,3.000000,1.000000,-6.000000
1296668.868745,2.000000,22.000000,-6.000000,9.000000,17.000000,5.000000,4.000000,-1.000000
1296668.883598,14.000000,9.000000,14.000000,15.000000,7.000000,2.000000,2.000000,28.000000
1296668.883618,-4.000000,-20.000000,-12.000000,-2.000000,-10.000000,3.000000,0.000000,-8.000000
1296668.920961,4.000000,10.000000,10.000000,-9.000000,-31.000000,-4.000000,-1.000000,-4.000000
1296668.920981,-2.000000,1.000000,-2.000000,-6.000000,-4.000000,1.000000,-4.000000,-2.000000
1296668.928440,9.000000,27.000000,18.000000,15.000000,-21.000000,-1.000000,7.000000,-61.000000
1296668.928459,3.000000,-24.000000,11.000000,-7.000000,69.000000,20.000000,-3.000000,36.000000
1296668.937123,10.000000,103.000000,1.000000,-45.000000,-58.000000,-6.000000,-4.000000,-99.000000
1296668.937310,-12.000000,-128.000000,-38.000000,-11.000000,61.000000,-10.000000,-12.000000,102.000000
1296668.937791,-5.000000,-17.000000,4.000000,-30.000000,-61.000000,-7.000000,1.000000,32.000000
1296668.937825,-7.000000,53.000000,-16.000000,0.000000,-13.000000,-8.000000,17.000000,75.000000
1296668.938849,-15.000000,-9.000000,5.000000,-115.000000,-1.000000,12.000000,-21.000000,-128.000000
1296668.938869,33.000000,11.000000,26.000000,99.000000,48.000000,-2.000000,0.000000,48.000000
1296668.943349,18.000000,85.000000,13.000000,-10.000000,-27.000000,-8.000000,0.000000,-8.000000
1296668.943367,-22.000000,-72.000000,-4.000000,-7.000000,-2.000000,-3.000000,6.000000,-6.000000
1296668.965875,-13.000000,-1.000000,-5.000000,-26.000000,-10.000000,-9.000000,-5.000000,-9.000000
1296668.965951,8.000000,0.000000,2.000000,36.000000,-50.000000,-4.000000,-1.000000,-12.000000
1296668.973477,9.000000,-14.000000,6.000000,51.000000,78.000000,11.000000,5.000000,15.000000
1296668.973509,2.000000,-15.000000,3.000000,20.000000,7.000000,1.000000,-1.000000,11.000000
1296669.003656,-4.000000,-23.000000,-3.000000,18.000000,-30.000000,-5.000000,2.000000,-24.000000
1296669.003678,2.000000,-8.000000,11.000000,5.000000,1.000000,4.000000,-3.000000,-56.000000
1296669.010938,35.000000,61.000000,-6.000000,15.000000,66.000000,1.000000,3.000000,36.000000
1296669.010965,-66.000000,-70.000000,-3.000000,-29.000000,-39.000000,-19.000000,-3.000000,-4.000000
1296669.033574,7.000000,-36.000000,-19.000000,57.000000,1.000000,-1.000000,3.000000,57.000000
1296669.033619,-7.000000,-21.000000,30.000000,-35.000000,-47.000000,-7.000000,-8.000000,-45.000000
1296669.041085,-22.000000,-89.000000,-13.000000,17.000000,59.000000,-9.000000,-5.000000,6.000000
1296669.041359,0.000000,65.000000,8.000000,-15.000000,2.000000,12.000000,-9.000000,-64.000000
1296669.042559,-7.000000,16.000000,18.000000,0.000000,-35.000000,-4.000000,4.000000,16.000000
1296669.042744,64.000000,37.000000,25.000000,-20.000000,-18.000000,0.000000,7.000000,24.000000
1296669.043190,-6.000000,-29.000000,-1.000000,32.000000,-14.000000,7.000000,16.000000,-25.000000
1296669.043242,36.000000,5.000000,-15.000000,-63.000000,-11.000000,-16.000000,-14.000000,20.000000
1296669.044575,-15.000000,39.000000,1.000000,5.000000,-37.000000,-3.000000,0.000000,-30.000000
1296669.044593,7.000000,-61.000000,-10.000000,112.000000,105.000000,14.000000,7.000000,12.000000
1296669.048990,5.000000,16.000000,-2.000000,-30.000000,-11.000000,-3.000000,-1.000000,-9.000000
1296669.049009,-2.000000,5.000000,-13.000000,93.000000,68.000000,17.000000,5.000000,7.000000
1296669.078404,3.000000,1.000000,3.000000,-20.000000,-17.000000,-2.000000,3.000000,8.000000
1296669.078560,-11.000000,-11.000000,-2.000000,-12.000000,-28.000000,-6.000000,-3.000000,18.000000
1296669.079353,1.000000,-7.000000,-12.000000,-93.000000,31.000000,-1.000000,1.000000,-44.000000
1296669.079374,18.000000,21.000000,2.000000,-20.000000,-63.000000,5.000000,1.000000,4.000000
1296669.080440,-3.000000,-41.000000,-9.000000,-40.000000,-30.000000,-13.000000,-7.000000,26.000000
1296669.080459,-19.000000,33.000000,-5.000000,-21.000000,-24.000000,-6.000000,-4.000000,-22.000000
1296669.093584,6.000000,-9.000000,0.000000,23.000000,-43.000000,-10.000000,2.000000,-12.000000
1296669.093604,-15.000000,-43.000000,-15.000000,-23.000000,7.000000,-6.000000,-11.000000,-17.000000
1296669.100906,-22.000000,22.000000,-5.000000,18.000000,41.000000,0.000000,-11.000000,-75.000000
1296669.100924,0.000000,-92.000000,-5.000000,118.000000,68.000000,22.000000,8.000000,-72.000000
1296669.123447,16.000000,30.000000,-43.000000,-67.000000,32.000000,-13.000000,-13.000000,82.000000
1296669.123467,-19.000000,-10.000000,10.000000,-14.000000,-13.000000,-2.000000,1.000000,-28.000000
1296669.130762,20.000000,39.000000,-5.000000,6.000000,-1.000000,-2.000000,20.000000,-29.000000
1296669.130782,-53.000000,-76.000000,-6.000000,-40.000000,-1.000000,-3.000000,-22.000000,67.000000
1296669.161288,26.000000,127.000000,13.000000,-31.000000,37.000000,3.000000,-15.000000,-128.000000
1296669.161335,10.000000,-100.000000,0.000000,-3.000000,43.000000,1.000000,0.000000,59.000000
1296669.168664,-17.000000,19.000000,10.000000,7.000000,4.000000,4.000000,0.000000,-19.000000
1296669.168682,14.000000,-32.000000,-2.000000,20.000000,-34.000000,-8.000000,10.000000,27.000000
1296669.169479,-14.000000,17.000000,-10.000000,-75.000000,-17.000000,1.000000,-9.000000,-25.000000
1296669.169495,4.000000,16.000000,-6.000000,71.000000,92.000000,15.000000,1.000000,4.000000
1296669.170321,5.000000,17.000000,-7.000000,-11.000000,-32.000000,-1.000000,0.000000,5.000000
1296669.170359,0.000000,15.000000,2.000000,18.000000,-10.000000,2.000000,-3.000000,0.000000
1296669.171656,-12.000000,-19.000000,-12.000000,-40.000000,-26.000000,-21.000000,-11.000000,-12.000000
1296669.171686,-14.000000,-15.000000,-28.000000,53.000000,27.000000,15.000000,3.000000,2.000000
1296669.198962,32.000000,54.000000,12.000000,-4.000000,-41.000000,-1.000000,9.000000,-46.000000
1296669.199223,29.000000,75.000000,-1.000000,39.000000,53.000000,-2.000000,-9.000000,48.000000
1296669.200316,-58.000000,-52.000000,-12.000000,-23.000000,-27.000000,-30.000000,-32.000000,35.000000
1296669.200357,14.000000,7.000000,0.000000,-22.000000,-22.000000,4.000000,7.000000,-67.000000
1296669.201100,16.000000,62.000000,25.000000,46.000000,44.000000,7.000000,-2.000000,9.000000
1296669.201119,5.000000,-38.000000,0.000000,-16.000000,-44.000000,-4.000000,2.000000,12.000000
1296669.213632,-14.000000,-17.000000,-40.000000,9.000000,85.000000,0.000000,-7.000000,38.000000
1296669.213651,2.000000,57.000000,-4.000000,-66.000000,-49.000000,-8.000000,15.000000,-87.000000
1296669.220879,56.000000,-69.000000,23.000000,77.000000,48.000000,5.000000,-41.000000,1.000000
1296669.220912,-16.000000,9.000000,11.000000,-42.000000,-40.000000,-10.000000,-1.000000,-59.000000
1296669.243703,-20.000000,-2.000000,-9.000000,-4.000000,-12.000000,6.000000,9.000000,48.000000
1296669.243742,3.000000,34.000000,23.000000,-15.000000,-1.000000,-9.000000,1.000000,-14.000000
1296669.250878,14.000000,-25.000000,15.000000,10.000000,-25.000000,4.000000,5.000000,18.000000
1296669.250897,0.000000,-7.000000,-22.000000,12.000000,26.000000,0.000000,-2.000000,0.000000
1296669.252172,-4.000000,64.000000,2.000000,34.000000,-12.000000,3.000000,6.000000,3.000000
1296669.252202,55.000000,39.000000,11.000000,-45.000000,-55.000000,-5.000000,14.000000,-35.000000
1296669.273732,-61.000000,-128.000000,-15.000000,37.000000,104.000000,17.000000,-17.000000,66.000000
1296669.273752,-12.000000,36.000000,22.000000,-18.000000,-32.000000,-10.000000,-3.000000,-26.000000
1296669.288606,4.000000,31.000000,6.000000,1.000000,-20.000000,2.000000,7.000000,1.000000
1296669.288627,49.000000,56.000000,1.000000,7.000000,-1.000000,6.000000,12.000000,7.000000
1296669.311163,-26.000000,-26.000000,-9.000000,5.000000,-45.000000,1.000000,-1.000000,3.000000
1296669.311183,18.000000,40.000000,12.000000,9.000000,-25.000000,-2.000000,0.000000,-2.000000
1296669.333856,-18.000000,23.000000,-17.000000,17.000000,-1.000000,-10.000000,-11.000000,-17.000000
1296669.333877,-3.000000,20.000000,-4.000000,-6.000000,-3.000000,-1.000000,-4.000000,5.000000
1296669.341057,-5.000000,-16.000000,0.000000,-4.000000,44.000000,1.000000,-3.000000,-4.000000
1296669.341078,22.000000,-3.000000,-9.000000,-32.000000,-26.000000,8.000000,4.000000,-2.000000
1296669.363509,-39.000000,-52.000000,-4.000000,-15.000000,-8.000000,-4.000000,-5.000000,6.000000
1296669.363529,-15.000000,3.000000,4.000000,14.000000,-43.000000,-6.000000,3.000000,14.000000
1296669.371029,15.000000,12.000000,8.000000,28.000000,82.000000,10.000000,3.000000,36.000000
1296669.371048,27.000000,-36.000000,34.000000,-15.000000,-27.000000,-8.000000,2.000000,55.000000
1296669.401420,-11.000000,2.000000,-33.000000,75.000000,62.000000,9.000000,0.000000,-70.000000
1296669.401441,-2.000000,25.000000,6.000000,-16.000000,-49.000000,-12.000000,-13.000000,-26.000000
1296669.401527,-6.000000,-55.000000,0.000000,-58.000000,-41.000000,-6.000000,3.000000,41.000000
1296669.401535,11.000000,91.000000,14.000000,50.000000,107.000000,13.000000,4.000000,-93.000000
1296669.403131,33.000000,86.000000,20.000000,-7.000000,-5.000000,14.000000,10.000000,71.000000
1296669.403353,-6.000000,-21.000000,18.000000,-26.000000,-17.000000,-12.000000,-12.000000,-15.000000
1296669.404555,-8.000000,31.000000,-21.000000,-24.000000,-9.000000,-7.000000,3.000000,30.000000
1296669.404603,4.000000,-25.000000,9.000000,57.000000,40.000000,22.000000,2.000000,-91.000000
1296669.409080,0.000000,-7.000000,-8.000000,67.000000,50.000000,7.000000,-5.000000,38.000000
1296669.409097,2.000000,-19.000000,8.000000,7.000000,-13.000000,1.000000,7.000000,108.000000
1296669.423426,-31.000000,12.000000,9.000000,-84.000000,-50.000000,-10.000000,-1.000000,-111.000000
1296669.423445,30.000000,127.000000,-7.000000,-35.000000,-22.000000,3.000000,-6.000000,37.000000
1296669.438786,51.000000,-128.000000,24.000000,20.000000,-25.000000,1.000000,9.000000,26.000000
1296669.438860,-75.000000,-25.000000,-12.000000,-25.000000,-4.000000,-3.000000,0.000000,-34.000000
1296669.446179,-3.000000,36.000000,-1.000000,27.000000,4.000000,0.000000,-1.000000,-5.000000
1296669.446198,5.000000,23.000000,4.000000,-2.000000,-7.000000,1.000000,8.000000,0.000000
1296669.460985,14.000000,12.000000,0.000000,-9.000000,-1.000000,5.000000,5.000000,-6.000000
1296669.461005,-5.000000,10.000000,-10.000000,4.000000,-60.000000,-6.000000,7.000000,-25.000000
1296669.490917,4.000000,-52.000000,14.000000,33.000000,56.000000,6.000000,-10.000000,46.000000
1296669.490937,4.000000,-24.000000,-59.000000,-26.000000,-110.000000,-6.000000,2.000000,10.000000
1296669.520909,-19.000000,1.000000,-7.000000,-32.000000,-7.000000,-4.000000,-4.000000,-5.000000
1296669.520946,-7.000000,-19.000000,2.000000,-41.000000,-62.000000,-9.000000,-7.000000,-92.000000
1296669.521766,14.000000,-24.000000,6.000000,81.000000,127.000000,5.000000,-6.000000,40.000000
1296669.521787,-31.000000,-41.000000,16.000000,-21.000000,-66.000000,-1.000000,-3.000000,-35.000000
1296669.522863,9.000000,46.000000,17.000000,25.000000,-26.000000,4.000000,12.000000,-8.000000
1296669.522880,-23.000000,-25.000000,-10.000000,-62.000000,-28.000000,5.000000,5.000000,33.000000
1296669.523390,23.000000,-12.000000,-1.000000,90.000000,127.000000,19.000000,13.000000,-2.000000
1296669.523408,16.000000,37.000000,5.000000,-10.000000,-25.000000,-11.000000,-23.000000,-6.000000
1296669.529017,17.000000,-41.000000,-8.000000,-54.000000,3.000000,-10.000000,-6.000000,-7.000000
1296669.529036,-19.000000,1.000000,10.000000,-4.000000,58.000000,-1.000000,-3.000000,9.000000
1296669.566147,-3.000000,23.000000,-17.000000,14.000000,-10.000000,-2.000000,1.000000,-20.000000
1296669.566170,-20.000000,-37.000000,-8.000000,-26.000000,-13.000000,0.000000,2.000000,1.000000
1296669.580999,4.000000,72.000000,-13.000000,-30.000000,-78.000000,-7.000000,24.000000,78.000000
1296669.581039,10.000000,-63.000000,10.000000,57.000000,127.000000,0.000000,-30.000000,-128.000000
1296669.603706,-2.000000,-73.000000,-2.000000,24.000000,-47.000000,2.000000,-16.000000,11.000000
1296669.603727,-36.000000,15.000000,14.000000,-14.000000,-35.000000,-9.000000,-1.000000,-20.000000
1296669.626131,50.000000,109.000000,9.000000,-7.000000,48.000000,8.000000,17.000000,20.000000
1296669.626341,-60.000000,-67.000000,-23.000000,9.000000,-21.000000,0.000000,7.000000,30.000000
1296669.626841,10.000000,20.000000,-23.000000,15.000000,11.000000,-7.000000,-8.000000,-7.000000
1296669.626857,5.000000,16.000000,-1.000000,16.000000,2.000000,4.000000,4.000000,-7.000000
1296669.633517,-4.000000,-22.000000,7.000000,32.000000,30.000000,7.000000,4.000000,-7.000000
1296669.633537,4.000000,31.000000,20.000000,15.000000,-28.000000,-5.000000,0.000000,-13.000000
1296669.634083,23.000000,42.000000,1.000000,66.000000,48.000000,7.000000,-10.000000,0.000000
1296669.634113,-31.000000,-64.000000,1.000000,-24.000000,-39.000000,-4.000000,-2.000000,-12.000000
1296669.634835,8.000000,-37.000000,3.000000,-34.000000,-15.000000,-16.000000,-19.000000,-26.000000
1296669.634851,6.000000,9.000000,-13.000000,60.000000,80.000000,13.000000,1.000000,22.000000
1296669.636079,-1.000000,6.000000,9.000000,15.000000,-1.000000,2.000000,9.000000,-8.000000
1296669.636098,17.000000,43.000000,5.000000,-2.000000,-34.000000,3.000000,3.000000,14.000000
1296669.641006,-11.000000,-27.000000,-31.000000,-81.000000,4.000000,-19.000000,-31.000000,-48.000000
1296669.641025,28.000000,29.000000,-13.000000,55.000000,22.000000,12.000000,3.000000,33.000000
1296669.663595,-24.000000,25.000000,7.000000,-16.000000,36.000000,-4.000000,-10.000000,-53.000000
1296669.663775,-8.000000,-88.000000,-16.000000,-17.000000,-14.000000,-3.000000,6.000000,43.000000
1296669.664165,-23.000000,9.000000,-4.000000,-47.000000,-9.000000,-13.000000,-4.000000,15.000000
1296669.664185,13.000000,28.000000,-4.000000,17.000000,0.000000,5.000000,7.000000,-53.000000
1296669.701126,-25.000000,-44.000000,8.000000,-20.000000,-19.000000,-4.000000,-2.000000,-23.000000
1296669.701367,28.000000,65.000000,16.000000,12.000000,21.000000,8.000000,2.000000,56.000000
1296669.701719,-11.000000,-98.000000,-10.000000,38.000000,74.000000,6.000000,8.000000,45.000000
1296669.701754,-23.000000,1.000000,-7.000000,-5.000000,-65.000000,-4.000000,-7.000000,-52.000000
1296669.731232,43.000000,-46.000000,-5.000000,-49.000000,-35.000000,-5.000000,-2.000000,32.000000
1296669.731256,-26.000000,-33.000000,4.000000,39.000000,17.000000,-6.000000,4.000000,-17.000000
1296669.753540,5.000000,23.000000,2.000000,-7.000000,-53.000000,-5.000000,5.000000,26.000000
1296669.753659,-5.000000,17.000000,-14.000000,15.000000,33.000000,3.000000,3.000000,-14.000000
1296669.768559,23.000000,-49.000000,13.000000,-22.000000,23.000000,0.000000,0.000000,2.000000
1296669.768600,-1.000000,38.000000,-7.000000,20.000000,6.000000,-7.000000,1.000000,18.000000
1296669.776028,-1.000000,6.000000,6.000000,9.000000,11.000000,-1.000000,3.000000,11.000000
1296669.776070,-10.000000,-13.000000,9.000000,9.000000,-6.000000,2.000000,10.000000,-8.000000
1296669.790782,-1.000000,15.000000,1.000000,-5.000000,-10.000000,-3.000000,3.000000,-42.000000
1296669.790802,8.000000,3.000000,0.000000,-6.000000,9.000000,-3.000000,-1.000000,-31.000000
1296669.813439,-20.000000,-13.000000,-11.000000,-1.000000,-27.000000,-10.000000,0.000000,31.000000
1296669.813474,52.000000,37.000000,-7.000000,47.000000,127.000000,21.000000,15.000000,53.000000
1296669.828467,-56.000000,-38.000000,-13.000000,6.000000,-11.000000,-15.000000,-12.000000,-16.000000
1296669.828487,4.000000,82.000000,30.000000,9.000000,-28.000000,0.000000,11.000000,74.000000
1296669.843405,11.000000,-24.000000,-28.000000,56.000000,83.000000,12.000000,4.000000,-13.000000
1296669.843439,4.000000,28.000000,-15.000000,39.000000,39.000000,-6.000000,-11.000000,-14.000000
1296669.866108,-3.000000,16.000000,10.000000,14.000000,-16.000000,7.000000,18.000000,82.000000
1296669.866128,10.000000,5.000000,3.000000,22.000000,-16.000000,-1.000000,3.000000,-102.000000
1296669.873304,52.000000,29.000000,15.000000,-5.000000,-19.000000,-15.000000,-23.000000,23.000000
1296669.873466,-40.000000,-64.000000,-8.000000,-14.000000,-4.000000,-3.000000,2.000000,-3.000000
1296669.874296,3.000000,45.000000,0.000000,-11.000000,11.000000,-2.000000,2.000000,-38.000000
1296669.874313,28.000000,-1.000000,-8.000000,60.000000,-32.000000,4.000000,8.000000,53.000000
1296669.875827,6.000000,28.000000,20.000000,-10.000000,-39.000000,-1.000000,2.000000,0.000000
1296669.875868,5.000000,13.000000,-1.000000,-3.000000,-10.000000,-7.000000,2.000000,3.000000
1296669.880791,-35.000000,2.000000,22.000000,0.000000,-13.000000,-23.000000,-26.000000,-41.000000
1296669.880809,-8.000000,-4.000000,15.000000,-63.000000,-35.000000,-13.000000,1.000000,-2.000000
1296669.911058,0.000000,17.000000,-48.000000,34.000000,-13.000000,11.000000,4.000000,3.000000
1296669.911095,23.000000,6.000000,-19.000000,-10.000000,-19.000000,0.000000,4.000000,14.000000
1296669.918511,-25.000000,-4.000000,0.000000,-21.000000,-7.000000,-18.000000,-15.000000,9.000000
1296669.918617,-14.000000,31.000000,1.000000,-13.000000,-80.000000,-5.000000,21.000000,34.000000
1296669.956074,29.000000,-86.000000,1.000000,118.000000,127.000000,35.000000,-1.000000,32.000000
1296669.956116,-41.000000,50.000000,7.000000,-66.000000,-26.000000,-31.000000,-37.000000,-36.000000
1296669.963571,-23.000000,25.000000,6.000000,1.000000,-6.000000,5.000000,9.000000,-20.000000
1296669.963604,29.000000,30.000000,5.000000,-7.000000,-16.000000,5.000000,4.000000,-3.000000
1296670.001176,-11.000000,2.000000,7.000000,-1.000000,28.000000,4.000000,-1.000000,-24.000000
1296670.001198,-9.000000,-11.000000,0.000000,19.000000,4.000000,5.000000,8.000000,-52.000000
1296670.008605,33.000000,66.000000,6.000000,-6.000000,2.000000,-4.000000,-16.000000,80.000000
1296670.008627,-13.000000,-99.000000,-2.000000,-36.000000,0.000000,4.000000,7.000000,-62.000000
1296670.038462,-41.000000,-48.000000,0.000000,-56.000000,-5.000000,-9.000000,-10.000000,31.000000
1296670.038504,-12.000000,-7.000000,9.000000,-22.000000,1.000000,4.000000,-8.000000,-24.000000
1296670.068845,-39.000000,17.000000,0.000000,-42.000000,-38.000000,-12.000000,-19.000000,-34.000000
1296670.068865,14.000000,37.000000,2.000000,23.000000,-4.000000,11.000000,19.000000,14.000000
1296670.091099,4.000000,43.000000,53.000000,9.000000,15.000000,2.000000,8.000000,-6.000000
1296670.091144,-10.000000,9.000000,-17.000000,-50.000000,-26.000000,-10.000000,2.000000,-2.000000
1296670.105945,3.000000,12.000000,-8.000000,11.000000,-7.000000,13.000000,26.000000,10.000000
1296670.105964,2.000000,38.000000,1.000000,-15.000000,-29.000000,-7.000000,-23.000000,27.000000
1296670.113706,4.000000,17.000000,9.000000,67.000000,45.000000,5.000000,4.000000,2.000000
1296670.113745,5.000000,7.000000,-7.000000,-62.000000,-27.000000,-1.000000,3.000000,1.000000
1296670.121081,-12.000000,-66.000000,-10.000000,-63.000000,-18.000000,-10.000000,-16.000000,-33.000000
1296670.121346,-10.000000,-26.000000,2.000000,-53.000000,-20.000000,-13.000000,-6.000000,24.000000
1296670.122090,-7.000000,45.000000,3.000000,21.000000,27.000000,10.000000,4.000000,-128.000000
1296670.122123,32.000000,-5.000000,8.000000,10.000000,-12.000000,8.000000,6.000000,67.000000
1296670.122344,-16.000000,-10.000000,-4.000000,-11.000000,14.000000,-3.000000,-7.000000,-9.000000
1296670.122356,5.000000,16.000000,9.000000,8.000000,-22.000000,2.000000,14.000000,9.000000
1296670.122794,-3.000000,-2.000000,-8.000000,1.000000,-35.000000,14.000000,4.000000,30.000000
1296670.122810,34.000000,-36.000000,10.000000,63.000000,55.000000,-12.000000,-10.000000,14.000000
1296670.124126,40.000000,127.000000,13.000000,26.000000,49.000000,4.000000,7.000000,9.000000
1296670.124144,-29.000000,-128.000000,-56.000000,-54.000000,-19.000000,-9.000000,-6.000000,-6.000000
1296670.150945,-26.000000,48.000000,-26.000000,-3.000000,33.000000,-9.000000,9.000000,116.000000
1296670.150966,-3.000000,12.000000,10.000000,-56.000000,-38.000000,21.000000,3.000000,-119.000000
1296670.158536,49.000000,6.000000,6.000000,-55.000000,-11.000000,-14.000000,-9.000000,33.000000
1296670.158555,-11.000000,-3.000000,10.000000,-3.000000,11.000000,-4.000000,10.000000,0.000000
1296670.196595,-12.000000,-57.000000,3.000000,-7.000000,-11.000000,3.000000,-17.000000,-4.000000
1296670.196625,-12.000000,-5.000000,-20.000000,8.000000,-38.000000,-6.000000,3.000000,47.000000
1296670.203866,14.000000,19.000000,12.000000,2.000000,12.000000,-6.000000,-4.000000,-63.000000
1296670.204226,-16.000000,-51.000000,18.000000,38.000000,105.000000,6.000000,6.000000,-16.000000
1296670.205695,-35.000000,5.000000,-2.000000,-12.000000,-24.000000,-7.000000,-2.000000,32.000000
1296670.205726,17.000000,51.000000,6.000000,22.000000,2.000000,6.000000,-4.000000,-52.000000
1296670.206958,9.000000,-101.000000,-7.000000,-43.000000,-18.000000,-6.000000,4.000000,30.000000
1296670.206980,-52.000000,3.000000,-19.000000,3.000000,44.000000,-6.000000,-12.000000,-51.000000
1296670.207504,-6.000000,-1.000000,1.000000,-5.000000,-10.000000,-1.000000,-5.000000,-5.000000
1296670.207525,1.000000,1.000000,-11.000000,-16.000000,-17.000000,-5.000000,3.000000,-2.000000
1296670.234697,3.000000,16.000000,-26.000000,-21.000000,26.000000,10.000000,6.000000,-7.000000
1296670.235450,0.000000,-2.000000,44.000000,23.000000,36.000000,3.000000,-1.000000,26.000000
1296670.236246,-3.000000,-8.000000,-3.000000,-8.000000,-26.000000,-10.000000,-12.000000,-2.000000
1296670.236280,-4.000000,-6.000000,14.000000,-15.000000,4.000000,5.000000,-4.000000,-70.000000
1296670.237166,-2.000000,11.000000,4.000000,-26.000000,-20.000000,-5.000000,-4.000000,0.000000
1296670.237189,-3.000000,-6.000000,-5.000000,-128.000000,-34.000000,-8.000000,-1.000000,-37.000000
1296670.241329,22.000000,8.000000,18.000000,95.000000,96.000000,30.000000,9.000000,-2.000000
1296670.241357,26.000000,93.000000,-6.000000,-118.000000,-31.000000,-20.000000,-5.000000,28.000000
1296670.271692,-40.000000,-128.000000,-22.000000,61.000000,44.000000,3.000000,-2.000000,-6.000000
1296670.271719,1.000000,56.000000,4.000000,-37.000000,-6.000000,-6.000000,1.000000,-38.000000
1296670.278735,-5.000000,-48.000000,-5.000000,-13.000000,-28.000000,1.000000,9.000000,-24.000000
1296670.278760,45.000000,-1.000000,15.000000,-4.000000,3.000000,-5.000000,-20.000000,96.000000
1296670.294019,-36.000000,16.000000,33.000000,-33.000000,-7.000000,-4.000000,-4.000000,-34.000000
1296670.294047,-1.000000,-48.000000,-1.000000,-60.000000,-54.000000,-8.000000,3.000000,15.000000
1296670.309147,-27.000000,-82.000000,-5.000000,1.000000,0.000000,-6.000000,-11.000000,-6.000000
1296670.309191,21.000000,27.000000,9.000000,-90.000000,6.000000,2.000000,-23.000000,-8.000000
1296670.323584,5.000000,76.000000,-8.000000,29.000000,-15.000000,7.000000,18.000000,39.000000
1296670.323610,-12.000000,28.000000,0.000000,-44.000000,-3.000000,-4.000000,-1.000000,-51.000000
1296670.331296,13.000000,-56.000000,8.000000,-12.000000,-6.000000,0.000000,0.000000,35.000000
1296670.331322,32.000000,-68.000000,9.000000,9.000000,-78.000000,-4.000000,8.000000,9.000000
1296670.347347,-13.000000,26.000000,39.000000,106.000000,127.000000,8.000000,9.000000,1.000000
1296670.347384,33.000000,127.000000,11.000000,26.000000,-25.000000,3.000000,-5.000000,36.000000
1296670.348386,-6.000000,-92.000000,-4.000000,-18.000000,-21.000000,-8.000000,0.000000,-35.000000
1296670.348431,-3.000000,24.000000,3.000000,-20.000000,-13.000000,-8.000000,-3.000000,-8.000000
1296670.350345,3.000000,15.000000,22.000000,8.000000,-17.000000,8.000000,0.000000,-11.000000
1296670.350372,4.000000,6.000000,3.000000,22.000000,15.000000,-14.000000,-4.000000,26.000000
1296670.350656,-16.000000,-10.000000,-3.000000,-15.000000,-28.000000,-8.000000,1.000000,-17.000000
1296670.350691,7.000000,-4.000000,7.000000,-37.000000,4.000000,19.000000,16.000000,-95.000000
1296670.353977,16.000000,43.000000,11.000000,-55.000000,-7.000000,-8.000000,-27.000000,18.000000
1296670.354003,10.000000,46.000000,16.000000,-33.000000,-29.000000,-7.000000,-11.000000,3.000000
1296670.361614,-11.000000,-92.000000,-26.000000,9.000000,18.000000,-9.000000,-9.000000,-24.000000
1296670.361642,-34.000000,-24.000000,3.000000,10.000000,-5.000000,-7.000000,8.000000,60.000000
1296670.391616,36.000000,66.000000,-3.000000,13.000000,17.000000,3.000000,6.000000,-28.000000
1296670.391644,2.000000,56.000000,12.000000,-39.000000,4.000000,1.000000,-6.000000,2.000000
1296670.399585,0.000000,-66.000000,-10.000000,16.000000,18.000000,4.000000,7.000000,13.000000
1296670.399615,2.000000,-5.000000,-4.000000,-32.000000,-26.000000,-7.000000,-4.000000,-3.000000
1296670.429020,-1.000000,5.000000,-29.000000,45.000000,61.000000,5.000000,0.000000,-10.000000
1296670.429046,7.000000,8.000000,37.000000,42.000000,-18.000000,15.000000,0.000000,2.000000
1296670.436352,-10.000000,5.000000,-8.000000,-17.000000,-11.000000,-3.000000,1.000000,-5.000000
1296670.436409,-2.000000,-17.000000,21.000000,-69.000000,-96.000000,-17.000000,-2.000000,-9.000000
1296670.466177,-19.000000,-14.000000,-10.000000,114.000000,127.000000,14.000000,0.000000,5.000000
1296670.466201,41.000000,34.000000,-2.000000,21.000000,-3.000000,4.000000,14.000000,74.000000
1296670.467038,-56.000000,-41.000000,18.000000,-63.000000,-8.000000,-22.000000,-20.000000,-94.000000
1296670.467380,3.000000,16.000000,-1.000000,3.000000,-28.000000,-3.000000,-11.000000,14.000000
1296670.468636,5.000000,1.000000,-1.000000,-5.000000,35.000000,5.000000,10.000000,30.000000
1296670.468665,0.000000,-17.000000,13.000000,59.000000,20.000000,-6.000000,-8.000000,-15.000000
1296670.470719,8.000000,72.000000,-12.000000,-38.000000,-8.000000,4.000000,9.000000,-79.000000
1296670.470741,22.000000,-128.000000,-16.000000,65.000000,76.000000,-3.000000,-10.000000,44.000000
1296670.471052,26.000000,93.000000,1.000000,8.000000,-5.000000,2.000000,21.000000,65.000000
1296670.471156,-18.000000,-71.000000,-8.000000,-39.000000,-25.000000,3.000000,-9.000000,-76.000000
1296670.473884,-4.000000,4.000000,20.000000,-12.000000,-41.000000,-7.000000,3.000000,34.000000
1296670.473917,-7.000000,-13.000000,18.000000,64.000000,66.000000,24.000000,12.000000,79.000000
1296670.481391,2.000000,-26.000000,-6.000000,5.000000,-34.000000,-8.000000,-5.000000,-84.000000
1296670.481415,18.000000,28.000000,4.000000,-64.000000,-41.000000,-40.000000,-27.000000,-5.000000
1296670.511520,0.000000,-9.000000,-7.000000,89.000000,77.000000,15.000000,18.000000,18.000000
1296670.511578,-8.000000,12.000000,2.000000,17.000000,-42.000000,-8.000000,9.000000,16.000000
1296670.534037,10.000000,53.000000,4.000000,19.000000,15.000000,9.000000,-3.000000,4.000000
1296670.534067,-23.000000,-53.000000,-15.000000,32.000000,16.000000,1.000000,-8.000000,-14.000000
1296670.556289,-16.000000,13.000000,-6.000000,-31.000000,-11.000000,-10.000000,-5.000000,-10.000000
1296670.556318,10.000000,22.000000,-2.000000,7.000000,-6.000000,-1.000000,7.000000,15.000000
1296670.563911,-21.000000,26.000000,2.000000,-23.000000,72.000000,1.000000,-2.000000,-19.000000
1296670.563941,27.000000,31.000000,-6.000000,26.000000,-50.000000,1.000000,11.000000,-22.000000
1296670.594312,11.000000,-30.000000,8.000000,-18.000000,16.000000,5.000000,-1.000000,-22.000000
1296670.594423,-5.000000,31.000000,7.000000,-31.000000,-24.000000,-23.000000,-30.000000,3.000000
1296670.601852,16.000000,-20.000000,22.000000,16.000000,38.000000,8.000000,11.000000,29.000000
1296670.601881,3.000000,56.000000,-55.000000,9.000000,-17.000000,-10.000000,-4.000000,-34.000000
1296670.624321,34.000000,-128.000000,-6.000000,4.000000,-70.000000,6.000000,3.000000,31.000000
1296670.624365,0.000000,22.000000,7.000000,-14.000000,-15.000000,-3.000000,-8.000000,-14.000000
1296670.638975,18.000000,42.000000,8.000000,-45.000000,-36.000000,-8.000000,1.000000,11.000000
1296670.639052,9.000000,16.000000,15.000000,86.000000,92.000000,5.000000,-3.000000,-3.000000
1296670.646317,-22.000000,-13.000000,-13.000000,89.000000,59.000000,0.000000,-4.000000,-37.000000
1296670.646340,3.000000,61.000000,10.000000,83.000000,59.000000,8.000000,6.000000,0.000000
1296670.668958,8.000000,-128.000000,-19.000000,-39.000000,-29.000000,2.000000,11.000000,49.000000
1296670.669007,-36.000000,46.000000,18.000000,-24.000000,-4.000000,-22.000000,-28.000000,-16.000000
1296670.676326,7.000000,77.000000,9.000000,1.000000,9.000000,3.000000,2.000000,-12.000000
1296670.676363,16.000000,-59.000000,7.000000,-11.000000,-36.000000,2.000000,5.000000,6.000000
1296670.692000,-4.000000,-5.000000,1.000000,50.000000,91.000000,3.000000,-5.000000,-45.000000
1296670.692052,6.000000,13.000000,6.000000,-6.000000,-7.000000,8.000000,0.000000,2.000000
1296670.707320,8.000000,74.000000,12.000000,-44.000000,-58.000000,-18.000000,-6.000000,-21.000000
1296670.707427,-6.000000,-50.000000,-18.000000,-5.000000,96.000000,31.000000,13.000000,-56.000000
1296670.709173,30.000000,-6.000000,-21.000000,12.000000,-115.000000,-11.000000,-15.000000,33.000000
1296670.709224,-27.000000,23.000000,-16.000000,-31.000000,-19.000000,-8.000000,1.000000,8.000000
1296670.710722,20.000000,27.000000,8.000000,1.000000,13.000000,2.000000,16.000000,9.000000
1296670.710773,-11.000000,21.000000,-21.000000,-19.000000,-107.000000,-7.000000,-5.000000,-20.000000
1296670.711069,28.000000,3.000000,-26.000000,102.000000,127.000000,7.000000,1.000000,33.000000
1296670.711088,3.000000,-3.000000,24.000000,-4.000000,-102.000000,-1.000000,-9.000000,-40.000000
1296670.711792,9.000000,3.000000,-42.000000,15.000000,-48.000000,4.000000,8.000000,-23.000000
1296670.711814,-11.000000,19.000000,0.000000,-73.000000,-10.000000,-16.000000,-34.000000,16.000000
1296670.711941,-1.000000,-5.000000,8.000000,9.000000,5.000000,7.000000,1.000000,-21.000000
1296670.711977,1.000000,20.000000,0.000000,8.000000,-5.000000,1.000000,-2.000000,11.000000
1296670.713770,3.000000,38.000000,3.000000,74.000000,-5.000000,12.000000,23.000000,80.000000
1296670.713797,22.000000,50.000000,-6.000000,4.000000,-15.000000,1.000000,6.000000,-44.000000
1296670.744022,5.000000,-74.000000,6.000000,-88.000000,-52.000000,-29.000000,-43.000000,8.000000
1296670.744069,-19.000000,1.000000,-19.000000,26.000000,-44.000000,-4.000000,7.000000,2.000000
1296670.758983,3.000000,-20.000000,28.000000,-28.000000,-27.000000,0.000000,5.000000,16.000000
1296670.759061,-13.000000,36.000000,-19.000000,-13.000000,10.000000,-3.000000,-3.000000,-28.000000
1296670.796870,33.000000,49.000000,22.000000,-11.000000,-98.000000,7.000000,5.000000,41.000000
1296670.796923,-21.000000,-66.000000,-18.000000,23.000000,44.000000,0.000000,3.000000,-7.000000
1296670.827672,16.000000,47.000000,2.000000,-31.000000,-22.000000,-9.000000,-10.000000,-11.000000
1296670.827704,4.000000,5.000000,16.000000,-25.000000,-12.000000,-8.000000,3.000000,2.000000
1296670.828292,-8.000000,12.000000,-32.000000,10.000000,-77.000000,-16.000000,-9.000000,-14.000000
1296670.828315,13.000000,42.000000,21.000000,127.000000,87.000000,34.000000,9.000000,-53.000000
1296670.829434,-5.000000,-27.000000,-15.000000,-57.000000,-36.000000,-11.000000,-5.000000,36.000000
1296670.829456,-11.000000,22.000000,-2.000000,-37.000000,-23.000000,-4.000000,-7.000000,-14.000000
1296670.830604,17.000000,-61.000000,-3.000000,-11.000000,-15.000000,-4.000000,4.000000,19.000000
1296670.830626,-31.000000,-15.000000,3.000000,40.000000,-23.000000,4.000000,2.000000,-19.000000
1296670.833753,-2.000000,24.000000,-10.000000,-29.000000,-11.000000,-14.000000,-8.000000,3.000000
1296670.833801,-6.000000,14.000000,16.000000,4.000000,-9.000000,3.000000,1.000000,6.000000
1296670.848655,-4.000000,13.000000,-3.000000,-8.000000,-5.000000,0.000000,13.000000,0.000000
1296670.848887,-9.000000,-4.000000,-24.000000,-20.000000,-17.000000,-2.000000,3.000000,12.000000
1296670.856232,4.000000,4.000000,8.000000,46.000000,64.000000,9.000000,8.000000,-39.000000
1296670.856259,-7.000000,-24.000000,7.000000,-12.000000,8.000000,-1.000000,-7.000000,3.000000
1296670.863886,-9.000000,7.000000,19.000000,0.000000,-46.000000,-14.000000,0.000000,-109.000000
1296670.863911,13.000000,7.000000,6.000000,-115.000000,19.000000,8.000000,-9.000000,109.000000
1296670.901593,12.000000,-2.000000,31.000000,73.000000,13.000000,7.000000,-9.000000,-108.000000
1296670.901750,8.000000,10.000000,-4.000000,-17.000000,-45.000000,-10.000000,-9.000000,-56.000000
1296670.908675,-12.000000,120.000000,7.000000,-15.000000,19.000000,-7.000000,1.000000,46.000000
1296670.908700,3.000000,-128.000000,-7.000000,22.000000,-10.000000,19.000000,4.000000,-45.000000
1296670.924082,-12.000000,23.000000,-2.000000,-29.000000,-8.000000,-16.000000,-23.000000,-8.000000
1296670.924131,-13.000000,-18.000000,5.000000,16.000000,8.000000,1.000000,2.000000,2.000000
1296670.946727,32.000000,33.000000,15.000000,1.000000,-39.000000,9.000000,20.000000,45.000000
1296670.946974,-22.000000,-86.000000,-17.000000,60.000000,81.000000,18.000000,5.000000,27.000000
1296670.948489,-21.000000,-36.000000,-15.000000,-28.000000,12.000000,-11.000000,-13.000000,-7.000000
1296670.948514,-9.000000,14.000000,-9.000000,-17.000000,-36.000000,-12.000000,-19.000000,-4.000000
1296670.948930,10.000000,8.000000,-3.000000,66.000000,68.000000,19.000000,28.000000,34.000000
1296670.948955,3.000000,15.000000,-5.000000,-44.000000,-33.000000,-7.000000,-14.000000,0.000000
1296670.950251,3.000000,60.000000,-4.000000,94.000000,64.000000,17.000000,-2.000000,-10.000000
1296670.950276,28.000000,-44.000000,1.000000,-3.000000,-45.000000,-7.000000,12.000000,14.000000
1296670.950524,16.000000,15.000000,7.000000,14.000000,25.000000,3.000000,5.000000,27.000000
1296670.950560,-7.000000,15.000000,-43.000000,-15.000000,12.000000,-1.000000,-6.000000,-70.000000
1296670.953804,10.000000,65.000000,43.000000,-3.000000,-44.000000,-5.000000,6.000000,5.000000
1296670.953831,-12.000000,-39.000000,-20.000000,20.000000,58.000000,-1.000000,-12.000000,-19.000000
1296670.983880,-36.000000,13.000000,3.000000,-16.000000,-96.000000,-6.000000,-1.000000,-37.000000
1296670.983907,44.000000,20.000000,-19.000000,98.000000,79.000000,12.000000,3.000000,98.000000
1296670.999134,-22.000000,11.000000,19.000000,-3.000000,28.000000,3.000000,1.000000,-23.000000
1296670.999161,23.000000,28.000000,-21.000000,2.000000,5.000000,-4.000000,7.000000,-20.000000
1296671.013851,-15.000000,-25.000000,-21.000000,36.000000,67.000000,-5.000000,-25.000000,2.000000
1296671.013876,-5.000000,2.000000,-17.000000,-12.000000,-17.000000,-2.000000,26.000000,-50.000000
1296671.028737,11.000000,38.000000,15.000000,-4.000000,-19.000000,-3.000000,-25.000000,-6.000000
1296671.028788,28.000000,53.000000,-41.000000,62.000000,33.000000,3.000000,15.000000,25.000000
1296671.036411,-11.000000,-58.000000,0.000000,8.000000,81.000000,22.000000,10.000000,18.000000
1296671.036466,42.000000,43.000000,6.000000,13.000000,-15.000000,-10.000000,-14.000000,-1.000000
1296671.066249,-19.000000,-27.000000,-1.000000,-7.000000,-8.000000,-5.000000,11.000000,10.000000
1296671.066276,1.000000,41.000000,21.000000,-20.000000,-31.000000,3.000000,11.000000,52.000000
1296671.073848,27.000000,127.000000,-19.000000,54.000000,55.000000,16.000000,12.000000,-53.000000
1296671.073884,3.000000,-128.000000,-11.000000,-9.000000,13.000000,-11.000000,-13.000000,30.000000
1296671.096773,-41.000000,12.000000,-3.000000,-18.000000,-12.000000,-7.000000,-11.000000,-30.000000
1296671.096833,10.000000,39.000000,9.000000,0.000000,-61.000000,-9.000000,2.000000,3.000000
1296671.103868,7.000000,6.000000,-3.000000,84.000000,126.000000,12.000000,7.000000,6.000000
1296671.103894,31.000000,78.000000,-6.000000,127.000000,5.000000,23.000000,10.000000,3.000000
1296671.111155,-7.000000,-14.000000,-6.000000,42.000000,42.000000,1.000000,-4.000000,-3.000000
1296671.111178,-10.000000,-16.000000,0.000000,-23.000000,-34.000000,-15.000000,-4.000000,-15.000000
1296671.118804,14.000000,-1.000000,6.000000,-14.000000,50.000000,-1.000000,0.000000,-48.000000
1296671.118856,-10.000000,-5.000000,18.000000,1.000000,5.000000,-10.000000,-10.000000,-1.000000
1296671.126643,-5.000000,21.000000,13.000000,-7.000000,-44.000000,-6.000000,-15.000000,-11.000000
1296671.126840,10.000000,68.000000,5.000000,-128.000000,47.000000,-4.000000,22.000000,-65.000000
1296671.141311,34.000000,-34.000000,-1.000000,105.000000,6.000000,21.000000,21.000000,12.000000
1296671.141357,14.000000,33.000000,9.000000,-21.000000,-22.000000,-16.000000,-16.000000,17.000000
1296671.156553,33.000000,17.000000,15.000000,10.000000,21.000000,10.000000,7.000000,-18.000000
1296671.156580,-58.000000,-28.000000,-16.000000,-36.000000,53.000000,-12.000000,-10.000000,11.000000
1296671.178818,-3.000000,31.000000,-3.000000,9.000000,-128.000000,16.000000,12.000000,-7.000000
1296671.178860,33.000000,-28.000000,2.000000,23.000000,-21.000000,3.000000,0.000000,1.000000
1296671.186663,-17.000000,-26.000000,-7.000000,-116.000000,5.000000,-20.000000,-13.000000,-12.000000
1296671.186694,2.000000,-16.000000,-7.000000,79.000000,68.000000,19.000000,7.000000,-2.000000
1296671.194149,3.000000,37.000000,12.000000,0.000000,-9.000000,4.000000,1.000000,1.000000
1296671.194203,9.000000,20.000000,2.000000,-30.000000,-24.000000,-13.000000,-5.000000,-39.000000
1296671.216656,-8.000000,-9.000000,1.000000,-9.000000,-19.000000,-2.000000,5.000000,-34.000000
1296671.216708,-7.000000,-20.000000,-4.000000,34.000000,60.000000,5.000000,-1.000000,19.000000
1296671.223884,8.000000,6.000000,1.000000,-1.000000,2.000000,-1.000000,18.000000,-6.000000
1296671.224032,-9.000000,3.000000,-9.000000,-14.000000,-24.000000,-6.000000,-16.000000,11.000000
1296671.231475,-23.000000,-31.000000,-31.000000,-31.000000,2.000000,-14.000000,-10.000000,5.000000
1296671.231591,4.000000,46.000000,31.000000,2.000000,-7.000000,7.000000,5.000000,-2.000000
1296671.238707,39.000000,-49.000000,2.000000,127.000000,65.000000,14.000000,-10.000000,-11.000000
1296671.238735,-76.000000,-57.000000,4.000000,-68.000000,-40.000000,-14.000000,-8.000000,-32.000000
1296671.268725,3.000000,29.000000,6.000000,-4.000000,-15.000000,0.000000,8.000000,29.000000
1296671.268750,0.000000,-40.000000,28.000000,-19.000000,-17.000000,-10.000000,-16.000000,-13.000000
1296671.291667,6.000000,63.000000,-17.000000,-38.000000,-12.000000,-5.000000,4.000000,-4.000000
1296671.291694,3.000000,-61.000000,18.000000,127.000000,20.000000,15.000000,1.000000,-13.000000
1296671.299619,9.000000,45.000000,-2.000000,-3.000000,-8.000000,-4.000000,11.000000,12.000000
1296671.299662,-14.000000,-13.000000,0.000000,-14.000000,-46.000000,-3.000000,22.000000,-39.000000
1296671.300950,11.000000,-42.000000,-9.000000,57.000000,52.000000,11.000000,-12.000000,52.000000
1296671.301269,-9.000000,-26.000000,0.000000,-10.000000,-25.000000,-1.000000,-23.000000,-40.000000
1296671.301875,-7.000000,2.000000,12.000000,-13.000000,-9.000000,-2.000000,6.000000,-12.000000
1296671.302178,9.000000,3.000000,-9.000000,-13.000000,-16.000000,-3.000000,1.000000,8.000000
1296671.302910,-7.000000,6.000000,-10.000000,-24.000000,2.000000,-7.000000,-3.000000,-9.000000
1296671.302935,9.000000,23.000000,3.000000,3.000000,-9.000000,-1.000000,8.000000,-18.000000
1296671.303684,-8.000000,-8.000000,3.000000,-7.000000,-87.000000,-20.000000,-7.000000,-40.000000
1296671.303741,5.000000,2.000000,-9.000000,127.000000,127.000000,33.000000,5.000000,-5.000000
1296671.306008,17.000000,114.000000,11.000000,20.000000,-16.000000,-4.000000,19.000000,42.000000
1296671.306032,-25.000000,-128.000000,-8.000000,-27.000000,-5.000000,7.000000,11.000000,24.000000
1296671.314356,-6.000000,26.000000,-2.000000,-10.000000,-32.000000,-20.000000,-43.000000,-42.000000
1296671.314383,-16.000000,-3.000000,-7.000000,-7.000000,51.000000,-11.000000,-1.000000,11.000000
1296671.343938,12.000000,22.000000,28.000000,2.000000,-11.000000,7.000000,10.000000,6.000000
1296671.343963,-19.000000,-17.000000,-10.000000,2.000000,-2.000000,1.000000,0.000000,-8.000000
1296671.366347,-19.000000,36.000000,-25.000000,-17.000000,-20.000000,-9.000000,12.000000,90.000000
1296671.366373,32.000000,-31.000000,0.000000,44.000000,82.000000,21.000000,12.000000,-63.000000
1296671.381818,23.000000,123.000000,19.000000,-32.000000,-33.000000,-30.000000,-28.000000,3.000000
1296671.381899,-19.000000,-125.000000,16.000000,-30.000000,0.000000,-4.000000,2.000000,-9.000000
1296671.396231,-44.000000,-29.000000,-9.000000,10.000000,4.000000,-5.000000,-4.000000,-11.000000
1296671.396258,35.000000,69.000000,-38.000000,85.000000,59.000000,23.000000,19.000000,-7.000000
1296671.411809,5.000000,-26.000000,22.000000,-20.000000,-18.000000,-1.000000,-4.000000,27.000000
1296671.411859,-3.000000,-22.000000,-29.000000,-38.000000,-16.000000,-21.000000,-10.000000,0.000000
1296671.421502,-11.000000,-33.000000,3.000000,9.000000,4.000000,9.000000,6.000000,-6.000000
1296671.421873,-4.000000,9.000000,-5.000000,-24.000000,5.000000,-9.000000,-5.000000,-1.000000
1296671.422566,3.000000,-3.000000,-33.000000,58.000000,44.000000,4.000000,-3.000000,-11.000000
1296671.422730,1.000000,3.000000,6.000000,8.000000,-29.000000,-6.000000,-1.000000,25.000000
1296671.423046,13.000000,70.000000,5.000000,-55.000000,24.000000,6.000000,0.000000,-20.000000
1296671.423107,-33.000000,-128.000000,-13.000000,-45.000000,-11.000000,-13.000000,-7.000000,25.000000
1296671.423724,-10.000000,13.000000,11.000000,-13.000000,-22.000000,-1.000000,-1.000000,23.000000
1296671.423750,9.000000,-37.000000,-16.000000,0.000000,-33.000000,-11.000000,3.000000,-5.000000
1296671.424045,-6.000000,-10.000000,4.000000,-28.000000,-11.000000,12.000000,2.000000,-117.000000
1296671.424077,30.000000,78.000000,19.000000,33.000000,4.000000,6.000000,-18.000000,35.000000
1296671.427150,14.000000,-27.000000,-8.000000,1.000000,-8.000000,-2.000000,13.000000,68.000000
1296671.427175,-28.000000,-5.000000,-15.000000,-85.000000,-17.000000,2.000000,-4.000000,-71.000000
1296671.434156,35.000000,9.000000,31.000000,93.000000,19.000000,7.000000,2.000000,50.000000
1296671.434202,-44.000000,-128.000000,4.000000,-60.000000,-1.000000,-19.000000,-8.000000,-10.000000
1296671.464002,-3.000000,94.000000,44.000000,-48.000000,-29.000000,0.000000,4.000000,9.000000
1296671.464030,-68.000000,-97.000000,-40.000000,38.000000,8.000000,-24.000000,-21.000000,-45.000000
1296671.471644,-15.000000,1.000000,5.000000,12.000000,-16.000000,9.000000,7.000000,-31.000000
1296671.471699,42.000000,21.000000,-4.000000,-2.000000,-14.000000,2.000000,8.000000,32.000000
1296671.509728,-10.000000,-46.000000,16.000000,3.000000,-25.000000,-9.000000,-21.000000,-16.000000
1296671.509783,-4.000000,56.000000,-6.000000,-37.000000,2.000000,6.000000,8.000000,6.000000
1296671.511893,-21.000000,-114.000000,3.000000,-23.000000,-9.000000,-10.000000,-3.000000,26.000000
1296671.512483,-8.000000,1.000000,6.000000,35.000000,-82.000000,3.000000,4.000000,17.000000
1296671.513233,58.000000,28.000000,27.000000,49.000000,33.000000,20.000000,16.000000,79.000000
1296671.513363,-44.000000,-4.000000,-74.000000,-64.000000,-13.000000,-26.000000,-24.000000,-40.000000
1296671.514272,-4.000000,73.000000,15.000000,6.000000,-7.000000,0.000000,5.000000,-5.000000
1296671.514324,3.000000,-20.000000,1.000000,3.000000,-9.000000,7.000000,8.000000,2.000000
1296671.524516,13.000000,67.000000,-5.000000,22.000000,-19.000000,-6.000000,-4.000000,76.000000
1296671.524617,-29.000000,-58.000000,-6.000000,50.000000,-5.000000,8.000000,2.000000,-128.000000
1296671.540582,7.000000,-8.000000,-6.000000,60.000000,98.000000,1.000000,-4.000000,-17.000000
1296671.540612,23.000000,-9.000000,-7.000000,-48.000000,-24.000000,-4.000000,-5.000000,-1.000000
1296671.540747,-71.000000,-78.000000,-16.000000,-8.000000,-15.000000,-5.000000,6.000000,-8.000000
1296671.540789,27.000000,12.000000,10.000000,1.000000,-29.000000,-4.000000,-25.000000,30.000000
1296671.547507,-19.000000,-25.000000,-22.000000,58.000000,127.000000,14.000000,7.000000,-38.000000
1296671.547535,14.000000,96.000000,-7.000000,-2.000000,-60.000000,-3.000000,12.000000,12.000000
1296671.569087,-6.000000,-128.000000,-4.000000,13.000000,25.000000,4.000000,6.000000,7.000000
1296671.569115,-17.000000,38.000000,-2.000000,-12.000000,-27.000000,-17.000000,-3.000000,-4.000000
1296671.584673,14.000000,62.000000,-1.000000,39.000000,65.000000,12.000000,3.000000,3.000000
1296671.584745,10.000000,-19.000000,-11.000000,-15.000000,-37.000000,-8.000000,1.000000,7.000000
1296671.621728,0.000000,0.000000,-20.000000,-14.000000,-23.000000,-5.000000,0.000000,0.000000
1296671.621758,-7.000000,9.000000,-12.000000,65.000000,-52.000000,12.000000,0.000000,8.000000
1296671.644268,18.000000,38.000000,1.000000,-9.000000,-4.000000,0.000000,-6.000000,-19.000000
1296671.644793,-8.000000,-36.000000,-2.000000,-3.000000,-4.000000,3.000000,2.000000,-2.000000
1296671.645900,-38.000000,-46.000000,9.000000,5.000000,-3.000000,2.000000,8.000000,15.000000
1296671.646079,15.000000,25.000000,-10.000000,-10.000000,1.000000,-14.000000,-26.000000,-25.000000
1296671.646607,-39.000000,-54.000000,-9.000000,-22.000000,-1.000000,-14.000000,-3.000000,-49.000000
1296671.646625,56.000000,92.000000,-6.000000,-8.000000,-30.000000,2.000000,9.000000,51.000000
1296671.647080,-42.000000,-109.000000,-1.000000,-17.000000,10.000000,1.000000,-1.000000,-58.000000
1296671.647135,24.000000,65.000000,-15.000000,-44.000000,-6.000000,10.000000,14.000000,30.000000
1296671.647585,15.000000,0.000000,28.000000,31.000000,-41.000000,14.000000,15.000000,45.000000
1296671.647605,6.000000,36.000000,-11.000000,-4.000000,-3.000000,-9.000000,6.000000,-15.000000
1296671.660157,13.000000,-3.000000,23.000000,56.000000,41.000000,0.000000,-24.000000,-4.000000
1296671.660471,-27.000000,15.000000,5.000000,-51.000000,-73.000000,-18.000000,-1.000000,-17.000000
1296671.661233,2.000000,5.000000,4.000000,44.000000,95.000000,11.000000,7.000000,13.000000
1296671.661272,10.000000,17.000000,6.000000,-6.000000,-49.000000,3.000000,3.000000,11.000000
1296671.667172,5.000000,10.000000,19.000000,-26.000000,-45.000000,-13.000000,0.000000,13.000000
1296671.667199,-3.000000,-79.000000,-6.000000,39.000000,61.000000,14.000000,-1.000000,28.000000
1296671.681895,-7.000000,-16.000000,18.000000,-38.000000,-23.000000,-3.000000,3.000000,-96.000000
1296671.681933,9.000000,127.000000,12.000000,0.000000,-31.000000,-15.000000,-7.000000,11.000000
1296671.704302,8.000000,-128.000000,-20.000000,-7.000000,56.000000,9.000000,12.000000,-99.000000
1296671.704332,-55.000000,96.000000,-22.000000,15.000000,29.000000,-17.000000,-20.000000,-34.000000
1296671.711974,20.000000,89.000000,5.000000,-28.000000,6.000000,7.000000,11.000000,-4.000000
1296671.712031,41.000000,19.000000,11.000000,19.000000,7.000000,1.000000,0.000000,31.000000
1296671.748893,-19.000000,-2.000000,4.000000,8.000000,-7.000000,3.000000,5.000000,-6.000000
1296671.748919,37.000000,19.000000,-14.000000,14.000000,-10.000000,9.000000,18.000000,-4.000000
1296671.756352,0.000000,-41.000000,-23.000000,-55.000000,-40.000000,-16.000000,-9.000000,16.000000
1296671.756376,-17.000000,-8.000000,-13.000000,83.000000,117.000000,13.000000,4.000000,35.000000
1296671.771943,0.000000,-3.000000,-9.000000,-17.000000,-2.000000,-3.000000,5.000000,-24.000000
1296671.771969,4.000000,43.000000,5.000000,19.000000,33.000000,4.000000,-7.000000,-33.000000
1296671.772788,-12.000000,-124.000000,-11.000000,-11.000000,-39.000000,11.000000,10.000000,-12.000000
1296671.772813,34.000000,127.000000,31.000000,55.000000,24.000000,2.000000,-2.000000,-3.000000
1296671.780290,0.000000,49.000000,-3.000000,-16.000000,17.000000,0.000000,-3.000000,-13.000000
1296671.780584,7.000000,-45.000000,-11.000000,14.000000,34.000000,9.000000,4.000000,3.000000
1296671.781617,-6.000000,47.000000,18.000000,-9.000000,-27.000000,-6.000000,-4.000000,0.000000
1296671.781643,15.000000,-3.000000,-10.000000,-5.000000,3.000000,-2.000000,-1.000000,-41.000000
1296671.786931,-20.000000,-5.000000,26.000000,-6.000000,-7.000000,1.000000,-3.000000,1.000000
1296671.786960,-10.000000,-18.000000,-10.000000,-16.000000,1.000000,-6.000000,-4.000000,-30.000000
1296671.787777,0.000000,53.000000,-8.000000,21.000000,-10.000000,0.000000,10.000000,-25.000000
1296671.787799,19.000000,7.000000,-19.000000,18.000000,-5.000000,1.000000,-15.000000,15.000000
1296671.816782,-39.000000,-128.000000,-7.000000,-40.000000,-24.000000,-13.000000,4.000000,40.000000
1296671.816811,10.000000,10.000000,-6.000000,43.000000,109.000000,8.000000,-5.000000,13.000000
1296671.831452,7.000000,37.000000,6.000000,10.000000,-51.000000,8.000000,7.000000,-56.000000
1296671.831566,-16.000000,-10.000000,-24.000000,-19.000000,-32.000000,-5.000000,26.000000,22.000000
1296671.853718,1.000000,79.000000,6.000000,-4.000000,-14.000000,-4.000000,-11.000000,36.000000
1296671.853750,18.000000,-74.000000,-6.000000,50.000000,40.000000,19.000000,11.000000,-12.000000
1296671.876409,-41.000000,-41.000000,-1.000000,-63.000000,-56.000000,-23.000000,-8.000000,-7.000000
1296671.876436,-32.000000,25.000000,10.000000,11.000000,-1.000000,-1.000000,-16.000000,-52.000000
1296671.884457,35.000000,-50.000000,24.000000,-33.000000,-37.000000,-2.000000,6.000000,-40.000000
1296671.884487,8.000000,64.000000,4.000000,-41.000000,18.000000,-5.000000,-5.000000,48.000000
1296671.906381,3.000000,62.000000,0.000000,20.000000,-48.000000,-2.000000,1.000000,-17.000000
1296671.906431,-5.000000,-107.000000,-8.000000,-18.000000,-13.000000,-3.000000,3.000000,3.000000
1296671.921340,-48.000000,-62.000000,-5.000000,15.000000,15.000000,-9.000000,1.000000,2.000000
1296671.921440,-4.000000,7.000000,-16.000000,15.000000,27.000000,5.000000,1.000000,-2.000000
1296671.951329,8.000000,17.000000,32.000000,-38.000000,-20.000000,-9.000000,-25.000000,-25.000000
1296671.951355,3.000000,18.000000,-21.000000,-6.000000,-31.000000,-7.000000,-1.000000,0.000000
1296671.973805,-8.000000,9.000000,8.000000,6.000000,12.000000,6.000000,3.000000,11.000000
1296671.973829,15.000000,11.000000,-2.000000,9.000000,-15.000000,10.000000,13.000000,-24.000000
1296671.981314,-43.000000,-29.000000,14.000000,-8.000000,8.000000,-9.000000,-15.000000,-11.000000
1296671.981341,7.000000,12.000000,8.000000,-15.000000,-10.000000,-14.000000,3.000000,-10.000000
1296671.989852,-18.000000,15.000000,26.000000,-11.000000,94.000000,-9.000000,-14.000000,-32.000000
1296671.989989,7.000000,-115.000000,-3.000000,14.000000,-50.000000,7.000000,11.000000,19.000000
1296671.992217,18.000000,21.000000,8.000000,63.000000,37.000000,8.000000,-3.000000,17.000000
1296671.992255,-3.000000,-20.000000,-13.000000,18.000000,8.000000,-2.000000,1.000000,9.000000
1296672.012261,28.000000,123.000000,-14.000000,-11.000000,30.000000,12.000000,10.000000,26.000000
1296672.012318,-42.000000,-128.000000,-17.000000,44.000000,-1.000000,-1.000000,-7.000000,-22.000000
1296672.013659,3.000000,90.000000,4.000000,-18.000000,-38.000000,-9.000000,5.000000,-30.000000
1296672.013684,18.000000,35.000000,-11.000000,25.000000,53.000000,1.000000,-4.000000,35.000000
1296672.018686,-12.000000,-24.000000,-20.000000,-6.000000,31.000000,6.000000,-2.000000,-7.000000
1296672.018711,9.000000,20.000000,5.000000,-2.000000,-26.000000,-1.000000,11.000000,-25.000000
1296672.027091,11.000000,4.000000,11.000000,3.000000,2.000000,-7.000000,-20.000000,12.000000
1296672.027114,-24.000000,-94.000000,4.000000,-7.000000,15.000000,8.000000,2.000000,-22.000000
1296672.041235,13.000000,36.000000,-7.000000,76.000000,7.000000,0.000000,7.000000,80.000000
1296672.041261,14.000000,30.000000,-48.000000,38.000000,-82.000000,4.000000,1.000000,-49.000000
1296672.056120,-4.000000,-116.000000,-23.000000,-4.000000,4.000000,-7.000000,-5.000000,54.000000
1296672.056145,-27.000000,-81.000000,17.000000,-22.000000,0.000000,-12.000000,-11.000000,-25.000000
1296672.064010,1.000000,38.000000,-6.000000,-18.000000,-13.000000,0.000000,3.000000,1.000000
1296672.064037,3.000000,18.000000,7.000000,-4.000000,-20.000000,1.000000,1.000000,9.000000
1296672.094171,-2.000000,57.000000,2.000000,-30.000000,-13.000000,7.000000,24.000000,10.000000
1296672.094201,39.000000,-33.000000,10.000000,26.000000,16.000000,12.000000,-5.000000,50.000000
1296672.101710,-25.000000,-8.000000,-10.000000,59.000000,26.000000,-1.000000,-11.000000,-27.000000
1296672.101796,3.000000,-1.000000,10.000000,15.000000,-23.000000,-2.000000,-2.000000,10.000000
1296672.110221,2.000000,18.000000,-1.000000,-14.000000,-1.000000,1.000000,17.000000,-9.000000
1296672.110476,1.000000,4.000000,-1.000000,-17.000000,-5.000000,-4.000000,-8.000000,26.000000
1296672.110717,18.000000,124.000000,30.000000,30.000000,20.000000,2.000000,7.000000,8.000000
1296672.110766,-12.000000,-128.000000,-72.000000,-25.000000,-3.000000,-6.000000,0.000000,-3.000000
1296672.112369,-15.000000,6.000000,-5.000000,-15.000000,-18.000000,-6.000000,0.000000,-36.000000
1296672.112449,25.000000,127.000000,28.000000,97.000000,42.000000,-8.000000,1.000000,-4.000000
1296672.131416,27.000000,-90.000000,-6.000000,127.000000,120.000000,20.000000,0.000000,50.000000
1296672.131754,-42.000000,-36.000000,-10.000000,-23.000000,-41.000000,-5.000000,-10.000000,-36.000000
1296672.133233,12.000000,10.000000,6.000000,-7.000000,-19.000000,-1.000000,6.000000,-26.000000
1296672.133257,1.000000,10.000000,-19.000000,0.000000,13.000000,-6.000000,12.000000,-37.000000
1296672.138564,1.000000,123.000000,19.000000,-66.000000,-60.000000,-3.000000,-16.000000,22.000000
1296672.138588,30.000000,-106.000000,4.000000,56.000000,22.000000,3.000000,-7.000000,-13.000000
1296672.147383,-35.000000,16.000000,9.000000,-47.000000,-31.000000,-14.000000,-10.000000,-20.000000
1296672.147407,-12.000000,15.000000,0.000000,-1.000000,-5.000000,-2.000000,7.000000,-10.000000
1296672.176348,14.000000,17.000000,1.000000,-25.000000,-54.000000,6.000000,13.000000,-26.000000
1296672.176374,9.000000,-26.000000,20.000000,26.000000,116.000000,-15.000000,-35.000000,97.000000
1296672.199239,-34.000000,-18.000000,-1.000000,-12.000000,-20.000000,-3.000000,2.000000,-79.000000
1296672.199287,8.000000,4.000000,9.000000,-44.000000,-35.000000,-12.000000,-12.000000,-43.000000
1296672.213727,11.000000,-18.000000,-26.000000,118.000000,120.000000,35.000000,3.000000,15.000000
1296672.213753,-30.000000,3.000000,10.000000,-24.000000,-18.000000,-10.000000,-3.000000,-8.000000
1296672.229027,-1.000000,22.000000,-1.000000,-23.000000,-13.000000,-2.000000,4.000000,27.000000
1296672.229169,4.000000,7.000000,-6.000000,-8.000000,0.000000,-2.000000,1.000000,-12.000000
1296672.236217,-6.000000,8.000000,1.000000,-5.000000,-7.000000,0.000000,4.000000,15.000000
1296672.236242,6.000000,19.000000,4.000000,29.000000,-102.000000,-5.000000,8.000000,-43.000000
1296672.238110,19.000000,-112.000000,40.000000,127.000000,127.000000,18.000000,-11.000000,15.000000
1296672.238139,-24.000000,-33.000000,10.000000,-36.000000,-33.000000,-15.000000,-14.000000,-41.000000
1296672.238808,-10.000000,48.000000,-2.000000,0.000000,-22.000000,0.000000,5.000000,-3.000000
1296672.238883,19.000000,2.000000,4.000000,2.000000,-9.000000,0.000000,4.000000,5.000000
1296672.240494,21.000000,47.000000,21.000000,-62.000000,14.000000,2.000000,-2.000000,-111.000000
1296672.240526,0.000000,32.000000,8.000000,-3.000000,-50.000000,-5.000000,-2.000000,90.000000
1296672.252470,-14.000000,-57.000000,10.000000,50.000000,15.000000,5.000000,2.000000,49.000000
1296672.252494,21.000000,56.000000,-11.000000,-3.000000,-3.000000,-6.000000,-6.000000,-98.000000
1296672.258924,-11.000000,-30.000000,1.000000,-88.000000,-69.000000,-22.000000,-11.000000,33.000000
1296672.258962,-37.000000,8.000000,-11.000000,96.000000,124.000000,26.000000,4.000000,-56.000000
1296672.266751,27.000000,51.000000,10.000000,18.000000,-12.000000,-11.000000,0.000000,26.000000
1296672.266776,-20.000000,6.000000,-3.000000,-2.000000,3.000000,-12.000000,-15.000000,0.000000
1296672.289216,12.000000,55.000000,15.000000,-8.000000,-20.000000,2.000000,0.000000,-40.000000
1296672.289347,3.000000,-128.000000,-23.000000,-48.000000,50.000000,6.000000,9.000000,36.000000
1296672.334450,-24.000000,24.000000,21.000000,-42.000000,0.000000,-1.000000,2.000000,-19.000000
1296672.334482,-12.000000,9.000000,-6.000000,-23.000000,-66.000000,-23.000000,-7.000000,-33.000000
1296672.341467,20.000000,28.000000,21.000000,60.000000,87.000000,32.000000,0.000000,16.000000
1296672.341506,35.000000,57.000000,22.000000,-29.000000,-40.000000,-1.000000,-11.000000,-7.000000
1296672.387649,-43.000000,-75.000000,-19.000000,-19.000000,-15.000000,-7.000000,1.000000,-4.000000
1296672.387676,-12.000000,-1.000000,5.000000,-23.000000,-17.000000,-13.000000,-10.000000,1.000000
1296672.387892,21.000000,33.000000,-5.000000,-18.000000,-11.000000,-8.000000,-7.000000,-5.000000
1296672.387929,-4.000000,-22.000000,1.000000,13.000000,2.000000,10.000000,5.000000,-15.000000
1296672.389167,6.000000,11.000000,8.000000,7.000000,8.000000,2.000000,-7.000000,16.000000
1296672.389190,-42.000000,-45.000000,-11.000000,1.000000,9.000000,-8.000000,4.000000,13.000000
1296672.390002,-22.000000,17.000000,-1.000000,-11.000000,-19.000000,0.000000,5.000000,-15.000000
1296672.390026,1.000000,-31.000000,-42.000000,-52.000000,-15.000000,3.000000,6.000000,3.000000
1296672.409034,-19.000000,38.000000,-12.000000,-47.000000,-19.000000,-4.000000,9.000000,127.000000
1296672.409063,24.000000,85.000000,14.000000,78.000000,10.000000,27.000000,26.000000,-76.000000
1296672.423648,13.000000,-95.000000,-9.000000,-36.000000,-22.000000,-22.000000,-53.000000,-14.000000
1296672.423674,-19.000000,10.000000,4.000000,-46.000000,-5.000000,-6.000000,-4.000000,10.000000
1296672.446382,-22.000000,-9.000000,-1.000000,-6.000000,-15.000000,-4.000000,13.000000,-88.000000
1296672.446516,10.000000,35.000000,49.000000,11.000000,-10.000000,3.000000,1.000000,11.000000
1296672.468790,1.000000,-14.000000,-15.000000,8.000000,39.000000,-5.000000,4.000000,5.000000
1296672.468817,-12.000000,-8.000000,2.000000,-17.000000,-12.000000,2.000000,4.000000,-3.000000
1296672.476696,30.000000,71.000000,1.000000,-128.000000,-85.000000,-1.000000,4.000000,-49.000000
1296672.476787,3.000000,-35.000000,11.000000,106.000000,44.000000,4.000000,0.000000,47.000000
1296672.498871,-1.000000,41.000000,25.000000,-38.000000,-48.000000,-13.000000,-4.000000,-11.000000
1296672.498896,-20.000000,-8.000000,-25.000000,-17.000000,-21.000000,-1.000000,2.000000,-11.000000
1296672.506215,20.000000,6.000000,4.000000,12.000000,-3.000000,0.000000,3.000000,-27.000000
1296672.506254,-32.000000,-20.000000,-13.000000,-35.000000,15.000000,-11.000000,-7.000000,-3.000000
1296672.537260,9.000000,23.000000,2.000000,4.000000,-17.000000,-1.000000,10.000000,-15.000000
1296672.537304,20.000000,28.000000,2.000000,35.000000,23.000000,4.000000,-3.000000,71.000000
1296672.538108,-81.000000,-61.000000,-40.000000,-8.000000,72.000000,-11.000000,-19.000000,-33.000000
1296672.538129,-16.000000,52.000000,11.000000,19.000000,-28.000000,-10.000000,25.000000,3.000000
1296672.539499,-52.000000,-40.000000,4.000000,-12.000000,-50.000000,-23.000000,-11.000000,-78.000000
1296672.539552,-4.000000,23.000000,-37.000000,127.000000,70.000000,30.000000,7.000000,36.000000
1296672.543837,-7.000000,32.000000,-37.000000,78.000000,127.000000,45.000000,13.000000,-3.000000
1296672.543893,10.000000,-55.000000,6.000000,-16.000000,-25.000000,-16.000000,0.000000,17.000000
1296672.567185,-12.000000,11.000000,16.000000,-21.000000,12.000000,-6.000000,0.000000,-12.000000
1296672.567211,-3.000000,6.000000,-12.000000,-17.000000,-26.000000,3.000000,5.000000,-3.000000
1296672.567815,-1.000000,-33.000000,16.000000,3.000000,-5.000000,0.000000,6.000000,0.000000
1296672.567843,-17.000000,-3.000000,-1.000000,33.000000,-27.000000,-1.000000,1.000000,-17.000000
1296672.573743,75.000000,48.000000,12.000000,98.000000,44.000000,6.000000,0.000000,83.000000
1296672.573768,-78.000000,-56.000000,-1.000000,-27.000000,-23.000000,-5.000000,-5.000000,-38.000000
1296672.581848,-11.000000,18.000000,-48.000000,11.000000,-12.000000,-1.000000,6.000000,77.000000
1296672.581903,26.000000,110.000000,-8.000000,15.000000,9.000000,4.000000,12.000000,10.000000
1296672.604101,8.000000,-98.000000,10.000000,-67.000000,-54.000000,-13.000000,-28.000000,8.000000
1296672.604146,-28.000000,-3.000000,-15.000000,101.000000,119.000000,5.000000,7.000000,1.000000
1296672.611902,6.000000,42.000000,8.000000,-18.000000,-8.000000,3.000000,-8.000000,-23.000000
1296672.612273,41.000000,0.000000,-6.000000,-39.000000,-48.000000,4.000000,15.000000,30.000000
1296672.613079,-86.000000,-108.000000,-29.000000,-59.000000,-5.000000,-11.000000,-6.000000,-31.000000
1296672.613302,12.000000,48.000000,12.000000,28.000000,-14.000000,1.000000,2.000000,-2.000000
1296672.618774,15.000000,30.000000,1.000000,15.000000,-25.000000,-4.000000,-1.000000,-2.000000
1296672.618799,9.000000,6.000000,20.000000,6.000000,-10.000000,1.000000,1.000000,2.000000
1296672.648968,-11.000000,-13.000000,-8.000000,-10.000000,-21.000000,-7.000000,0.000000,37.000000
1296672.649027,-3.000000,34.000000,5.000000,-95.000000,-42.000000,13.000000,9.000000,-87.000000
1296672.686447,33.000000,-26.000000,5.000000,32.000000,40.000000,-1.000000,-16.000000,32.000000
1296672.686475,-6.000000,10.000000,20.000000,-61.000000,-23.000000,-15.000000,-13.000000,-27.000000
1296672.702153,-9.000000,-25.000000,-7.000000,-4.000000,-16.000000,-1.000000,8.000000,7.000000
1296672.702596,-7.000000,-5.000000,-7.000000,16.000000,12.000000,1.000000,0.000000,-2.000000
1296672.704082,-25.000000,-15.000000,-28.000000,-15.000000,-34.000000,-8.000000,11.000000,61.000000
1296672.704663,37.000000,57.000000,26.000000,37.000000,-10.000000,13.000000,4.000000,-1.000000
1296672.705809,-5.000000,-63.000000,6.000000,-19.000000,-6.000000,5.000000,-3.000000,12.000000
1296672.705838,-9.000000,26.000000,10.000000,-8.000000,6.000000,-20.000000,-33.000000,-36.000000
1296672.706075,-31.000000,-84.000000,-13.000000,41.000000,39.000000,1.000000,-10.000000,3.000000
1296672.706124,2.000000,46.000000,22.000000,9.000000,20.000000,0.000000,6.000000,-11.000000
1296672.706367,-4.000000,47.000000,2.000000,62.000000,63.000000,19.000000,21.000000,31.000000
1296672.706393,28.000000,-46.000000,-4.000000,-32.000000,-70.000000,-4.000000,5.000000,-15.000000
1296672.732189,-40.000000,-27.000000,0.000000,30.000000,-33.000000,-24.000000,-21.000000,88.000000
1296672.732214,10.000000,99.000000,6.000000,127.000000,127.000000,21.000000,7.000000,-80.000000
1296672.732347,8.000000,-87.000000,13.000000,-16.000000,-19.000000,-13.000000,-11.000000,6.000000
1296672.732391,-1.000000,12.000000,8.000000,-24.000000,-15.000000,-4.000000,3.000000,-5.000000
1296672.738914,-1.000000,13.000000,16.000000,-4.000000,-16.000000,-2.000000,4.000000,4.000000
1296672.738974,-49.000000,-62.000000,-37.000000,-85.000000,-69.000000,-2.000000,19.000000,-126.000000
1296672.746395,85.000000,-80.000000,55.000000,127.000000,127.000000,21.000000,-12.000000,127.000000
1296672.746422,-26.000000,32.000000,15.000000,-121.000000,-58.000000,-40.000000,-37.000000,-19.000000
1296672.768785,-28.000000,-12.000000,-29.000000,-21.000000,-17.000000,1.000000,6.000000,-26.000000
1296672.768812,-1.000000,22.000000,1.000000,22.000000,-2.000000,-3.000000,5.000000,-15.000000
1296672.776773,1.000000,9.000000,-8.000000,6.000000,-7.000000,10.000000,6.000000,-9.000000
1296672.776825,1.000000,-15.000000,5.000000,13.000000,4.000000,2.000000,-3.000000,-3.000000
1296672.791418,5.000000,66.000000,5.000000,19.000000,17.000000,3.000000,10.000000,1.000000
1296672.791463,-4.000000,-128.000000,-17.000000,7.000000,9.000000,0.000000,-4.000000,-39.000000
1296672.806476,-47.000000,18.000000,-24.000000,-5.000000,-5.000000,-6.000000,18.000000,20.000000
1296672.806503,27.000000,57.000000,35.000000,-70.000000,16.000000,-9.000000,-16.000000,-94.000000
1296672.822018,2.000000,11.000000,4.000000,87.000000,47.000000,3.000000,-34.000000,-9.000000
1296672.822315,4.000000,-16.000000,-9.000000,-18.000000,32.000000,-1.000000,5.000000,4.000000
1296672.823284,-10.000000,15.000000,14.000000,-5.000000,-5.000000,0.000000,10.000000,13.000000
1296672.823624,10.000000,-106.000000,-18.000000,-49.000000,-70.000000,-7.000000,11.000000,52.000000
1296672.824569,32.000000,96.000000,16.000000,68.000000,61.000000,14.000000,4.000000,-35.000000
1296672.824722,45.000000,-67.000000,5.000000,-32.000000,-17.000000,-6.000000,-12.000000,-12.000000
1296672.825007,-32.000000,-43.000000,2.000000,-3.000000,-5.000000,-6.000000,-5.000000,-19.000000
1296672.825054,-4.000000,5.000000,9.000000,13.000000,-6.000000,6.000000,8.000000,4.000000
1296672.829255,10.000000,1.000000,3.000000,-2.000000,-4.000000,-5.000000,-10.000000,7.000000
1296672.829281,-2.000000,-62.000000,-11.000000,-2.000000,-30.000000,-1.000000,12.000000,-22.000000
1296672.843879,6.000000,20.000000,4.000000,-8.000000,-41.000000,2.000000,6.000000,5.000000
1296672.843917,23.000000,49.000000,-39.000000,15.000000,66.000000,12.000000,6.000000,16.000000
1296672.852139,-13.000000,-99.000000,22.000000,-6.000000,-20.000000,-4.000000,-5.000000,-10.000000
1296672.852164,-3.000000,19.000000,-2.000000,-37.000000,22.000000,0.000000,-4.000000,-10.000000
1296672.858774,-5.000000,-58.000000,11.000000,22.000000,-13.000000,-10.000000,2.000000,-4.000000
1296672.858798,-9.000000,10.000000,-5.000000,-12.000000,-20.000000,-3.000000,0.000000,71.000000
1296672.896273,9.000000,33.000000,1.000000,-9.000000,-8.000000,7.000000,12.000000,-79.000000
1296672.896298,-14.000000,-26.000000,11.000000,-34.000000,16.000000,-10.000000,-38.000000,-3.000000
1296672.903537,44.000000,85.000000,-12.000000,2.000000,-41.000000,-5.000000,7.000000,25.000000
1296672.903558,-16.000000,-72.000000,-17.000000,-22.000000,4.000000,-10.000000,-5.000000,-12.000000
1296672.926241,-25.000000,5.000000,-18.000000,-68.000000,-30.000000,6.000000,0.000000,41.000000
1296672.926280,22.000000,34.000000,34.000000,127.000000,65.000000,21.000000,15.000000,29.000000
1296672.933969,-12.000000,-17.000000,-5.000000,-2.000000,40.000000,-3.000000,8.000000,-45.000000
1296672.933992,11.000000,17.000000,-12.000000,31.000000,57.000000,-1.000000,-10.000000,28.000000
1296672.935489,-7.000000,-12.000000,19.000000,43.000000,61.000000,13.000000,-7.000000,-11.000000
1296672.935513,-8.000000,-6.000000,-27.000000,-4.000000,-7.000000,7.000000,13.000000,-22.000000
1296672.935650,-7.000000,-16.000000,-11.000000,-43.000000,-27.000000,-17.000000,-5.000000,24.000000
1296672.935690,-20.000000,15.000000,1.000000,16.000000,50.000000,4.000000,-20.000000,-13.000000
1296672.941284,15.000000,78.000000,1.000000,0.000000,42.000000,3.000000,5.000000,-12.000000
1296672.941498,-54.000000,-128.000000,-6.000000,-12.000000,-9.000000,-6.000000,-1.000000,75.000000
1296672.941976,-15.000000,47.000000,10.000000,-1.000000,-6.000000,-28.000000,-25.000000,-51.000000
1296672.941999,17.000000,-85.000000,12.000000,-28.000000,-61.000000,1.000000,22.000000,56.000000
1296672.963691,12.000000,74.000000,11.000000,89.000000,115.000000,43.000000,2.000000,-60.000000
1296672.963719,17.000000,17.000000,20.000000,-28.000000,-23.000000,-26.000000,-27.000000,-2.000000
1296672.964469,-27.000000,-39.000000,-9.000000,-53.000000,-25.000000,-12.000000,1.000000,-67.000000
1296672.964496,-4.000000,0.000000,2.000000,-70.000000,-27.000000,-8.000000,-12.000000,26.000000
1296672.972520,6.000000,17.000000,7.000000,27.000000,-37.000000,9.000000,26.000000,13.000000
1296672.972758,3.000000,6.000000,-39.000000,-15.000000,4.000000,-2.000000,-16.000000,-19.000000
1296672.979174,-7.000000,-43.000000,6.000000,-71.000000,-59.000000,-1.000000,14.000000,-12.000000
1296672.979203,26.000000,-49.000000,14.000000,52.000000,27.000000,-6.000000,-8.000000,-4.000000
1296673.009105,-52.000000,-7.000000,8.000000,-27.000000,14.000000,-6.000000,-11.000000,-27.000000
1296673.009137,26.000000,75.000000,22.000000,-10.000000,-19.000000,-1.000000,6.000000,26.000000
1296673.016411,-13.000000,-82.000000,7.000000,2.000000,9.000000,-3.000000,0.000000,-16.000000
1296673.016439,-11.000000,32.000000,-8.000000,-12.000000,-23.000000,-4.000000,7.000000,63.000000
1296673.054012,27.000000,54.000000,32.000000,86.000000,-42.000000,12.000000,6.000000,54.000000
1296673.054040,7.000000,-69.000000,-3.000000,55.000000,56.000000,4.000000,2.000000,79.000000
1296673.054355,7.000000,40.000000,-15.000000,-21.000000,-32.000000,-3.000000,15.000000,-113.000000
1296673.054498,-51.000000,-104.000000,10.000000,-67.000000,8.000000,-19.000000,-32.000000,35.000000
1296673.062701,9.000000,66.000000,12.000000,0.000000,-18.000000,-3.000000,3.000000,-12.000000
1296673.063077,8.000000,9.000000,-4.000000,4.000000,-9.000000,4.000000,10.000000,1.000000
1296673.064441,8.000000,20.000000,5.000000,106.000000,82.000000,12.000000,7.000000,3.000000
1296673.064468,-7.000000,-10.000000,-2.000000,-14.000000,-68.000000,-7.000000,-7.000000,-3.000000
1296673.064586,7.000000,15.000000,2.000000,46.000000,-16.000000,9.000000,11.000000,48.000000
1296673.064602,7.000000,-13.000000,12.000000,-13.000000,16.000000,9.000000,7.000000,-16.000000
1296673.084165,-9.000000,-11.000000,6.000000,8.000000,48.000000,6.000000,2.000000,-14.000000
1296673.084454,1.000000,-37.000000,2.000000,7.000000,-16.000000,-5.000000,4.000000,8.000000
1296673.084955,-20.000000,-3.000000,-19.000000,-66.000000,4.000000,-4.000000,15.000000,26.000000
1296673.084976,13.000000,14.000000,12.000000,20.000000,12.000000,0.000000,-17.000000,28.000000
1296673.098901,10.000000,30.000000,13.000000,-9.000000,-111.000000,-10.000000,1.000000,-86.000000
1296673.098960,-12.000000,-87.000000,7.000000,127.000000,100.000000,7.000000,0.000000,42.000000
1296673.106337,-19.000000,-43.000000,-3.000000,-38.000000,-14.000000,-5.000000,-3.000000,18.000000
1296673.106363,-18.000000,9.000000,-2.000000,1.000000,-46.000000,2.000000,19.000000,-3.000000
1296673.128684,11.000000,18.000000,8.000000,25.000000,26.000000,0.000000,7.000000,54.000000
1296673.128726,26.000000,18.000000,-13.000000,40.000000,71.000000,1.000000,-18.000000,-11.000000
1296673.166419,-18.000000,9.000000,11.000000,-14.000000,-29.000000,2.000000,13.000000,-20.000000
1296673.166445,-17.000000,-24.000000,9.000000,18.000000,-17.000000,6.000000,38.000000,97.000000
1296673.181470,19.000000,27.000000,-3.000000,-52.000000,31.000000,-17.000000,-57.000000,-128.000000
1296673.181498,-13.000000,-37.000000,-6.000000,84.000000,-49.000000,1.000000,-24.000000,112.000000
1296673.203644,23.000000,112.000000,20.000000,5.000000,-7.000000,5.000000,16.000000,-5.000000
1296673.203692,-51.000000,-128.000000,-29.000000,6.000000,50.000000,-6.000000,0.000000,-12.000000
1296673.206268,-14.000000,-18.000000,-8.000000,41.000000,1.000000,-2.000000,3.000000,-2.000000
1296673.206386,15.000000,56.000000,4.000000,35.000000,-12.000000,2.000000,2.000000,-9.000000
1296673.206663,10.000000,10.000000,2.000000,14.000000,0.000000,0.000000,1.000000,-1.000000
1296673.206699,8.000000,5.000000,16.000000,-5.000000,-19.000000,-5.000000,0.000000,-19.000000
1296673.207744,-26.000000,-103.000000,-6.000000,-35.000000,-19.000000,-8.000000,-14.000000,-3.000000
1296673.207772,-5.000000,25.000000,11.000000,0.000000,2.000000,-3.000000,-1.000000,99.000000
1296673.208932,50.000000,-17.000000,11.000000,-11.000000,47.000000,-10.000000,-22.000000,-9.000000
1296673.208960,-56.000000,-56.000000,-1.000000,-40.000000,-67.000000,-12.000000,-8.000000,43.000000
1296673.211465,-9.000000,120.000000,-22.000000,39.000000,7.000000,1.000000,17.000000,-99.000000
1296673.211489,36.000000,-118.000000,11.000000,-33.000000,0.000000,10.000000,-8.000000,-19.000000
1296673.218880,-25.000000,-26.000000,-2.000000,26.000000,-20.000000,-3.000000,4.000000,50.000000
1296673.218906,-7.000000,38.000000,-4.000000,-4.000000,-27.000000,-3.000000,6.000000,11.000000
1296673.241473,7.000000,-1.000000,1.000000,-43.000000,-19.000000,0.000000,6.000000,8.000000
1296673.241498,10.000000,74.000000,-11.000000,-40.000000,13.000000,-9.000000,-6.000000,1.000000
1296673.249090,-6.000000,-79.000000,-14.000000,53.000000,102.000000,18.000000,5.000000,7.000000
1296673.249153,-8.000000,11.000000,-7.000000,-12.000000,-17.000000,-12.000000,-10.000000,-8.000000
1296673.263987,-2.000000,-14.000000,8.000000,-12.000000,7.000000,0.000000,1.000000,-3.000000
1296673.264014,7.000000,-23.000000,6.000000,-6.000000,9.000000,5.000000,1.000000,-29.000000
1296673.286772,-15.000000,-27.000000,-13.000000,-11.000000,-32.000000,-8.000000,-5.000000,28.000000
1296673.286877,4.000000,5.000000,-44.000000,-9.000000,-2.000000,-12.000000,-6.000000,-2.000000
1296673.309030,-21.000000,19.000000,-18.000000,-27.000000,-72.000000,12.000000,10.000000,90.000000
1296673.309056,50.000000,-6.000000,20.000000,34.000000,16.000000,5.000000,-2.000000,11.000000
1296673.323874,-9.000000,5.000000,-10.000000,-65.000000,-33.000000,-18.000000,-10.000000,-84.000000
1296673.324144,30.000000,104.000000,0.000000,32.000000,55.000000,18.000000,21.000000,-19.000000
1296673.326183,-127.000000,-128.000000,15.000000,-32.000000,-5.000000,-19.000000,-40.000000,-16.000000
1296673.326230,-13.000000,54.000000,-4.000000,3.000000,-10.000000,2.000000,20.000000,-72.000000
1296673.326441,58.000000,19.000000,6.000000,-58.000000,-69.000000,4.000000,3.000000,18.000000
1296673.326764,-39.000000,-32.000000,-6.000000,22.000000,21.000000,-7.000000,-25.000000,-27.000000
1296673.327777,-10.000000,-21.000000,1.000000,39.000000,6.000000,13.000000,-2.000000,-16.000000
1296673.327828,-5.000000,89.000000,6.000000,6.000000,-3.000000,-3.000000,7.000000,7.000000
1296673.331838,-5.000000,19.000000,19.000000,-19.000000,-95.000000,-17.000000,0.000000,-39.000000
1296673.331961,24.000000,-9.000000,-13.000000,127.000000,127.000000,30.000000,5.000000,-14.000000
1296673.339280,-22.000000,-22.000000,-6.000000,-53.000000,-31.000000,-16.000000,-15.000000,42.000000
1296673.339316,2.000000,11.000000,3.000000,-15.000000,-36.000000,0.000000,-1.000000,-16.000000
1296673.346533,-7.000000,-21.000000,-7.000000,-53.000000,-1.000000,-5.000000,3.000000,48.000000
1296673.346559,17.000000,48.000000,3.000000,101.000000,-15.000000,4.000000,3.000000,-11.000000
1296673.368848,-10.000000,-33.000000,10.000000,-19.000000,42.000000,-1.000000,-13.000000,-14.000000
1296673.368874,56.000000,127.000000,6.000000,46.000000,2.000000,11.000000,11.000000,0.000000
1296673.376509,25.000000,-114.000000,0.000000,-6.000000,2.000000,-8.000000,11.000000,9.000000
1296673.376564,7.000000,123.000000,-7.000000,-23.000000,-30.000000,-9.000000,-10.000000,-9.000000
1296673.407946,-12.000000,-51.000000,-1.000000,23.000000,25.000000,6.000000,6.000000,6.000000
1296673.408008,-2.000000,-8.000000,-31.000000,47.000000,-6.000000,0.000000,4.000000,33.000000
1296673.408273,2.000000,-9.000000,-16.000000,4.000000,8.000000,1.000000,11.000000,-27.000000
1296673.408833,-10.000000,-28.000000,9.000000,11.000000,3.000000,-11.000000,-29.000000,5.000000
1296673.410516,-3.000000,4.000000,28.000000,14.000000,4.000000,0.000000,0.000000,11.000000
1296673.410566,7.000000,-8.000000,-58.000000,22.000000,-6.000000,-5.000000,-1.000000,2.000000
1296673.411252,23.000000,91.000000,-7.000000,12.000000,0.000000,9.000000,2.000000,-15.000000
1296673.411287,7.000000,-4.000000,12.000000,11.000000,13.000000,1.000000,7.000000,6.000000
1296673.413678,3.000000,-23.000000,2.000000,-18.000000,-51.000000,-5.000000,-4.000000,-7.000000
1296673.413710,3.000000,4.000000,8.000000,-14.000000,-61.000000,-6.000000,-7.000000,-9.000000
1296673.444234,-1.000000,-3.000000,15.000000,-27.000000,-66.000000,-10.000000,3.000000,6.000000
1296673.444557,-13.000000,-11.000000,-3.000000,-62.000000,-1.000000,-8.000000,-3.000000,-4.000000
1296673.445584,34.000000,44.000000,4.000000,22.000000,45.000000,-10.000000,-2.000000,-9.000000
1296673.445629,-28.000000,-42.000000,-15.000000,19.000000,-8.000000,0.000000,6.000000,42.000000
1296673.451205,-12.000000,5.000000,13.000000,-22.000000,-42.000000,-15.000000,-5.000000,-20.000000
1296673.451258,11.000000,33.000000,12.000000,33.000000,29.000000,20.000000,13.000000,-15.000000
1296673.481530,4.000000,23.000000,1.000000,32.000000,-3.000000,-2.000000,2.000000,40.000000
1296673.481580,-4.000000,-89.000000,-3.000000,-25.000000,-31.000000,-3.000000,-11.000000,23.000000
1296673.489019,-13.000000,25.000000,-10.000000,-9.000000,-6.000000,-13.000000,-14.000000,-36.000000
1296673.489071,-12.000000,-9.000000,-10.000000,-13.000000,-1.000000,3.000000,3.000000,14.000000
1296673.519060,-4.000000,27.000000,21.000000,4.000000,-5.000000,7.000000,12.000000,-14.000000
1296673.519117,18.000000,53.000000,-13.000000,13.000000,-11.000000,9.000000,1.000000,87.000000
1296673.526299,14.000000,-68.000000,-1.000000,-15.000000,80.000000,-7.000000,-17.000000,-42.000000
1296673.526328,-18.000000,20.000000,9.000000,-33.000000,-21.000000,-12.000000,-2.000000,0.000000
1296673.528322,7.000000,44.000000,-12.000000,9.000000,12.000000,10.000000,26.000000,15.000000
1296673.528379,-11.000000,-72.000000,10.000000,-70.000000,-45.000000,-6.000000,-12.000000,-17.000000
1296673.528842,-7.000000,15.000000,-5.000000,12.000000,63.000000,7.000000,-3.000000,6.000000
1296673.528870,1.000000,-15.000000,16.000000,-25.000000,-9.000000,-2.000000,6.000000,6.000000
1296673.530011,30.000000,-16.000000,24.000000,80.000000,0.000000,2.000000,-5.000000,64.000000
1296673.530034,-8.000000,8.000000,-4.000000,-51.000000,-12.000000,-6.000000,-2.000000,-21.000000
1296673.533992,-10.000000,-11.000000,0.000000,-51.000000,-19.000000,-4.000000,9.000000,55.000000
1296673.534041,8.000000,68.000000,-8.000000,-15.000000,-24.000000,1.000000,-2.000000,-32.000000
1296673.563841,14.000000,4.000000,-6.000000,33.000000,-55.000000,1.000000,-5.000000,17.000000
1296673.563867,-23.000000,-48.000000,3.000000,30.000000,52.000000,4.000000,-2.000000,24.000000
1296673.586672,6.000000,29.000000,1.000000,-11.000000,2.000000,6.000000,9.000000,8.000000
1296673.586714,-15.000000,-44.000000,-9.000000,-8.000000,-36.000000,-8.000000,7.000000,17.000000
1296673.601488,21.000000,86.000000,-21.000000,27.000000,11.000000,2.000000,6.000000,-24.000000
1296673.601535,-52.000000,-128.000000,11.000000,-27.000000,26.000000,-5.000000,-25.000000,17.000000
1296673.616572,-8.000000,50.000000,9.000000,9.000000,26.000000,-5.000000,-2.000000,-16.000000
1296673.616749,7.000000,26.000000,-4.000000,-16.000000,-26.000000,0.000000,6.000000,-31.000000
1296673.623854,4.000000,24.000000,18.000000,-32.000000,-30.000000,-6.000000,-5.000000,34.000000
1296673.623879,6.000000,-7.000000,-17.000000,71.000000,44.000000,17.000000,5.000000,-4.000000
1296673.646507,-12.000000,6.000000,7.000000,-6.000000,0.000000,-6.000000,-1.000000,-1.000000
1296673.646534,-5.000000,-28.000000,-11.000000,-4.000000,-1.000000,8.000000,2.000000,3.000000
1296673.653750,-18.000000,16.000000,4.000000,-6.000000,-5.000000,1.000000,1.000000,-6.000000
1296673.653775,9.000000,-16.000000,22.000000,-128.000000,-70.000000,-19.000000,-3.000000,3.000000
1296673.677796,-9.000000,1.000000,-10.000000,14.000000,71.000000,5.000000,1.000000,20.000000
1296673.678117,-8.000000,-3.000000,-30.000000,-26.000000,-55.000000,0.000000,5.000000,-101.000000
1296673.678432,1.000000,-24.000000,-17.000000,110.000000,116.000000,21.000000,5.000000,-16.000000
1296673.678481,-8.000000,3.000000,5.000000,-19.000000,-44.000000,-15.000000,-8.000000,-4.000000
1296673.679220,42.000000,122.000000,38.000000,94.000000,-9.000000,6.000000,-10.000000,112.000000
1296673.679265,-59.000000,-128.000000,-18.000000,-88.000000,-9.000000,-24.000000,-19.000000,-76.000000
1296673.680356,-2.000000,0.000000,-5.000000,6.000000,29.000000,1.000000,-2.000000,35.000000
1296673.680397,-55.000000,-55.000000,-30.000000,-28.000000,-14.000000,-13.000000,-2.000000,-86.000000
1296673.681017,7.000000,-7.000000,3.000000,-26.000000,-3.000000,1.000000,-6.000000,-13.000000
1296673.681458,-25.000000,-1.000000,-12.000000,-42.000000,-49.000000,-15.000000,10.000000,18.000000
1296673.681884,32.000000,8.000000,2.000000,46.000000,127.000000,35.000000,-11.000000,-41.000000
1296673.681928,-10.000000,-63.000000,-15.000000,-39.000000,-41.000000,-17.000000,-8.000000,-29.000000
1296673.684346,35.000000,22.000000,12.000000,-7.000000,-4.000000,-2.000000,3.000000,6.000000
1296673.684577,-13.000000,-35.000000,-25.000000,-1.000000,5.000000,0.000000,-4.000000,-2.000000
1296673.714044,5.000000,10.000000,18.000000,0.000000,-43.000000,-2.000000,0.000000,1.000000
1296673.714072,1.000000,-1.000000,-1.000000,15.000000,4.000000,9.000000,-1.000000,7.000000
1296673.721685,11.000000,26.000000,-7.000000,-25.000000,-2.000000,0.000000,3.000000,-4.000000
1296673.721734,-28.000000,-36.000000,3.000000,-41.000000,6.000000,-8.000000,-3.000000,-15.000000
1296673.751414,49.000000,28.000000,4.000000,41.000000,2.000000,5.000000,11.000000,34.000000
1296673.751443,-12.000000,-46.000000,5.000000,-30.000000,-10.000000,-10.000000,-8.000000,-69.000000
1296673.758785,8.000000,7.000000,-1.000000,11.000000,18.000000,3.000000,-5.000000,9.000000
1296673.758811,8.000000,43.000000,-10.000000,6.000000,-6.000000,9.000000,28.000000,-27.000000
1296673.773960,-24.000000,-32.000000,13.000000,5.000000,9.000000,-10.000000,-27.000000,23.000000
1296673.774011,-15.000000,-34.000000,4.000000,-1.000000,-31.000000,-20.000000,-6.000000,-7.000000
1296673.797730,14.000000,-11.000000,-24.000000,-9.000000,32.000000,-4.000000,2.000000,67.000000
1296673.797792,22.000000,6.000000,15.000000,104.000000,69.000000,16.000000,10.000000,-60.000000
1296673.798419,0.000000,23.000000,-3.000000,-3.000000,-14.000000,-1.000000,1.000000,-21.000000
1296673.798472,3.000000,19.000000,14.000000,-16.000000,-11.000000,0.000000,-7.000000,-14.000000
1296673.799769,-10.000000,11.000000,-16.000000,8.000000,-2.000000,2.000000,2.000000,10.000000
1296673.799798,27.000000,4.000000,-13.000000,-102.000000,-70.000000,-6.000000,6.000000,21.000000
1296673.799949,24.000000,11.000000,-4.000000,82.000000,43.000000,7.000000,-5.000000,61.000000
1296673.799968,-12.000000,-18.000000,14.000000,66.000000,64.000000,2.000000,8.000000,-11.000000
1296673.800990,-14.000000,-16.000000,-12.000000,-24.000000,-15.000000,-13.000000,-3.000000,-6.000000
1296673.801018,32.000000,45.000000,0.000000,-36.000000,-10.000000,-4.000000,4.000000,7.000000
1296673.826471,11.000000,32.000000,-8.000000,-43.000000,-9.000000,-1.000000,-2.000000,7.000000
1296673.826505,-16.000000,-33.000000,-25.000000,3.000000,5.000000,-6.000000,2.000000,87.000000
1296673.849043,-11.000000,23.000000,17.000000,-72.000000,-75.000000,-8.000000,3.000000,-101.000000
1296673.849091,20.000000,10.000000,-17.000000,127.000000,127.000000,25.000000,-3.000000,-1.000000
1296673.871278,17.000000,18.000000,31.000000,-17.000000,11.000000,-10.000000,-23.000000,39.000000
1296673.871304,-26.000000,-37.000000,-9.000000,-7.000000,-12.000000,-4.000000,4.000000,-11.000000
1296673.880378,7.000000,27.000000,8.000000,-2.000000,-14.000000,7.000000,8.000000,5.000000
1296673.880422,-36.000000,-10.000000,3.000000,0.000000,-4.000000,-5.000000,7.000000,-22.000000
1296673.886811,26.000000,61.000000,-15.000000,-16.000000,3.000000,-7.000000,-17.000000,18.000000
1296673.886836,-11.000000,-99.000000,10.000000,9.000000,-24.000000,-2.000000,8.000000,8.000000
1296673.893723,11.000000,8.000000,-3.000000,95.000000,45.000000,12.000000,-4.000000,-74.000000
1296673.893762,5.000000,27.000000,8.000000,2.000000,-18.000000,-8.000000,-6.000000,-4.000000
1296673.894835,-9.000000,15.000000,-5.000000,14.000000,-23.000000,-7.000000,2.000000,19.000000
1296673.894884,-13.000000,12.000000,-11.000000,12.000000,-1.000000,-3.000000,2.000000,4.000000
1296673.895501,-6.000000,3.000000,-2.000000,-14.000000,-41.000000,-5.000000,-1.000000,-5.000000
1296673.895526,-5.000000,-2.000000,-21.000000,-41.000000,31.000000,-4.000000,-4.000000,-2.000000
1296673.896606,-3.000000,-2.000000,0.000000,-38.000000,-1.000000,6.000000,5.000000,-14.000000
1296673.896629,13.000000,103.000000,-10.000000,84.000000,21.000000,3.000000,3.000000,-6.000000
1296673.901364,-3.000000,-124.000000,24.000000,-128.000000,-73.000000,-16.000000,-5.000000,17.000000
1296673.901389,-22.000000,17.000000,5.000000,52.000000,43.000000,5.000000,-11.000000,-11.000000
1296673.916132,-1.000000,-32.000000,8.000000,-12.000000,-19.000000,-5.000000,2.000000,7.000000
1296673.916158,-21.000000,20.000000,18.000000,-8.000000,-9.000000,2.000000,-2.000000,-128.000000
1296673.931801,42.000000,7.000000,2.000000,-13.000000,-1.000000,-3.000000,-5.000000,-6.000000
1296673.931849,24.000000,4.000000,5.000000,-17.000000,5.000000,-8.000000,-7.000000,-11.000000
1296673.961472,-33.000000,56.000000,17.000000,-6.000000,-10.000000,-5.000000,0.000000,-68.000000
1296673.961498,35.000000,-81.000000,-25.000000,-14.000000,-6.000000,1.000000,-8.000000,27.000000
1296673.968893,-36.000000,-11.000000,-5.000000,-14.000000,26.000000,-7.000000,-18.000000,-34.000000
1296673.968917,3.000000,30.000000,-19.000000,-36.000000,-11.000000,-4.000000,6.000000,-47.000000
1296673.999669,0.000000,10.000000,16.000000,41.000000,-12.000000,-1.000000,0.000000,23.000000
1296673.999722,3.000000,-8.000000,5.000000,-2.000000,-26.000000,-11.000000,5.000000,-30.000000
1296674.000567,1.000000,13.000000,-4.000000,40.000000,77.000000,26.000000,6.000000,6.000000
1296674.000621,-19.000000,-17.000000,4.000000,-6.000000,-48.000000,-9.000000,-9.000000,-32.000000
1296674.002920,10.000000,-21.000000,-5.000000,-7.000000,-54.000000,-8.000000,2.000000,-105.000000
1296674.002967,0.000000,-2.000000,19.000000,75.000000,70.000000,7.000000,-10.000000,10.000000
1296674.003277,-10.000000,-8.000000,-8.000000,-35.000000,-33.000000,-15.000000,-2.000000,-19.000000
1296674.003302,6.000000,-14.000000,-52.000000,-15.000000,-9.000000,3.000000,-3.000000,-6.000000
1296674.006188,41.000000,-9.000000,-16.000000,127.000000,127.000000,35.000000,11.000000,18.000000
1296674.006231,-25.000000,-74.000000,-26.000000,-20.000000,-9.000000,-10.000000,-12.000000,27.000000
1296674.028738,-15.000000,6.000000,40.000000,-29.000000,-17.000000,0.000000,-10.000000,-72.000000
1296674.028763,44.000000,83.000000,-5.000000,-3.000000,-8.000000,-3.000000,-11.000000,-74.000000
1296674.036754,-27.000000,42.000000,16.000000,-38.000000,-20.000000,-15.000000,-8.000000,47.000000
1296674.036793,7.000000,-91.000000,-6.000000,4.000000,20.000000,8.000000,11.000000,-1.000000
1296674.082407,-19.000000,-38.000000,21.000000,-11.000000,-1.000000,-3.000000,-11.000000,-4.000000
1296674.082453,-14.000000,3.000000,-4.000000,0.000000,0.000000,1.000000,9.000000,9.000000
1296674.088912,9.000000,15.000000,4.000000,-40.000000,-26.000000,2.000000,5.000000,8.000000
1296674.088938,8.000000,35.000000,10.000000,4.000000,10.000000,-8.000000,-4.000000,-3.000000
1296674.120117,1.000000,9.000000,-8.000000,-26.000000,-4.000000,4.000000,5.000000,44.000000
1296674.120368,-10.000000,-69.000000,-3.000000,-3.000000,-7.000000,-4.000000,-1.000000,-48.000000
1296674.121107,18.000000,28.000000,-11.000000,-58.000000,-7.000000,1.000000,-3.000000,6.000000
1296674.121135,2.000000,12.000000,25.000000,35.000000,0.000000,7.000000,4.000000,3.000000
1296674.122070,7.000000,-4.000000,19.000000,15.000000,2.000000,-12.000000,-29.000000,-17.000000
1296674.122108,-2.000000,15.000000,14.000000,7.000000,-5.000000,3.000000,9.000000,-22.000000
1296674.122971,16.000000,-86.000000,-15.000000,-87.000000,-44.000000,2.000000,0.000000,78.000000
1296674.123029,-11.000000,65.000000,26.000000,42.000000,6.000000,-4.000000,1.000000,8.000000
1296674.126429,-10.000000,-7.000000,-2.000000,-9.000000,-22.000000,-12.000000,-3.000000,-12.000000
1296674.126478,-2.000000,31.000000,8.000000,-10.000000,-26.000000,1.000000,2.000000,0.000000
1296674.141102,8.000000,18.000000,-9.000000,-46.000000,-5.000000,-12.000000,-12.000000,20.000000
