# participant_id: P8
# gesture: medium
# trial_number: 1
# stream_name: Myo_EMG
# stream_type: emg
# timestamp: 20260420_152018
# samples: 5208
# duration_sec: 30.465
# nominal_sample_rate: 200.0
# effective_sample_rate: 170.92
#
timestamp,emg_1,emg_2,emg_3,emg_4,emg_5,emg_6,emg_7,emg_8
1303110.374120,-13.000000,-1.000000,-2.000000,-8.000000,5.000000,2.000000,-5.000000,-5.000000
1303110.374130,3.000000,-1.000000,1.000000,15.000000,-6.000000,-4.000000,-9.000000,-10.000000
1303110.411712,7.000000,0.000000,3.000000,17.000000,1.000000,7.000000,-4.000000,-2.000000
1303110.411722,-13.000000,-1.000000,11.000000,-11.000000,19.000000,15.000000,5.000000,1.000000
1303110.426598,6.000000,7.000000,4.000000,4.000000,0.000000,0.000000,9.000000,11.000000
1303110.426609,-8.000000,0.000000,12.000000,1.000000,-6.000000,-4.000000,-4.000000,-5.000000
1303110.427526,0.000000,-5.000000,26.000000,10.000000,9.000000,-5.000000,-11.000000,-8.000000
1303110.427534,-27.000000,-10.000000,-42.000000,10.000000,-3.000000,-1.000000,-2.000000,-3.000000
1303110.428290,-14.000000,-1.000000,5.000000,-13.000000,-6.000000,-8.000000,8.000000,-1.000000
1303110.428311,37.000000,3.000000,26.000000,2.000000,3.000000,1.000000,-8.000000,5.000000
1303110.429963,-20.000000,-6.000000,-9.000000,-9.000000,-5.000000,-1.000000,-8.000000,-1.000000
1303110.429980,5.000000,3.000000,15.000000,6.000000,-17.000000,-8.000000,3.000000,-2.000000
1303110.433919,-5.000000,-3.000000,3.000000,-11.000000,-5.000000,-3.000000,-3.000000,-10.000000
1303110.433928,3.000000,8.000000,-5.000000,-7.000000,0.000000,7.000000,4.000000,4.000000
1303110.449257,4.000000,6.000000,33.000000,1.000000,3.000000,-3.000000,7.000000,-9.000000
1303110.449296,0.000000,-3.000000,4.000000,-50.000000,-18.000000,-5.000000,-7.000000,-1.000000
1303110.449888,-19.000000,-5.000000,-12.000000,20.000000,14.000000,11.000000,-21.000000,-16.000000
1303110.449897,6.000000,1.000000,8.000000,3.000000,8.000000,3.000000,-1.000000,-7.000000
1303110.471925,20.000000,-11.000000,29.000000,4.000000,3.000000,1.000000,33.000000,36.000000
1303110.471934,-9.000000,6.000000,-7.000000,-8.000000,10.000000,0.000000,-3.000000,-13.000000
1303110.472614,4.000000,-3.000000,-5.000000,-16.000000,-10.000000,1.000000,-1.000000,-1.000000
1303110.472623,11.000000,2.000000,-35.000000,-8.000000,-7.000000,-4.000000,-7.000000,-4.000000
1303110.486892,-1.000000,-6.000000,14.000000,-16.000000,3.000000,-3.000000,4.000000,5.000000
1303110.486903,-1.000000,-1.000000,11.000000,-11.000000,-1.000000,5.000000,2.000000,8.000000
1303110.494442,0.000000,3.000000,1.000000,22.000000,1.000000,-3.000000,1.000000,1.000000
1303110.494455,0.000000,0.000000,-4.000000,1.000000,-4.000000,0.000000,-8.000000,-14.000000
1303110.531777,-2.000000,-5.000000,-14.000000,43.000000,22.000000,10.000000,6.000000,6.000000
1303110.531789,5.000000,6.000000,7.000000,-7.000000,-7.000000,-4.000000,0.000000,-3.000000
1303110.554537,-1.000000,0.000000,-12.000000,-16.000000,2.000000,-6.000000,0.000000,3.000000
1303110.554820,-19.000000,-2.000000,1.000000,0.000000,1.000000,-2.000000,-13.000000,-12.000000
1303110.555697,-6.000000,0.000000,-17.000000,-1.000000,-4.000000,-4.000000,-1.000000,-6.000000
1303110.555728,2.000000,-7.000000,3.000000,-2.000000,-13.000000,-7.000000,2.000000,1.000000
1303110.555828,-12.000000,-1.000000,-7.000000,-9.000000,-3.000000,-1.000000,-11.000000,-9.000000
1303110.555836,0.000000,0.000000,0.000000,26.000000,15.000000,14.000000,2.000000,4.000000
1303110.557075,7.000000,1.000000,-19.000000,0.000000,7.000000,0.000000,7.000000,10.000000
1303110.557083,4.000000,1.000000,21.000000,16.000000,3.000000,5.000000,-11.000000,-9.000000
1303110.558010,7.000000,-1.000000,-2.000000,-7.000000,-7.000000,6.000000,30.000000,17.000000
1303110.558027,-1.000000,-1.000000,-8.000000,-5.000000,-3.000000,-1.000000,-10.000000,-5.000000
1303110.561521,5.000000,-6.000000,9.000000,6.000000,-1.000000,-8.000000,-12.000000,-7.000000
1303110.561529,-7.000000,-5.000000,-9.000000,8.000000,-8.000000,2.000000,-4.000000,-9.000000
1303110.569107,0.000000,2.000000,4.000000,4.000000,2.000000,0.000000,2.000000,-3.000000
1303110.569123,4.000000,0.000000,9.000000,20.000000,3.000000,-5.000000,2.000000,3.000000
1303110.584964,6.000000,1.000000,21.000000,4.000000,1.000000,1.000000,2.000000,7.000000
1303110.584975,-14.000000,-10.000000,-42.000000,-27.000000,-5.000000,7.000000,-9.000000,-10.000000
1303110.591956,8.000000,1.000000,-11.000000,-1.000000,-3.000000,-3.000000,5.000000,-2.000000
1303110.591969,-1.000000,0.000000,10.000000,6.000000,-1.000000,0.000000,-9.000000,-1.000000
1303110.629450,-3.000000,-9.000000,14.000000,-12.000000,-2.000000,1.000000,-14.000000,-7.000000
1303110.629463,0.000000,7.000000,24.000000,29.000000,-1.000000,3.000000,2.000000,7.000000
1303110.644239,1.000000,4.000000,3.000000,-1.000000,-5.000000,-3.000000,7.000000,3.000000
1303110.644268,4.000000,4.000000,20.000000,0.000000,1.000000,-1.000000,3.000000,16.000000
1303110.652018,-12.000000,11.000000,-24.000000,-23.000000,-1.000000,0.000000,-21.000000,-22.000000
1303110.652027,4.000000,-6.000000,9.000000,4.000000,-9.000000,-10.000000,-4.000000,-3.000000
1303110.652506,2.000000,2.000000,4.000000,4.000000,13.000000,7.000000,2.000000,-2.000000
1303110.652515,-3.000000,-5.000000,15.000000,-13.000000,-4.000000,4.000000,4.000000,11.000000
1303110.654005,-5.000000,-2.000000,-43.000000,15.000000,1.000000,-11.000000,-12.000000,-13.000000
1303110.654015,0.000000,-6.000000,7.000000,-8.000000,0.000000,-1.000000,8.000000,-4.000000
1303110.654900,-4.000000,6.000000,23.000000,0.000000,5.000000,1.000000,8.000000,-5.000000
1303110.654910,-7.000000,0.000000,-31.000000,-24.000000,-8.000000,-5.000000,-5.000000,1.000000
1303110.666479,8.000000,-3.000000,10.000000,3.000000,6.000000,-10.000000,0.000000,4.000000
1303110.666488,-8.000000,-7.000000,35.000000,35.000000,4.000000,7.000000,-22.000000,-10.000000
1303110.674218,18.000000,1.000000,-77.000000,-1.000000,4.000000,0.000000,19.000000,3.000000
1303110.674229,-3.000000,4.000000,26.000000,-23.000000,-9.000000,-12.000000,1.000000,-1.000000
1303110.689257,-18.000000,-8.000000,-38.000000,-11.000000,1.000000,-2.000000,-10.000000,-14.000000
1303110.689270,-6.000000,4.000000,-16.000000,-12.000000,-4.000000,2.000000,-8.000000,-4.000000
1303110.689883,6.000000,2.000000,-10.000000,4.000000,-10.000000,2.000000,0.000000,-6.000000
1303110.689892,4.000000,-1.000000,15.000000,8.000000,5.000000,3.000000,7.000000,8.000000
1303110.704737,-13.000000,-1.000000,-20.000000,-32.000000,5.000000,7.000000,10.000000,2.000000
1303110.704768,16.000000,3.000000,2.000000,-1.000000,-7.000000,-2.000000,-4.000000,4.000000
1303110.711604,-8.000000,0.000000,5.000000,-9.000000,-4.000000,-10.000000,8.000000,-4.000000
1303110.711627,-5.000000,-10.000000,13.000000,2.000000,-9.000000,-3.000000,-15.000000,2.000000
1303110.726615,-9.000000,-8.000000,8.000000,28.000000,9.000000,8.000000,-1.000000,-3.000000
1303110.726625,20.000000,3.000000,-19.000000,-17.000000,-9.000000,-4.000000,1.000000,-6.000000
1303110.749166,-21.000000,-6.000000,38.000000,11.000000,6.000000,0.000000,-1.000000,-2.000000
1303110.749184,0.000000,5.000000,-69.000000,-26.000000,-5.000000,2.000000,-11.000000,-7.000000
1303110.771632,-5.000000,-2.000000,33.000000,34.000000,-3.000000,-1.000000,9.000000,-1.000000
1303110.771642,0.000000,-7.000000,24.000000,17.000000,11.000000,5.000000,4.000000,1.000000
1303110.786988,-5.000000,-3.000000,-5.000000,-9.000000,-6.000000,2.000000,-8.000000,-8.000000
1303110.786999,3.000000,0.000000,8.000000,-8.000000,-12.000000,-15.000000,4.000000,6.000000
1303110.831873,-5.000000,2.000000,-10.000000,33.000000,9.000000,0.000000,-8.000000,-11.000000
1303110.831884,-7.000000,3.000000,-22.000000,8.000000,12.000000,7.000000,-14.000000,-1.000000
1303110.846653,16.000000,1.000000,35.000000,-3.000000,-5.000000,-12.000000,11.000000,7.000000
1303110.846663,20.000000,-5.000000,-14.000000,-6.000000,-4.000000,-7.000000,7.000000,17.000000
1303110.869167,-25.000000,-6.000000,8.000000,-5.000000,1.000000,2.000000,-16.000000,-15.000000
1303110.869195,8.000000,-3.000000,14.000000,-3.000000,-11.000000,3.000000,19.000000,0.000000
1303110.876777,-28.000000,3.000000,-3.000000,19.000000,3.000000,-1.000000,8.000000,9.000000
1303110.876787,30.000000,0.000000,-9.000000,10.000000,14.000000,5.000000,-10.000000,-5.000000
1303110.884352,0.000000,0.000000,14.000000,-6.000000,0.000000,4.000000,17.000000,5.000000
1303110.884364,9.000000,-1.000000,16.000000,-14.000000,2.000000,2.000000,-3.000000,1.000000
1303110.906485,-14.000000,-1.000000,-43.000000,-16.000000,-11.000000,-5.000000,-5.000000,-7.000000
1303110.906496,2.000000,-3.000000,-24.000000,26.000000,-1.000000,-1.000000,-1.000000,-7.000000
1303110.906922,-10.000000,9.000000,-28.000000,-9.000000,-1.000000,7.000000,-11.000000,2.000000
1303110.906929,9.000000,-9.000000,-7.000000,-5.000000,-10.000000,-1.000000,1.000000,-7.000000
1303110.907498,4.000000,-1.000000,-21.000000,-13.000000,-2.000000,-7.000000,3.000000,6.000000
1303110.907514,-9.000000,-1.000000,-10.000000,6.000000,12.000000,5.000000,-6.000000,-4.000000
1303110.908787,-2.000000,-4.000000,52.000000,38.000000,7.000000,6.000000,22.000000,15.000000
1303110.908797,0.000000,4.000000,-3.000000,7.000000,-7.000000,0.000000,-7.000000,-3.000000
1303110.909508,10.000000,-4.000000,-10.000000,2.000000,-1.000000,1.000000,8.000000,-3.000000
1303110.909516,-11.000000,0.000000,0.000000,12.000000,2.000000,-1.000000,-8.000000,-7.000000
1303110.910359,8.000000,-8.000000,10.000000,3.000000,5.000000,2.000000,5.000000,12.000000
1303110.910405,-15.000000,1.000000,-4.000000,-11.000000,-13.000000,-5.000000,-5.000000,-6.000000
1303110.921641,17.000000,0.000000,7.000000,5.000000,10.000000,-4.000000,11.000000,8.000000
1303110.921651,1.000000,3.000000,4.000000,30.000000,8.000000,15.000000,-6.000000,1.000000
1303110.923082,-9.000000,3.000000,2.000000,-23.000000,-4.000000,-11.000000,-5.000000,-7.000000
1303110.923092,4.000000,8.000000,1.000000,2.000000,-4.000000,-7.000000,2.000000,-11.000000
1303110.929387,-9.000000,2.000000,-23.000000,42.000000,11.000000,12.000000,5.000000,11.000000
1303110.929398,-1.000000,2.000000,-9.000000,-17.000000,-9.000000,-4.000000,-6.000000,-10.000000
1303110.944706,11.000000,-1.000000,15.000000,21.000000,8.000000,8.000000,17.000000,22.000000
1303110.944725,0.000000,3.000000,-24.000000,-16.000000,4.000000,2.000000,-5.000000,-4.000000
1303110.959120,-12.000000,4.000000,-10.000000,-14.000000,-4.000000,4.000000,-6.000000,1.000000
1303110.959130,-20.000000,-2.000000,-18.000000,-1.000000,-5.000000,-3.000000,1.000000,-11.000000
1303110.981898,6.000000,8.000000,27.000000,-6.000000,-12.000000,-6.000000,-3.000000,-2.000000
1303110.981912,0.000000,0.000000,10.000000,28.000000,18.000000,5.000000,-14.000000,1.000000
1303110.989172,3.000000,5.000000,30.000000,7.000000,-5.000000,-12.000000,4.000000,-4.000000
1303110.989182,19.000000,-1.000000,-8.000000,-8.000000,2.000000,-2.000000,-21.000000,-1.000000
1303111.026819,-6.000000,-5.000000,17.000000,-21.000000,-5.000000,1.000000,13.000000,-6.000000
1303111.026831,-5.000000,3.000000,-23.000000,-6.000000,3.000000,0.000000,-8.000000,-3.000000
1303111.027425,9.000000,1.000000,-15.000000,-4.000000,-10.000000,-11.000000,-8.000000,-6.000000
1303111.027453,-9.000000,-1.000000,9.000000,27.000000,13.000000,5.000000,0.000000,-4.000000
1303111.028326,20.000000,1.000000,16.000000,20.000000,4.000000,-1.000000,-6.000000,-3.000000
1303111.028334,1.000000,2.000000,-39.000000,-9.000000,-16.000000,-4.000000,-5.000000,2.000000
1303111.028951,-17.000000,1.000000,-4.000000,9.000000,0.000000,1.000000,4.000000,-5.000000
1303111.028959,-6.000000,1.000000,12.000000,-3.000000,12.000000,5.000000,11.000000,19.000000
1303111.030499,8.000000,2.000000,-15.000000,-9.000000,-7.000000,-6.000000,-1.000000,-12.000000
1303111.030508,5.000000,5.000000,-8.000000,7.000000,-5.000000,-6.000000,0.000000,-3.000000
1303111.034541,-29.000000,-7.000000,42.000000,22.000000,6.000000,2.000000,-10.000000,-4.000000
1303111.034589,3.000000,-6.000000,-49.000000,-24.000000,-6.000000,3.000000,-9.000000,-6.000000
1303111.042214,5.000000,-1.000000,18.000000,28.000000,6.000000,-4.000000,1.000000,-4.000000
1303111.042242,-2.000000,-1.000000,21.000000,3.000000,-2.000000,-4.000000,-2.000000,-3.000000
1303111.049015,-12.000000,4.000000,18.000000,9.000000,2.000000,2.000000,-5.000000,-1.000000
1303111.049034,0.000000,-4.000000,31.000000,-6.000000,-7.000000,-10.000000,7.000000,2.000000
1303111.079204,2.000000,-2.000000,-19.000000,5.000000,8.000000,2.000000,-1.000000,5.000000
1303111.079215,-31.000000,2.000000,26.000000,3.000000,4.000000,7.000000,-11.000000,-3.000000
1303111.086725,13.000000,-4.000000,2.000000,25.000000,-5.000000,8.000000,-5.000000,-3.000000
1303111.086735,-7.000000,-3.000000,-3.000000,-6.000000,5.000000,-6.000000,6.000000,1.000000
1303111.124271,18.000000,0.000000,2.000000,3.000000,10.000000,4.000000,9.000000,16.000000
1303111.124284,-6.000000,1.000000,-23.000000,10.000000,-4.000000,0.000000,-13.000000,-9.000000
1303111.139186,5.000000,6.000000,12.000000,1.000000,-11.000000,-8.000000,32.000000,0.000000
1303111.139204,-11.000000,1.000000,13.000000,-3.000000,0.000000,-2.000000,-11.000000,4.000000
1303111.140356,22.000000,-7.000000,14.000000,-29.000000,-5.000000,0.000000,3.000000,7.000000
1303111.140364,-1.000000,-1.000000,7.000000,66.000000,29.000000,7.000000,5.000000,-2.000000
1303111.140851,-8.000000,4.000000,-28.000000,-11.000000,-5.000000,-4.000000,2.000000,-7.000000
1303111.140879,-18.000000,-8.000000,6.000000,-19.000000,-1.000000,1.000000,-14.000000,-12.000000
1303111.142107,-2.000000,-8.000000,2.000000,15.000000,-3.000000,-4.000000,-5.000000,-3.000000
1303111.142123,10.000000,-3.000000,15.000000,-11.000000,-3.000000,-9.000000,-1.000000,2.000000
1303111.142924,3.000000,13.000000,-13.000000,36.000000,12.000000,0.000000,2.000000,-1.000000
1303111.143016,-7.000000,-3.000000,9.000000,-6.000000,-11.000000,-8.000000,-6.000000,-8.000000
1303111.154064,-12.000000,-10.000000,17.000000,-2.000000,-6.000000,6.000000,-3.000000,-5.000000
1303111.154077,21.000000,-6.000000,-35.000000,-15.000000,5.000000,-2.000000,9.000000,6.000000
1303111.161722,-10.000000,-7.000000,2.000000,1.000000,-3.000000,1.000000,-6.000000,0.000000
1303111.161751,14.000000,-2.000000,4.000000,-20.000000,-8.000000,2.000000,5.000000,3.000000
1303111.184035,0.000000,2.000000,8.000000,1.000000,-5.000000,-1.000000,6.000000,2.000000
1303111.184054,5.000000,2.000000,-2.000000,-19.000000,2.000000,-23.000000,-16.000000,-13.000000
1303111.206679,-7.000000,1.000000,34.000000,8.000000,2.000000,-4.000000,-1.000000,5.000000
1303111.206689,-4.000000,-2.000000,-9.000000,-18.000000,-7.000000,0.000000,-11.000000,-6.000000
1303111.222138,8.000000,1.000000,-32.000000,11.000000,-6.000000,-9.000000,-5.000000,3.000000
1303111.222169,-9.000000,-4.000000,22.000000,15.000000,3.000000,1.000000,0.000000,-2.000000
1303111.259759,-19.000000,-7.000000,10.000000,-21.000000,-4.000000,5.000000,-13.000000,-9.000000
1303111.259771,6.000000,6.000000,6.000000,-22.000000,-2.000000,-9.000000,2.000000,-4.000000
1303111.266630,4.000000,-1.000000,5.000000,16.000000,2.000000,-4.000000,-3.000000,-5.000000
1303111.266647,-2.000000,2.000000,-14.000000,3.000000,-4.000000,2.000000,0.000000,0.000000
1303111.267736,7.000000,6.000000,15.000000,3.000000,-1.000000,0.000000,6.000000,5.000000
1303111.267746,6.000000,-7.000000,-5.000000,-5.000000,9.000000,-6.000000,8.000000,7.000000
1303111.268281,-2.000000,-1.000000,19.000000,9.000000,4.000000,7.000000,-7.000000,-2.000000
1303111.268307,-15.000000,-2.000000,-1.000000,21.000000,3.000000,2.000000,-8.000000,-11.000000
1303111.270115,16.000000,-4.000000,10.000000,27.000000,12.000000,4.000000,15.000000,13.000000
1303111.270141,-11.000000,0.000000,28.000000,-4.000000,4.000000,4.000000,-3.000000,-2.000000
1303111.274074,5.000000,-5.000000,0.000000,20.000000,0.000000,1.000000,-4.000000,-2.000000
1303111.274093,9.000000,-4.000000,27.000000,-12.000000,-6.000000,-6.000000,8.000000,8.000000
1303111.282218,-10.000000,4.000000,-15.000000,17.000000,6.000000,0.000000,-18.000000,-12.000000
1303111.282227,3.000000,-4.000000,22.000000,28.000000,3.000000,3.000000,18.000000,8.000000
1303111.304228,14.000000,-5.000000,17.000000,2.000000,-10.000000,-10.000000,-3.000000,0.000000
1303111.304238,-17.000000,-6.000000,11.000000,-11.000000,-4.000000,-6.000000,-7.000000,-6.000000
1303111.326520,-3.000000,5.000000,-36.000000,7.000000,14.000000,9.000000,-6.000000,-4.000000
1303111.326531,9.000000,2.000000,13.000000,24.000000,-9.000000,3.000000,12.000000,8.000000
1303111.341655,-3.000000,-6.000000,-24.000000,-12.000000,2.000000,-2.000000,-3.000000,-1.000000
1303111.341665,-4.000000,-2.000000,-10.000000,-5.000000,-2.000000,7.000000,-12.000000,-8.000000
1303111.357073,1.000000,0.000000,15.000000,2.000000,-1.000000,4.000000,-7.000000,1.000000
1303111.357087,3.000000,1.000000,10.000000,-34.000000,-13.000000,-14.000000,-8.000000,-8.000000
1303111.364290,-26.000000,0.000000,-12.000000,3.000000,17.000000,13.000000,20.000000,19.000000
1303111.364312,0.000000,2.000000,-14.000000,-21.000000,-10.000000,0.000000,-12.000000,-14.000000
1303111.401839,9.000000,-1.000000,18.000000,-4.000000,-6.000000,-13.000000,-2.000000,-6.000000
1303111.401850,-13.000000,3.000000,-8.000000,-17.000000,1.000000,-6.000000,-18.000000,-13.000000
1303111.416685,-1.000000,-7.000000,6.000000,7.000000,-2.000000,6.000000,3.000000,-4.000000
1303111.416698,5.000000,1.000000,-8.000000,1.000000,-7.000000,-7.000000,8.000000,4.000000
1303111.431483,1.000000,2.000000,37.000000,-3.000000,0.000000,5.000000,0.000000,1.000000
1303111.431494,-3.000000,0.000000,13.000000,-8.000000,-2.000000,5.000000,-14.000000,-10.000000
1303111.439347,-3.000000,1.000000,-4.000000,11.000000,1.000000,0.000000,25.000000,5.000000
1303111.439357,-3.000000,-4.000000,-1.000000,-2.000000,-14.000000,-6.000000,-8.000000,0.000000
1303111.446778,2.000000,-2.000000,-3.000000,-21.000000,-1.000000,4.000000,9.000000,-1.000000
1303111.446789,2.000000,6.000000,-11.000000,-8.000000,-3.000000,-1.000000,-4.000000,-1.000000
1303111.461717,29.000000,-1.000000,11.000000,3.000000,4.000000,9.000000,6.000000,21.000000
1303111.461728,5.000000,-9.000000,-6.000000,-32.000000,-11.000000,-6.000000,6.000000,-10.000000
1303111.477638,-1.000000,-5.000000,-60.000000,-28.000000,-6.000000,-16.000000,-8.000000,-8.000000
1303111.477666,-2.000000,-12.000000,1.000000,-5.000000,-4.000000,-6.000000,-12.000000,-7.000000
1303111.478878,4.000000,5.000000,18.000000,2.000000,1.000000,3.000000,3.000000,-3.000000
1303111.478904,-1.000000,2.000000,-32.000000,-1.000000,-13.000000,-12.000000,-1.000000,4.000000
1303111.479474,1.000000,-6.000000,13.000000,12.000000,9.000000,3.000000,-1.000000,0.000000
1303111.479500,-4.000000,-8.000000,16.000000,-5.000000,-6.000000,6.000000,-5.000000,-9.000000
1303111.483864,-19.000000,-2.000000,-26.000000,-15.000000,0.000000,5.000000,-15.000000,-5.000000
1303111.483872,2.000000,1.000000,9.000000,11.000000,-11.000000,-2.000000,-8.000000,-11.000000
1303111.499721,2.000000,-1.000000,-4.000000,-18.000000,1.000000,-3.000000,9.000000,8.000000
1303111.499731,9.000000,-2.000000,12.000000,-15.000000,-1.000000,-3.000000,-5.000000,4.000000
1303111.521631,-6.000000,-1.000000,2.000000,11.000000,-5.000000,4.000000,-6.000000,2.000000
1303111.521654,-6.000000,-6.000000,-55.000000,-39.000000,-17.000000,-9.000000,-4.000000,-12.000000
1303111.522506,-9.000000,-7.000000,4.000000,18.000000,4.000000,1.000000,4.000000,-1.000000
1303111.522515,1.000000,2.000000,16.000000,11.000000,6.000000,9.000000,-3.000000,7.000000
1303111.523405,19.000000,2.000000,-6.000000,1.000000,-8.000000,0.000000,19.000000,10.000000
1303111.523414,-7.000000,-1.000000,-22.000000,-10.000000,1.000000,-6.000000,-4.000000,-8.000000
1303111.537469,-24.000000,1.000000,-6.000000,-5.000000,2.000000,-2.000000,1.000000,-7.000000
1303111.537481,5.000000,0.000000,-17.000000,9.000000,-3.000000,-2.000000,2.000000,4.000000
1303111.544578,-2.000000,2.000000,3.000000,3.000000,-10.000000,-15.000000,-3.000000,-10.000000
1303111.544593,-3.000000,2.000000,26.000000,59.000000,17.000000,13.000000,33.000000,12.000000
1303111.581750,2.000000,1.000000,-41.000000,-17.000000,-7.000000,-4.000000,-9.000000,2.000000
1303111.581762,5.000000,0.000000,21.000000,22.000000,-7.000000,-2.000000,8.000000,-1.000000
1303111.596775,-10.000000,-8.000000,-27.000000,-25.000000,-10.000000,-5.000000,-16.000000,-7.000000
1303111.596846,2.000000,-7.000000,-1.000000,12.000000,6.000000,7.000000,-12.000000,-7.000000
1303111.619081,-9.000000,17.000000,8.000000,-8.000000,-5.000000,3.000000,27.000000,13.000000
1303111.619138,-1.000000,0.000000,3.000000,12.000000,3.000000,1.000000,-21.000000,-1.000000
1303111.619560,8.000000,-7.000000,21.000000,9.000000,-2.000000,7.000000,2.000000,5.000000
1303111.619570,-5.000000,-1.000000,-19.000000,17.000000,-2.000000,-1.000000,-5.000000,-6.000000
1303111.620913,-5.000000,-4.000000,19.000000,8.000000,3.000000,-3.000000,-3.000000,-8.000000
1303111.620924,9.000000,1.000000,47.000000,4.000000,-10.000000,3.000000,2.000000,2.000000
1303111.621497,1.000000,6.000000,-63.000000,3.000000,2.000000,5.000000,-4.000000,4.000000
1303111.621507,3.000000,-3.000000,7.000000,3.000000,-10.000000,0.000000,2.000000,1.000000
1303111.634347,21.000000,3.000000,18.000000,19.000000,0.000000,-2.000000,18.000000,1.000000
1303111.634360,-10.000000,-3.000000,0.000000,-18.000000,-5.000000,-15.000000,-1.000000,-3.000000
1303111.635479,9.000000,4.000000,21.000000,-11.000000,1.000000,0.000000,-14.000000,13.000000
1303111.635488,3.000000,1.000000,-12.000000,2.000000,-11.000000,4.000000,10.000000,0.000000
1303111.641786,10.000000,4.000000,7.000000,15.000000,-1.000000,-5.000000,2.000000,-3.000000
1303111.641808,-12.000000,-4.000000,-22.000000,-34.000000,2.000000,4.000000,-9.000000,-6.000000
1303111.679356,9.000000,-3.000000,47.000000,31.000000,-2.000000,6.000000,9.000000,3.000000
1303111.679367,0.000000,3.000000,-25.000000,-29.000000,-12.000000,-1.000000,2.000000,-2.000000
1303111.694305,7.000000,-6.000000,18.000000,-12.000000,2.000000,12.000000,15.000000,17.000000
1303111.694318,-10.000000,0.000000,-25.000000,-16.000000,-8.000000,3.000000,-9.000000,-5.000000
1303111.708948,5.000000,-8.000000,9.000000,-11.000000,-14.000000,-10.000000,-1.000000,-7.000000
1303111.708958,6.000000,6.000000,-9.000000,5.000000,2.000000,-3.000000,19.000000,2.000000
1303111.716707,-10.000000,2.000000,-26.000000,-40.000000,-4.000000,1.000000,-11.000000,-11.000000
1303111.716718,21.000000,-3.000000,39.000000,12.000000,1.000000,9.000000,20.000000,19.000000
1303111.740022,2.000000,4.000000,-21.000000,-18.000000,-8.000000,-1.000000,-8.000000,1.000000
1303111.740030,-33.000000,-11.000000,29.000000,55.000000,18.000000,3.000000,4.000000,-12.000000
1303111.740444,-1.000000,-5.000000,-32.000000,-17.000000,-4.000000,-3.000000,-10.000000,3.000000
1303111.740452,-13.000000,2.000000,-56.000000,-23.000000,-9.000000,-5.000000,-4.000000,-13.000000
1303111.741391,4.000000,-1.000000,-28.000000,-5.000000,3.000000,2.000000,-3.000000,-8.000000
1303111.741399,-8.000000,3.000000,-13.000000,5.000000,11.000000,1.000000,-12.000000,1.000000
1303111.742729,-7.000000,1.000000,16.000000,13.000000,-4.000000,2.000000,8.000000,10.000000
1303111.742771,2.000000,-7.000000,-20.000000,-9.000000,8.000000,-1.000000,0.000000,5.000000
1303111.754036,20.000000,-4.000000,-32.000000,-6.000000,6.000000,2.000000,19.000000,11.000000
1303111.754078,-18.000000,-8.000000,-11.000000,5.000000,1.000000,-3.000000,-5.000000,-16.000000
1303111.755379,7.000000,7.000000,-10.000000,-27.000000,-10.000000,-9.000000,-3.000000,6.000000
1303111.755388,7.000000,-5.000000,44.000000,42.000000,-3.000000,-2.000000,0.000000,-4.000000
1303111.761646,-3.000000,8.000000,-41.000000,-24.000000,-3.000000,-11.000000,7.000000,6.000000
1303111.761674,-6.000000,-1.000000,26.000000,1.000000,2.000000,3.000000,-5.000000,-3.000000
1303111.777496,15.000000,6.000000,-15.000000,-13.000000,-11.000000,1.000000,-4.000000,-1.000000
1303111.777507,-11.000000,-5.000000,-1.000000,-9.000000,-2.000000,-13.000000,-8.000000,-5.000000
1303111.784191,13.000000,-2.000000,16.000000,2.000000,-6.000000,3.000000,-11.000000,-8.000000
1303111.784225,-16.000000,-3.000000,-45.000000,-22.000000,-12.000000,-8.000000,7.000000,7.000000
1303111.814336,18.000000,-7.000000,4.000000,-14.000000,-7.000000,-13.000000,9.000000,-4.000000
1303111.814347,-13.000000,-6.000000,4.000000,-1.000000,4.000000,4.000000,-6.000000,-3.000000
1303111.821845,-14.000000,4.000000,-61.000000,-18.000000,-7.000000,0.000000,-13.000000,-14.000000
1303111.821855,-9.000000,-4.000000,-9.000000,-6.000000,-11.000000,-11.000000,2.000000,-9.000000
1303111.837294,-4.000000,-1.000000,8.000000,-15.000000,0.000000,-8.000000,5.000000,-2.000000
1303111.837303,2.000000,0.000000,-1.000000,5.000000,1.000000,10.000000,-1.000000,2.000000
1303111.837590,23.000000,2.000000,-2.000000,-9.000000,-7.000000,-4.000000,33.000000,18.000000
1303111.837598,-10.000000,-6.000000,15.000000,16.000000,-6.000000,-7.000000,-9.000000,-7.000000
1303111.839178,-20.000000,-4.000000,22.000000,7.000000,3.000000,4.000000,-17.000000,-16.000000
1303111.839196,-5.000000,-6.000000,9.000000,24.000000,3.000000,2.000000,-9.000000,-10.000000
1303111.859282,14.000000,-1.000000,45.000000,-20.000000,-15.000000,-2.000000,26.000000,0.000000
1303111.859294,8.000000,-4.000000,30.000000,3.000000,6.000000,0.000000,4.000000,22.000000
1303111.860363,8.000000,4.000000,18.000000,3.000000,5.000000,3.000000,-10.000000,-3.000000
1303111.860371,-1.000000,2.000000,-40.000000,13.000000,-7.000000,-5.000000,-3.000000,-12.000000
1303111.874294,-16.000000,-4.000000,-45.000000,-40.000000,8.000000,-7.000000,-16.000000,-17.000000
1303111.874323,-12.000000,-6.000000,3.000000,2.000000,5.000000,-1.000000,-26.000000,-14.000000
1303111.881998,8.000000,0.000000,7.000000,-3.000000,-6.000000,-8.000000,22.000000,18.000000
1303111.882007,4.000000,-5.000000,-20.000000,11.000000,13.000000,5.000000,-3.000000,-6.000000
1303111.882763,4.000000,1.000000,45.000000,-16.000000,1.000000,5.000000,-4.000000,0.000000
1303111.882771,-7.000000,1.000000,9.000000,3.000000,-2.000000,-5.000000,-15.000000,-11.000000
1303111.897258,-5.000000,-2.000000,-22.000000,-9.000000,-13.000000,-9.000000,23.000000,1.000000
1303111.897267,5.000000,0.000000,3.000000,-8.000000,1.000000,-3.000000,-11.000000,-3.000000
1303111.919215,-35.000000,1.000000,20.000000,-12.000000,-9.000000,-11.000000,-8.000000,-12.000000
1303111.919226,34.000000,-8.000000,-9.000000,20.000000,5.000000,3.000000,16.000000,17.000000
1303111.956894,-6.000000,-5.000000,-1.000000,-14.000000,12.000000,7.000000,4.000000,15.000000
1303111.956905,-17.000000,2.000000,1.000000,22.000000,-10.000000,3.000000,-2.000000,-7.000000
1303111.971763,1.000000,-1.000000,-47.000000,-13.000000,-6.000000,-6.000000,-9.000000,-8.000000
1303111.971774,16.000000,-8.000000,18.000000,33.000000,1.000000,6.000000,-2.000000,3.000000
1303111.979729,2.000000,1.000000,25.000000,-28.000000,-1.000000,11.000000,-3.000000,2.000000
1303111.979739,-6.000000,2.000000,4.000000,8.000000,0.000000,-9.000000,-1.000000,-1.000000
1303111.980204,-4.000000,-8.000000,-12.000000,-11.000000,-15.000000,-11.000000,-6.000000,-9.000000
1303111.980226,-14.000000,0.000000,-5.000000,72.000000,24.000000,5.000000,-6.000000,-1.000000
1303111.981757,15.000000,-2.000000,16.000000,3.000000,-10.000000,0.000000,6.000000,0.000000
1303111.981772,9.000000,1.000000,-18.000000,9.000000,1.000000,-3.000000,2.000000,3.000000
1303111.994123,-8.000000,5.000000,-21.000000,-7.000000,-1.000000,3.000000,-5.000000,1.000000
1303111.994172,-16.000000,2.000000,-20.000000,-10.000000,-5.000000,-7.000000,-11.000000,-12.000000
1303111.995452,41.000000,4.000000,-16.000000,-11.000000,-3.000000,-12.000000,-11.000000,-6.000000
1303111.995462,-20.000000,-4.000000,20.000000,-2.000000,6.000000,6.000000,14.000000,1.000000
1303112.016821,-4.000000,-4.000000,-17.000000,3.000000,-10.000000,1.000000,-13.000000,-5.000000
1303112.016839,-10.000000,2.000000,-7.000000,-36.000000,-6.000000,-7.000000,-1.000000,-11.000000
1303112.039156,-7.000000,-4.000000,-19.000000,-13.000000,-12.000000,-10.000000,-14.000000,-6.000000
1303112.039167,-5.000000,2.000000,23.000000,-19.000000,-3.000000,-1.000000,4.000000,2.000000
1303112.054243,1.000000,6.000000,-19.000000,3.000000,-8.000000,-3.000000,13.000000,4.000000
1303112.054255,4.000000,1.000000,-9.000000,-14.000000,-8.000000,-1.000000,3.000000,5.000000
1303112.076698,-9.000000,3.000000,12.000000,35.000000,20.000000,4.000000,-5.000000,-9.000000
1303112.076710,22.000000,-2.000000,1.000000,-17.000000,-9.000000,-1.000000,9.000000,10.000000
1303112.084038,-27.000000,-6.000000,-2.000000,-12.000000,-8.000000,-3.000000,-10.000000,-10.000000
1303112.084057,-13.000000,-4.000000,41.000000,15.000000,12.000000,6.000000,-11.000000,-11.000000
1303112.092272,9.000000,-4.000000,-34.000000,-1.000000,4.000000,-1.000000,18.000000,11.000000
1303112.092283,0.000000,3.000000,-1.000000,4.000000,6.000000,-2.000000,-2.000000,9.000000
1303112.092784,-2.000000,3.000000,11.000000,-1.000000,6.000000,-2.000000,-3.000000,-3.000000
1303112.092799,-9.000000,-1.000000,-34.000000,-38.000000,-10.000000,-3.000000,-26.000000,-26.000000
1303112.093957,-7.000000,0.000000,-44.000000,-1.000000,-2.000000,1.000000,20.000000,-1.000000
1303112.093966,13.000000,-5.000000,22.000000,-15.000000,2.000000,-6.000000,-9.000000,4.000000
1303112.106697,9.000000,-5.000000,-26.000000,-3.000000,-7.000000,-2.000000,-6.000000,-4.000000
1303112.106709,2.000000,-1.000000,1.000000,-11.000000,-4.000000,-8.000000,1.000000,-4.000000
1303112.114711,-8.000000,4.000000,-1.000000,11.000000,11.000000,8.000000,-7.000000,-5.000000
1303112.114721,5.000000,-1.000000,3.000000,6.000000,4.000000,-1.000000,5.000000,-1.000000
1303112.136912,-27.000000,2.000000,3.000000,-9.000000,-6.000000,-6.000000,-11.000000,-3.000000
1303112.136924,-1.000000,-9.000000,9.000000,6.000000,-2.000000,-2.000000,-6.000000,-11.000000
1303112.159128,-12.000000,-5.000000,-16.000000,-31.000000,1.000000,-4.000000,-2.000000,9.000000
1303112.159138,-6.000000,-6.000000,-1.000000,35.000000,-2.000000,-6.000000,-10.000000,-15.000000
1303112.174333,-16.000000,2.000000,-37.000000,-10.000000,1.000000,-7.000000,-3.000000,-3.000000
1303112.174344,1.000000,3.000000,34.000000,-16.000000,4.000000,0.000000,-6.000000,-9.000000
1303112.189439,13.000000,6.000000,-18.000000,-6.000000,-3.000000,0.000000,2.000000,-4.000000
1303112.189452,-16.000000,-6.000000,2.000000,3.000000,1.000000,-8.000000,2.000000,5.000000
1303112.197071,6.000000,-10.000000,-6.000000,-6.000000,8.000000,1.000000,-6.000000,-3.000000
1303112.197088,-4.000000,-3.000000,-22.000000,-9.000000,2.000000,3.000000,-6.000000,0.000000
1303112.219521,14.000000,4.000000,8.000000,-1.000000,-9.000000,-13.000000,7.000000,-1.000000
1303112.219531,-31.000000,-9.000000,16.000000,3.000000,-2.000000,-9.000000,-4.000000,1.000000
1303112.220114,-3.000000,-6.000000,-3.000000,-20.000000,-5.000000,-4.000000,-4.000000,2.000000
1303112.220132,5.000000,8.000000,-14.000000,23.000000,9.000000,0.000000,9.000000,0.000000
1303112.221309,4.000000,-5.000000,4.000000,-16.000000,-3.000000,-5.000000,8.000000,5.000000
1303112.221318,-7.000000,-5.000000,3.000000,20.000000,15.000000,5.000000,-7.000000,-1.000000
1303112.222027,13.000000,4.000000,-19.000000,-8.000000,-9.000000,-5.000000,5.000000,16.000000
1303112.222035,-14.000000,-7.000000,-25.000000,-19.000000,-3.000000,-12.000000,-18.000000,-16.000000
1303112.234237,18.000000,2.000000,8.000000,16.000000,-3.000000,-1.000000,12.000000,21.000000
1303112.234266,-2.000000,-4.000000,-2.000000,19.000000,-2.000000,-4.000000,-7.000000,-6.000000
1303112.235516,-14.000000,-1.000000,-13.000000,-25.000000,-8.000000,-2.000000,-16.000000,-16.000000
1303112.235524,12.000000,0.000000,19.000000,-11.000000,-10.000000,-7.000000,20.000000,17.000000
1303112.249275,-4.000000,-2.000000,-11.000000,-9.000000,1.000000,-1.000000,-9.000000,-11.000000
1303112.249291,1.000000,2.000000,27.000000,27.000000,15.000000,-5.000000,-1.000000,4.000000
1303112.271708,-17.000000,0.000000,-4.000000,2.000000,-5.000000,4.000000,8.000000,-1.000000
1303112.271720,6.000000,2.000000,-47.000000,-19.000000,-16.000000,-6.000000,12.000000,-5.000000
1303112.294262,17.000000,-5.000000,53.000000,36.000000,23.000000,4.000000,0.000000,17.000000
1303112.294274,-10.000000,-6.000000,-23.000000,-13.000000,-9.000000,-1.000000,-10.000000,-8.000000
1303112.309599,-6.000000,-2.000000,-38.000000,-10.000000,-13.000000,-8.000000,-5.000000,-9.000000
1303112.309627,-3.000000,-6.000000,3.000000,-24.000000,-12.000000,-3.000000,2.000000,0.000000
1303112.310187,-16.000000,-4.000000,32.000000,14.000000,7.000000,3.000000,-8.000000,-6.000000
1303112.310195,-3.000000,1.000000,-24.000000,-27.000000,-9.000000,-4.000000,-5.000000,-8.000000
1303112.311321,5.000000,2.000000,25.000000,-7.000000,-6.000000,-5.000000,-1.000000,0.000000
1303112.311330,-1.000000,-4.000000,-12.000000,-23.000000,1.000000,6.000000,2.000000,10.000000
1303112.312322,-4.000000,-7.000000,4.000000,1.000000,0.000000,1.000000,1.000000,-8.000000
1303112.312382,-11.000000,-4.000000,9.000000,-4.000000,-12.000000,-6.000000,2.000000,-1.000000
1303112.317269,-4.000000,-5.000000,20.000000,-2.000000,-4.000000,-7.000000,-1.000000,2.000000
1303112.317278,-2.000000,-3.000000,-27.000000,-29.000000,-5.000000,1.000000,-5.000000,-2.000000
1303112.331803,-1.000000,-6.000000,-29.000000,-14.000000,-9.000000,-7.000000,1.000000,-5.000000
1303112.331842,-8.000000,-3.000000,10.000000,49.000000,14.000000,4.000000,-1.000000,-6.000000
1303112.339120,-4.000000,0.000000,22.000000,13.000000,13.000000,-4.000000,-5.000000,-1.000000
1303112.339132,4.000000,-2.000000,3.000000,-18.000000,-7.000000,-3.000000,1.000000,1.000000
1303112.346539,-2.000000,-4.000000,-4.000000,28.000000,2.000000,2.000000,-6.000000,-5.000000
1303112.346549,-10.000000,2.000000,11.000000,-1.000000,0.000000,7.000000,-4.000000,-1.000000
1303112.354767,-2.000000,-1.000000,11.000000,38.000000,5.000000,1.000000,9.000000,1.000000
1303112.354785,3.000000,0.000000,7.000000,-15.000000,-1.000000,-10.000000,3.000000,0.000000
1303112.369200,-3.000000,-2.000000,28.000000,-12.000000,-9.000000,-3.000000,-2.000000,3.000000
1303112.369212,-6.000000,0.000000,9.000000,2.000000,-4.000000,-9.000000,-8.000000,-11.000000
1303112.391517,15.000000,0.000000,-7.000000,-11.000000,-13.000000,1.000000,15.000000,9.000000
1303112.391528,-16.000000,6.000000,26.000000,35.000000,8.000000,5.000000,-3.000000,0.000000
1303112.414392,-5.000000,-3.000000,-7.000000,-14.000000,-1.000000,-1.000000,-12.000000,-3.000000
1303112.414406,-5.000000,8.000000,-27.000000,24.000000,-3.000000,1.000000,-5.000000,-10.000000
1303112.436638,4.000000,5.000000,15.000000,-3.000000,4.000000,-6.000000,-4.000000,2.000000
1303112.436648,1.000000,-1.000000,33.000000,19.000000,10.000000,10.000000,-2.000000,2.000000
1303112.451463,17.000000,0.000000,-11.000000,12.000000,1.000000,-4.000000,4.000000,6.000000
1303112.451497,-11.000000,2.000000,-97.000000,-40.000000,-8.000000,-3.000000,-8.000000,-12.000000
1303112.452492,-7.000000,-3.000000,26.000000,20.000000,13.000000,9.000000,-2.000000,-4.000000
1303112.452501,-1.000000,3.000000,1.000000,-7.000000,-3.000000,-3.000000,5.000000,3.000000
1303112.453259,7.000000,7.000000,-17.000000,19.000000,-2.000000,-4.000000,13.000000,5.000000
1303112.453268,-1.000000,-5.000000,22.000000,-12.000000,-2.000000,1.000000,-8.000000,-10.000000
1303112.454449,-21.000000,-6.000000,-8.000000,-18.000000,-3.000000,-4.000000,-16.000000,-24.000000
1303112.454476,-1.000000,1.000000,-19.000000,-9.000000,2.000000,0.000000,13.000000,23.000000
1303112.458890,-3.000000,0.000000,-6.000000,-20.000000,-3.000000,-5.000000,-4.000000,6.000000
1303112.458898,-13.000000,0.000000,6.000000,23.000000,5.000000,-5.000000,-4.000000,-14.000000
1303112.466865,31.000000,-5.000000,10.000000,2.000000,6.000000,0.000000,-10.000000,6.000000
1303112.466876,-26.000000,1.000000,-3.000000,-9.000000,-1.000000,0.000000,7.000000,-1.000000
1303112.475000,4.000000,-3.000000,-11.000000,-28.000000,-22.000000,-14.000000,-2.000000,-7.000000
1303112.475010,-12.000000,-3.000000,-12.000000,46.000000,27.000000,18.000000,15.000000,11.000000
1303112.511687,-19.000000,0.000000,-22.000000,-18.000000,-3.000000,-6.000000,-57.000000,-19.000000
1303112.511697,-2.000000,6.000000,11.000000,-6.000000,-6.000000,-5.000000,23.000000,-6.000000
1303112.541640,-7.000000,3.000000,-23.000000,-12.000000,0.000000,2.000000,-7.000000,22.000000
1303112.541650,-3.000000,-4.000000,17.000000,-3.000000,3.000000,4.000000,-1.000000,-12.000000
1303112.549006,5.000000,2.000000,13.000000,10.000000,-7.000000,-6.000000,-12.000000,-7.000000
1303112.549015,-10.000000,-2.000000,50.000000,11.000000,0.000000,-8.000000,3.000000,-7.000000
1303112.572512,1.000000,1.000000,-8.000000,1.000000,5.000000,3.000000,-14.000000,-7.000000
1303112.572529,-4.000000,5.000000,-4.000000,1.000000,-3.000000,4.000000,-2.000000,1.000000
1303112.572925,0.000000,3.000000,7.000000,18.000000,1.000000,-7.000000,15.000000,6.000000
1303112.573054,8.000000,-13.000000,27.000000,-6.000000,-4.000000,-1.000000,-3.000000,1.000000
1303112.574321,-6.000000,0.000000,3.000000,9.000000,9.000000,0.000000,3.000000,0.000000
1303112.574366,3.000000,-6.000000,35.000000,0.000000,0.000000,5.000000,-6.000000,-2.000000
1303112.575446,-1.000000,3.000000,11.000000,-12.000000,-7.000000,-8.000000,-11.000000,-5.000000
1303112.575454,-6.000000,8.000000,-38.000000,22.000000,13.000000,12.000000,4.000000,0.000000
1303112.586828,19.000000,2.000000,-4.000000,-7.000000,-10.000000,-1.000000,6.000000,-1.000000
1303112.586847,-3.000000,4.000000,18.000000,-15.000000,-6.000000,0.000000,-6.000000,-1.000000
1303112.587381,9.000000,-5.000000,24.000000,39.000000,9.000000,8.000000,-1.000000,2.000000
1303112.587390,-3.000000,3.000000,25.000000,32.000000,5.000000,2.000000,7.000000,6.000000
1303112.594839,-16.000000,-2.000000,-3.000000,2.000000,0.000000,-18.000000,-16.000000,-9.000000
1303112.594858,-10.000000,-5.000000,-4.000000,-16.000000,3.000000,-1.000000,3.000000,-1.000000
1303112.609373,3.000000,-1.000000,-26.000000,-5.000000,-5.000000,-8.000000,-6.000000,1.000000
1303112.609385,-4.000000,0.000000,-3.000000,-15.000000,-4.000000,-5.000000,-8.000000,-9.000000
1303112.631591,-9.000000,-4.000000,48.000000,73.000000,4.000000,2.000000,-7.000000,-6.000000
1303112.631608,-1.000000,12.000000,-59.000000,-29.000000,-6.000000,3.000000,-1.000000,3.000000
1303112.639166,8.000000,-1.000000,27.000000,0.000000,-7.000000,-4.000000,9.000000,8.000000
1303112.639186,-2.000000,-4.000000,-14.000000,0.000000,12.000000,1.000000,-11.000000,-12.000000
1303112.654304,0.000000,3.000000,-24.000000,10.000000,7.000000,-2.000000,0.000000,-3.000000
1303112.654316,0.000000,4.000000,10.000000,25.000000,1.000000,-1.000000,10.000000,12.000000
1303112.669171,-3.000000,-8.000000,-15.000000,-19.000000,-1.000000,-7.000000,-14.000000,-16.000000
1303112.669201,-8.000000,0.000000,3.000000,12.000000,7.000000,6.000000,-1.000000,2.000000
1303112.706957,-13.000000,-4.000000,-39.000000,-19.000000,-10.000000,-1.000000,-7.000000,-16.000000
1303112.706970,8.000000,0.000000,-7.000000,-28.000000,-10.000000,-8.000000,5.000000,2.000000
1303112.714223,1.000000,-8.000000,-17.000000,27.000000,22.000000,9.000000,-4.000000,1.000000
1303112.714239,-3.000000,5.000000,11.000000,-5.000000,-13.000000,-2.000000,14.000000,5.000000
1303112.752041,14.000000,-3.000000,5.000000,12.000000,-5.000000,-3.000000,7.000000,0.000000
1303112.752160,5.000000,-1.000000,11.000000,-17.000000,-6.000000,-8.000000,-20.000000,-10.000000
1303112.752429,-13.000000,-2.000000,5.000000,37.000000,7.000000,7.000000,-7.000000,-2.000000
1303112.752437,8.000000,6.000000,2.000000,5.000000,4.000000,-4.000000,9.000000,-3.000000
1303112.753500,-19.000000,-1.000000,0.000000,-12.000000,-7.000000,-10.000000,-2.000000,-7.000000
1303112.753510,17.000000,-3.000000,3.000000,-15.000000,-11.000000,-11.000000,-1.000000,2.000000
1303112.753992,5.000000,2.000000,-12.000000,-7.000000,1.000000,-5.000000,-5.000000,5.000000
1303112.754001,-2.000000,-3.000000,-12.000000,16.000000,5.000000,0.000000,-6.000000,-6.000000
1303112.755474,-9.000000,-2.000000,-6.000000,3.000000,-8.000000,-7.000000,-12.000000,-9.000000
1303112.755483,-6.000000,-7.000000,-20.000000,14.000000,10.000000,6.000000,12.000000,-2.000000
1303112.774117,8.000000,3.000000,13.000000,9.000000,-5.000000,-4.000000,-3.000000,2.000000
1303112.774128,0.000000,5.000000,24.000000,-3.000000,-3.000000,-5.000000,-4.000000,-3.000000
1303112.774414,6.000000,-6.000000,54.000000,-7.000000,0.000000,-2.000000,-11.000000,-4.000000
1303112.774423,-8.000000,-1.000000,-25.000000,14.000000,7.000000,5.000000,10.000000,10.000000
1303112.776056,0.000000,3.000000,3.000000,0.000000,0.000000,-1.000000,5.000000,-2.000000
1303112.776123,-6.000000,1.000000,42.000000,13.000000,4.000000,1.000000,-10.000000,-5.000000
1303112.789347,-13.000000,2.000000,-12.000000,-15.000000,-4.000000,-7.000000,-18.000000,-13.000000
1303112.789358,4.000000,8.000000,-27.000000,-7.000000,2.000000,0.000000,9.000000,2.000000
1303112.804604,-5.000000,1.000000,30.000000,8.000000,3.000000,4.000000,-7.000000,-4.000000
1303112.804613,13.000000,1.000000,7.000000,86.000000,15.000000,7.000000,-2.000000,-8.000000
1303112.805398,-19.000000,-1.000000,-22.000000,-19.000000,-2.000000,0.000000,8.000000,9.000000
1303112.805406,2.000000,-1.000000,0.000000,-12.000000,0.000000,-6.000000,-1.000000,-6.000000
1303112.826450,6.000000,-4.000000,36.000000,11.000000,-1.000000,2.000000,-2.000000,6.000000
1303112.826479,-25.000000,3.000000,-70.000000,-38.000000,-5.000000,-7.000000,-4.000000,-10.000000
1303112.827244,19.000000,3.000000,6.000000,23.000000,5.000000,4.000000,7.000000,1.000000
1303112.827253,-24.000000,-1.000000,-5.000000,-10.000000,2.000000,-1.000000,-5.000000,3.000000
1303112.856560,8.000000,2.000000,6.000000,10.000000,4.000000,1.000000,2.000000,1.000000
1303112.856581,-10.000000,2.000000,-23.000000,-9.000000,-11.000000,0.000000,8.000000,-4.000000
1303112.864494,19.000000,2.000000,27.000000,19.000000,10.000000,-4.000000,-9.000000,-2.000000
1303112.864518,-6.000000,-7.000000,-12.000000,-26.000000,-5.000000,8.000000,-8.000000,0.000000
1303112.886679,-3.000000,-5.000000,-1.000000,-3.000000,2.000000,-6.000000,6.000000,-6.000000
1303112.886689,-1.000000,-8.000000,5.000000,-9.000000,-5.000000,-7.000000,4.000000,6.000000
1303112.909212,-9.000000,-13.000000,38.000000,-21.000000,2.000000,9.000000,-5.000000,0.000000
1303112.909232,-4.000000,3.000000,-20.000000,22.000000,-7.000000,-3.000000,-6.000000,-6.000000
1303112.910084,5.000000,-1.000000,-29.000000,15.000000,2.000000,-3.000000,-2.000000,-8.000000
1303112.910111,-12.000000,-4.000000,4.000000,-8.000000,-1.000000,1.000000,9.000000,15.000000
1303112.910878,8.000000,-2.000000,49.000000,15.000000,-10.000000,-1.000000,0.000000,-5.000000
1303112.910894,2.000000,-3.000000,-16.000000,11.000000,10.000000,1.000000,3.000000,6.000000
1303112.912059,-5.000000,0.000000,4.000000,-10.000000,2.000000,4.000000,-1.000000,3.000000
1303112.912072,-12.000000,-6.000000,-4.000000,-5.000000,-5.000000,0.000000,-29.000000,-17.000000
1303112.912917,1.000000,-2.000000,-6.000000,1.000000,-3.000000,-9.000000,16.000000,1.000000
1303112.912926,17.000000,9.000000,3.000000,-20.000000,-4.000000,-3.000000,0.000000,17.000000
1303112.924466,2.000000,-2.000000,15.000000,13.000000,1.000000,8.000000,-13.000000,-10.000000
1303112.924494,-20.000000,5.000000,-19.000000,-24.000000,-2.000000,-7.000000,-6.000000,-18.000000
1303112.925358,-6.000000,-8.000000,-27.000000,80.000000,28.000000,8.000000,0.000000,-6.000000
1303112.925366,-17.000000,-8.000000,23.000000,-6.000000,10.000000,4.000000,0.000000,3.000000
1303112.946909,1.000000,-9.000000,22.000000,5.000000,-7.000000,-1.000000,7.000000,10.000000
1303112.946961,-6.000000,0.000000,-71.000000,-28.000000,-2.000000,-6.000000,1.000000,-9.000000
1303112.947652,10.000000,-1.000000,10.000000,-6.000000,-4.000000,1.000000,-11.000000,-4.000000
1303112.947672,-11.000000,4.000000,-9.000000,-7.000000,-4.000000,5.000000,-3.000000,-3.000000
1303112.969162,-4.000000,4.000000,-33.000000,-5.000000,-5.000000,1.000000,0.000000,-5.000000
1303112.969180,17.000000,-2.000000,8.000000,-9.000000,-7.000000,-1.000000,0.000000,5.000000
1303112.984346,-39.000000,0.000000,37.000000,13.000000,8.000000,-3.000000,-16.000000,-8.000000
1303112.984356,2.000000,0.000000,-47.000000,-13.000000,-6.000000,0.000000,-6.000000,-9.000000
1303113.006861,11.000000,0.000000,-21.000000,-6.000000,0.000000,2.000000,11.000000,5.000000
1303113.006875,1.000000,3.000000,14.000000,18.000000,4.000000,1.000000,-8.000000,-8.000000
1303113.029283,-9.000000,-3.000000,1.000000,-14.000000,-9.000000,3.000000,-1.000000,-4.000000
1303113.029294,11.000000,5.000000,-27.000000,-23.000000,-16.000000,-7.000000,1.000000,-3.000000
1303113.030185,0.000000,2.000000,30.000000,23.000000,18.000000,8.000000,22.000000,15.000000
1303113.030196,-9.000000,11.000000,18.000000,4.000000,2.000000,-2.000000,-12.000000,-17.000000
1303113.030789,16.000000,2.000000,40.000000,-14.000000,-17.000000,-3.000000,0.000000,13.000000
1303113.030797,-7.000000,-6.000000,0.000000,0.000000,4.000000,-3.000000,-4.000000,-1.000000
1303113.033029,-3.000000,2.000000,21.000000,9.000000,5.000000,0.000000,-3.000000,-3.000000
1303113.033041,8.000000,-2.000000,-55.000000,-25.000000,-15.000000,-2.000000,-5.000000,-1.000000
1303113.051511,15.000000,-1.000000,12.000000,5.000000,-3.000000,-3.000000,17.000000,19.000000
1303113.051525,2.000000,-2.000000,-26.000000,2.000000,-3.000000,-2.000000,-6.000000,2.000000
1303113.052640,-22.000000,0.000000,8.000000,5.000000,-2.000000,2.000000,-7.000000,-4.000000
1303113.052668,9.000000,3.000000,-23.000000,29.000000,1.000000,1.000000,14.000000,6.000000
1303113.053212,6.000000,0.000000,10.000000,-6.000000,3.000000,5.000000,16.000000,13.000000
1303113.053220,-7.000000,-1.000000,40.000000,-5.000000,-10.000000,5.000000,-9.000000,-7.000000
1303113.058941,-6.000000,-3.000000,-17.000000,-5.000000,-7.000000,-3.000000,6.000000,6.000000
1303113.058970,-6.000000,4.000000,2.000000,-7.000000,-3.000000,-1.000000,-7.000000,-7.000000
1303113.066949,-8.000000,2.000000,23.000000,11.000000,5.000000,7.000000,-2.000000,-6.000000
1303113.066962,-4.000000,1.000000,-20.000000,-18.000000,-1.000000,-1.000000,-6.000000,0.000000
1303113.089049,-1.000000,-3.000000,-8.000000,-12.000000,-9.000000,-1.000000,12.000000,1.000000
1303113.089060,-7.000000,-2.000000,-8.000000,5.000000,1.000000,-4.000000,-11.000000,3.000000
1303113.096740,-8.000000,5.000000,-10.000000,-4.000000,-1.000000,1.000000,-8.000000,-8.000000
1303113.096756,22.000000,1.000000,1.000000,7.000000,-3.000000,-13.000000,1.000000,1.000000
1303113.127136,-18.000000,-1.000000,-45.000000,-24.000000,-7.000000,-7.000000,4.000000,3.000000
1303113.127161,15.000000,3.000000,33.000000,9.000000,-1.000000,3.000000,0.000000,7.000000
1303113.141862,20.000000,0.000000,-1.000000,-8.000000,0.000000,-1.000000,-1.000000,-3.000000
1303113.141873,-20.000000,-2.000000,20.000000,-19.000000,-8.000000,-10.000000,-5.000000,-8.000000
1303113.156566,-8.000000,-1.000000,-22.000000,-11.000000,-6.000000,-4.000000,-10.000000,-6.000000
1303113.156576,-27.000000,2.000000,-34.000000,-14.000000,-9.000000,-3.000000,-1.000000,-5.000000
1303113.164168,17.000000,-3.000000,-33.000000,24.000000,2.000000,-8.000000,0.000000,5.000000
1303113.164211,-4.000000,-14.000000,15.000000,-6.000000,4.000000,9.000000,3.000000,-2.000000
1303113.165086,-9.000000,-6.000000,-5.000000,-1.000000,-2.000000,-2.000000,-7.000000,-1.000000
1303113.165108,6.000000,-7.000000,-6.000000,-10.000000,-3.000000,-2.000000,1.000000,0.000000
1303113.165730,-6.000000,-3.000000,-26.000000,-5.000000,5.000000,4.000000,-6.000000,-4.000000
1303113.165752,-1.000000,-1.000000,2.000000,-6.000000,-5.000000,-3.000000,-1.000000,-1.000000
1303113.167315,0.000000,4.000000,8.000000,15.000000,9.000000,3.000000,-1.000000,1.000000
1303113.167336,1.000000,-2.000000,-11.000000,-2.000000,4.000000,-1.000000,0.000000,-3.000000
1303113.187097,14.000000,1.000000,7.000000,-16.000000,-4.000000,-5.000000,-2.000000,-2.000000
1303113.187107,6.000000,2.000000,16.000000,25.000000,18.000000,6.000000,-2.000000,-3.000000
1303113.187770,-10.000000,-2.000000,21.000000,-17.000000,-11.000000,-6.000000,-12.000000,-11.000000
1303113.187778,-13.000000,-2.000000,-45.000000,-8.000000,0.000000,1.000000,24.000000,8.000000
1303113.209356,-9.000000,-4.000000,33.000000,2.000000,-11.000000,-6.000000,-8.000000,6.000000
1303113.209367,-9.000000,-3.000000,-23.000000,-6.000000,-4.000000,7.000000,-11.000000,-11.000000
1303113.216886,1.000000,0.000000,8.000000,-16.000000,-7.000000,-14.000000,0.000000,-3.000000
1303113.216907,4.000000,5.000000,1.000000,15.000000,8.000000,2.000000,0.000000,3.000000
1303113.261898,-1.000000,7.000000,-7.000000,-20.000000,-1.000000,-1.000000,-12.000000,-6.000000
1303113.261909,-1.000000,0.000000,-17.000000,-11.000000,-6.000000,-1.000000,-6.000000,-6.000000
1303113.269392,5.000000,-1.000000,-4.000000,-16.000000,3.000000,1.000000,3.000000,3.000000
1303113.269403,-20.000000,-16.000000,17.000000,5.000000,-1.000000,3.000000,-6.000000,-3.000000
1303113.270240,2.000000,2.000000,-16.000000,-5.000000,-8.000000,-8.000000,-1.000000,-13.000000
1303113.270254,-3.000000,3.000000,-24.000000,-28.000000,-17.000000,-11.000000,8.000000,12.000000
1303113.270779,6.000000,-5.000000,-16.000000,24.000000,14.000000,4.000000,5.000000,0.000000
1303113.270789,6.000000,-9.000000,21.000000,-13.000000,7.000000,-2.000000,-11.000000,-1.000000
1303113.272404,-20.000000,3.000000,3.000000,-12.000000,2.000000,10.000000,7.000000,8.000000
1303113.272421,3.000000,6.000000,-1.000000,-7.000000,-11.000000,-9.000000,-10.000000,-3.000000
1303113.291475,13.000000,-1.000000,-44.000000,2.000000,1.000000,-3.000000,2.000000,-4.000000
1303113.291504,-10.000000,4.000000,24.000000,57.000000,11.000000,-6.000000,-9.000000,4.000000
1303113.299096,20.000000,-8.000000,-34.000000,-19.000000,1.000000,3.000000,-4.000000,0.000000
1303113.299106,-24.000000,8.000000,28.000000,0.000000,-16.000000,-7.000000,7.000000,3.000000
1303113.329186,4.000000,-6.000000,5.000000,-20.000000,-3.000000,-3.000000,-9.000000,-3.000000
1303113.329197,10.000000,-1.000000,23.000000,-4.000000,1.000000,3.000000,1.000000,1.000000
1303113.344504,-14.000000,3.000000,-33.000000,34.000000,-2.000000,-4.000000,-2.000000,-13.000000
1303113.344537,4.000000,-4.000000,-6.000000,0.000000,6.000000,-5.000000,1.000000,7.000000
1303113.367005,5.000000,-3.000000,9.000000,-5.000000,2.000000,0.000000,-6.000000,4.000000
1303113.367054,-12.000000,0.000000,-18.000000,5.000000,0.000000,4.000000,2.000000,-8.000000
1303113.374141,-16.000000,4.000000,3.000000,-5.000000,-7.000000,-9.000000,2.000000,-7.000000
1303113.374151,-11.000000,-6.000000,-31.000000,-3.000000,5.000000,4.000000,-13.000000,-7.000000
1303113.382254,1.000000,0.000000,-10.000000,-1.000000,-16.000000,-2.000000,4.000000,-4.000000
1303113.382274,31.000000,0.000000,-12.000000,-30.000000,-6.000000,-8.000000,15.000000,21.000000
1303113.382873,-15.000000,0.000000,36.000000,15.000000,1.000000,-1.000000,0.000000,0.000000
1303113.382887,-15.000000,-10.000000,-80.000000,-25.000000,-5.000000,2.000000,-5.000000,-17.000000
1303113.383402,2.000000,-7.000000,-3.000000,-21.000000,-13.000000,-9.000000,10.000000,2.000000
1303113.383413,-5.000000,1.000000,6.000000,-17.000000,-9.000000,-8.000000,-11.000000,-9.000000
1303113.385116,-17.000000,-1.000000,-39.000000,10.000000,4.000000,-6.000000,10.000000,0.000000
1303113.385130,4.000000,-7.000000,36.000000,2.000000,5.000000,-3.000000,-8.000000,1.000000
1303113.389306,5.000000,-1.000000,-11.000000,-4.000000,0.000000,2.000000,-4.000000,-1.000000
1303113.389316,1.000000,-7.000000,-9.000000,-5.000000,-1.000000,-11.000000,-1.000000,-5.000000
1303113.404728,3.000000,-5.000000,-10.000000,-10.000000,-2.000000,-1.000000,-7.000000,-11.000000
1303113.404737,-5.000000,1.000000,-2.000000,-5.000000,0.000000,3.000000,-9.000000,-4.000000
1303113.411456,8.000000,-4.000000,-24.000000,-13.000000,-22.000000,-10.000000,-1.000000,-1.000000
1303113.411465,0.000000,-3.000000,28.000000,3.000000,4.000000,-6.000000,-2.000000,-2.000000
1303113.419980,-6.000000,-4.000000,-6.000000,9.000000,11.000000,5.000000,1.000000,3.000000
1303113.420017,-14.000000,-1.000000,-53.000000,-25.000000,0.000000,0.000000,-5.000000,-8.000000
1303113.426899,2.000000,1.000000,46.000000,21.000000,-5.000000,-5.000000,6.000000,3.000000
1303113.426913,8.000000,0.000000,26.000000,3.000000,5.000000,7.000000,-9.000000,-5.000000
1303113.456635,-17.000000,6.000000,-13.000000,-3.000000,-8.000000,0.000000,1.000000,0.000000
1303113.456645,11.000000,0.000000,0.000000,-13.000000,0.000000,-7.000000,4.000000,2.000000
1303113.486823,10.000000,-1.000000,-1.000000,25.000000,0.000000,1.000000,2.000000,2.000000
1303113.486834,-12.000000,3.000000,39.000000,4.000000,-4.000000,5.000000,1.000000,3.000000
1303113.501823,6.000000,3.000000,3.000000,2.000000,-7.000000,-2.000000,6.000000,3.000000
1303113.501835,13.000000,-7.000000,5.000000,12.000000,14.000000,-3.000000,-6.000000,-11.000000
1303113.524379,-30.000000,-4.000000,-5.000000,-7.000000,-5.000000,2.000000,3.000000,-1.000000
1303113.524489,1.000000,-8.000000,-6.000000,10.000000,-4.000000,0.000000,8.000000,5.000000
1303113.525230,3.000000,2.000000,5.000000,-9.000000,-2.000000,1.000000,2.000000,-4.000000
1303113.525241,-6.000000,-2.000000,12.000000,0.000000,10.000000,-1.000000,-6.000000,-4.000000
1303113.525760,1.000000,-2.000000,41.000000,-8.000000,-6.000000,-1.000000,5.000000,7.000000
1303113.525768,4.000000,-5.000000,13.000000,32.000000,2.000000,-13.000000,-1.000000,-1.000000
1303113.526303,-21.000000,1.000000,24.000000,5.000000,-2.000000,4.000000,-17.000000,-13.000000
1303113.526312,-4.000000,4.000000,-1.000000,-28.000000,-10.000000,-3.000000,0.000000,0.000000
1303113.526932,20.000000,0.000000,-13.000000,37.000000,14.000000,-1.000000,15.000000,11.000000
1303113.526947,20.000000,-1.000000,41.000000,13.000000,-1.000000,-4.000000,-9.000000,3.000000
1303113.539254,-1.000000,-12.000000,-3.000000,7.000000,5.000000,2.000000,0.000000,-4.000000
1303113.539265,-22.000000,-1.000000,35.000000,-3.000000,1.000000,1.000000,-1.000000,5.000000
1303113.540326,4.000000,-2.000000,-34.000000,-23.000000,-11.000000,-4.000000,-7.000000,-7.000000
1303113.540334,22.000000,-3.000000,23.000000,15.000000,-2.000000,0.000000,9.000000,1.000000
1303113.546940,3.000000,5.000000,-24.000000,-15.000000,-1.000000,1.000000,2.000000,2.000000
1303113.546953,2.000000,3.000000,13.000000,21.000000,-5.000000,8.000000,-1.000000,2.000000
1303113.569047,3.000000,0.000000,-13.000000,-9.000000,-7.000000,-4.000000,4.000000,-1.000000
1303113.569057,0.000000,6.000000,7.000000,-10.000000,5.000000,-4.000000,-12.000000,-6.000000
1303113.584451,-8.000000,-3.000000,13.000000,11.000000,0.000000,-1.000000,-12.000000,-11.000000
1303113.584464,5.000000,2.000000,-21.000000,-40.000000,-19.000000,-5.000000,3.000000,7.000000
1303113.636822,-12.000000,-4.000000,9.000000,15.000000,8.000000,-6.000000,4.000000,-2.000000
1303113.636837,-10.000000,-5.000000,13.000000,-14.000000,-3.000000,-2.000000,-20.000000,-9.000000
1303113.637266,10.000000,-2.000000,-10.000000,4.000000,-1.000000,-6.000000,5.000000,-2.000000
1303113.637276,7.000000,-6.000000,-9.000000,-8.000000,-5.000000,-13.000000,5.000000,-4.000000
1303113.638273,-9.000000,1.000000,0.000000,14.000000,11.000000,8.000000,-7.000000,1.000000
1303113.638282,-3.000000,-2.000000,9.000000,-2.000000,-2.000000,4.000000,14.000000,-1.000000
1303113.638914,6.000000,-2.000000,-31.000000,-14.000000,0.000000,-5.000000,-5.000000,-3.000000
1303113.638923,-7.000000,0.000000,-18.000000,-11.000000,3.000000,-6.000000,-6.000000,-8.000000
1303113.640933,11.000000,-3.000000,-8.000000,4.000000,5.000000,-19.000000,-2.000000,3.000000
1303113.640946,4.000000,-7.000000,-4.000000,2.000000,10.000000,9.000000,-4.000000,-7.000000
1303113.651752,-10.000000,-3.000000,12.000000,2.000000,0.000000,-6.000000,-18.000000,-8.000000
1303113.651769,-4.000000,-2.000000,-11.000000,1.000000,-4.000000,-4.000000,-8.000000,-13.000000
1303113.659740,7.000000,-4.000000,10.000000,1.000000,-4.000000,-5.000000,4.000000,3.000000
1303113.659752,-12.000000,-3.000000,-5.000000,-15.000000,-5.000000,-6.000000,0.000000,-2.000000
1303113.696617,-5.000000,-7.000000,6.000000,-18.000000,-6.000000,6.000000,2.000000,-1.000000
1303113.696628,6.000000,-1.000000,-3.000000,-6.000000,-9.000000,-1.000000,13.000000,17.000000
1303113.719275,-9.000000,1.000000,-7.000000,6.000000,-2.000000,-1.000000,-12.000000,-13.000000
1303113.719373,-16.000000,-6.000000,-21.000000,-31.000000,1.000000,-2.000000,-15.000000,-10.000000
1303113.742073,8.000000,-1.000000,1.000000,-11.000000,-7.000000,-3.000000,5.000000,4.000000
1303113.742086,-20.000000,-11.000000,-27.000000,23.000000,1.000000,-4.000000,-4.000000,-6.000000
1303113.743049,9.000000,-4.000000,17.000000,-14.000000,-2.000000,6.000000,-3.000000,-2.000000
1303113.743058,-1.000000,1.000000,-1.000000,4.000000,2.000000,2.000000,-2.000000,-2.000000
1303113.743469,-9.000000,-3.000000,-19.000000,-2.000000,3.000000,-5.000000,3.000000,-4.000000
1303113.743520,3.000000,0.000000,53.000000,34.000000,-2.000000,11.000000,3.000000,2.000000
1303113.744595,6.000000,3.000000,-7.000000,-5.000000,-1.000000,6.000000,2.000000,6.000000
1303113.744622,-2.000000,0.000000,2.000000,7.000000,-7.000000,-10.000000,-4.000000,-9.000000
1303113.756581,18.000000,1.000000,2.000000,17.000000,10.000000,6.000000,5.000000,5.000000
1303113.756592,-8.000000,1.000000,1.000000,-12.000000,-8.000000,2.000000,14.000000,2.000000
1303113.757827,12.000000,-2.000000,3.000000,23.000000,13.000000,-3.000000,-5.000000,3.000000
1303113.757836,-13.000000,-5.000000,6.000000,-31.000000,-5.000000,-6.000000,0.000000,-4.000000
1303113.771728,-1.000000,-6.000000,23.000000,8.000000,-5.000000,2.000000,-5.000000,-3.000000
1303113.771739,-4.000000,3.000000,0.000000,-3.000000,-8.000000,-6.000000,3.000000,0.000000
1303113.801582,1.000000,-5.000000,16.000000,2.000000,0.000000,6.000000,-3.000000,-5.000000
1303113.801602,-1.000000,-8.000000,-10.000000,19.000000,8.000000,4.000000,-5.000000,-6.000000
1303113.809129,-15.000000,9.000000,-44.000000,-23.000000,-7.000000,-14.000000,1.000000,3.000000
1303113.809140,21.000000,-4.000000,31.000000,20.000000,1.000000,-1.000000,12.000000,13.000000
1303113.824447,-3.000000,-4.000000,-10.000000,3.000000,-1.000000,8.000000,-5.000000,-1.000000
1303113.824460,-5.000000,-3.000000,15.000000,4.000000,1.000000,2.000000,-5.000000,-13.000000
1303113.839152,6.000000,-7.000000,-71.000000,-14.000000,-6.000000,-8.000000,-3.000000,-6.000000
1303113.839165,-2.000000,1.000000,-15.000000,-3.000000,3.000000,3.000000,5.000000,3.000000
1303113.862171,-6.000000,3.000000,0.000000,9.000000,15.000000,3.000000,-12.000000,-7.000000
1303113.862181,-19.000000,-1.000000,-2.000000,-5.000000,-8.000000,-3.000000,7.000000,4.000000
1303113.862859,-2.000000,2.000000,-15.000000,0.000000,-4.000000,-7.000000,-10.000000,-4.000000
1303113.862866,10.000000,-3.000000,9.000000,-12.000000,3.000000,4.000000,6.000000,5.000000
1303113.863981,-10.000000,3.000000,43.000000,-19.000000,-2.000000,-4.000000,-9.000000,-9.000000
1303113.863989,13.000000,3.000000,-117.000000,13.000000,2.000000,-5.000000,-4.000000,-6.000000
1303113.864571,-13.000000,-6.000000,21.000000,-16.000000,1.000000,1.000000,-1.000000,3.000000
1303113.864579,6.000000,3.000000,8.000000,7.000000,5.000000,8.000000,2.000000,2.000000
1303113.884479,-9.000000,-1.000000,-69.000000,-7.000000,0.000000,4.000000,-13.000000,-8.000000
1303113.884491,8.000000,2.000000,14.000000,13.000000,2.000000,-7.000000,7.000000,4.000000
1303113.899556,-2.000000,-5.000000,21.000000,8.000000,3.000000,-5.000000,-4.000000,-5.000000
1303113.899566,-17.000000,7.000000,5.000000,-12.000000,2.000000,7.000000,-1.000000,-5.000000
1303113.900334,7.000000,0.000000,-15.000000,-3.000000,-5.000000,-10.000000,-24.000000,-11.000000
1303113.900345,-19.000000,6.000000,-11.000000,-3.000000,6.000000,2.000000,13.000000,-1.000000
1303113.921673,3.000000,6.000000,10.000000,9.000000,7.000000,-3.000000,5.000000,17.000000
1303113.921683,5.000000,-4.000000,-16.000000,-1.000000,-1.000000,4.000000,-2.000000,-3.000000
1303113.936938,2.000000,6.000000,-18.000000,-6.000000,-10.000000,-7.000000,0.000000,9.000000
1303113.936949,-4.000000,1.000000,17.000000,5.000000,4.000000,1.000000,9.000000,-5.000000
1303113.974341,-1.000000,1.000000,-40.000000,-14.000000,-5.000000,10.000000,-5.000000,-3.000000
1303113.974352,6.000000,2.000000,8.000000,-1.000000,-1.000000,-4.000000,-3.000000,-1.000000
1303113.982060,-19.000000,-6.000000,-11.000000,2.000000,-2.000000,0.000000,-4.000000,-3.000000
1303113.982093,0.000000,-12.000000,31.000000,34.000000,2.000000,3.000000,-9.000000,-4.000000
1303114.011912,1.000000,0.000000,3.000000,-15.000000,-10.000000,-3.000000,10.000000,0.000000
1303114.011955,1.000000,-5.000000,24.000000,15.000000,6.000000,-6.000000,3.000000,6.000000
1303114.019323,-6.000000,-7.000000,25.000000,29.000000,15.000000,6.000000,-4.000000,-10.000000
1303114.019334,-19.000000,-1.000000,-34.000000,-21.000000,-15.000000,-10.000000,-7.000000,1.000000
1303114.049103,20.000000,-1.000000,36.000000,2.000000,-1.000000,-3.000000,-1.000000,-8.000000
1303114.049151,4.000000,-8.000000,-13.000000,31.000000,8.000000,-6.000000,6.000000,11.000000
1303114.049481,-2.000000,5.000000,-32.000000,-14.000000,3.000000,4.000000,-4.000000,5.000000
1303114.049507,-13.000000,5.000000,14.000000,-7.000000,-20.000000,-5.000000,-12.000000,-12.000000
1303114.050092,4.000000,2.000000,6.000000,6.000000,-15.000000,-1.000000,12.000000,-2.000000
1303114.050119,-8.000000,-3.000000,-38.000000,-14.000000,9.000000,6.000000,6.000000,0.000000
1303114.056394,-8.000000,-3.000000,7.000000,-16.000000,-3.000000,-8.000000,-5.000000,-3.000000
1303114.056424,-1.000000,5.000000,24.000000,-1.000000,4.000000,-1.000000,-9.000000,-6.000000
1303114.057509,18.000000,0.000000,11.000000,2.000000,15.000000,3.000000,3.000000,9.000000
1303114.057536,-4.000000,7.000000,-19.000000,-23.000000,-9.000000,-3.000000,2.000000,6.000000
1303114.058439,9.000000,-5.000000,-5.000000,8.000000,1.000000,-5.000000,-4.000000,-4.000000
1303114.058466,-18.000000,-10.000000,4.000000,-6.000000,3.000000,2.000000,-10.000000,-5.000000
1303114.071715,4.000000,5.000000,-23.000000,10.000000,2.000000,5.000000,-7.000000,-5.000000
1303114.071726,7.000000,-4.000000,-14.000000,8.000000,-1.000000,-4.000000,5.000000,-3.000000
1303114.079779,-13.000000,-9.000000,9.000000,6.000000,-2.000000,-1.000000,-1.000000,-1.000000
1303114.079788,-11.000000,0.000000,15.000000,-3.000000,4.000000,5.000000,-8.000000,-6.000000
1303114.086526,2.000000,3.000000,-6.000000,33.000000,7.000000,2.000000,-2.000000,-7.000000
1303114.086537,-10.000000,2.000000,-28.000000,-31.000000,-4.000000,-10.000000,0.000000,8.000000
1303114.101600,14.000000,1.000000,37.000000,43.000000,18.000000,13.000000,14.000000,7.000000
1303114.101630,-6.000000,4.000000,18.000000,6.000000,-17.000000,-2.000000,1.000000,4.000000
1303114.116914,9.000000,2.000000,-1.000000,1.000000,-5.000000,2.000000,11.000000,4.000000
1303114.116946,-16.000000,-3.000000,8.000000,7.000000,4.000000,3.000000,-11.000000,-10.000000
1303114.118004,13.000000,6.000000,13.000000,16.000000,10.000000,4.000000,-6.000000,-1.000000
1303114.118014,-17.000000,2.000000,6.000000,-2.000000,-2.000000,-2.000000,15.000000,7.000000
1303114.131709,15.000000,-7.000000,22.000000,24.000000,6.000000,1.000000,16.000000,9.000000
1303114.131719,-8.000000,-2.000000,-21.000000,-12.000000,0.000000,-1.000000,-18.000000,-14.000000
1303114.139887,0.000000,3.000000,-2.000000,31.000000,-3.000000,-6.000000,5.000000,3.000000
1303114.139922,-8.000000,1.000000,-44.000000,-45.000000,-14.000000,-10.000000,-4.000000,1.000000
1303114.161689,-11.000000,-2.000000,19.000000,-3.000000,-2.000000,4.000000,-12.000000,-10.000000
1303114.161718,12.000000,5.000000,-17.000000,6.000000,0.000000,4.000000,9.000000,14.000000
1303114.191604,3.000000,-3.000000,-52.000000,-39.000000,-12.000000,-12.000000,-1.000000,-6.000000
1303114.191616,-7.000000,0.000000,22.000000,23.000000,10.000000,6.000000,-4.000000,1.000000
1303114.199413,1.000000,2.000000,-10.000000,-4.000000,8.000000,9.000000,4.000000,0.000000
1303114.199425,5.000000,-8.000000,15.000000,-10.000000,-6.000000,-10.000000,0.000000,-1.000000
1303114.214309,-25.000000,5.000000,9.000000,-18.000000,-7.000000,-4.000000,3.000000,-12.000000
1303114.214322,-7.000000,-5.000000,60.000000,21.000000,5.000000,2.000000,-10.000000,6.000000
1303114.236884,1.000000,3.000000,-63.000000,-10.000000,-8.000000,4.000000,-12.000000,-2.000000
1303114.236899,1.000000,-1.000000,25.000000,28.000000,-3.000000,-2.000000,22.000000,4.000000
1303114.237768,1.000000,-1.000000,14.000000,0.000000,3.000000,6.000000,9.000000,11.000000
1303114.237791,-5.000000,1.000000,-14.000000,10.000000,8.000000,1.000000,-15.000000,-9.000000
1303114.238378,-3.000000,5.000000,12.000000,-31.000000,-22.000000,-9.000000,-1.000000,-6.000000
1303114.238386,-6.000000,-10.000000,-27.000000,9.000000,15.000000,1.000000,-6.000000,-3.000000
1303114.239610,-2.000000,1.000000,13.000000,-3.000000,-18.000000,-6.000000,-7.000000,-4.000000
1303114.239619,9.000000,-3.000000,-23.000000,-6.000000,3.000000,-10.000000,-1.000000,1.000000
1303114.240413,-7.000000,-1.000000,20.000000,-1.000000,2.000000,0.000000,-3.000000,-4.000000
1303114.240429,-8.000000,3.000000,-12.000000,15.000000,-2.000000,12.000000,-3.000000,-7.000000
1303114.244143,-15.000000,-5.000000,-19.000000,0.000000,0.000000,7.000000,23.000000,16.000000
1303114.244170,28.000000,-6.000000,11.000000,-9.000000,3.000000,-2.000000,-3.000000,7.000000
1303114.251732,-29.000000,-9.000000,9.000000,9.000000,3.000000,4.000000,0.000000,-3.000000
1303114.251748,-22.000000,4.000000,-18.000000,-9.000000,-14.000000,-8.000000,-6.000000,-12.000000
1303114.259461,13.000000,-9.000000,8.000000,1.000000,-4.000000,-9.000000,-8.000000,-6.000000
1303114.259477,-9.000000,-4.000000,-22.000000,0.000000,0.000000,4.000000,-1.000000,2.000000
1303114.296957,-1.000000,3.000000,-19.000000,16.000000,1.000000,7.000000,7.000000,0.000000
1303114.296970,5.000000,8.000000,3.000000,-21.000000,-10.000000,-10.000000,-1.000000,-1.000000
1303114.319188,7.000000,-8.000000,-15.000000,-12.000000,-7.000000,-6.000000,7.000000,7.000000
1303114.319217,5.000000,-5.000000,9.000000,-4.000000,-5.000000,-1.000000,-4.000000,6.000000
1303114.326498,3.000000,4.000000,-17.000000,-2.000000,-6.000000,-4.000000,9.000000,4.000000
1303114.326511,-1.000000,-6.000000,13.000000,5.000000,-5.000000,-8.000000,2.000000,-4.000000
1303114.334496,-7.000000,-3.000000,18.000000,10.000000,9.000000,4.000000,-8.000000,-1.000000
1303114.334523,-3.000000,1.000000,0.000000,-7.000000,-6.000000,-5.000000,1.000000,-1.000000
1303114.335082,23.000000,-6.000000,-2.000000,-3.000000,-5.000000,0.000000,14.000000,15.000000
1303114.335110,-17.000000,2.000000,10.000000,-11.000000,-3.000000,8.000000,-4.000000,0.000000
1303114.336513,-10.000000,-1.000000,12.000000,15.000000,-2.000000,6.000000,-14.000000,-10.000000
1303114.336540,3.000000,0.000000,-2.000000,-13.000000,0.000000,16.000000,14.000000,6.000000
1303114.349057,2.000000,1.000000,-30.000000,-15.000000,-8.000000,-8.000000,23.000000,22.000000
1303114.349068,-6.000000,5.000000,19.000000,0.000000,0.000000,-2.000000,-19.000000,-15.000000
1303114.357266,-23.000000,4.000000,39.000000,5.000000,-1.000000,3.000000,-4.000000,-17.000000
1303114.357276,11.000000,2.000000,-83.000000,-4.000000,-6.000000,1.000000,2.000000,4.000000
1303114.364077,-5.000000,5.000000,42.000000,15.000000,-8.000000,-2.000000,15.000000,-3.000000
1303114.364086,-1.000000,-1.000000,38.000000,5.000000,12.000000,-3.000000,13.000000,14.000000
1303114.371472,21.000000,3.000000,7.000000,14.000000,-1.000000,4.000000,-1.000000,1.000000
1303114.371483,-5.000000,1.000000,-18.000000,-9.000000,-6.000000,-9.000000,-6.000000,-7.000000
1303114.378975,5.000000,-8.000000,37.000000,37.000000,23.000000,4.000000,7.000000,8.000000
1303114.378994,-7.000000,-1.000000,-1.000000,27.000000,9.000000,4.000000,-9.000000,-5.000000
1303114.394446,-1.000000,5.000000,1.000000,-8.000000,-2.000000,2.000000,-4.000000,-7.000000
1303114.394459,-10.000000,-3.000000,1.000000,-13.000000,-7.000000,-6.000000,-8.000000,-6.000000
1303114.409234,11.000000,0.000000,27.000000,8.000000,8.000000,8.000000,-2.000000,5.000000
1303114.409249,-10.000000,2.000000,-7.000000,24.000000,0.000000,1.000000,1.000000,-4.000000
1303114.416596,17.000000,-3.000000,-17.000000,-5.000000,-6.000000,-3.000000,5.000000,3.000000
1303114.416612,-15.000000,-4.000000,12.000000,2.000000,2.000000,2.000000,-9.000000,-5.000000
1303114.454034,1.000000,1.000000,24.000000,-24.000000,-9.000000,-3.000000,6.000000,-4.000000
1303114.454082,6.000000,-2.000000,0.000000,33.000000,4.000000,0.000000,27.000000,7.000000
1303114.454387,-8.000000,8.000000,26.000000,1.000000,-4.000000,1.000000,-10.000000,2.000000
1303114.454396,9.000000,1.000000,-21.000000,-7.000000,-4.000000,8.000000,-3.000000,0.000000
1303114.455868,-4.000000,6.000000,3.000000,-7.000000,-2.000000,-10.000000,5.000000,-6.000000
1303114.455882,5.000000,-5.000000,2.000000,1.000000,-2.000000,-4.000000,-4.000000,3.000000
1303114.456398,-3.000000,-1.000000,24.000000,-5.000000,0.000000,-6.000000,-8.000000,1.000000
1303114.456407,4.000000,3.000000,30.000000,11.000000,-9.000000,-6.000000,-1.000000,3.000000
1303114.469087,-14.000000,-4.000000,-40.000000,-1.000000,2.000000,-2.000000,-1.000000,-9.000000
1303114.469098,-10.000000,0.000000,-10.000000,10.000000,13.000000,2.000000,-2.000000,5.000000
1303114.469528,0.000000,-3.000000,-17.000000,-18.000000,-10.000000,1.000000,-1.000000,-3.000000
1303114.469548,10.000000,-2.000000,-1.000000,18.000000,4.000000,-7.000000,16.000000,4.000000
1303114.484740,3.000000,-9.000000,-22.000000,-20.000000,-2.000000,-3.000000,5.000000,14.000000
1303114.484751,-10.000000,3.000000,-65.000000,-2.000000,-7.000000,5.000000,-12.000000,-8.000000
1303114.492286,-1.000000,3.000000,-18.000000,0.000000,-4.000000,-4.000000,-2.000000,-6.000000
1303114.492296,0.000000,-4.000000,18.000000,-1.000000,7.000000,-2.000000,-11.000000,-12.000000
1303114.514143,5.000000,-1.000000,7.000000,-3.000000,2.000000,6.000000,3.000000,7.000000
1303114.514153,12.000000,-3.000000,-17.000000,-1.000000,2.000000,6.000000,-2.000000,5.000000
1303114.537111,3.000000,2.000000,-13.000000,-4.000000,4.000000,-4.000000,2.000000,-6.000000
1303114.537127,-3.000000,-8.000000,17.000000,-4.000000,-1.000000,0.000000,2.000000,6.000000
1303114.552754,10.000000,-1.000000,9.000000,-14.000000,-2.000000,0.000000,-4.000000,5.000000
1303114.552803,15.000000,-4.000000,-24.000000,38.000000,9.000000,7.000000,10.000000,-3.000000
1303114.575032,-19.000000,-1.000000,20.000000,4.000000,4.000000,2.000000,5.000000,1.000000
1303114.575076,3.000000,-1.000000,17.000000,9.000000,3.000000,7.000000,1.000000,7.000000
1303114.589669,1.000000,3.000000,-13.000000,-9.000000,-4.000000,-5.000000,-2.000000,-3.000000
1303114.589696,22.000000,-7.000000,14.000000,3.000000,-2.000000,0.000000,-1.000000,-6.000000
1303114.611839,2.000000,6.000000,27.000000,-16.000000,5.000000,7.000000,5.000000,2.000000
1303114.611854,-10.000000,-3.000000,-3.000000,12.000000,-6.000000,-4.000000,2.000000,3.000000
1303114.612305,34.000000,-2.000000,-24.000000,2.000000,3.000000,1.000000,7.000000,0.000000
1303114.612319,-31.000000,0.000000,4.000000,5.000000,10.000000,2.000000,-9.000000,4.000000
1303114.613737,10.000000,6.000000,15.000000,8.000000,-4.000000,-2.000000,-1.000000,-6.000000
1303114.613751,6.000000,2.000000,-78.000000,-32.000000,-4.000000,-1.000000,3.000000,2.000000
1303114.634689,-17.000000,0.000000,-62.000000,-62.000000,-10.000000,1.000000,-22.000000,-15.000000
1303114.634717,-5.000000,0.000000,45.000000,2.000000,-17.000000,-8.000000,-1.000000,-3.000000
1303114.656848,1.000000,4.000000,-48.000000,-26.000000,-12.000000,2.000000,-3.000000,6.000000
1303114.656877,-4.000000,6.000000,13.000000,9.000000,-3.000000,1.000000,-2.000000,-7.000000
1303114.694029,1.000000,-1.000000,23.000000,7.000000,2.000000,3.000000,-15.000000,4.000000
1303114.694040,7.000000,-1.000000,3.000000,-7.000000,-4.000000,0.000000,8.000000,10.000000
1303114.694407,11.000000,3.000000,-21.000000,-2.000000,1.000000,-4.000000,4.000000,1.000000
1303114.694416,-4.000000,0.000000,18.000000,19.000000,6.000000,0.000000,-6.000000,-10.000000
1303114.695766,9.000000,1.000000,-14.000000,3.000000,-4.000000,2.000000,6.000000,23.000000
1303114.695804,-31.000000,0.000000,-9.000000,8.000000,-6.000000,1.000000,-14.000000,-6.000000
1303114.696397,24.000000,-4.000000,36.000000,15.000000,6.000000,3.000000,12.000000,-4.000000
1303114.696417,-3.000000,-5.000000,-19.000000,3.000000,2.000000,6.000000,-4.000000,7.000000
1303114.716983,5.000000,-5.000000,0.000000,3.000000,17.000000,6.000000,4.000000,3.000000
1303114.717009,13.000000,2.000000,14.000000,-16.000000,-4.000000,-3.000000,0.000000,5.000000
1303114.718042,2.000000,0.000000,6.000000,-16.000000,-5.000000,-3.000000,-8.000000,-9.000000
1303114.718050,-7.000000,-5.000000,8.000000,3.000000,4.000000,0.000000,-8.000000,-2.000000
1303114.731527,16.000000,0.000000,3.000000,13.000000,9.000000,9.000000,0.000000,2.000000
1303114.731570,-8.000000,-4.000000,25.000000,15.000000,-4.000000,-5.000000,-4.000000,-1.000000
1303114.732978,14.000000,-1.000000,27.000000,1.000000,0.000000,5.000000,18.000000,14.000000
1303114.732996,-7.000000,0.000000,-10.000000,-25.000000,-11.000000,-6.000000,-21.000000,-9.000000
1303114.746576,11.000000,4.000000,2.000000,18.000000,1.000000,6.000000,6.000000,11.000000
1303114.746591,10.000000,-1.000000,-35.000000,-12.000000,-1.000000,-1.000000,-9.000000,-4.000000
1303114.761948,-8.000000,2.000000,39.000000,-4.000000,-5.000000,4.000000,-5.000000,-4.000000
1303114.761961,3.000000,3.000000,23.000000,29.000000,-1.000000,-2.000000,-1.000000,-5.000000
1303114.769417,-11.000000,-10.000000,-2.000000,-32.000000,-15.000000,-7.000000,1.000000,-2.000000
1303114.769429,-10.000000,-5.000000,23.000000,5.000000,13.000000,8.000000,-7.000000,-1.000000
1303114.806793,-8.000000,9.000000,-25.000000,-5.000000,-5.000000,-3.000000,-1.000000,-1.000000
1303114.806804,5.000000,-11.000000,-1.000000,0.000000,2.000000,-5.000000,10.000000,4.000000
1303114.807241,-4.000000,1.000000,40.000000,16.000000,3.000000,3.000000,-4.000000,-3.000000
1303114.807249,-7.000000,-1.000000,-55.000000,-15.000000,-2.000000,-4.000000,-28.000000,4.000000
1303114.808212,13.000000,-5.000000,-46.000000,4.000000,-2.000000,5.000000,12.000000,3.000000
1303114.808220,-24.000000,-3.000000,26.000000,6.000000,1.000000,6.000000,3.000000,-13.000000
1303114.809191,-8.000000,2.000000,36.000000,-9.000000,4.000000,3.000000,-1.000000,7.000000
1303114.809200,-2.000000,-3.000000,-29.000000,2.000000,-6.000000,-6.000000,-12.000000,-5.000000
1303114.814823,6.000000,-6.000000,6.000000,-6.000000,-3.000000,-9.000000,11.000000,8.000000
1303114.814832,-7.000000,-12.000000,-2.000000,-3.000000,4.000000,0.000000,-15.000000,-4.000000
1303114.829392,-11.000000,-8.000000,-16.000000,2.000000,9.000000,4.000000,7.000000,-11.000000
1303114.829422,0.000000,-6.000000,-5.000000,8.000000,4.000000,1.000000,7.000000,11.000000
1303114.852119,8.000000,-3.000000,30.000000,11.000000,6.000000,3.000000,-9.000000,6.000000
1303114.852128,-13.000000,0.000000,-45.000000,-14.000000,-8.000000,-2.000000,-17.000000,-16.000000
1303114.852630,-3.000000,-1.000000,-1.000000,0.000000,-17.000000,-9.000000,12.000000,-4.000000
1303114.852637,-3.000000,-5.000000,6.000000,5.000000,9.000000,4.000000,-7.000000,1.000000
1303114.866834,-12.000000,2.000000,5.000000,-5.000000,-9.000000,1.000000,-5.000000,0.000000
1303114.866844,14.000000,0.000000,24.000000,7.000000,-8.000000,3.000000,13.000000,0.000000
1303114.874237,-27.000000,-7.000000,-35.000000,-24.000000,-5.000000,-7.000000,-9.000000,-7.000000
1303114.874248,7.000000,0.000000,10.000000,8.000000,11.000000,7.000000,-2.000000,-2.000000
1303114.889134,5.000000,5.000000,12.000000,-25.000000,-11.000000,-8.000000,-4.000000,4.000000
1303114.889155,-3.000000,-3.000000,0.000000,0.000000,-9.000000,-6.000000,5.000000,-1.000000
1303114.911716,-6.000000,-5.000000,-16.000000,16.000000,13.000000,8.000000,8.000000,5.000000
1303114.911727,1.000000,6.000000,7.000000,-6.000000,-5.000000,1.000000,-2.000000,0.000000
1303114.912788,24.000000,1.000000,-5.000000,3.000000,-5.000000,-5.000000,6.000000,10.000000
1303114.912798,-21.000000,-6.000000,-21.000000,-5.000000,3.000000,-4.000000,-20.000000,-23.000000
1303114.913575,0.000000,-3.000000,14.000000,-21.000000,-8.000000,-5.000000,-16.000000,-6.000000
1303114.913588,-9.000000,-5.000000,0.000000,7.000000,2.000000,-2.000000,4.000000,0.000000
1303114.915048,1.000000,-7.000000,6.000000,-3.000000,-7.000000,-1.000000,4.000000,6.000000
1303114.915067,-6.000000,-7.000000,5.000000,-7.000000,-2.000000,-2.000000,-10.000000,-5.000000
1303114.919055,-6.000000,-4.000000,-13.000000,-11.000000,-8.000000,-5.000000,-4.000000,-6.000000
1303114.919065,12.000000,3.000000,3.000000,16.000000,0.000000,-10.000000,8.000000,12.000000
1303114.949882,-14.000000,-7.000000,17.000000,-8.000000,2.000000,1.000000,-3.000000,2.000000
1303114.949914,6.000000,-3.000000,11.000000,-3.000000,-4.000000,0.000000,-11.000000,-3.000000
1303114.950396,9.000000,-2.000000,-17.000000,-32.000000,-12.000000,1.000000,12.000000,1.000000
1303114.950405,0.000000,-7.000000,-9.000000,34.000000,20.000000,2.000000,4.000000,2.000000
1303114.956645,-10.000000,8.000000,42.000000,-14.000000,-4.000000,0.000000,-13.000000,-1.000000
1303114.956655,0.000000,-3.000000,-27.000000,-6.000000,0.000000,-3.000000,-5.000000,-14.000000
1303114.964129,8.000000,-2.000000,21.000000,8.000000,-5.000000,-3.000000,14.000000,16.000000
1303114.964141,-3.000000,-8.000000,11.000000,8.000000,17.000000,11.000000,-6.000000,-2.000000
1303114.994268,4.000000,9.000000,-8.000000,-1.000000,-9.000000,-1.000000,4.000000,3.000000
1303114.994282,5.000000,-10.000000,18.000000,3.000000,-4.000000,-8.000000,-6.000000,-2.000000
1303115.009319,-2.000000,4.000000,-11.000000,1.000000,13.000000,6.000000,-3.000000,-1.000000
1303115.009335,-11.000000,-9.000000,12.000000,9.000000,-7.000000,-9.000000,-6.000000,-10.000000
1303115.031940,9.000000,-7.000000,12.000000,-9.000000,2.000000,-14.000000,4.000000,4.000000
1303115.031953,-13.000000,-2.000000,1.000000,11.000000,2.000000,4.000000,0.000000,-2.000000
1303115.039285,-2.000000,6.000000,14.000000,12.000000,1.000000,6.000000,6.000000,-3.000000
1303115.039297,8.000000,-10.000000,-9.000000,-17.000000,-8.000000,-1.000000,10.000000,3.000000
1303115.047502,0.000000,2.000000,9.000000,26.000000,9.000000,0.000000,-3.000000,4.000000
1303115.047513,5.000000,-4.000000,18.000000,1.000000,2.000000,-2.000000,-2.000000,0.000000
1303115.047845,-8.000000,0.000000,-16.000000,4.000000,-11.000000,0.000000,-7.000000,-19.000000
1303115.047855,2.000000,-3.000000,34.000000,22.000000,9.000000,-5.000000,8.000000,17.000000
1303115.049231,-4.000000,3.000000,12.000000,-18.000000,-15.000000,-5.000000,-9.000000,-4.000000
1303115.049242,-5.000000,2.000000,19.000000,-2.000000,-1.000000,3.000000,23.000000,0.000000
1303115.069514,-7.000000,2.000000,-16.000000,-6.000000,0.000000,-3.000000,-7.000000,4.000000
1303115.069534,12.000000,2.000000,10.000000,-13.000000,-11.000000,-3.000000,-5.000000,-5.000000
1303115.070058,5.000000,-1.000000,10.000000,13.000000,5.000000,-1.000000,2.000000,6.000000
1303115.070066,-17.000000,-4.000000,16.000000,-22.000000,4.000000,-6.000000,-11.000000,-2.000000
1303115.071647,-16.000000,2.000000,-27.000000,-20.000000,-4.000000,3.000000,1.000000,1.000000
1303115.071656,19.000000,-1.000000,40.000000,19.000000,-1.000000,3.000000,7.000000,8.000000
1303115.084230,-6.000000,3.000000,7.000000,1.000000,11.000000,1.000000,-1.000000,3.000000
1303115.084242,0.000000,4.000000,-11.000000,-11.000000,-8.000000,3.000000,3.000000,-5.000000
1303115.106571,-6.000000,-10.000000,-11.000000,-3.000000,-7.000000,-7.000000,0.000000,3.000000
1303115.106581,-10.000000,-3.000000,-14.000000,-14.000000,2.000000,2.000000,-15.000000,-23.000000
1303115.121567,2.000000,2.000000,40.000000,39.000000,15.000000,10.000000,9.000000,23.000000
1303115.121577,12.000000,3.000000,13.000000,-2.000000,-4.000000,2.000000,7.000000,0.000000
1303115.144223,-10.000000,2.000000,-27.000000,-15.000000,-2.000000,-5.000000,-16.000000,-9.000000
1303115.144252,-11.000000,7.000000,21.000000,18.000000,7.000000,-3.000000,-10.000000,-12.000000
1303115.151968,3.000000,-3.000000,-1.000000,3.000000,-7.000000,3.000000,10.000000,19.000000
1303115.151982,7.000000,-5.000000,23.000000,15.000000,-6.000000,-2.000000,-5.000000,-1.000000
1303115.166524,2.000000,3.000000,-37.000000,-19.000000,5.000000,2.000000,-13.000000,-12.000000
1303115.166539,3.000000,-2.000000,-12.000000,-8.000000,-4.000000,-2.000000,-3.000000,0.000000
1303115.166928,-14.000000,7.000000,-6.000000,-15.000000,-3.000000,-5.000000,11.000000,-5.000000
1303115.166936,8.000000,-8.000000,3.000000,11.000000,10.000000,10.000000,0.000000,5.000000
1303115.168266,-8.000000,-1.000000,10.000000,-9.000000,-12.000000,-1.000000,-8.000000,-10.000000
1303115.168274,3.000000,-1.000000,-115.000000,-6.000000,1.000000,4.000000,4.000000,3.000000
1303115.169016,-14.000000,-1.000000,-4.000000,-12.000000,-6.000000,-7.000000,-5.000000,-8.000000
1303115.169024,-3.000000,3.000000,0.000000,6.000000,3.000000,3.000000,-14.000000,-4.000000
1303115.189767,-3.000000,0.000000,-19.000000,-11.000000,-5.000000,-3.000000,5.000000,11.000000
1303115.189779,25.000000,-1.000000,12.000000,19.000000,7.000000,1.000000,11.000000,0.000000
1303115.190264,-22.000000,-2.000000,26.000000,-2.000000,9.000000,-4.000000,-14.000000,-17.000000
1303115.190274,1.000000,2.000000,18.000000,1.000000,-10.000000,-5.000000,-2.000000,0.000000
1303115.196959,2.000000,-2.000000,-11.000000,-1.000000,-10.000000,-7.000000,-18.000000,-7.000000
1303115.196972,10.000000,-6.000000,12.000000,25.000000,7.000000,3.000000,14.000000,-2.000000
1303115.204210,-17.000000,-1.000000,-7.000000,-12.000000,-1.000000,8.000000,-5.000000,-2.000000
1303115.204222,-3.000000,3.000000,6.000000,-17.000000,-16.000000,-14.000000,-5.000000,0.000000
1303115.227256,-2.000000,-4.000000,19.000000,-11.000000,-3.000000,-4.000000,-6.000000,-2.000000
1303115.227350,-15.000000,1.000000,10.000000,-3.000000,4.000000,-3.000000,-11.000000,-15.000000
1303115.234563,3.000000,6.000000,11.000000,7.000000,2.000000,-7.000000,-8.000000,2.000000
1303115.234585,2.000000,-6.000000,2.000000,6.000000,3.000000,1.000000,17.000000,-1.000000
1303115.249802,5.000000,-4.000000,19.000000,0.000000,7.000000,-2.000000,-10.000000,9.000000
1303115.249824,-3.000000,7.000000,-13.000000,-26.000000,-23.000000,0.000000,-2.000000,-4.000000
1303115.271793,15.000000,4.000000,7.000000,9.000000,-1.000000,-2.000000,6.000000,-1.000000
1303115.271807,-4.000000,-5.000000,2.000000,-14.000000,-4.000000,-2.000000,-11.000000,-7.000000
1303115.301611,-17.000000,-3.000000,-37.000000,-26.000000,-6.000000,-4.000000,-10.000000,-3.000000
1303115.301641,-1.000000,-4.000000,-15.000000,-2.000000,-2.000000,-3.000000,-5.000000,-11.000000
1303115.309509,-4.000000,-3.000000,16.000000,-3.000000,-2.000000,-5.000000,10.000000,3.000000
1303115.309519,-2.000000,3.000000,-8.000000,3.000000,-4.000000,9.000000,0.000000,7.000000
1303115.324151,3.000000,14.000000,-8.000000,-13.000000,-12.000000,-3.000000,3.000000,4.000000
1303115.324186,-8.000000,-6.000000,-12.000000,-10.000000,-2.000000,-7.000000,3.000000,-5.000000
1303115.346818,-19.000000,-4.000000,8.000000,-10.000000,-1.000000,-1.000000,-16.000000,-14.000000
1303115.346829,15.000000,-7.000000,-30.000000,76.000000,26.000000,13.000000,11.000000,4.000000
1303115.347872,-4.000000,-6.000000,-11.000000,1.000000,6.000000,-1.000000,6.000000,-3.000000
1303115.347880,-4.000000,3.000000,5.000000,-2.000000,-8.000000,-4.000000,1.000000,3.000000
1303115.361592,13.000000,-7.000000,-12.000000,43.000000,3.000000,-10.000000,-9.000000,13.000000
1303115.361602,5.000000,6.000000,11.000000,8.000000,10.000000,6.000000,0.000000,-6.000000
1303115.362191,-8.000000,-5.000000,14.000000,4.000000,5.000000,0.000000,3.000000,12.000000
1303115.362199,15.000000,-5.000000,13.000000,20.000000,4.000000,-13.000000,2.000000,3.000000
1303115.363300,20.000000,-1.000000,-18.000000,-10.000000,-5.000000,-6.000000,4.000000,5.000000
1303115.363309,-9.000000,-4.000000,22.000000,-15.000000,-2.000000,1.000000,-8.000000,-13.000000
1303115.364849,14.000000,0.000000,0.000000,11.000000,3.000000,4.000000,12.000000,13.000000
1303115.364857,-2.000000,4.000000,1.000000,2.000000,-9.000000,-4.000000,15.000000,18.000000
1303115.365614,23.000000,-2.000000,-9.000000,-25.000000,-5.000000,-1.000000,0.000000,7.000000
1303115.365622,-13.000000,-3.000000,39.000000,16.000000,7.000000,6.000000,-12.000000,-15.000000
1303115.384083,11.000000,1.000000,-12.000000,-12.000000,-14.000000,-9.000000,10.000000,4.000000
1303115.384112,-6.000000,-6.000000,-9.000000,11.000000,-1.000000,-9.000000,-3.000000,10.000000
1303115.384651,0.000000,0.000000,14.000000,8.000000,8.000000,16.000000,-6.000000,-7.000000
1303115.384666,2.000000,-1.000000,-12.000000,-13.000000,-3.000000,-8.000000,-4.000000,1.000000
1303115.406482,-10.000000,-1.000000,8.000000,5.000000,-6.000000,-6.000000,-4.000000,-7.000000
1303115.406493,-1.000000,0.000000,26.000000,32.000000,22.000000,5.000000,4.000000,2.000000
1303115.407185,-7.000000,3.000000,-30.000000,-18.000000,-11.000000,-2.000000,-4.000000,-4.000000
1303115.407194,-5.000000,-4.000000,2.000000,-16.000000,-14.000000,-7.000000,-6.000000,-5.000000
1303115.421992,0.000000,-6.000000,13.000000,28.000000,9.000000,1.000000,-15.000000,-14.000000
1303115.422001,8.000000,-1.000000,-18.000000,-35.000000,-5.000000,5.000000,7.000000,12.000000
1303115.422759,-13.000000,4.000000,-15.000000,-5.000000,-1.000000,-1.000000,13.000000,10.000000
1303115.422768,19.000000,0.000000,16.000000,50.000000,6.000000,-1.000000,-3.000000,-1.000000
1303115.444355,-6.000000,-10.000000,45.000000,-8.000000,-5.000000,-2.000000,-8.000000,-2.000000
1303115.444366,2.000000,9.000000,-32.000000,9.000000,9.000000,7.000000,3.000000,6.000000
1303115.466912,-3.000000,-5.000000,-15.000000,-5.000000,-2.000000,-6.000000,-9.000000,-15.000000
1303115.466988,-8.000000,7.000000,1.000000,-5.000000,-4.000000,6.000000,-1.000000,14.000000
1303115.504464,5.000000,3.000000,-2.000000,-22.000000,-10.000000,-1.000000,-5.000000,-10.000000
1303115.504481,27.000000,1.000000,14.000000,33.000000,3.000000,-3.000000,19.000000,8.000000
1303115.504926,-12.000000,-3.000000,-11.000000,-4.000000,-1.000000,5.000000,-4.000000,1.000000
1303115.504944,-7.000000,-3.000000,-18.000000,8.000000,-2.000000,1.000000,-6.000000,1.000000
1303115.506067,8.000000,5.000000,11.000000,-21.000000,-14.000000,-3.000000,5.000000,-2.000000
1303115.506077,1.000000,-2.000000,-4.000000,13.000000,10.000000,2.000000,2.000000,1.000000
1303115.506469,-8.000000,-3.000000,-10.000000,-15.000000,-10.000000,-4.000000,-15.000000,-9.000000
1303115.506496,0.000000,-3.000000,15.000000,-4.000000,-2.000000,1.000000,4.000000,3.000000
1303115.508388,-18.000000,3.000000,9.000000,-8.000000,-3.000000,0.000000,-9.000000,-12.000000
1303115.508425,5.000000,3.000000,2.000000,-11.000000,-5.000000,-9.000000,-2.000000,-9.000000
1303115.526515,-6.000000,-9.000000,-24.000000,12.000000,3.000000,3.000000,5.000000,-6.000000
1303115.526525,12.000000,2.000000,15.000000,-30.000000,-10.000000,-5.000000,-4.000000,6.000000
1303115.527339,5.000000,-5.000000,-70.000000,11.000000,1.000000,3.000000,6.000000,6.000000
1303115.527347,-9.000000,-2.000000,15.000000,-6.000000,-6.000000,0.000000,9.000000,1.000000
1303115.549835,-5.000000,3.000000,12.000000,2.000000,3.000000,4.000000,-12.000000,0.000000
1303115.549852,0.000000,4.000000,-12.000000,-18.000000,-9.000000,0.000000,-1.000000,-8.000000
1303115.550714,-9.000000,0.000000,-25.000000,44.000000,12.000000,6.000000,6.000000,-2.000000
1303115.550728,0.000000,-1.000000,-28.000000,-17.000000,-8.000000,1.000000,-5.000000,-4.000000
1303115.564318,22.000000,4.000000,23.000000,0.000000,-5.000000,-2.000000,0.000000,2.000000
1303115.564348,7.000000,4.000000,5.000000,-14.000000,-8.000000,-11.000000,4.000000,4.000000
1303115.579250,-12.000000,-5.000000,-34.000000,10.000000,8.000000,1.000000,-10.000000,-11.000000
1303115.579268,-1.000000,-3.000000,42.000000,-1.000000,2.000000,-1.000000,0.000000,-7.000000
1303115.601974,-1.000000,4.000000,-27.000000,-5.000000,-3.000000,-8.000000,2.000000,-2.000000
1303115.602022,11.000000,2.000000,3.000000,8.000000,0.000000,6.000000,27.000000,17.000000
1303115.616509,-15.000000,-9.000000,34.000000,-24.000000,-3.000000,1.000000,-6.000000,4.000000
1303115.616519,11.000000,6.000000,1.000000,67.000000,21.000000,-5.000000,-7.000000,-1.000000
1303115.624443,-16.000000,-3.000000,6.000000,-7.000000,-7.000000,0.000000,0.000000,-3.000000
1303115.624452,7.000000,-6.000000,-10.000000,-7.000000,-4.000000,1.000000,-7.000000,-5.000000
1303115.625103,-1.000000,-4.000000,26.000000,4.000000,-8.000000,0.000000,-4.000000,-8.000000
1303115.625112,-1.000000,-5.000000,-4.000000,-2.000000,-15.000000,-11.000000,-6.000000,-4.000000
1303115.626377,18.000000,-4.000000,21.000000,-6.000000,1.000000,-2.000000,11.000000,2.000000
1303115.626386,-15.000000,0.000000,-50.000000,-7.000000,-2.000000,2.000000,-6.000000,1.000000
1303115.627306,-3.000000,-4.000000,0.000000,14.000000,-5.000000,3.000000,7.000000,1.000000
1303115.627315,8.000000,0.000000,13.000000,-17.000000,4.000000,6.000000,1.000000,7.000000
1303115.639046,0.000000,6.000000,5.000000,45.000000,11.000000,13.000000,-1.000000,-4.000000
1303115.639056,-15.000000,-2.000000,-4.000000,-27.000000,-26.000000,-8.000000,2.000000,0.000000
1303115.646656,7.000000,-5.000000,-1.000000,-8.000000,-5.000000,-10.000000,-14.000000,-9.000000
1303115.646665,-9.000000,-17.000000,-31.000000,-20.000000,-2.000000,1.000000,-1.000000,-12.000000
1303115.661889,2.000000,7.000000,-29.000000,-8.000000,-10.000000,-7.000000,-4.000000,8.000000
1303115.661898,-5.000000,-5.000000,-7.000000,-17.000000,-6.000000,-6.000000,2.000000,2.000000
1303115.663045,-2.000000,0.000000,-3.000000,-3.000000,-6.000000,-6.000000,-10.000000,-17.000000
1303115.663055,-1.000000,0.000000,21.000000,11.000000,-5.000000,-3.000000,-17.000000,-9.000000
1303115.699086,-7.000000,3.000000,3.000000,-4.000000,-5.000000,-6.000000,3.000000,3.000000
1303115.699097,-1.000000,-4.000000,17.000000,-31.000000,-3.000000,-3.000000,-4.000000,-3.000000
1303115.706840,0.000000,-11.000000,-14.000000,23.000000,18.000000,5.000000,-15.000000,-6.000000
1303115.706851,10.000000,5.000000,-1.000000,-7.000000,5.000000,-1.000000,14.000000,16.000000
1303115.721667,16.000000,1.000000,22.000000,0.000000,-1.000000,-8.000000,4.000000,3.000000
1303115.721678,-17.000000,-10.000000,20.000000,24.000000,5.000000,9.000000,-7.000000,-8.000000
1303115.744138,1.000000,-3.000000,-17.000000,-4.000000,-4.000000,4.000000,1.000000,4.000000
1303115.744148,13.000000,3.000000,9.000000,-4.000000,-11.000000,-10.000000,8.000000,1.000000
1303115.759750,-11.000000,0.000000,-9.000000,-16.000000,-7.000000,2.000000,-8.000000,-15.000000
1303115.759764,-9.000000,-4.000000,-60.000000,-7.000000,8.000000,6.000000,2.000000,9.000000
1303115.760316,29.000000,-4.000000,23.000000,-2.000000,0.000000,0.000000,4.000000,8.000000
1303115.760328,0.000000,-3.000000,25.000000,0.000000,-2.000000,1.000000,-13.000000,-9.000000
1303115.761406,-22.000000,2.000000,-21.000000,-20.000000,-8.000000,-8.000000,-9.000000,-5.000000
1303115.761413,2.000000,0.000000,-13.000000,-26.000000,-6.000000,0.000000,-1.000000,1.000000
1303115.762298,0.000000,-2.000000,14.000000,10.000000,11.000000,4.000000,7.000000,3.000000
1303115.762306,-15.000000,-7.000000,-5.000000,-22.000000,-2.000000,-2.000000,-7.000000,-3.000000
1303115.766843,-11.000000,-1.000000,-25.000000,20.000000,15.000000,4.000000,-3.000000,2.000000
1303115.766853,-15.000000,6.000000,9.000000,-18.000000,-3.000000,-2.000000,-13.000000,-11.000000
1303115.782218,-3.000000,-1.000000,-3.000000,5.000000,-10.000000,-5.000000,5.000000,-1.000000
1303115.782241,6.000000,-2.000000,29.000000,13.000000,4.000000,2.000000,-2.000000,4.000000
1303115.782844,-9.000000,0.000000,-8.000000,-9.000000,2.000000,0.000000,-6.000000,-4.000000
1303115.782852,13.000000,0.000000,-33.000000,24.000000,-1.000000,8.000000,2.000000,8.000000
1303115.804353,13.000000,-8.000000,29.000000,12.000000,4.000000,1.000000,-4.000000,-2.000000
1303115.804364,-15.000000,4.000000,-25.000000,-20.000000,-12.000000,-9.000000,-6.000000,-4.000000
1303115.826756,9.000000,-2.000000,-8.000000,5.000000,6.000000,3.000000,5.000000,-7.000000
1303115.826768,8.000000,6.000000,13.000000,9.000000,1.000000,-4.000000,11.000000,15.000000
1303115.856859,11.000000,4.000000,25.000000,19.000000,4.000000,2.000000,-5.000000,9.000000
1303115.856869,-14.000000,8.000000,-3.000000,-8.000000,-1.000000,4.000000,-22.000000,-17.000000
1303115.864139,17.000000,-3.000000,3.000000,-10.000000,-8.000000,-8.000000,8.000000,-8.000000
1303115.864150,-16.000000,-1.000000,7.000000,-1.000000,-1.000000,-7.000000,-1.000000,-3.000000
1303115.894237,-3.000000,1.000000,17.000000,-17.000000,4.000000,-3.000000,-14.000000,-7.000000
1303115.894249,7.000000,-5.000000,-5.000000,-15.000000,-12.000000,4.000000,3.000000,1.000000
1303115.901921,5.000000,-5.000000,29.000000,1.000000,-3.000000,-1.000000,12.000000,9.000000
1303115.901934,-9.000000,1.000000,-14.000000,11.000000,1.000000,0.000000,-11.000000,-4.000000
1303115.917463,2.000000,0.000000,17.000000,0.000000,-1.000000,7.000000,7.000000,0.000000
1303115.917493,10.000000,-6.000000,17.000000,7.000000,-3.000000,-6.000000,0.000000,-2.000000
1303115.918325,-23.000000,-6.000000,19.000000,-10.000000,1.000000,6.000000,-9.000000,2.000000
1303115.918332,-6.000000,-2.000000,-13.000000,-29.000000,-13.000000,-6.000000,-3.000000,-11.000000
1303115.920733,-11.000000,-3.000000,-12.000000,9.000000,-3.000000,-3.000000,-9.000000,-8.000000
1303115.920754,-18.000000,9.000000,10.000000,-8.000000,-6.000000,1.000000,5.000000,-3.000000
1303115.924082,8.000000,4.000000,-11.000000,6.000000,-5.000000,-7.000000,1.000000,2.000000
1303115.924107,1.000000,-7.000000,4.000000,16.000000,4.000000,-3.000000,0.000000,-8.000000
1303115.939786,-5.000000,-5.000000,-22.000000,-15.000000,-4.000000,-2.000000,-4.000000,3.000000
1303115.939796,13.000000,4.000000,12.000000,12.000000,-1.000000,4.000000,4.000000,0.000000
1303115.961775,-2.000000,-4.000000,-25.000000,1.000000,-2.000000,0.000000,6.000000,-2.000000
1303115.961920,-7.000000,-3.000000,44.000000,8.000000,2.000000,-3.000000,-2.000000,-7.000000
1303115.962718,13.000000,3.000000,-14.000000,27.000000,20.000000,8.000000,9.000000,15.000000
1303115.962773,23.000000,-11.000000,-7.000000,-16.000000,1.000000,7.000000,16.000000,8.000000
1303115.963438,-20.000000,-6.000000,-19.000000,-20.000000,-4.000000,-1.000000,-17.000000,-16.000000
1303115.963447,-5.000000,-4.000000,7.000000,-6.000000,-10.000000,1.000000,-2.000000,-15.000000
1303115.977123,13.000000,4.000000,-23.000000,-41.000000,-18.000000,-3.000000,10.000000,9.000000
1303115.977133,1.000000,1.000000,-9.000000,38.000000,27.000000,6.000000,-6.000000,-3.000000
1303115.984027,0.000000,-6.000000,23.000000,7.000000,2.000000,2.000000,-1.000000,1.000000
1303115.984056,-1.000000,0.000000,-3.000000,-1.000000,-1.000000,-7.000000,-8.000000,-4.000000
1303115.992335,-10.000000,8.000000,-20.000000,-5.000000,-1.000000,-4.000000,-4.000000,-8.000000
1303115.992344,-14.000000,-10.000000,-4.000000,-14.000000,1.000000,3.000000,-7.000000,-5.000000
1303116.021657,8.000000,2.000000,-35.000000,-17.000000,-5.000000,1.000000,-10.000000,-2.000000
1303116.021667,5.000000,-3.000000,1.000000,10.000000,-5.000000,-4.000000,2.000000,2.000000
1303116.044362,-11.000000,-3.000000,9.000000,-6.000000,-4.000000,-5.000000,-10.000000,-11.000000
1303116.044373,12.000000,2.000000,15.000000,0.000000,0.000000,6.000000,5.000000,3.000000
1303116.059265,5.000000,0.000000,7.000000,4.000000,-5.000000,0.000000,14.000000,6.000000
1303116.059285,-9.000000,0.000000,-29.000000,-27.000000,-9.000000,-10.000000,-4.000000,-8.000000
1303116.081895,-12.000000,-3.000000,21.000000,-16.000000,-6.000000,7.000000,-7.000000,-2.000000
1303116.081905,-10.000000,-1.000000,1.000000,-15.000000,-7.000000,0.000000,-1.000000,-1.000000
1303116.104318,8.000000,4.000000,-4.000000,19.000000,3.000000,0.000000,15.000000,4.000000
1303116.104332,-1.000000,-9.000000,13.000000,-15.000000,-4.000000,-3.000000,0.000000,13.000000
1303116.105251,-3.000000,2.000000,-2.000000,-6.000000,-11.000000,-3.000000,-16.000000,-9.000000
1303116.105260,-1.000000,3.000000,-13.000000,1.000000,-7.000000,-8.000000,3.000000,-5.000000
1303116.105893,0.000000,-10.000000,11.000000,8.000000,2.000000,8.000000,-2.000000,6.000000
1303116.105906,-17.000000,0.000000,-1.000000,0.000000,-2.000000,-2.000000,-9.000000,-7.000000
1303116.107641,14.000000,1.000000,27.000000,-4.000000,-3.000000,3.000000,5.000000,20.000000
1303116.107665,-13.000000,3.000000,-13.000000,3.000000,-2.000000,-3.000000,-3.000000,-12.000000
1303116.108840,-6.000000,-6.000000,27.000000,-10.000000,-8.000000,-4.000000,-1.000000,-7.000000
1303116.108863,-7.000000,-8.000000,16.000000,0.000000,1.000000,4.000000,2.000000,2.000000
1303116.120771,-17.000000,3.000000,6.000000,1.000000,0.000000,9.000000,16.000000,13.000000
1303116.120798,5.000000,9.000000,4.000000,-37.000000,-2.000000,0.000000,5.000000,3.000000
1303116.142445,-8.000000,7.000000,-68.000000,-21.000000,-20.000000,-9.000000,9.000000,-8.000000
1303116.142471,-6.000000,-3.000000,-30.000000,-11.000000,-2.000000,-6.000000,17.000000,8.000000
1303116.158622,-12.000000,-8.000000,-29.000000,-3.000000,10.000000,5.000000,-18.000000,-5.000000
1303116.158686,-18.000000,-6.000000,5.000000,-10.000000,-9.000000,-5.000000,-23.000000,-16.000000
1303116.179655,3.000000,-10.000000,-3.000000,14.000000,-6.000000,-3.000000,31.000000,0.000000
1303116.179676,0.000000,-4.000000,-36.000000,-58.000000,4.000000,9.000000,-13.000000,6.000000
1303116.194788,-9.000000,-2.000000,-6.000000,-10.000000,-12.000000,-4.000000,6.000000,4.000000
1303116.194886,8.000000,-10.000000,6.000000,18.000000,1.000000,-3.000000,-14.000000,0.000000
1303116.202070,-4.000000,-2.000000,31.000000,16.000000,-5.000000,1.000000,9.000000,-1.000000
1303116.202209,-6.000000,2.000000,13.000000,-2.000000,-13.000000,1.000000,-7.000000,-8.000000
1303116.202951,10.000000,6.000000,-45.000000,2.000000,3.000000,-10.000000,-7.000000,-5.000000
1303116.203005,-7.000000,6.000000,13.000000,8.000000,0.000000,1.000000,24.000000,9.000000
1303116.203382,-13.000000,0.000000,20.000000,2.000000,4.000000,-1.000000,-16.000000,-13.000000
1303116.203408,14.000000,2.000000,-14.000000,-10.000000,-15.000000,-5.000000,1.000000,5.000000
1303116.209193,-4.000000,7.000000,-15.000000,-8.000000,0.000000,-1.000000,11.000000,6.000000
1303116.209218,2.000000,-2.000000,26.000000,-19.000000,-4.000000,-1.000000,6.000000,-1.000000
1303116.217375,-3.000000,4.000000,10.000000,18.000000,5.000000,-4.000000,-13.000000,-9.000000
1303116.217391,-5.000000,-3.000000,-66.000000,-35.000000,-9.000000,-7.000000,-8.000000,-16.000000
1303116.239142,12.000000,-2.000000,-10.000000,37.000000,3.000000,2.000000,12.000000,9.000000
1303116.239171,-2.000000,-6.000000,25.000000,-2.000000,9.000000,8.000000,5.000000,1.000000
1303116.240396,-5.000000,1.000000,18.000000,-9.000000,-2.000000,4.000000,4.000000,8.000000
1303116.240427,2.000000,-1.000000,-24.000000,26.000000,1.000000,2.000000,2.000000,-1.000000
1303116.254420,-1.000000,2.000000,-17.000000,6.000000,-2.000000,-8.000000,-11.000000,-9.000000
1303116.254472,-15.000000,4.000000,-7.000000,-15.000000,3.000000,5.000000,-12.000000,-10.000000
1303116.276619,-9.000000,1.000000,-21.000000,-43.000000,-20.000000,-5.000000,-7.000000,-3.000000
1303116.276668,5.000000,1.000000,10.000000,1.000000,1.000000,-7.000000,3.000000,9.000000
1303116.299930,-3.000000,0.000000,38.000000,4.000000,-8.000000,-1.000000,-8.000000,-6.000000
1303116.299945,-2.000000,1.000000,-46.000000,-13.000000,-7.000000,1.000000,16.000000,5.000000
1303116.314112,6.000000,2.000000,-36.000000,-7.000000,-5.000000,-8.000000,15.000000,12.000000
1303116.314132,-3.000000,-3.000000,16.000000,-9.000000,-1.000000,4.000000,-1.000000,-6.000000
1303116.321610,5.000000,0.000000,-14.000000,-1.000000,-8.000000,1.000000,-28.000000,-14.000000
1303116.321620,1.000000,4.000000,-13.000000,11.000000,0.000000,-5.000000,10.000000,3.000000
1303116.358920,12.000000,-8.000000,1.000000,-7.000000,1.000000,-2.000000,8.000000,4.000000
1303116.358934,3.000000,-6.000000,5.000000,1.000000,10.000000,9.000000,-6.000000,5.000000
1303116.359419,-5.000000,5.000000,-14.000000,-31.000000,-11.000000,-9.000000,-4.000000,-3.000000
1303116.359433,12.000000,2.000000,13.000000,16.000000,6.000000,-12.000000,2.000000,5.000000
1303116.360645,4.000000,-1.000000,-42.000000,-7.000000,-3.000000,-2.000000,2.000000,-2.000000
1303116.360653,3.000000,1.000000,28.000000,-3.000000,-11.000000,7.000000,9.000000,5.000000
1303116.362142,-1.000000,-11.000000,4.000000,-5.000000,-4.000000,2.000000,-11.000000,6.000000
1303116.362151,-5.000000,2.000000,11.000000,-4.000000,-10.000000,-8.000000,-8.000000,-6.000000
1303116.362926,3.000000,-1.000000,-10.000000,-10.000000,-3.000000,-5.000000,0.000000,-3.000000
1303116.362935,33.000000,2.000000,-4.000000,9.000000,0.000000,1.000000,5.000000,-1.000000
1303116.381939,-19.000000,-1.000000,-1.000000,-36.000000,-4.000000,-2.000000,-11.000000,4.000000
1303116.381951,3.000000,5.000000,16.000000,9.000000,-9.000000,-1.000000,3.000000,-5.000000
1303116.456601,4.000000,-1.000000,0.000000,-7.000000,-4.000000,-2.000000,-10.000000,7.000000
1303116.456622,10.000000,-9.000000,-12.000000,-1.000000,-3.000000,0.000000,-15.000000,-11.000000
1303116.457000,-10.000000,-2.000000,8.000000,3.000000,4.000000,5.000000,-9.000000,-7.000000
1303116.457008,8.000000,2.000000,-28.000000,-17.000000,-12.000000,-7.000000,2.000000,7.000000
1303116.458277,-2.000000,6.000000,6.000000,83.000000,27.000000,8.000000,5.000000,-4.000000
1303116.458286,10.000000,-6.000000,26.000000,-4.000000,3.000000,8.000000,0.000000,8.000000
1303116.459012,-1.000000,-9.000000,-11.000000,4.000000,-4.000000,-3.000000,2.000000,5.000000
1303116.459050,6.000000,-3.000000,-10.000000,14.000000,9.000000,-4.000000,-5.000000,-6.000000
1303116.460420,-22.000000,-2.000000,16.000000,25.000000,1.000000,-4.000000,-7.000000,-9.000000
1303116.460447,-6.000000,-10.000000,15.000000,-8.000000,-1.000000,-1.000000,-10.000000,-4.000000
1303116.471750,-5.000000,-6.000000,8.000000,-6.000000,1.000000,-3.000000,-14.000000,-14.000000
1303116.471763,1.000000,7.000000,-11.000000,27.000000,-2.000000,-2.000000,4.000000,-1.000000
1303116.479381,11.000000,-4.000000,16.000000,-8.000000,-5.000000,2.000000,6.000000,5.000000
1303116.479392,-7.000000,-4.000000,17.000000,5.000000,-10.000000,-1.000000,-10.000000,-8.000000
1303116.494070,-9.000000,-1.000000,-9.000000,-14.000000,2.000000,5.000000,7.000000,-7.000000
1303116.494088,9.000000,-2.000000,-54.000000,20.000000,1.000000,-1.000000,14.000000,5.000000
1303116.531935,4.000000,-1.000000,2.000000,4.000000,5.000000,2.000000,-3.000000,0.000000
1303116.531958,-8.000000,1.000000,7.000000,1.000000,3.000000,3.000000,-1.000000,-6.000000
1303116.539225,-5.000000,-3.000000,-22.000000,-8.000000,0.000000,-6.000000,-29.000000,-11.000000
1303116.539249,11.000000,-3.000000,-3.000000,20.000000,0.000000,-2.000000,42.000000,12.000000
1303116.561847,4.000000,-2.000000,13.000000,-30.000000,-17.000000,-5.000000,-9.000000,-1.000000
1303116.561857,-4.000000,-3.000000,16.000000,24.000000,11.000000,3.000000,-29.000000,4.000000
1303116.576646,7.000000,4.000000,-6.000000,-17.000000,-12.000000,-9.000000,35.000000,11.000000
1303116.576656,14.000000,-11.000000,6.000000,3.000000,3.000000,3.000000,16.000000,6.000000
1303116.599081,-33.000000,1.000000,-21.000000,-10.000000,1.000000,-2.000000,-52.000000,-24.000000
1303116.599092,18.000000,2.000000,-18.000000,-3.000000,-10.000000,5.000000,42.000000,8.000000
1303116.614376,-5.000000,1.000000,23.000000,16.000000,5.000000,1.000000,-30.000000,-11.000000
1303116.614387,-8.000000,-2.000000,-21.000000,-6.000000,-5.000000,6.000000,5.000000,6.000000
1303116.637295,-17.000000,-6.000000,-34.000000,-13.000000,-3.000000,-5.000000,-22.000000,-15.000000
1303116.637307,9.000000,7.000000,-8.000000,-2.000000,-2.000000,-3.000000,5.000000,2.000000
1303116.637677,5.000000,5.000000,-5.000000,8.000000,2.000000,2.000000,5.000000,11.000000
1303116.637686,-5.000000,4.000000,8.000000,3.000000,9.000000,-4.000000,-5.000000,-5.000000
1303116.639183,-15.000000,9.000000,2.000000,6.000000,-2.000000,0.000000,0.000000,-2.000000
1303116.639201,22.000000,-1.000000,-9.000000,27.000000,-10.000000,-11.000000,13.000000,2.000000
1303116.640741,-7.000000,0.000000,-44.000000,-8.000000,1.000000,-5.000000,8.000000,-4.000000
1303116.640783,0.000000,-15.000000,38.000000,41.000000,28.000000,8.000000,-7.000000,-2.000000
1303116.659167,11.000000,-2.000000,15.000000,8.000000,-4.000000,-2.000000,5.000000,6.000000
1303116.659178,-7.000000,0.000000,12.000000,-18.000000,1.000000,1.000000,-10.000000,-11.000000
1303116.660678,2.000000,6.000000,-17.000000,17.000000,0.000000,1.000000,-1.000000,1.000000
1303116.660690,2.000000,1.000000,14.000000,-8.000000,-9.000000,-3.000000,2.000000,-1.000000
1303116.666738,-5.000000,-4.000000,63.000000,-19.000000,5.000000,-4.000000,-5.000000,-8.000000
1303116.666750,-2.000000,-2.000000,20.000000,2.000000,-3.000000,5.000000,8.000000,6.000000
1303116.674846,-14.000000,1.000000,7.000000,2.000000,7.000000,1.000000,3.000000,-3.000000
1303116.674857,8.000000,-12.000000,11.000000,13.000000,0.000000,6.000000,1.000000,4.000000
1303116.689062,-1.000000,-1.000000,-9.000000,2.000000,5.000000,2.000000,-20.000000,-2.000000
1303116.689072,2.000000,3.000000,-23.000000,-31.000000,-13.000000,-3.000000,22.000000,-4.000000
1303116.696529,-8.000000,2.000000,10.000000,37.000000,11.000000,10.000000,-1.000000,-1.000000
1303116.696552,1.000000,0.000000,5.000000,-20.000000,3.000000,3.000000,13.000000,24.000000
1303116.704357,-15.000000,-8.000000,-49.000000,-28.000000,-8.000000,-7.000000,-15.000000,-11.000000
1303116.704381,4.000000,5.000000,6.000000,2.000000,-4.000000,-4.000000,1.000000,-6.000000
1303116.734048,-6.000000,0.000000,10.000000,10.000000,0.000000,4.000000,-9.000000,-11.000000
1303116.734077,-9.000000,4.000000,6.000000,16.000000,7.000000,4.000000,4.000000,4.000000
1303116.749404,13.000000,-2.000000,6.000000,6.000000,-6.000000,-6.000000,2.000000,4.000000
1303116.749435,-1.000000,0.000000,35.000000,13.000000,5.000000,-1.000000,0.000000,-3.000000
1303116.771820,9.000000,1.000000,-14.000000,1.000000,1.000000,2.000000,4.000000,0.000000
1303116.771845,-16.000000,-4.000000,-64.000000,0.000000,5.000000,-3.000000,5.000000,3.000000
1303116.786606,9.000000,-9.000000,31.000000,-5.000000,-5.000000,1.000000,-3.000000,3.000000
1303116.786631,-18.000000,7.000000,-28.000000,-3.000000,7.000000,5.000000,-28.000000,-14.000000
1303116.816748,-8.000000,6.000000,4.000000,-11.000000,-9.000000,3.000000,26.000000,-5.000000
1303116.816771,4.000000,6.000000,-21.000000,-23.000000,2.000000,0.000000,9.000000,16.000000
1303116.824060,-12.000000,7.000000,19.000000,14.000000,4.000000,5.000000,-22.000000,-11.000000
1303116.824078,-3.000000,-3.000000,-18.000000,-5.000000,-4.000000,-2.000000,21.000000,-4.000000
1303116.854152,11.000000,-1.000000,1.000000,26.000000,6.000000,1.000000,5.000000,11.000000
1303116.854161,-8.000000,-1.000000,-6.000000,-4.000000,10.000000,6.000000,-11.000000,-11.000000
1303116.861779,-9.000000,-3.000000,-22.000000,3.000000,-10.000000,-1.000000,-3.000000,-4.000000
1303116.861807,2.000000,1.000000,12.000000,11.000000,2.000000,2.000000,15.000000,5.000000
1303116.868943,6.000000,-3.000000,15.000000,48.000000,11.000000,7.000000,11.000000,-1.000000
1303116.868961,-6.000000,-2.000000,29.000000,6.000000,-1.000000,-11.000000,-1.000000,8.000000
1303116.913974,-14.000000,12.000000,-13.000000,12.000000,11.000000,7.000000,4.000000,7.000000
1303116.913994,-8.000000,-1.000000,5.000000,4.000000,-9.000000,-7.000000,1.000000,-5.000000
1303116.914524,1.000000,1.000000,12.000000,25.000000,17.000000,-4.000000,-6.000000,1.000000
1303116.914533,6.000000,-6.000000,-29.000000,0.000000,-8.000000,5.000000,2.000000,1.000000
1303116.915437,3.000000,-7.000000,22.000000,-1.000000,-3.000000,4.000000,18.000000,19.000000
1303116.915464,-15.000000,0.000000,-90.000000,-29.000000,2.000000,0.000000,-20.000000,-20.000000
1303116.936852,-3.000000,-7.000000,28.000000,-4.000000,-5.000000,-9.000000,2.000000,-10.000000
1303116.936864,0.000000,-5.000000,10.000000,44.000000,12.000000,4.000000,-5.000000,-1.000000
1303116.937499,-2.000000,-1.000000,-15.000000,-16.000000,-7.000000,2.000000,-9.000000,-11.000000
1303116.937508,5.000000,0.000000,-14.000000,-11.000000,-13.000000,-4.000000,1.000000,-2.000000
1303116.938203,-14.000000,-1.000000,12.000000,-16.000000,-10.000000,2.000000,-1.000000,-6.000000
1303116.938211,9.000000,-5.000000,12.000000,16.000000,16.000000,1.000000,1.000000,1.000000
1303116.938885,8.000000,-3.000000,8.000000,-1.000000,-6.000000,-6.000000,3.000000,1.000000
1303116.938893,10.000000,-3.000000,23.000000,-7.000000,4.000000,-1.000000,-14.000000,-6.000000
1303116.940870,-15.000000,4.000000,-15.000000,23.000000,11.000000,20.000000,14.000000,1.000000
1303116.940881,25.000000,6.000000,-2.000000,-15.000000,-1.000000,-6.000000,5.000000,8.000000
1303116.944371,-12.000000,1.000000,0.000000,15.000000,4.000000,1.000000,7.000000,11.000000
1303116.944395,4.000000,-3.000000,14.000000,-7.000000,-2.000000,-5.000000,-7.000000,5.000000
1303116.966639,-4.000000,4.000000,1.000000,16.000000,0.000000,-8.000000,-8.000000,-6.000000
1303116.966660,-6.000000,0.000000,-32.000000,-26.000000,-12.000000,-8.000000,-6.000000,-13.000000
1303116.974086,-11.000000,-1.000000,7.000000,28.000000,17.000000,12.000000,-1.000000,7.000000
1303116.974114,10.000000,5.000000,18.000000,-19.000000,-12.000000,-4.000000,6.000000,1.000000
1303116.989389,0.000000,-7.000000,1.000000,18.000000,0.000000,-9.000000,2.000000,-4.000000
1303116.989400,-2.000000,-6.000000,3.000000,-6.000000,-4.000000,-1.000000,-13.000000,-5.000000
1303117.011605,-6.000000,-2.000000,7.000000,-9.000000,-13.000000,-1.000000,4.000000,-15.000000
1303117.011622,27.000000,2.000000,-64.000000,-19.000000,-15.000000,-7.000000,6.000000,26.000000
1303117.034343,-2.000000,-6.000000,22.000000,-22.000000,1.000000,1.000000,-1.000000,3.000000
1303117.034353,-7.000000,3.000000,19.000000,-2.000000,-15.000000,3.000000,-19.000000,-12.000000
1303117.049672,2.000000,0.000000,-50.000000,-5.000000,7.000000,-4.000000,13.000000,2.000000
1303117.049683,3.000000,1.000000,9.000000,-1.000000,1.000000,-8.000000,-8.000000,-5.000000
1303117.050042,-12.000000,-2.000000,28.000000,10.000000,3.000000,12.000000,-11.000000,2.000000
1303117.050049,16.000000,2.000000,3.000000,20.000000,7.000000,6.000000,40.000000,21.000000
1303117.050816,6.000000,-4.000000,14.000000,1.000000,-5.000000,-3.000000,-8.000000,-1.000000
1303117.050824,-17.000000,-2.000000,13.000000,1.000000,9.000000,-4.000000,-15.000000,-17.000000
1303117.052044,3.000000,7.000000,-15.000000,-17.000000,-5.000000,1.000000,7.000000,1.000000
1303117.052060,11.000000,5.000000,22.000000,4.000000,-9.000000,2.000000,15.000000,9.000000
1303117.052872,5.000000,3.000000,-10.000000,18.000000,19.000000,-4.000000,2.000000,4.000000
1303117.052880,-4.000000,-5.000000,-13.000000,3.000000,7.000000,0.000000,-18.000000,-7.000000
1303117.064067,4.000000,2.000000,-20.000000,-15.000000,-8.000000,5.000000,6.000000,1.000000
1303117.064083,20.000000,-2.000000,41.000000,45.000000,6.000000,0.000000,-1.000000,1.000000
1303117.071732,-19.000000,-6.000000,11.000000,8.000000,0.000000,3.000000,-6.000000,-3.000000
1303117.071747,-1.000000,10.000000,-28.000000,-29.000000,-6.000000,0.000000,5.000000,7.000000
1303117.086713,11.000000,7.000000,-22.000000,-4.000000,-4.000000,-4.000000,-3.000000,-6.000000
1303117.086723,-5.000000,1.000000,3.000000,-14.000000,-5.000000,3.000000,-1.000000,-1.000000
1303117.093992,3.000000,2.000000,19.000000,2.000000,5.000000,8.000000,2.000000,4.000000
1303117.094002,-11.000000,-4.000000,-14.000000,-24.000000,-15.000000,-5.000000,2.000000,-11.000000
1303117.131738,2.000000,2.000000,2.000000,-3.000000,-6.000000,-5.000000,-16.000000,-6.000000
1303117.131758,-11.000000,-3.000000,-40.000000,-22.000000,5.000000,-3.000000,-5.000000,-4.000000
1303117.146913,1.000000,-2.000000,-1.000000,-7.000000,-8.000000,-13.000000,6.000000,8.000000
1303117.146960,18.000000,1.000000,35.000000,5.000000,-5.000000,-2.000000,11.000000,16.000000
1303117.169149,-15.000000,-5.000000,17.000000,-3.000000,-5.000000,8.000000,-9.000000,-10.000000
1303117.169159,0.000000,-4.000000,-24.000000,-17.000000,-1.000000,-7.000000,6.000000,0.000000
1303117.184208,9.000000,-6.000000,27.000000,13.000000,-3.000000,-4.000000,8.000000,11.000000
1303117.184236,-11.000000,-5.000000,5.000000,-17.000000,3.000000,0.000000,-29.000000,-9.000000
1303117.214438,5.000000,-5.000000,-2.000000,1.000000,-9.000000,2.000000,10.000000,-11.000000
1303117.214448,13.000000,4.000000,1.000000,-19.000000,-2.000000,-4.000000,12.000000,15.000000
1303117.229182,-13.000000,-7.000000,-8.000000,20.000000,9.000000,-4.000000,3.000000,3.000000
1303117.229194,-7.000000,7.000000,20.000000,-15.000000,0.000000,2.000000,-3.000000,0.000000
1303117.244061,2.000000,-6.000000,-1.000000,2.000000,-4.000000,0.000000,0.000000,-6.000000
1303117.244090,1.000000,-11.000000,41.000000,-3.000000,-4.000000,-3.000000,-4.000000,-4.000000
1303117.251556,-4.000000,-5.000000,-2.000000,34.000000,13.000000,3.000000,-10.000000,-3.000000
1303117.251584,5.000000,-3.000000,-14.000000,5.000000,2.000000,1.000000,8.000000,1.000000
1303117.266825,9.000000,7.000000,19.000000,-11.000000,-11.000000,2.000000,6.000000,3.000000
1303117.266836,-3.000000,3.000000,-19.000000,-7.000000,-10.000000,-9.000000,-15.000000,9.000000
1303117.289107,11.000000,-1.000000,33.000000,-6.000000,2.000000,9.000000,20.000000,7.000000
1303117.289118,-16.000000,1.000000,11.000000,2.000000,3.000000,3.000000,5.000000,6.000000
1303117.289387,-7.000000,-7.000000,-27.000000,-16.000000,-8.000000,-9.000000,-10.000000,-15.000000
1303117.289396,-12.000000,1.000000,12.000000,-9.000000,-11.000000,-4.000000,-17.000000,-21.000000
1303117.290011,4.000000,-2.000000,-6.000000,17.000000,-5.000000,-9.000000,-5.000000,2.000000
1303117.290030,0.000000,0.000000,-41.000000,-24.000000,-10.000000,-6.000000,7.000000,-3.000000
1303117.290785,-21.000000,-5.000000,10.000000,-1.000000,0.000000,0.000000,-2.000000,-3.000000
1303117.290794,14.000000,1.000000,1.000000,-39.000000,-4.000000,-7.000000,-6.000000,5.000000
1303117.291297,19.000000,2.000000,-11.000000,-2.000000,-8.000000,-2.000000,-8.000000,-4.000000
1303117.291306,-18.000000,-6.000000,15.000000,15.000000,1.000000,0.000000,16.000000,4.000000
1303117.291932,-2.000000,1.000000,16.000000,-13.000000,-4.000000,2.000000,-7.000000,4.000000
1303117.291940,-7.000000,-1.000000,-11.000000,12.000000,-3.000000,-1.000000,-7.000000,-4.000000
1303117.293002,19.000000,-2.000000,-16.000000,-3.000000,-2.000000,-4.000000,-6.000000,4.000000
1303117.293016,-12.000000,2.000000,17.000000,-11.000000,6.000000,0.000000,-6.000000,-5.000000
1303117.304450,-3.000000,2.000000,15.000000,14.000000,-2.000000,-1.000000,-4.000000,-11.000000
1303117.304463,5.000000,-1.000000,-24.000000,-5.000000,-7.000000,6.000000,-4.000000,-6.000000
1303117.311886,5.000000,6.000000,-27.000000,33.000000,7.000000,-5.000000,3.000000,1.000000
1303117.311900,-12.000000,-5.000000,-7.000000,-4.000000,-5.000000,-1.000000,-3.000000,-5.000000
1303117.326871,-12.000000,3.000000,7.000000,8.000000,1.000000,5.000000,-6.000000,1.000000
1303117.326883,2.000000,-3.000000,-49.000000,2.000000,-3.000000,-6.000000,-3.000000,-1.000000
1303117.349266,6.000000,3.000000,30.000000,-9.000000,-2.000000,-1.000000,12.000000,-2.000000
1303117.349278,-2.000000,-1.000000,-6.000000,7.000000,-1.000000,-7.000000,-6.000000,6.000000
1303117.371872,5.000000,-3.000000,-48.000000,-9.000000,-5.000000,3.000000,-9.000000,4.000000
1303117.371883,-6.000000,4.000000,-10.000000,-9.000000,1.000000,-5.000000,10.000000,4.000000
1303117.379244,-4.000000,-5.000000,5.000000,-5.000000,8.000000,4.000000,-9.000000,1.000000
1303117.379272,1.000000,5.000000,16.000000,16.000000,14.000000,7.000000,-4.000000,-10.000000
1303117.409282,-1.000000,-3.000000,9.000000,25.000000,-13.000000,-7.000000,-2.000000,-11.000000
1303117.409294,7.000000,-2.000000,4.000000,-14.000000,0.000000,-1.000000,-1.000000,14.000000
1303117.409725,-10.000000,2.000000,35.000000,5.000000,-4.000000,-3.000000,-7.000000,-12.000000
1303117.409735,5.000000,1.000000,5.000000,-22.000000,-7.000000,-10.000000,-1.000000,-1.000000
1303117.410913,1.000000,-6.000000,7.000000,9.000000,-2.000000,-5.000000,-5.000000,-7.000000
1303117.410927,2.000000,-2.000000,-8.000000,-6.000000,0.000000,-3.000000,-9.000000,-4.000000
1303117.411433,4.000000,4.000000,-4.000000,8.000000,-1.000000,3.000000,2.000000,0.000000
1303117.411441,4.000000,2.000000,-15.000000,17.000000,8.000000,-12.000000,2.000000,4.000000
1303117.412980,-7.000000,-8.000000,10.000000,11.000000,8.000000,2.000000,-9.000000,-13.000000
1303117.412989,-7.000000,-2.000000,-20.000000,-29.000000,-12.000000,3.000000,-8.000000,0.000000
1303117.416724,-14.000000,-3.000000,14.000000,-12.000000,-4.000000,1.000000,-8.000000,-5.000000
1303117.416734,17.000000,1.000000,11.000000,-6.000000,-9.000000,-2.000000,8.000000,9.000000
1303117.432085,-1.000000,3.000000,0.000000,-7.000000,-2.000000,-4.000000,-14.000000,-14.000000
1303117.432118,-8.000000,0.000000,18.000000,-2.000000,1.000000,2.000000,10.000000,1.000000
1303117.446869,10.000000,1.000000,-8.000000,8.000000,0.000000,0.000000,5.000000,11.000000
1303117.446880,1.000000,6.000000,-21.000000,-14.000000,-11.000000,1.000000,0.000000,-7.000000
1303117.461753,-12.000000,0.000000,-2.000000,13.000000,5.000000,-2.000000,-3.000000,-3.000000
1303117.461784,4.000000,2.000000,20.000000,1.000000,3.000000,0.000000,-11.000000,-8.000000
1303117.491900,1.000000,5.000000,-24.000000,2.000000,-11.000000,-9.000000,-4.000000,-3.000000
1303117.491911,-6.000000,-4.000000,-27.000000,26.000000,18.000000,-3.000000,-3.000000,-3.000000
1303117.506722,-12.000000,3.000000,7.000000,-10.000000,2.000000,6.000000,17.000000,16.000000
1303117.506733,-9.000000,5.000000,-18.000000,-10.000000,-11.000000,-6.000000,-4.000000,-4.000000
1303117.522041,0.000000,-1.000000,-41.000000,-15.000000,-5.000000,-2.000000,7.000000,0.000000
1303117.522052,-13.000000,-8.000000,12.000000,22.000000,4.000000,-3.000000,-14.000000,-4.000000
1303117.522619,7.000000,-2.000000,-14.000000,-19.000000,-3.000000,-1.000000,-4.000000,-1.000000
1303117.522628,2.000000,-4.000000,-2.000000,-10.000000,0.000000,-4.000000,16.000000,6.000000
1303117.523915,-3.000000,-3.000000,11.000000,11.000000,1.000000,4.000000,-4.000000,2.000000
1303117.523966,-7.000000,1.000000,-12.000000,11.000000,-1.000000,3.000000,-1.000000,-2.000000
1303117.524625,12.000000,-1.000000,8.000000,6.000000,-5.000000,-10.000000,0.000000,-3.000000
1303117.524661,2.000000,3.000000,6.000000,12.000000,5.000000,5.000000,0.000000,-2.000000
1303117.525319,-12.000000,3.000000,6.000000,-33.000000,-9.000000,3.000000,-6.000000,-2.000000
1303117.525327,4.000000,-1.000000,-9.000000,-19.000000,-16.000000,-11.000000,4.000000,3.000000
1303117.528921,-21.000000,-6.000000,-24.000000,32.000000,16.000000,7.000000,4.000000,5.000000
1303117.528928,-1.000000,2.000000,6.000000,-7.000000,-6.000000,2.000000,5.000000,0.000000
1303117.544433,-6.000000,1.000000,-19.000000,-16.000000,-7.000000,-8.000000,-8.000000,1.000000
1303117.544446,-13.000000,-1.000000,-8.000000,1.000000,-3.000000,-8.000000,-11.000000,-18.000000
1303117.566569,8.000000,3.000000,9.000000,-5.000000,-5.000000,3.000000,-4.000000,-1.000000
1303117.566580,2.000000,-11.000000,23.000000,-17.000000,-7.000000,5.000000,26.000000,4.000000
1303117.589348,0.000000,0.000000,-21.000000,17.000000,7.000000,-3.000000,-3.000000,7.000000
1303117.589358,0.000000,-7.000000,19.000000,-13.000000,2.000000,3.000000,4.000000,2.000000
1303117.619188,-15.000000,-1.000000,2.000000,-17.000000,4.000000,3.000000,-13.000000,-7.000000
1303117.619217,12.000000,6.000000,10.000000,14.000000,1.000000,-6.000000,-6.000000,-1.000000
1303117.627518,-18.000000,-10.000000,-5.000000,4.000000,1.000000,-1.000000,10.000000,-5.000000
